SpectraSuite Data File
++++++++++++++++++++++++++++++++++++
Date: Tue May 12 16:52:16 PDT 2015
User: schluterlab
Dark Spectrum Present: Yes
Reference Spectrum Present: Yes
Number of Sampled Component Spectra: 1
Spectrometers: USB2E3373
Integration Time (usec): 3000 (USB2E3373)
Spectra Averaged: 3 (USB2E3373)
Boxcar Smoothing: 0 (USB2E3373)
Correct for Electrical Dark: No (USB2E3373)
Strobe/Lamp Enabled: No (USB2E3373)
Correct for Detector Non-linearity: No (USB2E3373)
Correct for Stray Light: No (USB2E3373)
Number of Pixels in Processed Spectrum: 2048
>>>>>Begin Processed Spectral Data<<<<<
178.53	0.000
178.91	-191.667
179.29	-525.000
179.67	-3200.000
180.04	-153.333
180.42	775.000
180.80	1400.000
181.18	0.000
181.56	-300.000
181.94	0.000
182.31	1066.667
182.69	-3400.000
183.07	685.714
183.45	-3200.000
183.83	-1850.000
184.20	350.000
184.58	642.857
184.96	-223.077
185.34	-241.667
185.72	1650.000
186.09	-725.000
186.47	-3400.000
186.85	1000.000
187.23	760.000
187.61	2150.000
187.98	600.000
188.36	250.000
188.74	350.000
189.12	391.667
189.49	975.000
189.87	0.000
190.25	475.000
190.63	2500.000
191.00	-208.333
191.38	-2800.000
191.76	-500.000
192.14	637.500
192.51	-2700.000
192.89	1750.000
193.27	1166.667
193.65	-1366.667
194.02	-740.000
194.40	657.143
194.78	-221.429
195.15	200.000
195.53	-3500.000
195.91	-640.000
196.29	4400.000
196.66	212.500
197.04	975.000
197.42	-1900.000
197.79	825.000
198.17	375.000
198.55	0.000
198.92	471.429
199.30	1033.333
199.68	2000.000
200.05	600.000
200.43	-533.333
200.81	205.556
201.18	3100.000
201.56	316.667
201.94	-750.000
202.31	-275.000
202.69	-440.000
203.07	3500.000
203.44	-516.667
203.82	383.333
204.19	700.000
204.57	-1900.000
204.95	-775.000
205.32	-760.000
205.70	483.333
206.08	850.000
206.45	-1066.667
206.83	377.778
207.20	210.526
207.58	233.333
207.96	700.000
208.33	0.000
208.71	542.857
209.08	560.000
209.46	-3000.000
209.84	-875.000
210.21	820.000
210.59	-540.000
210.96	325.000
211.34	-1175.000
211.71	418.182
212.09	1100.000
212.46	1600.000
212.84	-583.333
213.22	455.556
213.59	-2500.000
213.97	350.000
214.34	1050.000
214.72	1200.000
215.09	1233.333
215.47	-3000.000
215.84	-380.000
216.22	-425.000
216.59	0.000
216.97	0.000
217.34	2000.000
217.72	-1700.000
218.09	933.333
218.47	387.500
218.84	750.000
219.22	1133.333
219.59	1200.000
219.97	557.143
220.34	377.778
220.72	2250.000
221.09	2200.000
221.47	266.667
221.84	1066.667
222.22	340.000
222.59	261.111
222.97	214.286
223.34	200.000
223.72	-1450.000
224.09	1266.667
224.46	223.077
224.84	-975.000
225.21	455.556
225.59	266.667
225.96	1366.667
226.34	-780.000
226.71	-700.000
227.08	-660.000
227.46	0.000
227.83	-416.667
228.21	-1350.000
228.58	308.333
228.95	850.000
229.33	333.333
229.70	1200.000
230.08	346.154
230.45	3500.000
230.82	-1000.000
231.20	-766.667
231.57	-1133.333
231.95	620.000
232.32	233.333
232.69	400.000
233.07	291.667
233.44	-1650.000
233.81	253.333
234.19	177.778
234.56	175.000
234.93	182.353
235.31	180.000
235.68	293.750
236.05	171.429
236.43	125.926
236.80	200.000
237.17	151.724
237.55	93.750
237.92	107.500
238.29	115.152
238.67	143.750
239.04	104.878
239.41	64.583
239.79	80.000
240.16	72.917
240.53	67.213
240.91	76.812
241.28	81.356
241.65	59.091
242.02	70.423
242.40	64.286
242.77	50.549
243.14	40.506
243.51	59.596
243.89	49.533
244.26	45.794
244.63	49.505
245.00	50.459
245.38	36.441
245.75	39.394
246.12	43.704
246.49	36.879
246.87	37.705
247.24	40.000
247.61	40.625
247.98	33.333
248.36	30.909
248.73	37.755
249.10	27.381
249.47	30.000
249.84	30.846
250.22	29.730
250.59	28.000
250.96	29.536
251.33	29.767
251.70	29.911
252.08	31.513
252.45	25.498
252.82	25.856
253.19	25.296
253.56	23.846
253.94	28.986
254.31	24.419
254.68	26.132
255.05	26.552
255.42	22.628
255.79	26.710
256.16	25.085
256.54	24.675
256.91	22.549
257.28	24.080
257.65	19.749
258.02	22.419
258.39	25.788
258.76	25.217
259.14	19.143
259.51	22.449
259.88	21.277
260.25	20.055
260.62	18.904
260.99	18.457
261.36	23.120
261.73	21.809
262.10	22.513
262.47	18.250
262.85	21.067
263.22	21.337
263.59	20.972
263.96	23.810
264.33	20.988
264.70	19.165
265.07	19.756
265.44	22.248
265.81	21.934
266.18	22.883
266.55	21.040
266.92	20.805
267.29	18.421
267.66	19.731
268.03	18.610
268.40	20.507
268.77	20.705
269.14	19.306
269.51	18.931
269.88	17.959
270.25	17.063
270.62	18.884
270.99	20.081
271.36	20.122
271.73	18.868
272.10	17.172
272.47	18.849
272.84	16.766
273.21	20.041
273.58	18.219
273.95	18.275
274.32	18.872
274.69	21.654
275.06	20.219
275.43	17.241
275.80	16.415
276.17	18.015
276.54	17.944
276.91	18.097
277.28	17.336
277.65	19.188
278.02	19.669
278.39	17.626
278.76	18.793
279.13	16.548
279.50	18.000
279.87	16.015
280.23	18.600
280.60	18.066
280.97	16.724
281.34	18.647
281.71	17.217
282.08	17.265
282.45	17.230
282.82	17.559
283.19	17.647
283.56	15.041
283.92	17.915
284.29	16.972
284.66	17.143
285.03	17.247
285.40	17.686
285.77	14.969
286.14	16.873
286.51	17.791
286.87	16.930
287.24	17.117
287.61	15.653
287.98	18.806
288.35	18.667
288.72	16.995
289.08	18.468
289.45	16.921
289.82	19.063
290.19	16.398
290.56	18.195
290.93	15.971
291.29	18.508
291.66	16.667
292.03	16.971
292.40	18.022
292.77	18.245
293.13	17.689
293.50	17.274
293.87	15.176
294.24	18.601
294.60	17.227
294.97	18.462
295.34	18.592
295.71	18.265
296.08	19.467
296.44	17.662
296.81	17.618
297.18	16.603
297.55	18.842
297.91	16.502
298.28	20.169
298.65	18.528
299.02	18.456
299.38	18.585
299.75	19.146
300.12	19.266
300.48	19.906
300.85	19.190
301.22	20.000
301.59	18.042
301.95	18.786
302.32	19.907
302.69	18.552
303.05	20.090
303.42	19.619
303.79	19.068
304.15	20.792
304.52	20.507
304.89	20.682
305.25	19.577
305.62	21.002
305.99	21.087
306.35	21.474
306.72	22.268
307.09	21.739
307.45	22.175
307.82	21.296
308.19	22.371
308.55	21.700
308.92	23.160
309.29	23.866
309.65	22.498
310.02	24.341
310.38	23.131
310.75	22.565
311.12	23.180
311.48	24.228
311.85	24.523
312.22	25.215
312.58	24.490
312.95	25.631
313.31	25.281
313.68	26.079
314.05	26.099
314.41	25.233
314.78	27.462
315.14	28.626
315.51	27.625
315.87	27.920
316.24	28.291
316.61	28.111
316.97	28.349
317.34	29.739
317.70	30.290
318.07	31.228
318.43	30.492
318.80	31.874
319.16	31.206
319.53	32.743
319.89	32.616
320.26	34.171
320.62	33.059
320.99	33.460
321.35	33.859
321.72	35.958
322.08	35.088
322.45	36.512
322.81	37.328
323.18	37.034
323.54	37.021
323.91	39.710
324.27	39.788
324.64	39.879
325.00	39.741
325.37	40.472
325.73	40.894
326.10	41.176
326.46	42.279
326.83	42.320
327.19	42.329
327.56	42.891
327.92	44.836
328.29	45.908
328.65	45.805
329.01	46.279
329.38	46.193
329.74	44.577
330.11	45.873
330.47	46.121
330.84	45.729
331.20	45.854
331.56	47.841
331.93	48.161
332.29	46.003
332.66	46.599
333.02	46.821
333.38	48.080
333.75	47.540
334.11	47.315
334.48	47.436
334.84	48.226
335.20	47.733
335.57	47.439
335.93	47.014
336.29	46.434
336.66	48.628
337.02	46.707
337.38	47.034
337.75	48.649
338.11	47.173
338.47	47.841
338.84	47.841
339.20	46.667
339.56	46.930
339.93	46.990
340.29	46.807
340.65	48.449
341.02	47.627
341.38	46.880
341.74	48.505
342.11	46.661
342.47	48.072
342.83	48.728
343.20	47.696
343.56	45.592
343.92	47.729
344.28	47.289
344.65	48.085
345.01	47.698
345.37	44.631
345.73	46.587
346.10	46.693
346.46	48.405
346.82	46.836
347.19	47.063
347.55	46.526
347.91	46.677
348.27	47.405
348.63	47.310
349.00	47.068
349.36	49.105
349.72	49.235
350.08	47.516
350.45	46.535
350.81	47.018
351.17	46.302
351.53	47.113
351.89	46.076
352.26	46.485
352.62	47.134
352.98	47.699
353.34	47.149
353.70	46.560
354.07	46.615
354.43	45.929
354.79	45.634
355.15	48.086
355.51	47.281
355.87	47.741
356.24	47.729
356.60	45.890
356.96	46.323
357.32	46.873
357.68	47.797
358.04	47.340
358.40	46.402
358.77	46.957
359.13	47.447
359.49	46.256
359.85	48.399
360.21	46.360
360.57	45.474
360.93	47.114
361.29	47.691
361.66	47.502
362.02	45.668
362.38	47.475
362.74	47.488
363.10	47.686
363.46	46.340
363.82	47.475
364.18	46.799
364.54	47.783
364.90	47.122
365.26	47.606
365.62	47.238
365.98	47.350
366.35	47.172
366.71	48.369
367.07	47.782
367.43	46.810
367.79	47.340
368.15	45.794
368.51	47.898
368.87	47.486
369.23	46.847
369.59	47.808
369.95	47.692
370.31	46.064
370.67	46.981
371.03	48.249
371.39	47.230
371.75	47.802
372.11	47.519
372.47	47.192
372.83	47.791
373.19	47.087
373.55	47.148
373.91	46.202
374.27	47.222
374.63	47.322
374.99	47.372
375.35	47.715
375.71	46.174
376.07	47.149
376.42	45.844
376.78	49.326
377.14	47.182
377.50	46.629
377.86	47.726
378.22	48.202
378.58	47.579
378.94	46.711
379.30	47.483
379.66	47.863
380.02	46.510
380.38	46.838
380.74	47.751
381.09	48.364
381.45	46.705
381.81	46.809
382.17	47.192
382.53	46.191
382.89	46.541
383.25	46.536
383.61	46.282
383.97	46.611
384.32	47.860
384.68	47.534
385.04	47.597
385.40	47.390
385.76	46.109
386.12	47.372
386.48	47.477
386.83	46.699
387.19	45.878
387.55	45.406
387.91	47.055
388.27	47.412
388.62	46.890
388.98	44.606
389.34	46.520
389.70	46.639
390.06	46.037
390.42	46.700
390.77	46.929
391.13	46.168
391.49	45.433
391.85	46.400
392.20	45.709
392.56	45.520
392.92	45.705
393.28	45.235
393.64	45.126
393.99	45.940
394.35	44.320
394.71	45.115
395.07	44.526
395.42	45.199
395.78	46.700
396.14	45.241
396.50	44.043
396.85	44.756
397.21	45.427
397.57	45.487
397.92	43.847
398.28	44.622
398.64	44.270
399.00	43.880
399.35	43.478
399.71	44.426
400.07	44.292
400.42	44.299
400.78	43.754
401.14	44.568
401.49	44.240
401.85	44.322
402.21	44.054
402.57	44.225
402.92	43.818
403.28	41.587
403.63	42.790
403.99	43.064
404.35	43.200
404.70	44.300
405.06	42.448
405.42	43.028
405.77	43.440
406.13	42.245
406.49	41.899
406.84	41.794
407.20	42.409
407.55	43.877
407.91	43.714
408.27	42.996
408.62	42.578
408.98	42.637
409.34	41.496
409.69	42.813
410.05	43.411
410.40	42.403
410.76	41.500
411.11	42.062
411.47	41.975
411.83	41.125
412.18	41.969
412.54	41.862
412.89	41.121
413.25	42.360
413.60	41.822
413.96	42.490
414.31	42.444
414.67	41.837
415.03	42.401
415.38	42.334
415.74	41.693
416.09	42.161
416.45	42.922
416.80	42.784
417.16	42.393
417.51	41.720
417.87	41.740
418.22	41.738
418.58	42.038
418.93	42.594
419.29	42.267
419.64	41.429
420.00	42.900
420.35	42.044
420.71	40.782
421.06	41.672
421.42	41.566
421.77	41.644
422.12	42.613
422.48	40.935
422.83	41.016
423.19	41.577
423.54	41.635
423.90	42.978
424.25	42.267
424.61	41.962
424.96	41.841
425.31	41.544
425.67	42.985
426.02	42.344
426.38	43.116
426.73	42.394
427.09	43.179
427.44	42.206
427.79	42.367
428.15	43.901
428.50	43.371
428.85	43.680
429.21	42.572
429.56	42.223
429.92	43.809
430.27	42.912
430.62	42.242
430.98	42.265
431.33	41.835
431.68	41.778
432.04	42.266
432.39	42.975
432.74	43.677
433.10	44.518
433.45	43.079
433.80	44.291
434.16	42.722
434.51	43.911
434.86	43.495
435.22	43.652
435.57	44.221
435.92	44.565
436.28	44.700
436.63	44.300
436.98	44.820
437.34	44.007
437.69	44.121
438.04	43.871
438.39	44.775
438.75	44.265
439.10	44.091
439.45	43.414
439.81	44.824
440.16	44.689
440.51	43.975
440.86	43.305
441.22	44.372
441.57	44.304
441.92	44.176
442.27	43.351
442.63	43.953
442.98	44.181
443.33	44.456
443.68	44.266
444.03	45.099
444.39	44.256
444.74	44.203
445.09	45.445
445.44	45.377
445.79	44.201
446.15	45.263
446.50	44.831
446.85	45.070
447.20	44.129
447.55	46.166
447.91	46.191
448.26	45.101
448.61	46.103
448.96	46.296
449.31	45.930
449.66	46.124
450.02	44.895
450.37	45.641
450.72	46.997
451.07	45.841
451.42	46.177
451.77	46.163
452.12	45.718
452.47	46.355
452.83	46.423
453.18	45.886
453.53	47.602
453.88	46.743
454.23	47.472
454.58	46.678
454.93	46.413
455.28	46.818
455.63	47.281
455.98	45.854
456.34	47.599
456.69	47.439
457.04	46.539
457.39	47.200
457.74	47.128
458.09	45.368
458.44	46.221
458.79	45.464
459.14	46.863
459.49	46.886
459.84	46.196
460.19	45.876
460.54	47.123
460.89	46.855
461.24	44.788
461.59	47.789
461.94	47.104
462.29	48.169
462.64	47.864
462.99	46.705
463.34	47.310
463.69	47.308
464.04	47.035
464.39	47.396
464.74	45.897
465.09	46.721
465.44	47.116
465.79	46.598
466.14	44.462
466.49	45.795
466.84	45.596
467.19	46.339
467.54	46.787
467.89	47.594
468.24	47.829
468.59	46.726
468.94	47.886
469.29	48.076
469.64	47.138
469.99	47.558
470.34	47.502
470.68	47.931
471.03	48.366
471.38	48.609
471.73	48.334
472.08	49.250
472.43	48.665
472.78	48.335
473.13	47.434
473.48	47.738
473.83	47.350
474.17	48.146
474.52	47.749
474.87	47.584
475.22	47.744
475.57	47.114
475.92	47.062
476.27	47.715
476.61	47.346
476.96	48.067
477.31	48.843
477.66	48.953
478.01	48.221
478.36	47.889
478.70	47.146
479.05	47.960
479.40	47.669
479.75	48.560
480.10	48.693
480.45	46.592
480.79	47.235
481.14	47.599
481.49	47.027
481.84	46.746
482.19	47.948
482.53	45.982
482.88	46.998
483.23	47.091
483.58	48.384
483.92	47.623
484.27	47.432
484.62	47.581
484.97	46.474
485.31	46.250
485.66	44.017
486.01	43.434
486.36	42.644
486.70	42.183
487.05	42.802
487.40	43.756
487.75	44.139
488.09	44.148
488.44	45.092
488.79	45.609
489.13	46.547
489.48	47.463
489.83	47.039
490.17	46.573
490.52	47.804
490.87	46.724
491.22	48.227
491.56	47.431
491.91	47.177
492.26	48.597
492.60	48.474
492.95	47.802
493.30	47.452
493.64	48.023
493.99	47.674
494.34	47.781
494.68	48.074
495.03	47.777
495.37	48.987
495.72	48.858
496.07	48.203
496.41	47.176
496.76	47.573
497.11	47.301
497.45	47.698
497.80	48.100
498.14	49.838
498.49	48.654
498.84	49.486
499.18	47.395
499.53	48.461
499.87	48.293
500.22	49.286
500.56	48.747
500.91	48.933
501.26	49.334
501.60	49.089
501.95	48.835
502.29	49.200
502.64	47.419
502.98	47.621
503.33	48.196
503.67	47.770
504.02	48.634
504.36	48.009
504.71	49.953
505.06	49.836
505.40	49.368
505.75	49.626
506.09	50.023
506.44	49.295
506.78	49.622
507.13	49.443
507.47	48.423
507.82	50.706
508.16	51.053
508.51	49.517
508.85	49.668
509.19	50.759
509.54	49.561
509.88	50.522
510.23	49.755
510.57	48.986
510.92	50.749
511.26	50.904
511.61	49.483
511.95	50.772
512.30	50.500
512.64	50.415
512.98	50.846
513.33	51.178
513.67	51.528
514.02	49.558
514.36	50.831
514.70	52.000
515.05	51.039
515.39	52.522
515.74	52.870
516.08	51.961
516.42	54.153
516.77	51.467
517.11	52.587
517.46	50.916
517.80	52.540
518.14	54.423
518.49	52.922
518.83	50.989
519.17	52.302
519.52	52.157
519.86	53.243
520.20	52.767
520.55	52.289
520.89	52.989
521.23	54.673
521.58	52.037
521.92	53.353
522.26	53.851
522.61	54.486
522.95	54.655
523.29	52.749
523.64	52.486
523.98	53.638
524.32	52.537
524.66	52.696
525.01	53.846
525.35	52.799
525.69	54.425
526.04	53.896
526.38	53.679
526.72	53.640
527.06	53.519
527.41	54.837
527.75	53.743
528.09	52.739
528.43	54.240
528.78	53.906
529.12	55.268
529.46	53.302
529.80	53.329
530.15	52.799
530.49	53.430
530.83	53.748
531.17	53.567
531.51	52.912
531.86	53.986
532.20	52.843
532.54	54.426
532.88	54.154
533.22	53.931
533.57	54.118
533.91	53.380
534.25	52.972
534.59	52.105
534.93	53.072
535.27	51.793
535.62	52.509
535.96	52.069
536.30	54.784
536.64	53.168
536.98	53.933
537.32	52.938
537.66	53.763
538.01	53.313
538.35	53.400
538.69	51.881
539.03	53.545
539.37	53.216
539.71	53.086
540.05	52.738
540.39	53.208
540.73	53.418
541.07	52.635
541.42	52.799
541.76	53.822
542.10	53.453
542.44	52.369
542.78	52.234
543.12	52.515
543.46	51.504
543.80	52.694
544.14	53.746
544.48	53.285
544.82	52.661
545.16	52.398
545.50	52.428
545.84	52.778
546.18	53.966
546.52	54.426
546.86	53.578
547.20	54.134
547.54	52.628
547.88	52.798
548.22	52.763
548.56	51.738
548.90	51.661
549.24	52.811
549.58	53.544
549.92	53.766
550.26	53.820
550.60	53.293
550.94	54.274
551.28	54.966
551.62	54.621
551.96	54.054
552.30	52.406
552.64	54.434
552.98	52.513
553.32	53.265
553.66	52.248
554.00	54.054
554.34	55.726
554.68	54.099
555.02	54.582
555.36	54.455
555.69	54.581
556.03	52.930
556.37	53.537
556.71	54.498
557.05	53.670
557.39	54.333
557.73	54.650
558.07	54.728
558.41	55.586
558.75	53.830
559.08	55.969
559.42	55.906
559.76	54.383
560.10	54.233
560.44	54.015
560.78	55.179
561.12	54.863
561.45	53.004
561.79	52.684
562.13	53.948
562.47	55.289
562.81	54.392
563.15	54.816
563.48	52.236
563.82	53.150
564.16	53.420
564.50	52.743
564.84	53.191
565.17	52.406
565.51	53.879
565.85	54.966
566.19	53.155
566.52	52.166
566.86	53.006
567.20	52.472
567.54	52.402
567.88	52.008
568.21	50.674
568.55	50.535
568.89	50.228
569.23	48.965
569.56	49.281
569.90	47.107
570.24	46.882
570.57	46.009
570.91	46.147
571.25	45.285
571.59	44.416
571.92	44.941
572.26	44.636
572.60	44.626
572.93	45.428
573.27	45.175
573.61	44.586
573.95	43.974
574.28	44.111
574.62	44.108
574.96	43.513
575.29	43.582
575.63	43.439
575.97	43.695
576.30	44.267
576.64	43.688
576.98	43.487
577.31	44.121
577.65	43.524
577.98	42.909
578.32	42.482
578.66	43.274
578.99	42.899
579.33	43.843
579.67	43.526
580.00	43.476
580.34	43.675
580.67	43.826
581.01	44.437
581.35	43.431
581.68	42.929
582.02	42.397
582.35	42.346
582.69	43.009
583.02	43.100
583.36	43.683
583.70	43.994
584.03	45.091
584.37	44.775
584.70	44.613
585.04	43.564
585.37	43.417
585.71	44.112
586.04	43.658
586.38	44.266
586.72	44.891
587.05	44.699
587.39	45.057
587.72	44.401
588.06	44.177
588.39	44.831
588.73	44.811
589.06	45.142
589.40	45.915
589.73	46.149
590.07	46.843
590.40	47.247
590.73	47.411
591.07	47.704
591.40	47.665
591.74	47.849
592.07	47.047
592.41	47.602
592.74	46.796
593.08	46.159
593.41	45.601
593.75	45.447
594.08	45.889
594.41	45.455
594.75	45.993
595.08	46.879
595.42	46.379
595.75	46.397
596.09	47.028
596.42	46.358
596.75	48.237
597.09	48.040
597.42	47.878
597.75	47.789
598.09	47.435
598.42	46.838
598.76	46.145
599.09	47.665
599.42	46.332
599.76	45.692
600.09	45.288
600.42	46.340
600.76	45.989
601.09	46.358
601.42	46.568
601.76	46.796
602.09	47.020
602.42	46.580
602.76	46.338
603.09	47.700
603.42	46.862
603.76	46.565
604.09	46.363
604.42	46.893
604.76	47.847
605.09	47.837
605.42	46.932
605.75	46.151
606.09	47.093
606.42	47.313
606.75	45.705
607.09	47.059
607.42	47.087
607.75	47.014
608.08	46.344
608.42	47.819
608.75	47.540
609.08	47.690
609.41	49.273
609.75	48.810
610.08	48.336
610.41	48.836
610.74	47.965
611.07	48.795
611.41	49.259
611.74	49.474
612.07	48.988
612.40	49.025
612.73	50.275
613.07	49.569
613.40	50.376
613.73	49.376
614.06	49.400
614.39	50.657
614.72	48.769
615.06	48.912
615.39	49.109
615.72	49.129
616.05	49.623
616.38	48.250
616.71	50.950
617.05	50.522
617.38	50.337
617.71	51.012
618.04	50.421
618.37	49.583
618.70	50.751
619.03	51.893
619.36	52.827
619.69	51.715
620.03	53.816
620.36	51.638
620.69	53.704
621.02	53.329
621.35	52.937
621.68	53.982
622.01	54.982
622.34	53.387
622.67	54.143
623.00	52.485
623.33	52.969
623.66	52.562
623.99	53.151
624.32	52.778
624.65	53.390
624.99	53.955
625.32	52.238
625.65	52.621
625.98	51.534
626.31	55.638
626.64	53.303
626.97	55.471
627.30	55.280
627.63	56.750
627.96	54.147
628.29	56.601
628.62	55.945
628.95	58.954
629.28	59.422
629.61	56.503
629.94	56.266
630.26	56.066
630.59	59.309
630.92	57.937
631.25	59.021
631.58	60.077
631.91	58.611
632.24	57.240
632.57	58.939
632.90	60.041
633.23	60.336
633.56	60.274
633.89	61.415
634.22	60.926
634.55	60.215
634.88	61.008
635.20	61.435
635.53	61.789
635.86	61.521
636.19	60.606
636.52	59.784
636.85	59.331
637.18	61.213
637.51	59.330
637.83	60.412
638.16	62.485
638.49	62.036
638.82	62.676
639.15	61.105
639.48	63.270
639.81	61.172
640.13	63.926
640.46	63.085
640.79	61.508
641.12	62.336
641.45	63.777
641.77	63.937
642.10	64.123
642.43	66.145
642.76	62.642
643.09	64.121
643.41	65.778
643.74	67.050
644.07	67.994
644.40	65.680
644.73	65.616
645.05	65.676
645.38	66.003
645.71	66.920
646.04	66.260
646.36	68.388
646.69	66.400
647.02	66.880
647.35	64.252
647.67	67.909
648.00	67.101
648.33	64.361
648.66	68.182
648.98	64.348
649.31	61.673
649.64	62.932
649.96	61.024
650.29	62.286
650.62	64.801
650.94	65.211
651.27	67.624
651.60	65.102
651.92	65.745
652.25	67.717
652.58	61.986
652.90	64.222
653.23	64.254
653.56	62.611
653.88	61.968
654.21	63.196
654.54	61.347
654.86	63.717
655.19	60.818
655.52	50.341
655.84	38.709
656.17	43.478
656.49	61.838
656.82	69.405
657.15	55.103
657.47	41.653
657.80	30.937
658.13	24.972
658.45	34.205
658.78	40.459
659.10	41.840
659.43	42.253
659.75	45.881
660.08	47.118
660.41	51.361
660.73	59.598
661.06	60.811
661.38	67.802
661.71	64.568
662.03	67.681
662.36	65.333
662.68	65.736
663.01	66.847
663.33	66.981
663.66	70.414
663.98	69.841
664.31	68.470
664.63	67.625
664.96	68.668
665.28	64.030
665.61	67.736
665.93	64.717
666.26	67.850
666.58	68.440
666.91	67.375
667.23	68.876
667.56	67.762
667.88	68.880
668.21	70.082
668.53	69.153
668.86	68.737
669.18	69.043
669.50	66.736
669.83	70.637
670.15	67.983
670.48	66.211
670.80	68.924
671.13	67.928
671.45	68.136
671.77	66.976
672.10	66.607
672.42	59.868
672.75	59.968
673.07	60.890
673.39	60.224
673.72	63.149
674.04	62.007
674.37	64.065
674.69	64.870
675.01	63.993
675.34	66.473
675.66	67.773
675.98	67.653
676.31	67.800
676.63	63.419
676.95	67.460
677.28	65.517
677.60	65.191
677.92	63.095
678.25	66.473
678.57	63.501
678.89	64.919
679.22	62.868
679.54	63.167
679.86	63.002
680.18	60.633
680.51	59.204
680.83	58.446
681.15	60.312
681.48	60.590
681.80	59.895
682.12	61.419
682.44	61.081
682.77	60.320
683.09	61.942
683.41	65.510
683.73	62.402
684.06	62.698
684.38	63.760
684.70	62.050
685.02	60.764
685.34	61.268
685.67	59.164
685.99	59.442
686.31	57.781
686.63	58.699
686.96	57.190
687.28	57.718
687.60	58.020
687.92	59.464
688.24	61.207
688.56	59.786
688.89	60.612
689.21	60.308
689.53	63.636
689.85	65.650
690.17	60.000
690.49	63.508
690.82	64.496
691.14	62.020
691.46	64.682
691.78	62.573
692.10	61.260
692.42	54.991
692.74	58.721
693.06	59.884
693.39	60.277
693.71	62.475
694.03	63.314
694.35	63.655
694.67	59.674
694.99	63.193
695.31	62.838
695.63	62.670
695.95	64.027
696.27	64.602
696.59	63.007
696.91	60.000
697.23	62.670
697.56	62.656
697.88	56.287
698.20	58.113
698.52	57.588
698.84	61.807
699.16	60.768
699.48	61.017
699.80	62.092
700.12	62.818
700.44	62.150
700.76	61.814
701.08	63.446
701.40	60.779
701.72	68.717
702.04	67.209
702.36	66.398
702.68	68.617
703.00	62.155
703.32	63.027
703.64	63.476
703.96	64.062
704.28	62.963
704.60	67.042
704.91	68.067
705.23	62.500
705.55	66.766
705.87	66.984
706.19	65.517
706.51	71.787
706.83	64.897
707.15	64.706
707.47	60.533
707.79	60.920
708.11	56.236
708.43	60.449
708.74	54.977
709.06	60.698
709.38	61.290
709.70	61.035
710.02	61.957
710.34	62.983
710.66	61.111
710.98	60.929
711.29	61.838
711.61	63.788
711.93	61.702
712.25	65.361
712.57	65.273
712.89	68.485
713.20	65.176
713.52	67.290
713.84	61.934
714.16	60.580
714.48	61.095
714.80	59.079
715.11	57.713
715.43	63.128
715.75	63.380
716.07	60.694
716.39	63.143
716.70	61.994
717.02	71.044
717.34	71.223
717.66	69.097
717.97	76.894
718.29	69.014
718.61	61.149
718.93	67.128
719.24	69.463
719.56	62.069
719.88	62.420
720.20	60.645
720.51	66.013
720.83	61.204
721.15	67.007
721.46	72.260
721.78	66.202
722.10	66.667
722.42	68.227
722.73	61.733
723.05	67.719
723.37	68.551
723.68	66.797
724.00	69.318
724.32	69.202
724.63	65.769
724.95	59.608
725.27	69.517
725.58	66.912
725.90	62.324
726.22	64.726
726.53	64.548
726.85	63.192
727.16	62.752
727.48	59.468
727.80	63.669
728.11	63.929
728.43	64.130
728.74	60.490
729.06	59.140
729.38	65.614
729.69	63.333
730.01	59.539
730.32	62.752
730.64	62.126
730.96	59.459
731.27	54.434
731.59	54.023
731.90	55.710
732.22	58.286
732.53	53.276
732.85	57.895
733.16	54.518
733.48	57.367
733.80	59.130
734.11	59.509
734.43	57.018
734.74	53.083
735.06	55.820
735.37	52.577
735.69	53.043
736.00	57.492
736.32	53.939
736.63	57.413
736.95	56.832
737.26	54.268
737.58	57.055
737.89	53.012
738.21	57.947
738.52	57.860
738.83	62.637
739.15	59.233
739.46	58.621
739.78	58.844
740.09	56.560
740.41	57.669
740.72	58.413
741.04	61.189
741.35	62.500
741.66	60.474
741.98	64.378
742.29	68.981
742.61	62.389
742.92	65.254
743.23	63.600
743.55	58.868
743.86	64.314
744.18	64.831
744.49	62.397
744.80	64.055
745.12	68.750
745.43	66.822
745.74	70.222
746.06	66.228
746.37	64.651
746.68	66.372
747.00	64.126
747.31	64.286
747.62	59.016
747.94	65.665
748.25	61.089
748.56	66.102
748.88	66.964
749.19	65.581
749.50	66.667
749.82	63.374
750.13	60.474
750.44	53.667
750.75	57.383
751.07	57.895
751.38	53.795
751.69	56.566
752.01	55.594
752.32	52.824
752.63	55.705
752.94	58.042
753.26	58.594
753.57	60.700
753.88	55.056
754.19	58.845
754.51	58.140
754.82	58.054
755.13	55.068
755.44	58.519
755.75	56.014
756.07	59.247
756.38	53.595
756.69	55.000
757.00	51.039
757.31	51.268
757.63	48.485
757.94	50.000
758.25	47.343
758.56	49.657
758.87	50.376
759.18	52.616
759.50	54.711
759.81	55.193
760.12	49.157
760.43	49.020
760.74	48.608
761.05	51.724
761.36	50.521
761.67	47.709
761.99	51.268
762.30	50.804
762.61	50.347
762.92	58.333
763.23	58.113
763.54	56.154
763.85	54.475
764.16	53.472
764.47	48.311
764.78	50.163
765.10	46.646
765.41	46.023
765.72	49.448
766.03	49.547
766.34	50.523
766.65	56.654
766.96	59.109
767.27	64.019
767.58	62.376
767.89	66.298
768.20	68.293
768.51	61.735
768.82	59.211
769.13	52.941
769.44	50.000
769.75	49.438
770.06	52.101
770.37	53.947
770.68	53.333
770.99	59.746
771.30	56.067
771.61	53.462
771.92	56.107
772.23	50.806
772.54	58.222
772.85	61.881
773.16	59.783
773.47	58.333
773.78	63.366
774.09	68.750
774.39	67.879
774.70	57.647
775.01	63.816
775.32	64.596
775.63	71.233
775.94	76.543
776.25	65.517
776.56	71.756
776.87	76.336
777.18	71.212
777.48	71.654
777.79	69.231
778.10	67.424
778.41	77.612
778.72	73.684
779.03	69.231
779.34	63.514
779.65	62.112
779.95	66.460
780.26	54.762
780.57	77.551
780.88	70.213
781.19	78.333
781.50	64.497
781.80	57.923
782.11	51.323
782.42	58.046
782.73	57.062
783.04	59.355
783.34	74.419
783.65	57.823
783.96	61.935
784.27	54.967
784.57	60.526
784.88	62.319
785.19	70.833
785.50	68.966
785.81	68.217
786.11	68.148
786.42	69.291
786.73	73.874
787.04	70.755
787.34	62.602
787.65	71.970
787.96	71.970
788.26	78.740
788.57	72.263
788.88	59.155
789.19	67.939
789.49	60.811
789.80	59.375
790.11	73.554
790.41	65.741
790.72	65.741
791.03	75.962
791.33	78.788
791.64	71.579
791.95	64.211
792.25	73.958
792.56	77.000
792.87	89.024
793.17	85.227
793.48	77.647
793.79	86.207
794.09	73.864
794.40	80.172
794.70	57.937
795.01	65.385
795.32	65.649
795.62	63.248
795.93	68.067
796.23	64.228
796.54	73.469
796.85	75.000
797.15	98.701
797.46	87.805
797.76	76.250
798.07	97.333
798.37	81.250
798.68	92.500
798.99	101.220
799.29	90.667
799.60	60.465
799.90	97.368
800.21	90.909
800.51	76.056
800.82	93.103
801.12	96.923
801.43	89.333
801.73	86.207
802.04	87.013
802.34	87.671
802.65	103.922
802.95	102.174
803.26	108.065
803.56	116.667
803.87	92.537
804.17	95.238
804.48	103.774
804.78	91.667
805.09	106.061
805.39	100.000
805.70	105.263
806.00	87.143
806.30	96.875
806.61	74.118
806.91	74.444
807.22	70.652
807.52	72.368
807.83	89.474
808.13	86.957
808.43	96.774
808.74	86.301
809.04	108.929
809.35	88.235
809.65	98.485
809.95	137.255
810.26	120.370
810.56	107.813
810.86	104.082
811.17	115.789
811.47	97.826
811.77	87.931
812.08	86.207
812.38	104.762
812.69	109.524
812.99	95.556
813.29	117.143
813.59	141.935
813.90	84.483
814.20	103.279
814.50	114.000
814.81	101.754
815.11	120.370
815.41	92.857
815.72	112.500
816.02	100.000
816.32	121.951
816.62	98.276
816.93	148.485
817.23	117.073
817.53	116.071
817.84	111.111
818.14	111.905
818.44	125.000
818.74	109.434
819.04	115.385
819.35	160.606
819.65	128.846
819.95	112.963
820.25	123.404
820.56	132.432
820.86	134.211
821.16	97.872
821.46	144.737
821.76	98.182
822.07	78.571
822.37	113.158
822.67	132.558
822.97	118.421
823.27	134.783
823.57	128.125
823.88	130.769
824.18	115.152
824.48	169.565
824.78	125.000
825.08	178.261
825.38	162.069
825.69	144.118
825.99	108.511
826.29	116.667
826.59	160.000
826.89	173.333
827.19	137.143
827.49	170.968
827.79	173.077
828.09	102.381
828.39	111.111
828.70	127.027
829.00	178.571
829.30	250.000
829.60	141.667
829.90	174.194
830.20	121.212
830.50	148.649
830.80	162.500
831.10	184.615
831.40	176.190
831.70	170.833
832.00	143.333
832.30	165.217
832.60	175.000
832.90	172.727
833.20	175.000
833.50	157.895
833.80	117.647
834.10	121.053
834.40	147.368
834.70	126.667
835.00	188.000
835.30	89.189
835.60	140.625
835.90	132.432
836.20	200.000
836.50	159.091
836.80	117.073
837.10	186.957
837.40	330.769
837.70	247.368
838.00	193.333
838.30	204.167
838.60	188.000
838.90	380.000
839.19	243.750
839.49	146.667
839.79	168.966
840.09	192.308
840.39	240.000
840.69	210.526
840.99	180.952
841.29	182.609
841.59	220.000
841.88	224.000
842.18	444.444
842.48	167.857
842.78	181.481
843.08	269.231
843.38	186.364
843.68	235.714
843.97	585.714
844.27	169.565
844.57	1600.000
844.87	328.571
845.17	205.556
845.47	161.905
845.76	200.000
846.06	600.000
846.36	188.235
846.66	284.615
846.96	312.500
847.25	261.538
847.55	184.211
847.85	244.444
848.15	460.000
848.44	354.545
848.74	185.714
849.04	204.167
849.34	194.118
849.63	312.500
849.93	250.000
850.23	1500.000
850.53	450.000
850.82	381.818
851.12	258.824
851.42	225.000
851.71	218.750
852.01	0.000
852.31	229.412
852.61	480.000
852.90	154.167
853.20	455.556
853.50	-2900.000
853.79	152.000
854.09	153.125
854.39	155.172
854.68	175.862
854.98	238.095
855.28	138.710
855.57	300.000
855.87	205.556
856.17	148.148
856.46	205.263
856.76	129.032
857.05	270.588
857.35	354.545
857.65	384.615
857.94	195.000
858.24	466.667
858.53	335.714
858.83	514.286
859.13	186.957
859.42	288.889
859.72	375.000
860.01	266.667
860.31	1000.000
860.60	420.000
860.90	450.000
861.20	300.000
861.49	371.429
861.79	-3500.000
862.08	557.143
862.38	422.222
862.67	235.714
862.97	440.000
863.26	156.667
863.56	1000.000
863.85	369.231
864.15	294.118
864.44	261.111
864.74	300.000
865.03	372.727
865.33	462.500
865.62	253.333
865.92	616.667
866.21	900.000
866.51	700.000
866.80	205.556
867.10	1300.000
867.39	3400.000
867.69	620.000
867.98	750.000
868.27	185.714
868.57	266.667
868.86	1025.000
869.16	161.905
869.45	2700.000
869.75	-566.667
870.04	575.000
870.33	660.000
870.63	412.500
870.92	229.412
871.22	775.000
871.51	557.143
871.80	391.667
872.10	376.923
>>>>>End Processed Spectral Data<<<<<
