SpectraSuite Data File
++++++++++++++++++++++++++++++++++++
Date: Tue May 12 17:13:04 PDT 2015
User: schluterlab
Dark Spectrum Present: Yes
Reference Spectrum Present: Yes
Number of Sampled Component Spectra: 1
Spectrometers: USB2E3373
Integration Time (usec): 3000 (USB2E3373)
Spectra Averaged: 3 (USB2E3373)
Boxcar Smoothing: 0 (USB2E3373)
Correct for Electrical Dark: No (USB2E3373)
Strobe/Lamp Enabled: No (USB2E3373)
Correct for Detector Non-linearity: No (USB2E3373)
Correct for Stray Light: No (USB2E3373)
Number of Pixels in Processed Spectrum: 2048
>>>>>Begin Processed Spectral Data<<<<<
178.53	0.000
178.91	-150.000
179.29	-700.000
179.67	-3500.000
180.04	-100.000
180.42	525.000
180.80	1400.000
181.18	0.000
181.56	-325.000
181.94	0.000
182.31	933.333
182.69	-3000.000
183.07	514.286
183.45	-3000.000
183.83	-1750.000
184.20	330.000
184.58	314.286
184.96	-215.385
185.34	-200.000
185.72	1550.000
186.09	-725.000
186.47	-2300.000
186.85	833.333
187.23	640.000
187.61	2000.000
187.98	512.500
188.36	242.857
188.74	350.000
189.12	341.667
189.49	975.000
189.87	0.000
190.25	512.500
190.63	2400.000
191.00	-166.667
191.38	-3700.000
191.76	-550.000
192.14	412.500
192.51	-2700.000
192.89	1650.000
193.27	1166.667
193.65	-900.000
194.02	-500.000
194.40	471.429
194.78	-178.571
195.15	300.000
195.53	-2500.000
195.91	-480.000
196.29	3200.000
196.66	193.750
197.04	675.000
197.42	-1300.000
197.79	450.000
198.17	283.333
198.55	0.000
198.92	528.571
199.30	1000.000
199.68	1850.000
200.05	633.333
200.43	-316.667
200.81	233.333
201.18	3800.000
201.56	308.333
201.94	-650.000
202.31	-212.500
202.69	-420.000
203.07	3400.000
203.44	-566.667
203.82	333.333
204.19	680.000
204.57	-1050.000
204.95	-725.000
205.32	-600.000
205.70	450.000
206.08	725.000
206.45	-800.000
206.83	355.556
207.20	178.947
207.58	258.333
207.96	560.000
208.33	0.000
208.71	457.143
209.08	820.000
209.46	-2700.000
209.84	-800.000
210.21	700.000
210.59	-520.000
210.96	350.000
211.34	-1025.000
211.71	400.000
212.09	950.000
212.46	1300.000
212.84	-300.000
213.22	466.667
213.59	-2800.000
213.97	290.000
214.34	950.000
214.72	1100.000
215.09	1000.000
215.47	-2700.000
215.84	-380.000
216.22	-387.500
216.59	0.000
216.97	0.000
217.34	1350.000
217.72	-1650.000
218.09	1133.333
218.47	325.000
218.84	750.000
219.22	1266.667
219.59	1266.667
219.97	514.286
220.34	366.667
220.72	1500.000
221.09	3100.000
221.47	283.333
221.84	933.333
222.22	290.000
222.59	250.000
222.97	214.286
223.34	243.750
223.72	-1250.000
224.09	1366.667
224.46	253.846
224.84	-575.000
225.21	322.222
225.59	186.667
225.96	1400.000
226.34	-640.000
226.71	-700.000
227.08	-460.000
227.46	0.000
227.83	-466.667
228.21	-1250.000
228.58	366.667
228.95	975.000
229.33	333.333
229.70	1000.000
230.08	346.154
230.45	3000.000
230.82	-800.000
231.20	-866.667
231.57	-1266.667
231.95	680.000
232.32	333.333
232.69	483.333
233.07	241.667
233.44	-1550.000
233.81	206.667
234.19	133.333
234.56	206.250
234.93	164.706
235.31	170.000
235.68	275.000
236.05	146.429
236.43	148.148
236.80	250.000
237.17	144.828
237.55	112.500
237.92	100.000
238.29	118.182
238.67	115.625
239.04	129.268
239.41	66.667
239.79	80.000
240.16	70.833
240.53	75.410
240.91	60.870
241.28	84.746
241.65	62.121
242.02	74.648
242.40	72.857
242.77	56.044
243.14	49.367
243.51	57.576
243.89	61.682
244.26	42.991
244.63	47.525
245.00	47.706
245.38	37.288
245.75	46.212
246.12	54.074
246.49	43.972
246.87	35.246
247.24	39.333
247.61	44.375
247.98	41.497
248.36	39.394
248.73	42.347
249.10	36.905
249.47	37.000
249.84	34.328
250.22	36.216
250.59	35.000
250.96	35.021
251.33	28.837
251.70	37.500
252.08	37.395
252.45	33.068
252.82	28.517
253.19	26.087
253.56	27.308
253.94	30.072
254.31	31.008
254.68	26.481
255.05	30.345
255.42	35.401
255.79	34.853
256.16	29.492
256.54	30.844
256.91	31.046
257.28	32.107
257.65	25.705
258.02	27.729
258.39	28.653
258.76	30.725
259.14	25.429
259.51	30.029
259.88	30.699
260.25	26.099
260.62	27.945
260.99	25.620
261.36	27.019
261.73	27.660
262.10	27.225
262.47	28.250
262.85	25.867
263.22	28.021
263.59	26.854
263.96	27.068
264.33	25.926
264.70	26.044
265.07	26.829
265.44	26.376
265.81	26.415
266.18	23.341
266.55	29.314
266.92	25.503
267.29	29.167
267.66	27.578
268.03	23.094
268.40	21.987
268.77	23.789
269.14	21.909
269.51	23.608
269.88	25.918
270.25	23.542
270.62	28.112
270.99	27.992
271.36	23.780
271.73	23.480
272.10	22.424
272.47	23.611
272.84	23.154
273.21	23.760
273.58	24.089
273.95	25.051
274.32	23.735
274.69	24.213
275.06	24.772
275.43	23.946
275.80	23.774
276.17	24.449
276.54	24.486
276.91	24.067
277.28	22.993
277.65	23.801
278.02	25.919
278.39	25.360
278.76	23.966
279.13	23.488
279.50	23.636
279.87	21.415
280.23	19.705
280.60	23.723
280.97	23.448
281.34	22.607
281.71	24.348
282.08	23.932
282.45	22.297
282.82	22.241
283.19	23.688
283.56	23.636
283.92	22.313
284.29	23.295
284.66	23.866
285.03	22.554
285.40	22.314
285.77	21.451
286.14	21.981
286.51	23.006
286.87	21.044
287.24	20.420
287.61	21.733
287.98	22.537
288.35	21.333
288.72	21.548
289.08	22.222
289.45	21.341
289.82	24.219
290.19	20.937
290.56	23.581
290.93	22.590
291.29	21.547
291.66	20.621
292.03	21.178
292.40	20.732
292.77	22.006
293.13	20.685
293.50	21.188
293.87	19.648
294.24	20.979
294.60	21.938
294.97	22.378
295.34	21.912
295.71	21.025
296.08	22.400
296.44	22.363
296.81	19.355
297.18	21.166
297.55	22.167
297.91	18.966
298.28	21.981
298.65	21.472
299.02	20.627
299.38	22.302
299.75	20.488
300.12	21.674
300.48	21.194
300.85	21.931
301.22	20.930
301.59	21.226
301.95	19.603
302.32	21.420
302.69	21.833
303.05	22.671
303.42	20.628
303.79	21.235
304.15	22.112
304.52	21.036
304.89	21.642
305.25	22.581
305.62	21.535
305.99	21.522
306.35	22.105
306.72	23.101
307.09	22.671
307.45	22.386
307.82	22.119
308.19	22.680
308.55	22.800
308.92	22.080
309.29	24.655
309.65	23.984
310.02	24.341
310.38	22.134
310.75	23.915
311.12	23.467
311.48	24.903
311.85	23.473
312.22	23.018
312.58	23.518
312.95	23.689
313.31	23.876
313.68	24.953
314.05	26.190
314.41	24.860
314.78	23.580
315.14	25.687
315.51	25.260
315.87	25.912
316.24	26.050
316.61	25.873
316.97	24.220
317.34	26.235
317.70	26.514
318.07	27.936
318.43	27.153
318.80	25.657
319.16	27.622
319.53	26.903
319.89	27.778
320.26	29.050
320.62	28.938
320.99	28.408
321.35	29.035
321.72	29.507
322.08	29.363
322.45	29.155
322.81	29.918
323.18	30.107
323.54	31.272
323.91	31.460
324.27	33.245
324.64	31.401
325.00	33.017
325.37	32.378
325.73	33.980
326.10	34.134
326.46	33.443
326.83	33.120
327.19	33.976
327.56	34.026
327.92	35.000
328.29	34.779
328.65	35.616
329.01	35.500
329.38	35.448
329.74	34.330
330.11	35.013
330.47	35.635
330.84	35.375
331.20	34.856
331.56	36.183
331.93	34.474
332.29	35.459
332.66	35.034
333.02	35.223
333.38	36.038
333.75	36.280
334.11	36.158
334.48	35.812
334.84	34.966
335.20	35.158
335.57	35.181
335.93	35.324
336.29	35.987
336.66	37.136
337.02	34.816
337.38	34.910
337.75	35.473
338.11	35.443
338.47	35.394
338.84	35.394
339.20	35.584
339.56	36.333
339.93	35.619
340.29	33.109
340.65	35.457
341.02	36.605
341.38	34.729
341.74	35.299
342.11	34.474
342.47	35.603
342.83	35.931
343.20	35.004
343.56	34.234
343.92	35.343
344.28	36.124
344.65	35.941
345.01	34.524
345.37	34.696
345.73	34.603
346.10	35.777
346.46	35.247
346.82	33.333
347.19	36.940
347.55	34.114
347.91	34.215
348.27	35.089
348.63	34.731
349.00	34.577
349.36	35.720
349.72	35.245
350.08	34.938
350.45	36.329
350.81	35.015
351.17	33.436
351.53	35.720
351.89	35.975
352.26	35.147
352.62	34.992
352.98	34.509
353.34	35.208
353.70	35.321
354.07	36.462
354.43	35.484
354.79	34.169
355.15	34.992
355.51	33.988
355.87	35.316
356.24	35.181
356.60	34.627
356.96	35.557
357.32	33.459
357.68	35.242
358.04	36.018
358.40	35.982
358.77	35.687
359.13	34.159
359.49	35.730
359.85	35.666
360.21	34.101
360.57	34.818
360.93	35.426
361.29	35.931
361.66	35.347
362.02	34.801
362.38	36.508
362.74	35.173
363.10	35.624
363.46	34.599
363.82	36.325
364.18	36.344
364.54	36.695
364.90	35.944
365.26	36.502
365.62	35.635
365.98	34.618
366.35	35.310
366.71	36.988
367.07	35.495
367.43	35.863
367.79	35.572
368.15	35.414
368.51	36.182
368.87	34.171
369.23	36.244
369.59	35.536
369.95	36.154
370.31	34.702
370.67	35.739
371.03	36.625
371.39	35.873
371.75	36.078
372.11	35.622
372.47	35.890
372.83	36.438
373.19	36.326
373.55	35.258
373.91	35.566
374.27	36.706
374.63	35.661
374.99	35.445
375.35	34.812
375.71	35.554
376.07	35.809
376.42	35.358
376.78	37.829
377.14	36.042
377.50	35.268
377.86	36.131
378.22	36.258
378.58	36.259
378.94	36.270
379.30	34.870
379.66	36.424
380.02	36.774
380.38	35.187
380.74	35.121
381.09	35.631
381.45	34.740
381.81	35.816
382.17	34.982
382.53	35.513
382.89	35.955
383.25	35.820
383.61	35.331
383.97	34.793
384.32	35.805
384.68	36.126
385.04	35.580
385.40	36.121
385.76	35.108
386.12	36.673
386.48	34.772
386.83	35.819
387.19	35.689
387.55	34.629
387.91	35.739
388.27	35.574
388.62	34.800
388.98	35.160
389.34	35.336
389.70	34.729
390.06	35.732
390.42	35.163
390.77	35.319
391.13	34.581
391.49	33.696
391.85	36.185
392.20	34.684
392.56	34.827
392.92	33.745
393.28	33.688
393.64	34.289
393.99	34.618
394.35	34.903
394.71	33.052
395.07	33.455
395.42	33.958
395.78	34.176
396.14	33.795
396.50	34.597
396.85	32.683
397.21	33.454
397.57	34.011
397.92	32.062
398.28	32.543
398.64	33.217
399.00	32.870
399.35	32.797
399.71	32.450
400.07	32.534
400.42	32.299
400.78	32.903
401.14	33.118
401.49	32.834
401.85	32.966
402.21	32.045
402.57	32.974
402.92	33.152
403.28	32.578
403.63	32.372
403.99	32.027
404.35	32.708
404.70	32.369
405.06	31.668
405.42	31.718
405.77	31.422
406.13	31.508
406.49	31.495
406.84	31.585
407.20	32.363
407.55	31.077
407.91	31.525
408.27	32.201
408.62	31.520
408.98	31.520
409.34	30.275
409.69	30.616
410.05	31.067
410.40	30.860
410.76	30.395
411.11	31.754
411.47	30.926
411.83	30.346
412.18	32.005
412.54	29.850
412.89	29.853
413.25	31.414
413.60	31.659
413.96	30.042
414.31	30.992
414.67	31.719
415.03	30.651
415.38	31.167
415.74	31.143
416.09	31.855
416.45	32.321
416.80	31.559
417.16	30.299
417.51	32.102
417.87	31.602
418.22	31.045
418.58	33.312
418.93	30.934
419.29	30.807
419.64	32.647
420.00	32.399
420.35	32.520
420.71	32.439
421.06	30.959
421.42	32.297
421.77	32.982
422.12	32.359
422.48	31.947
422.83	32.254
423.19	32.505
423.54	32.200
423.90	33.069
424.25	32.526
424.61	33.836
424.96	32.693
425.31	33.388
425.67	34.400
426.02	33.763
426.38	32.905
426.73	34.529
427.09	35.291
427.44	34.271
427.79	34.248
428.15	34.944
428.50	35.200
428.85	34.509
429.21	35.386
429.56	33.948
429.92	34.659
430.27	34.930
430.62	33.872
430.98	33.583
431.33	34.476
431.68	33.778
432.04	34.972
432.39	34.962
432.74	36.651
433.10	35.825
433.45	36.071
433.80	36.624
434.16	35.943
434.51	36.223
434.86	37.017
435.22	36.683
435.57	36.455
435.92	36.938
436.28	36.982
436.63	37.601
436.98	37.275
437.34	36.815
437.69	35.610
438.04	37.419
438.39	37.361
438.75	38.196
439.10	36.913
439.45	36.518
439.81	37.941
440.16	37.314
440.51	36.486
440.86	38.803
441.22	37.229
441.57	37.743
441.92	37.759
442.27	37.732
442.63	37.500
442.98	37.662
443.33	38.457
443.68	37.827
444.03	37.559
444.39	37.994
444.74	36.957
445.09	38.757
445.44	39.001
445.79	36.793
446.15	38.105
446.50	38.344
446.85	38.446
447.20	36.816
447.55	37.792
447.91	38.625
448.26	38.285
448.61	39.580
448.96	39.379
449.31	38.944
449.66	39.535
450.02	37.871
450.37	39.645
450.72	39.063
451.07	39.732
451.42	38.767
451.77	39.462
452.12	38.117
452.47	39.611
452.83	39.099
453.18	38.859
453.53	39.432
453.88	39.714
454.23	39.570
454.58	39.161
454.93	37.707
455.28	39.106
455.63	39.657
455.98	39.538
456.34	40.000
456.69	38.415
457.04	39.737
457.39	40.743
457.74	40.935
458.09	38.911
458.44	40.033
458.79	39.947
459.14	39.553
459.49	39.241
459.84	40.380
460.19	38.701
460.54	40.057
460.89	39.606
461.24	39.290
461.59	39.853
461.94	39.421
462.29	39.245
462.64	40.075
462.99	38.900
463.34	39.598
463.69	39.927
464.04	39.666
464.39	39.954
464.74	39.742
465.09	39.350
465.44	39.391
465.79	39.249
466.14	38.951
466.49	39.447
466.84	39.130
467.19	39.660
467.54	39.159
467.89	39.730
468.24	39.780
468.59	39.524
468.94	40.338
469.29	40.318
469.64	41.029
469.99	40.938
470.34	40.101
470.68	41.172
471.03	41.294
471.38	40.530
471.73	40.431
472.08	41.813
472.43	40.596
472.78	39.693
473.13	39.487
473.48	40.342
473.83	41.166
474.17	41.520
474.52	41.173
474.87	38.658
475.22	39.235
475.57	40.399
475.92	39.499
476.27	39.282
476.61	39.625
476.96	38.924
477.31	40.463
477.66	41.600
478.01	40.743
478.36	39.238
478.70	39.107
479.05	40.010
479.40	39.732
479.75	40.318
480.10	39.690
480.45	39.683
480.79	39.217
481.14	38.659
481.49	38.381
481.84	38.962
482.19	38.821
482.53	38.955
482.88	38.934
483.23	39.287
483.58	38.734
483.92	40.219
484.27	38.527
484.62	39.686
484.97	37.826
485.31	37.042
485.66	35.556
486.01	34.412
486.36	34.271
486.70	34.029
487.05	34.904
487.40	35.636
487.75	36.203
488.09	36.307
488.44	37.030
488.79	37.001
489.13	38.447
489.48	38.154
489.83	38.282
490.17	37.614
490.52	38.889
490.87	38.233
491.22	39.539
491.56	39.087
491.91	38.665
492.26	38.708
492.60	39.089
492.95	39.058
493.30	38.854
493.64	39.443
493.99	39.714
494.34	38.861
494.68	39.354
495.03	39.380
495.37	39.487
495.72	39.114
496.07	39.757
496.41	39.010
496.76	37.991
497.11	39.246
497.45	38.799
497.80	39.666
498.14	39.760
498.49	38.765
498.84	40.748
499.18	38.208
499.53	39.366
499.87	39.084
500.22	38.692
500.56	39.136
500.91	39.193
501.26	40.055
501.60	38.115
501.95	37.858
502.29	38.711
502.64	37.803
502.98	38.506
503.33	38.174
503.67	38.587
504.02	39.051
504.36	37.828
504.71	39.830
505.06	38.573
505.40	38.699
505.75	39.289
506.09	39.431
506.44	39.004
506.78	39.178
507.13	38.924
507.47	39.544
507.82	39.124
508.16	39.882
508.51	38.889
508.85	38.841
509.19	39.256
509.54	39.551
509.88	40.229
510.23	38.824
510.57	38.803
510.92	39.610
511.26	39.659
511.61	39.291
511.95	39.771
512.30	39.250
512.64	39.668
512.98	40.492
513.33	39.703
513.67	39.461
514.02	40.156
514.36	39.616
514.70	40.533
515.05	39.318
515.39	40.406
515.74	40.405
516.08	40.142
516.42	41.421
516.77	39.893
517.11	40.107
517.46	39.386
517.80	39.650
518.14	39.887
518.49	40.187
518.83	39.780
519.17	39.490
519.52	40.634
519.86	39.455
520.20	39.507
520.55	41.097
520.89	39.885
521.23	41.355
521.58	40.562
521.92	39.942
522.26	40.225
522.61	41.176
522.95	40.480
523.29	41.345
523.64	39.017
523.98	40.200
524.32	39.562
524.66	39.362
525.01	41.183
525.35	40.896
525.69	41.060
526.04	40.036
526.38	39.670
526.72	39.618
527.06	39.562
527.41	41.536
527.75	40.536
528.09	40.638
528.43	40.574
528.78	39.475
529.12	39.374
529.46	38.749
529.80	40.012
530.15	39.894
530.49	39.711
530.83	39.976
531.17	39.668
531.51	38.994
531.86	39.674
532.20	39.370
532.54	39.297
532.88	39.538
533.22	40.158
533.57	38.804
533.91	38.520
534.25	37.853
534.59	37.719
534.93	37.884
535.27	38.247
535.62	37.631
535.96	38.239
536.30	39.488
536.64	38.944
536.98	38.263
537.32	38.312
537.66	38.584
538.01	38.019
538.35	38.241
538.69	38.896
539.03	37.873
539.37	37.500
539.71	38.086
540.05	37.662
540.39	39.748
540.73	38.481
541.07	37.077
541.42	37.811
541.76	38.163
542.10	37.670
542.44	38.653
542.78	37.760
543.12	37.055
543.46	36.967
543.80	37.406
544.14	38.452
544.48	37.713
544.82	38.593
545.16	37.098
545.50	37.615
545.84	38.384
546.18	38.036
546.52	38.885
546.86	38.233
547.20	37.468
547.54	37.555
547.88	36.922
548.22	37.523
548.56	36.771
548.90	37.485
549.24	37.903
549.58	36.405
549.92	38.310
550.26	38.607
550.60	37.858
550.94	37.788
551.28	39.517
551.62	38.483
551.96	36.959
552.30	36.915
552.64	38.317
552.98	37.371
553.32	37.004
553.66	38.046
554.00	37.838
554.34	38.149
554.68	38.105
555.02	37.814
555.36	36.636
555.69	38.089
556.03	37.325
556.37	38.113
556.71	37.875
557.05	36.632
557.39	38.467
557.73	39.286
558.07	38.364
558.41	38.794
558.75	39.945
559.08	39.600
559.42	39.943
559.76	39.273
560.10	38.334
560.44	36.364
560.78	37.660
561.12	36.745
561.45	36.921
561.79	37.079
562.13	37.145
562.47	36.275
562.81	37.606
563.15	36.975
563.48	35.776
563.82	37.617
564.16	37.251
564.50	36.829
564.84	36.900
565.17	35.888
565.51	37.438
565.85	37.076
566.19	36.488
566.52	36.462
566.86	36.894
567.20	35.618
567.54	34.934
567.88	34.794
568.21	32.951
568.55	33.512
568.89	34.078
569.23	33.348
569.56	32.588
569.90	31.908
570.24	31.448
570.57	31.246
570.91	30.608
571.25	30.694
571.59	29.470
571.92	29.709
572.26	29.111
572.60	29.020
572.93	29.298
573.27	29.868
573.61	28.803
573.95	29.482
574.28	29.302
574.62	28.691
574.96	27.961
575.29	27.983
575.63	27.892
575.97	28.165
576.30	28.246
576.64	28.436
576.98	28.349
577.31	28.600
577.65	28.176
577.98	27.535
578.32	27.070
578.66	27.916
578.99	27.900
579.33	27.582
579.67	27.764
580.00	28.021
580.34	27.939
580.67	27.830
581.01	28.374
581.35	27.529
581.68	27.161
582.02	27.176
582.35	27.154
582.69	27.964
583.02	27.696
583.36	28.095
583.70	28.384
584.03	29.132
584.37	28.269
584.70	29.037
585.04	28.218
585.37	27.683
585.71	28.202
586.04	28.148
586.38	28.298
586.72	29.112
587.05	28.821
587.39	28.774
587.72	28.251
588.06	28.557
588.39	28.762
588.73	28.657
589.06	29.151
589.40	30.172
589.73	29.662
590.07	30.954
590.40	30.244
590.73	31.913
591.07	31.613
591.40	31.257
591.74	30.885
592.07	30.657
592.41	31.335
592.74	30.685
593.08	29.850
593.41	28.965
593.75	28.902
594.08	29.781
594.41	29.358
594.75	29.897
595.08	30.213
595.42	30.053
595.75	29.681
596.09	30.796
596.42	29.971
596.75	31.691
597.09	30.458
597.42	31.224
597.75	31.034
598.09	30.981
598.42	30.967
598.76	30.108
599.09	30.305
599.42	29.481
599.76	29.851
600.09	29.322
600.42	29.834
600.76	29.470
601.09	29.375
601.42	29.708
601.76	30.039
602.09	30.464
602.42	30.018
602.76	30.019
603.09	30.543
603.42	30.569
603.76	30.116
604.09	29.859
604.42	29.454
604.76	29.554
605.09	31.102
605.42	30.394
605.75	30.043
606.09	30.834
606.42	29.350
606.75	30.043
607.09	29.530
607.42	30.173
607.75	30.016
608.08	29.935
608.42	29.992
608.75	30.295
609.08	30.136
609.41	31.182
609.75	30.952
610.08	31.430
610.41	30.567
610.74	30.736
611.07	31.241
611.41	31.603
611.74	31.836
612.07	31.455
612.40	31.481
612.73	31.702
613.07	31.880
613.40	31.930
613.73	32.102
614.06	30.900
614.39	31.970
614.72	31.341
615.06	31.553
615.39	30.396
615.72	31.075
616.05	30.989
616.38	30.898
616.71	32.013
617.05	32.125
617.38	32.079
617.71	32.283
618.04	32.642
618.37	30.795
618.70	32.333
619.03	33.272
619.36	32.789
619.69	32.652
620.03	33.920
620.36	33.654
620.69	33.780
621.02	34.375
621.35	33.166
621.68	35.546
622.01	34.686
622.34	34.377
622.67	34.410
623.00	33.628
623.33	34.143
623.66	33.067
623.99	35.205
624.32	33.740
624.65	33.706
624.99	34.348
625.32	33.534
625.65	33.034
625.98	34.031
626.31	35.089
626.64	32.954
626.97	34.353
627.30	35.093
627.63	35.479
627.96	34.585
628.29	36.716
628.62	35.158
628.95	36.613
629.28	37.423
629.61	35.677
629.94	36.646
630.26	36.049
630.59	37.855
630.92	36.323
631.25	37.353
631.58	38.862
631.91	37.012
632.24	37.804
632.57	35.855
632.90	40.269
633.23	39.769
633.56	39.305
633.89	39.550
634.22	40.366
634.55	38.387
634.88	38.883
635.20	39.462
635.53	41.347
635.86	39.374
636.19	39.731
636.52	38.486
636.85	36.893
637.18	39.437
637.51	39.665
637.83	38.558
638.16	42.673
638.49	41.198
638.82	40.845
639.15	39.483
639.48	40.047
639.81	40.171
640.13	40.491
640.46	41.087
640.79	41.612
641.12	40.551
641.45	43.467
641.77	42.933
642.10	40.964
642.43	41.963
642.76	42.045
643.09	42.651
643.41	41.374
643.74	44.029
644.07	41.888
644.40	39.349
644.73	43.994
645.05	43.685
645.38	44.257
645.71	44.917
646.04	44.733
646.36	45.227
646.69	44.320
647.02	43.520
647.35	41.890
647.67	41.815
648.00	44.300
648.33	41.955
648.66	42.576
648.98	41.449
649.31	39.811
649.64	38.451
649.96	41.821
650.29	39.571
650.62	43.004
650.94	43.373
651.27	43.222
651.60	42.723
651.92	41.782
652.25	44.409
652.58	39.574
652.90	41.617
653.23	41.359
653.56	42.285
653.88	40.088
654.21	40.323
654.54	41.435
654.86	40.118
655.19	40.501
655.52	30.750
655.84	22.811
656.17	25.723
656.49	36.286
656.82	41.679
657.15	33.511
657.47	25.662
657.80	19.054
658.13	15.396
658.45	20.772
658.78	25.119
659.10	25.495
659.43	26.381
659.75	28.046
660.08	29.887
660.41	32.940
660.73	38.896
661.06	40.090
661.38	43.612
661.71	44.784
662.03	43.916
662.36	44.000
662.68	42.831
663.01	45.225
663.33	40.566
663.66	46.548
663.98	46.429
664.31	46.828
664.63	43.295
664.96	44.841
665.28	43.879
665.61	45.283
665.93	42.830
666.26	44.299
666.58	44.404
666.91	44.208
667.23	45.783
667.56	45.585
667.88	45.436
668.21	45.287
668.53	43.145
668.86	43.888
669.18	43.992
669.50	43.388
669.83	44.559
670.15	46.778
670.48	43.164
670.80	45.618
671.13	43.825
671.45	44.489
671.77	40.445
672.10	42.370
672.42	40.625
672.75	40.190
673.07	41.335
673.39	39.936
673.72	38.927
674.04	42.832
674.37	44.102
674.69	42.193
675.01	40.299
675.34	42.054
675.66	41.797
675.98	43.984
676.31	41.000
676.63	41.948
676.95	44.048
677.28	41.379
677.60	45.070
677.92	41.468
678.25	43.217
678.57	41.155
678.89	41.410
679.22	39.706
679.54	41.103
679.86	41.187
680.18	39.367
680.51	36.484
680.83	37.500
681.15	39.168
681.48	43.229
681.80	39.580
682.12	39.965
682.44	38.559
682.77	38.256
683.09	43.689
683.41	43.061
683.73	41.929
684.06	42.262
684.38	42.442
684.70	41.007
685.02	37.500
685.34	39.085
685.67	36.977
685.99	37.110
686.31	35.747
686.63	38.862
686.96	37.418
687.28	37.416
687.60	40.785
687.92	42.044
688.24	38.276
688.56	37.367
688.89	39.579
689.21	39.884
689.53	43.676
689.85	41.870
690.17	39.612
690.49	41.331
690.82	41.597
691.14	40.808
691.46	42.710
691.78	40.351
692.10	38.550
692.42	38.657
692.74	39.922
693.06	43.217
693.39	36.957
693.71	40.275
694.03	42.406
694.35	41.365
694.67	40.122
694.99	43.459
695.31	42.568
695.63	41.629
695.95	41.176
696.27	45.575
696.59	41.289
696.91	44.051
697.23	40.045
697.56	37.759
697.88	36.727
698.20	39.245
698.52	39.300
698.84	40.657
699.16	40.725
699.48	38.559
699.80	41.830
700.12	40.878
700.44	43.458
700.76	42.005
701.08	44.386
701.40	40.519
701.72	50.267
702.04	45.257
702.36	44.624
702.68	42.819
703.00	39.348
703.32	45.161
703.64	41.058
703.96	43.229
704.28	42.857
704.60	46.761
704.91	43.417
705.23	48.011
705.55	47.478
705.87	47.302
706.19	47.335
706.51	51.411
706.83	43.363
707.15	47.059
707.47	39.952
707.79	42.529
708.11	38.322
708.43	39.326
708.74	39.819
709.06	40.465
709.38	41.439
709.70	43.597
710.02	43.207
710.34	42.818
710.66	43.056
710.98	44.262
711.29	40.390
711.61	44.568
711.93	44.985
712.25	41.566
712.57	46.624
712.89	46.970
713.20	47.604
713.52	43.925
713.84	46.526
714.16	38.551
714.48	40.634
714.80	40.379
715.11	37.234
715.43	39.106
715.75	39.437
716.07	44.798
716.39	44.000
716.70	41.433
717.02	46.801
717.34	50.719
717.66	48.264
717.97	48.106
718.29	47.183
718.61	46.622
718.93	47.751
719.24	44.631
719.56	46.552
719.88	42.038
720.20	45.484
720.51	45.425
720.83	44.482
721.15	41.497
721.46	45.205
721.78	46.690
722.10	45.486
722.42	41.806
722.73	42.960
723.05	47.719
723.37	48.410
723.68	48.047
724.00	49.242
724.32	47.148
724.63	48.077
724.95	44.314
725.27	48.327
725.58	47.426
725.90	40.141
726.22	44.178
726.53	46.154
726.85	45.603
727.16	43.960
727.48	42.193
727.80	44.604
728.11	46.429
728.43	43.841
728.74	40.210
729.06	40.860
729.38	43.860
729.69	46.000
730.01	42.763
730.32	45.638
730.64	43.189
730.96	41.141
731.27	35.474
731.59	39.655
731.90	36.490
732.22	38.286
732.53	36.467
732.85	44.737
733.16	38.554
733.48	42.320
733.80	41.739
734.11	43.558
734.43	35.965
734.74	37.534
735.06	37.302
735.37	36.856
735.69	36.232
736.00	39.144
736.32	37.576
736.63	33.123
736.95	38.509
737.26	38.720
737.58	42.638
737.89	38.855
738.21	41.060
738.52	41.472
738.83	48.352
739.15	38.676
739.46	40.690
739.78	41.497
740.09	41.108
740.41	37.730
740.72	42.857
741.04	44.056
741.35	43.750
741.66	45.059
741.98	49.785
742.29	49.537
742.61	42.478
742.92	48.305
743.23	45.200
743.55	41.887
743.86	40.784
744.18	41.102
744.49	46.281
744.80	47.465
745.12	45.089
745.43	49.533
745.74	47.556
746.06	45.614
746.37	44.651
746.68	48.673
747.00	51.121
747.31	43.277
747.62	44.262
747.94	45.064
748.25	43.969
748.56	47.458
748.88	45.089
749.19	43.721
749.50	45.662
749.82	47.737
750.13	46.640
750.44	39.333
750.75	36.913
751.07	42.434
751.38	38.614
751.69	40.741
752.01	42.308
752.32	39.867
752.63	39.597
752.94	43.007
753.26	43.359
753.57	43.969
753.88	41.948
754.19	42.238
754.51	40.532
754.82	37.584
755.13	40.541
755.44	44.074
755.75	42.612
756.07	39.041
756.38	39.869
756.69	37.188
757.00	39.466
757.31	36.338
757.63	35.262
757.94	34.574
758.25	33.575
758.56	36.613
758.87	34.336
759.18	39.826
759.50	40.729
759.81	36.499
760.12	40.169
760.43	34.734
760.74	36.962
761.05	36.605
761.36	33.854
761.67	34.501
761.99	34.648
762.30	38.907
762.61	32.639
762.92	39.773
763.23	41.509
763.54	43.077
763.85	36.965
764.16	38.889
764.47	39.189
764.78	38.436
765.10	37.500
765.41	32.386
765.72	35.359
766.03	35.650
766.34	37.631
766.65	41.445
766.96	44.939
767.27	42.991
767.58	43.069
767.89	50.829
768.20	53.049
768.51	44.388
768.82	45.175
769.13	37.647
769.44	37.594
769.75	39.326
770.06	40.756
770.37	39.035
770.68	39.556
770.99	44.915
771.30	35.146
771.61	41.923
771.92	35.878
772.23	43.952
772.54	45.778
772.85	46.040
773.16	42.935
773.47	43.333
773.78	50.495
774.09	48.295
774.39	50.909
774.70	44.706
775.01	50.000
775.32	46.584
775.63	57.534
775.94	54.321
776.25	52.414
776.56	51.145
776.87	63.359
777.18	53.030
777.48	61.417
777.79	50.769
778.10	53.788
778.41	57.463
778.72	57.143
779.03	48.718
779.34	45.270
779.65	46.584
779.95	52.174
780.26	45.833
780.57	53.061
780.88	52.482
781.19	60.000
781.50	49.704
781.80	48.634
782.11	43.386
782.42	45.977
782.73	44.633
783.04	48.387
783.34	41.860
783.65	37.415
783.96	45.806
784.27	49.007
784.57	41.447
784.88	49.275
785.19	55.000
785.50	63.793
785.81	58.915
786.11	46.667
786.42	48.819
786.73	55.856
787.04	55.660
787.34	52.846
787.65	52.273
787.96	53.788
788.26	59.843
788.57	53.285
788.88	49.296
789.19	48.855
789.49	52.703
789.80	50.781
790.11	51.240
790.41	58.333
790.72	39.815
791.03	63.462
791.33	58.586
791.64	58.947
791.95	61.053
792.25	52.083
792.56	62.000
792.87	53.659
793.17	68.182
793.48	64.706
793.79	72.414
794.09	60.227
794.40	64.655
794.70	53.968
795.01	53.077
795.32	48.855
795.62	42.735
795.93	57.983
796.23	47.154
796.54	56.122
796.85	76.136
797.15	75.325
797.46	76.829
797.76	46.250
798.07	62.667
798.37	70.000
798.68	71.250
798.99	65.854
799.29	81.333
799.60	53.488
799.90	60.526
800.21	59.091
800.51	74.648
800.82	75.862
801.12	90.769
801.43	76.000
801.73	75.862
802.04	58.442
802.34	64.384
802.65	90.196
802.95	65.217
803.26	82.258
803.56	95.000
803.87	82.090
804.17	69.841
804.48	84.906
804.78	70.833
805.09	78.788
805.39	88.889
805.70	91.228
806.00	62.857
806.30	71.875
806.61	72.941
806.91	70.000
807.22	54.348
807.52	78.947
807.83	73.684
808.13	73.913
808.43	88.710
808.74	71.233
809.04	91.071
809.35	77.941
809.65	83.333
809.95	98.039
810.26	79.630
810.56	95.312
810.86	79.592
811.17	94.737
811.47	100.000
811.77	81.034
812.08	72.414
812.38	102.381
812.69	102.381
812.99	82.222
813.29	102.857
813.59	119.355
813.90	82.759
814.20	93.443
814.50	88.000
814.81	64.912
815.11	92.593
815.41	87.500
815.72	85.714
816.02	100.000
816.32	92.683
816.62	87.931
816.93	121.212
817.23	87.805
817.53	80.357
817.84	102.222
818.14	119.048
818.44	75.000
818.74	100.000
819.04	112.821
819.35	115.152
819.65	117.308
819.95	98.148
820.25	106.383
820.56	140.541
820.86	142.105
821.16	91.489
821.46	113.158
821.76	101.818
822.07	88.095
822.37	100.000
822.67	111.628
822.97	89.474
823.27	113.043
823.57	121.875
823.88	115.385
824.18	109.091
824.48	173.913
824.78	122.222
825.08	139.130
825.38	162.069
825.69	129.412
825.99	97.872
826.29	94.444
826.59	100.000
826.89	163.333
827.19	111.429
827.49	116.129
827.79	165.385
828.09	83.333
828.39	86.111
828.70	94.595
829.00	150.000
829.30	212.500
829.60	113.889
829.90	154.839
830.20	93.939
830.50	148.649
830.80	170.833
831.10	126.923
831.40	119.048
831.70	187.500
832.00	140.000
832.30	160.870
832.60	204.167
832.90	136.364
833.20	185.000
833.50	118.421
833.80	114.706
834.10	115.789
834.40	173.684
834.70	110.000
835.00	184.000
835.30	100.000
835.60	159.375
835.90	137.838
836.20	200.000
836.50	131.818
836.80	90.244
837.10	156.522
837.40	300.000
837.70	168.421
838.00	123.333
838.30	154.167
838.60	132.000
838.90	260.000
839.19	131.250
839.49	126.667
839.79	117.241
840.09	165.385
840.39	173.333
840.69	168.421
840.99	147.619
841.29	152.174
841.59	195.000
841.88	152.000
842.18	400.000
842.48	150.000
842.78	159.259
843.08	161.538
843.38	186.364
843.68	335.714
843.97	500.000
844.27	169.565
844.57	1400.000
844.87	264.286
845.17	177.778
845.47	147.619
845.76	170.833
846.06	442.857
846.36	152.941
846.66	300.000
846.96	206.250
847.25	246.154
847.55	184.211
847.85	211.111
848.15	500.000
848.44	327.273
848.74	185.714
849.04	166.667
849.34	229.412
849.63	275.000
849.93	237.500
850.23	1033.333
850.53	262.500
850.82	281.818
851.12	176.471
851.42	191.667
851.71	206.250
852.01	0.000
852.31	205.882
852.61	410.000
852.90	183.333
853.20	344.444
853.50	-1800.000
853.79	156.000
854.09	162.500
854.39	148.276
854.68	162.069
854.98	204.762
855.28	141.935
855.57	235.714
855.87	194.444
856.17	122.222
856.46	142.105
856.76	93.548
857.05	235.294
857.35	245.455
857.65	161.538
857.94	135.000
858.24	366.667
858.53	278.571
858.83	728.571
859.13	143.478
859.42	266.667
859.72	262.500
860.01	225.000
860.31	625.000
860.60	320.000
860.90	412.500
861.20	269.231
861.49	471.429
861.79	-3100.000
862.08	485.714
862.38	333.333
862.67	214.286
862.97	330.000
863.26	126.667
863.56	575.000
863.85	284.615
864.15	264.706
864.44	177.778
864.74	283.333
865.03	254.545
865.33	412.500
865.62	213.333
865.92	516.667
866.21	825.000
866.51	600.000
866.80	250.000
867.10	800.000
867.39	2200.000
867.69	520.000
867.98	800.000
868.27	180.952
868.57	286.667
868.86	900.000
869.16	185.714
869.45	2500.000
869.75	-383.333
870.04	600.000
870.33	580.000
870.63	425.000
870.92	170.588
871.22	650.000
871.51	628.571
871.80	250.000
872.10	300.000
>>>>>End Processed Spectral Data<<<<<
