SpectraSuite Data File
++++++++++++++++++++++++++++++++++++
Date: Tue May 12 17:07:46 PDT 2015
User: schluterlab
Dark Spectrum Present: Yes
Reference Spectrum Present: Yes
Number of Sampled Component Spectra: 1
Spectrometers: USB2E3373
Integration Time (usec): 3000 (USB2E3373)
Spectra Averaged: 3 (USB2E3373)
Boxcar Smoothing: 0 (USB2E3373)
Correct for Electrical Dark: No (USB2E3373)
Strobe/Lamp Enabled: No (USB2E3373)
Correct for Detector Non-linearity: No (USB2E3373)
Correct for Stray Light: No (USB2E3373)
Number of Pixels in Processed Spectrum: 2048
>>>>>Begin Processed Spectral Data<<<<<
178.53	0.000
178.91	-241.667
179.29	-400.000
179.67	-3800.000
180.04	-153.333
180.42	625.000
180.80	1600.000
181.18	0.000
181.56	-250.000
181.94	0.000
182.31	1200.000
182.69	-2800.000
183.07	671.429
183.45	-3400.000
183.83	-1250.000
184.20	360.000
184.58	457.143
184.96	-307.692
185.34	-191.667
185.72	1900.000
186.09	-525.000
186.47	-3000.000
186.85	1000.000
187.23	680.000
187.61	1850.000
187.98	487.500
188.36	242.857
188.74	266.667
189.12	416.667
189.49	950.000
189.87	0.000
190.25	487.500
190.63	3500.000
191.00	-241.667
191.38	-3700.000
191.76	-725.000
192.14	600.000
192.51	-2700.000
192.89	1950.000
193.27	966.667
193.65	-1033.333
194.02	-800.000
194.40	628.571
194.78	-185.714
195.15	166.667
195.53	-3500.000
195.91	-520.000
196.29	2900.000
196.66	275.000
197.04	800.000
197.42	-1750.000
197.79	750.000
198.17	358.333
198.55	0.000
198.92	542.857
199.30	1400.000
199.68	2500.000
200.05	600.000
200.43	-450.000
200.81	188.889
201.18	3200.000
201.56	250.000
201.94	-650.000
202.31	-337.500
202.69	-620.000
203.07	2000.000
203.44	-483.333
203.82	275.000
204.19	620.000
204.57	-1450.000
204.95	-950.000
205.32	-760.000
205.70	583.333
206.08	700.000
206.45	-833.333
206.83	511.111
207.20	194.737
207.58	291.667
207.96	640.000
208.33	0.000
208.71	571.429
209.08	680.000
209.46	-3600.000
209.84	-850.000
210.21	640.000
210.59	-640.000
210.96	350.000
211.34	-950.000
211.71	409.091
212.09	900.000
212.46	1400.000
212.84	-383.333
213.22	411.111
213.59	-2100.000
213.97	330.000
214.34	900.000
214.72	966.667
215.09	1033.333
215.47	-2900.000
215.84	-360.000
216.22	-262.500
216.59	0.000
216.97	0.000
217.34	1350.000
217.72	-1100.000
218.09	933.333
218.47	337.500
218.84	1050.000
219.22	1133.333
219.59	1000.000
219.97	685.714
220.34	455.556
220.72	1550.000
221.09	2900.000
221.47	308.333
221.84	1133.333
222.22	350.000
222.59	233.333
222.97	228.571
223.34	225.000
223.72	-1450.000
224.09	1466.667
224.46	261.538
224.84	-875.000
225.21	422.222
225.59	293.333
225.96	1466.667
226.34	-600.000
226.71	-700.000
227.08	-620.000
227.46	0.000
227.83	-683.333
228.21	-1800.000
228.58	333.333
228.95	800.000
229.33	300.000
229.70	1175.000
230.08	353.846
230.45	3800.000
230.82	-1075.000
231.20	-866.667
231.57	-833.333
231.95	720.000
232.32	266.667
232.69	666.667
233.07	275.000
233.44	-2000.000
233.81	293.333
234.19	162.963
234.56	218.750
234.93	176.471
235.31	235.000
235.68	256.250
236.05	160.714
236.43	122.222
236.80	257.143
237.17	144.828
237.55	125.000
237.92	117.500
238.29	124.242
238.67	162.500
239.04	107.317
239.41	91.667
239.79	95.000
240.16	93.750
240.53	62.295
240.91	82.609
241.28	77.966
241.65	69.697
242.02	81.690
242.40	74.286
242.77	65.934
243.14	60.759
243.51	66.667
243.89	55.140
244.26	55.140
244.63	65.347
245.00	59.633
245.38	54.237
245.75	55.303
246.12	53.333
246.49	53.901
246.87	48.361
247.24	51.333
247.61	51.875
247.98	55.782
248.36	42.424
248.73	50.510
249.10	40.476
249.47	40.500
249.84	41.294
250.22	41.622
250.59	42.000
250.96	42.616
251.33	47.442
251.70	40.625
252.08	44.118
252.45	37.849
252.82	38.023
253.19	36.759
253.56	36.154
253.94	38.406
254.31	34.496
254.68	35.889
255.05	41.724
255.42	36.861
255.79	40.717
256.16	39.322
256.54	36.688
256.91	38.235
257.28	36.455
257.65	34.796
258.02	35.988
258.39	36.390
258.76	36.232
259.14	31.714
259.51	35.860
259.88	39.210
260.25	30.220
260.62	35.342
260.99	33.058
261.36	34.819
261.73	34.840
262.10	34.031
262.47	34.250
262.85	31.467
263.22	35.733
263.59	37.084
263.96	35.589
264.33	32.840
264.70	35.872
265.07	31.707
265.44	33.028
265.81	32.547
266.18	32.723
266.55	30.733
266.92	30.649
267.29	31.140
267.66	30.045
268.03	32.735
268.40	31.501
268.77	34.581
269.14	32.538
269.51	29.844
269.88	30.816
270.25	29.158
270.62	31.116
270.99	32.049
271.36	31.707
271.73	31.237
272.10	30.707
272.47	29.365
272.84	28.543
273.21	30.165
273.58	32.186
273.95	29.363
274.32	29.183
274.69	32.283
275.06	30.601
275.43	29.502
275.80	29.434
276.17	30.882
276.54	29.533
276.91	31.530
277.28	30.292
277.65	28.044
278.02	28.309
278.39	30.576
278.76	33.276
279.13	30.427
279.50	29.091
279.87	28.864
280.23	27.256
280.60	31.934
280.97	26.897
281.34	28.218
281.71	26.261
282.08	27.179
282.45	28.716
282.82	26.923
283.19	28.935
283.56	29.091
283.92	29.153
284.29	27.454
284.66	26.723
285.03	27.861
285.40	27.273
285.77	28.549
286.14	28.173
286.51	28.528
286.87	23.418
287.24	25.526
287.61	26.444
287.98	26.418
288.35	26.667
288.72	27.921
289.08	26.877
289.45	27.439
289.82	27.656
290.19	24.890
290.56	27.511
290.93	27.626
291.29	25.552
291.66	25.141
292.03	26.648
292.40	23.306
292.77	24.513
293.13	25.250
293.50	23.617
293.87	24.526
294.24	24.895
294.60	26.110
294.97	26.294
295.34	24.037
295.71	24.310
296.08	24.000
296.44	24.524
296.81	23.573
297.18	20.786
297.55	25.985
297.91	22.537
298.28	24.034
298.65	23.313
299.02	22.799
299.38	22.902
299.75	22.317
300.12	23.624
300.48	23.653
300.85	23.123
301.22	22.907
301.59	22.877
301.95	22.520
302.32	22.352
302.69	23.643
303.05	23.232
303.42	21.861
303.79	23.185
304.15	22.222
304.52	21.776
304.89	22.175
305.25	22.914
305.62	22.388
305.99	21.087
306.35	22.737
306.72	21.852
307.09	22.360
307.45	21.647
307.82	21.811
308.19	22.268
308.55	21.800
308.92	22.179
309.29	22.880
309.65	21.903
310.02	23.428
310.38	22.632
310.75	21.408
311.12	21.743
311.48	23.456
311.85	21.660
312.22	23.209
312.58	21.672
312.95	21.942
313.31	22.566
313.68	20.732
314.05	23.260
314.41	21.974
314.78	21.307
315.14	22.370
315.51	21.003
315.87	21.077
316.24	22.689
316.61	21.038
316.97	21.193
317.34	22.372
317.70	21.159
318.07	20.996
318.43	22.056
318.80	21.366
319.16	22.115
319.53	20.796
319.89	21.147
320.26	22.533
320.62	22.161
320.99	21.068
321.35	20.965
321.72	21.822
322.08	21.884
322.45	21.708
322.81	21.134
323.18	22.647
323.54	21.516
323.91	22.484
324.27	21.309
324.64	21.540
325.00	21.121
325.37	20.236
325.73	20.152
326.10	20.464
326.46	21.222
326.83	20.400
327.19	22.008
327.56	20.527
327.92	21.557
328.29	20.704
328.65	20.120
329.01	21.985
329.38	21.574
329.74	20.495
330.11	21.460
330.47	20.290
330.84	20.449
331.20	19.882
331.56	21.244
331.93	21.814
332.29	20.323
332.66	21.514
333.02	19.244
333.38	20.244
333.75	19.933
334.11	20.470
334.48	20.000
334.84	19.595
335.20	20.616
335.57	18.808
335.93	20.185
336.29	20.730
336.66	20.069
337.02	20.103
337.38	20.808
337.75	21.453
338.11	19.916
338.47	20.068
338.84	20.745
339.20	19.740
339.56	19.512
339.93	20.485
340.29	18.655
340.65	20.788
341.02	19.952
341.38	19.787
341.74	19.684
342.11	18.447
342.47	18.704
342.83	21.001
343.20	19.563
343.56	19.222
343.92	19.075
344.28	18.421
344.65	19.560
345.01	19.127
345.37	18.830
345.73	18.571
346.10	18.805
346.46	19.298
346.82	19.059
347.19	20.402
347.55	18.189
347.91	18.731
348.27	18.203
348.63	19.541
349.00	18.888
349.36	18.755
349.72	19.495
350.08	18.245
350.45	19.497
350.81	18.960
351.17	18.028
351.53	18.630
351.89	17.560
352.26	18.594
352.62	17.722
352.98	18.405
353.34	19.183
353.70	17.584
354.07	18.769
354.43	18.894
354.79	18.831
355.15	18.683
355.51	18.127
355.87	18.449
356.24	18.553
356.60	18.037
356.96	18.499
357.32	18.312
357.68	19.016
358.04	17.933
358.40	18.066
358.77	18.032
359.13	17.342
359.49	17.198
359.85	18.168
360.21	17.236
360.57	17.956
360.93	18.543
361.29	17.893
361.66	18.643
362.02	16.761
362.38	17.821
362.74	18.542
363.10	17.321
363.46	17.265
363.82	17.742
364.18	18.279
364.54	17.096
364.90	17.805
365.26	17.280
365.62	17.058
365.98	17.343
366.35	17.310
366.71	17.765
367.07	17.884
367.43	17.864
367.79	17.886
368.15	16.825
368.51	18.057
368.87	16.033
369.23	16.563
369.59	17.195
369.95	17.832
370.31	17.180
370.67	17.280
371.03	18.908
371.39	16.828
371.75	17.027
372.11	18.287
372.47	18.014
372.83	17.131
373.19	17.752
373.55	17.320
373.91	16.367
374.27	16.865
374.63	16.746
374.99	17.049
375.35	17.406
375.71	17.678
376.07	17.706
376.42	16.176
376.78	16.699
377.14	17.366
377.50	17.228
377.86	16.015
378.22	16.819
378.58	17.312
378.94	17.743
379.30	16.737
379.66	17.520
380.02	16.833
380.38	16.101
380.74	17.647
381.09	16.706
381.45	16.879
381.81	16.312
382.17	17.094
382.53	16.017
382.89	16.322
383.25	16.163
383.61	16.772
383.97	16.017
384.32	16.878
384.68	17.231
385.04	17.526
385.40	17.675
385.76	16.091
386.12	17.254
386.48	16.353
386.83	16.626
387.19	16.726
387.55	16.667
387.91	16.628
388.27	17.311
388.62	16.784
388.98	15.977
389.34	15.824
389.70	16.568
390.06	16.646
390.42	16.471
390.77	15.602
391.13	15.812
391.49	16.576
391.85	16.923
392.20	16.806
392.56	16.667
392.92	15.890
393.28	16.143
393.64	15.883
393.99	16.183
394.35	16.480
394.71	14.958
395.07	16.241
395.42	16.218
395.78	17.027
396.14	16.928
396.50	16.185
396.85	17.073
397.21	16.787
397.57	15.780
397.92	15.367
398.28	16.271
398.64	16.987
399.00	15.286
399.35	15.888
399.71	15.287
400.07	15.753
400.42	15.284
400.78	15.073
401.14	16.031
401.49	15.956
401.85	15.875
402.21	14.763
402.57	16.338
402.92	15.939
403.28	15.095
403.63	15.892
403.99	16.164
404.35	15.826
404.70	16.184
405.06	15.385
405.42	15.978
405.77	15.546
406.13	16.161
406.49	15.236
406.84	15.792
407.20	15.982
407.55	15.877
407.91	16.337
408.27	16.555
408.62	16.499
408.98	15.494
409.34	15.780
409.69	16.553
410.05	15.802
410.40	14.841
410.76	16.142
411.11	15.166
411.47	15.679
411.83	15.290
412.18	15.700
412.54	16.216
412.89	15.339
413.25	16.990
413.60	15.713
413.96	16.218
414.31	16.588
414.67	16.387
415.03	15.453
415.38	15.521
415.74	15.856
416.09	15.928
416.45	16.613
416.80	16.870
417.16	15.213
417.51	15.924
417.87	16.270
418.22	15.553
418.58	16.752
418.93	15.467
419.29	15.465
419.64	16.051
420.00	16.468
420.35	14.983
420.71	14.994
421.06	14.950
421.42	15.486
421.77	15.658
422.12	15.270
422.48	15.665
422.83	16.295
423.19	15.173
423.54	15.579
423.90	16.025
424.25	15.630
424.61	15.032
424.96	15.471
425.31	15.490
425.67	15.600
426.02	15.423
426.38	15.753
426.73	16.079
427.09	15.480
427.44	14.631
427.79	15.552
428.15	15.793
428.50	16.514
428.85	17.225
429.21	15.721
429.56	15.653
429.92	15.564
430.27	15.143
430.62	14.635
430.98	15.269
431.33	15.675
431.68	14.914
432.04	15.106
432.39	15.971
432.74	15.749
433.10	15.891
433.45	15.968
433.80	16.437
434.16	14.293
434.51	15.531
434.86	16.059
435.22	15.343
435.57	15.353
435.92	16.448
436.28	16.129
436.63	16.370
436.98	16.667
437.34	15.411
437.69	15.789
438.04	15.000
438.39	16.112
438.75	15.535
439.10	16.028
439.45	15.998
439.81	16.310
440.16	16.291
440.51	15.935
440.86	15.954
441.22	15.584
441.57	16.063
441.92	15.696
442.27	15.309
442.63	15.346
442.98	15.302
443.33	14.890
443.68	15.744
444.03	15.221
444.39	15.490
444.74	15.269
445.09	15.429
445.44	15.250
445.79	16.033
446.15	16.316
446.50	15.348
446.85	15.886
447.20	15.423
447.55	15.334
447.91	16.995
448.26	15.761
448.61	15.865
448.96	16.721
449.31	15.897
449.66	15.725
450.02	16.207
450.37	16.380
450.72	15.482
451.07	16.579
451.42	16.242
451.77	15.750
452.12	16.506
452.47	15.857
452.83	16.394
453.18	17.417
453.53	16.578
453.88	16.229
454.23	16.560
454.58	17.016
454.93	15.880
455.28	16.095
455.63	16.135
455.98	15.680
456.34	16.717
456.69	15.793
457.04	16.348
457.39	16.514
457.74	16.779
458.09	15.834
458.44	16.320
458.79	15.862
459.14	15.221
459.49	16.025
459.84	15.598
460.19	15.989
460.54	17.037
460.89	16.365
461.24	15.979
461.59	16.893
461.94	16.076
462.29	17.105
462.64	16.771
462.99	16.891
463.34	17.498
463.69	16.576
464.04	16.292
464.39	16.543
464.74	16.061
465.09	16.425
465.44	15.832
465.79	16.168
466.14	15.315
466.49	16.007
466.84	16.611
467.19	18.043
467.54	16.456
467.89	16.667
468.24	16.271
468.59	16.548
468.94	17.391
469.29	17.227
469.64	17.042
469.99	17.288
470.34	16.319
470.68	17.310
471.03	16.278
471.38	17.020
471.73	17.048
472.08	17.547
472.43	17.443
472.78	17.862
473.13	17.459
473.48	16.565
473.83	16.313
474.17	16.900
474.52	16.647
474.87	16.202
475.22	16.790
475.57	16.422
475.92	16.198
476.27	16.213
476.61	16.032
476.96	16.301
477.31	16.915
477.66	16.640
478.01	15.833
478.36	16.890
478.70	16.030
479.05	16.213
479.40	16.121
479.75	17.229
480.10	15.876
480.45	16.527
480.79	16.267
481.14	15.359
481.49	16.194
481.84	15.875
482.19	16.376
482.53	16.074
482.88	16.667
483.23	16.148
483.58	16.068
483.92	17.413
484.27	16.567
484.62	16.511
484.97	15.816
485.31	15.033
485.66	14.760
486.01	14.062
486.36	14.028
486.70	13.957
487.05	14.173
487.40	14.577
487.75	14.886
488.09	15.398
488.44	14.818
488.79	15.168
489.13	16.312
489.48	15.861
489.83	16.222
490.17	16.226
490.52	16.451
490.87	16.595
491.22	16.489
491.56	17.699
491.91	15.950
492.26	16.080
492.60	16.446
492.95	16.493
493.30	16.288
493.64	16.622
493.99	16.592
494.34	16.226
494.68	16.379
495.03	16.749
495.37	17.244
495.72	16.876
496.07	16.262
496.41	16.334
496.76	16.420
497.11	16.495
497.45	16.747
497.80	16.821
498.14	16.736
498.49	17.595
498.84	17.664
499.18	16.179
499.53	16.858
499.87	16.577
500.22	16.444
500.56	16.620
500.91	17.301
501.26	16.812
501.60	16.803
501.95	16.263
502.29	17.289
502.64	16.409
502.98	15.963
503.33	16.392
503.67	16.600
504.02	16.391
504.36	17.104
504.71	17.502
505.06	16.706
505.40	16.565
505.75	16.604
506.09	17.126
506.44	17.199
506.78	16.399
507.13	16.869
507.47	16.934
507.82	17.324
508.16	17.393
508.51	17.536
508.85	16.809
509.19	17.621
509.54	17.578
509.88	17.852
510.23	17.059
510.57	16.988
510.92	17.183
511.26	17.319
511.61	17.479
511.95	17.322
512.30	17.750
512.64	18.432
512.98	17.786
513.33	17.316
513.67	17.607
514.02	17.558
514.36	17.342
514.70	17.867
515.05	17.315
515.39	18.311
515.74	18.316
516.08	18.464
516.42	19.344
516.77	17.707
517.11	17.600
517.46	17.619
517.80	18.788
518.14	18.761
518.49	17.916
518.83	17.637
519.17	17.582
519.52	17.586
519.86	17.984
520.20	18.630
520.55	17.581
520.89	18.448
521.23	18.516
521.58	18.531
521.92	17.784
522.26	18.483
522.61	18.776
522.95	18.138
523.29	18.889
523.64	17.803
523.98	18.251
524.32	19.262
524.66	19.188
525.01	18.107
525.35	18.503
525.69	18.964
526.04	18.025
526.38	18.893
526.72	18.258
527.06	18.332
527.41	19.649
527.75	18.868
528.09	18.483
528.43	19.524
528.78	18.605
529.12	18.784
529.46	18.644
529.80	18.516
530.15	18.326
530.49	18.953
530.83	18.647
531.17	18.204
531.51	18.516
531.86	19.022
532.20	18.356
532.54	17.702
532.88	18.426
533.22	18.647
533.57	18.792
533.91	17.483
534.25	17.773
534.59	18.655
534.93	17.861
535.27	16.733
535.62	17.970
535.96	17.967
536.30	19.927
536.64	18.012
536.98	18.376
537.32	18.687
537.66	18.495
538.01	18.514
538.35	18.715
538.69	18.022
539.03	17.973
539.37	17.476
539.71	18.519
540.05	19.077
540.39	19.119
540.73	18.797
541.07	17.629
541.42	18.097
541.76	19.544
542.10	18.372
542.44	17.955
542.78	18.062
543.12	18.037
543.46	18.546
543.80	19.110
544.14	18.514
544.48	17.822
544.82	17.982
545.16	18.336
545.50	18.439
545.84	18.561
546.18	19.636
546.52	18.754
546.86	19.342
547.20	17.636
547.54	18.429
547.88	18.005
548.22	18.276
548.56	17.560
548.90	18.743
549.24	18.256
549.58	18.814
549.92	18.599
550.26	18.796
550.60	18.563
550.94	18.114
551.28	19.103
551.62	19.793
551.96	18.311
552.30	17.271
552.64	18.835
552.98	17.526
553.32	17.990
553.66	17.850
554.00	18.468
554.34	18.109
554.68	18.683
555.02	19.145
555.36	17.886
555.69	18.521
556.03	19.172
556.37	18.611
556.71	18.709
557.05	19.004
557.39	18.333
557.73	18.801
558.07	18.310
558.41	18.849
558.75	19.152
559.08	19.228
559.42	19.112
559.76	20.100
560.10	18.858
560.44	18.447
560.78	18.542
561.12	18.500
561.45	17.897
561.79	18.914
562.13	17.877
562.47	17.910
562.81	18.478
563.15	18.423
563.48	17.578
563.82	18.216
564.16	17.848
564.50	18.083
564.84	18.723
565.17	18.241
565.51	17.919
565.85	18.260
566.19	17.917
566.52	17.028
566.86	17.980
567.20	17.865
567.54	18.122
567.88	17.371
568.21	16.575
568.55	16.488
568.89	16.834
569.23	16.221
569.56	16.653
569.90	15.702
570.24	15.366
570.57	15.542
570.91	14.789
571.25	15.510
571.59	14.946
571.92	14.612
572.26	14.582
572.60	14.913
572.93	15.152
573.27	15.250
573.61	14.375
573.95	14.492
574.28	14.760
574.62	14.485
574.96	14.195
575.29	14.127
575.63	14.087
575.97	14.484
576.30	14.401
576.64	14.327
576.98	14.233
577.31	14.826
577.65	14.390
577.98	13.681
578.32	13.929
578.66	13.841
578.99	14.412
579.33	14.682
579.67	14.263
580.00	14.309
580.34	14.461
580.67	14.228
581.01	14.417
581.35	14.033
581.68	13.562
582.02	13.855
582.35	13.535
582.69	13.895
583.02	13.839
583.36	14.385
583.70	14.641
584.03	14.715
584.37	15.093
584.70	14.133
585.04	14.228
585.37	13.931
585.71	14.562
586.04	14.357
586.38	14.508
586.72	14.826
587.05	14.874
587.39	14.412
587.72	14.760
588.06	14.105
588.39	14.816
588.73	15.091
589.06	15.144
589.40	15.462
589.73	15.011
590.07	15.683
590.40	15.819
590.73	15.755
591.07	15.939
591.40	15.289
591.74	16.274
592.07	15.141
592.41	15.627
592.74	15.196
593.08	14.909
593.41	15.081
593.75	14.524
594.08	14.998
594.41	14.761
594.75	15.171
595.08	15.055
595.42	15.076
595.75	15.630
596.09	15.294
596.42	15.878
596.75	15.986
597.09	16.096
597.42	15.388
597.75	15.538
598.09	15.265
598.42	15.708
598.76	15.574
599.09	15.778
599.42	14.775
599.76	15.095
600.09	15.051
600.42	14.814
600.76	15.262
601.09	14.981
601.42	15.241
601.76	15.431
602.09	15.489
602.42	15.453
602.76	15.636
603.09	15.913
603.42	15.596
603.76	15.004
604.09	15.128
604.42	15.518
604.76	15.172
605.09	15.959
605.42	15.969
605.75	15.594
606.09	15.685
606.42	15.746
606.75	15.546
607.09	14.962
607.42	15.227
607.75	16.282
608.08	15.394
608.42	15.310
608.75	15.148
609.08	15.574
609.41	16.091
609.75	16.346
610.08	15.423
610.41	15.810
610.74	15.325
611.07	16.553
611.41	16.080
611.74	15.918
612.07	15.655
612.40	16.326
612.73	15.627
613.07	16.219
613.40	16.642
613.73	16.425
614.06	15.450
614.39	17.071
614.72	16.022
615.06	15.381
615.39	15.990
615.72	16.263
616.05	16.123
616.38	16.489
616.71	15.789
617.05	16.420
617.38	16.124
617.71	16.310
618.04	15.816
618.37	17.121
618.70	16.917
619.03	17.338
619.36	18.028
619.69	17.216
620.03	17.939
620.36	17.919
620.69	17.688
621.02	18.886
621.35	18.768
621.68	18.289
622.01	18.007
622.34	17.407
622.67	18.399
623.00	17.971
623.33	17.544
623.66	18.031
623.99	17.877
624.32	17.683
624.65	17.051
624.99	17.579
625.32	18.370
625.65	16.345
625.98	17.503
626.31	18.546
626.64	17.920
626.97	18.286
627.30	18.323
627.63	18.838
627.96	17.684
628.29	18.399
628.62	18.563
628.95	19.858
629.28	20.245
629.61	18.014
629.94	19.188
630.26	19.151
630.59	19.681
630.92	18.386
631.25	19.492
631.58	20.636
631.91	19.029
632.24	20.019
632.57	18.861
632.90	19.565
633.23	20.881
633.56	19.916
633.89	20.900
634.22	20.560
634.55	20.538
634.88	21.249
635.20	21.413
635.53	21.254
635.86	22.371
636.19	21.212
636.52	21.730
636.85	18.770
637.18	20.693
637.51	20.782
637.83	20.137
638.16	21.688
638.49	23.114
638.82	21.831
639.15	21.034
639.48	22.038
639.81	22.222
640.13	21.718
640.46	23.515
640.79	20.806
641.12	22.441
641.45	22.639
641.77	22.457
642.10	21.553
642.43	24.609
642.76	21.307
643.09	22.911
643.41	22.300
643.74	22.734
644.07	23.599
644.40	21.746
644.73	23.273
645.05	24.814
645.38	22.818
645.71	23.672
646.04	25.802
646.36	23.787
646.69	24.000
647.02	23.520
647.35	23.150
647.67	24.473
648.00	24.756
648.33	23.308
648.66	21.515
648.98	22.029
649.31	20.648
649.64	19.640
649.96	21.479
650.29	23.429
650.62	23.564
650.94	23.645
651.27	25.518
651.60	23.005
651.92	23.349
652.25	23.780
652.58	23.262
652.90	21.257
653.23	22.009
653.56	22.404
653.88	22.761
654.21	21.554
654.54	20.498
654.86	24.779
655.19	21.372
655.52	17.717
655.84	12.265
656.17	13.256
656.49	19.085
656.82	22.083
657.15	17.545
657.47	13.412
657.80	10.219
658.13	8.024
658.45	10.917
658.78	13.341
659.10	13.457
659.43	14.011
659.75	14.943
660.08	15.602
660.41	16.969
660.73	21.455
661.06	23.273
661.38	24.872
661.71	23.561
662.03	23.954
662.36	24.190
662.68	25.326
663.01	25.405
663.33	22.264
663.66	24.852
663.98	23.810
664.31	26.119
664.63	26.437
664.96	26.642
665.28	23.164
665.61	23.962
665.93	24.528
666.26	23.178
666.58	26.422
666.91	23.359
667.23	24.498
667.56	27.310
667.88	24.066
668.21	26.434
668.53	22.984
668.86	24.649
669.18	24.644
669.50	26.033
669.83	25.873
670.15	25.572
670.48	24.414
670.80	23.307
671.13	24.900
671.45	27.255
671.77	23.562
672.10	22.621
672.42	22.039
672.75	22.785
673.07	22.576
673.39	22.843
673.72	23.356
674.04	23.835
674.37	20.871
674.69	21.747
675.01	23.881
675.34	22.674
675.66	24.609
675.98	24.655
676.31	22.800
676.63	24.851
676.95	26.389
677.28	23.529
677.60	25.755
677.92	22.817
678.25	26.550
678.57	24.953
678.89	25.497
679.22	24.632
679.54	23.310
679.86	22.688
680.18	22.320
680.51	19.403
680.83	21.115
681.15	23.570
681.48	22.569
681.80	21.891
682.12	23.356
682.44	20.721
682.77	25.445
683.09	23.107
683.41	24.694
683.73	23.228
684.06	25.595
684.38	26.550
684.70	22.482
685.02	20.486
685.34	24.824
685.67	23.955
685.99	21.182
686.31	21.880
686.63	22.439
686.96	22.386
687.28	20.134
687.60	21.331
687.92	22.278
688.24	22.586
688.56	22.242
688.89	21.224
689.21	21.195
689.53	24.111
689.85	21.951
690.17	23.883
690.49	22.581
690.82	23.529
691.14	23.636
691.46	25.051
691.78	24.951
692.10	23.664
692.42	22.505
692.74	22.287
693.06	23.643
693.39	22.530
693.71	24.754
694.03	24.260
694.35	26.707
694.67	24.644
694.99	26.164
695.31	24.099
695.63	22.851
695.95	26.018
696.27	27.212
696.59	23.866
696.91	25.316
697.23	24.208
697.56	21.784
697.88	22.754
698.20	23.208
698.52	21.401
698.84	24.641
699.16	25.160
699.48	24.788
699.80	25.708
700.12	26.559
700.44	26.168
700.76	26.492
701.08	25.326
701.40	25.714
701.72	32.353
702.04	27.642
702.36	25.806
702.68	26.330
703.00	23.559
703.32	26.303
703.64	26.448
703.96	24.740
704.28	25.397
704.60	24.789
704.91	29.412
705.23	27.273
705.55	29.377
705.87	27.302
706.19	27.900
706.51	30.408
706.83	28.024
707.15	27.273
707.47	28.571
707.79	24.368
708.11	25.397
708.43	24.494
708.74	22.851
709.06	23.721
709.38	23.821
709.70	25.886
710.02	27.989
710.34	26.519
710.66	26.111
710.98	27.322
711.29	26.741
711.61	29.248
711.93	26.140
712.25	27.711
712.57	30.225
712.89	26.667
713.20	31.949
713.52	30.218
713.84	25.378
714.16	22.029
714.48	22.190
714.80	24.119
715.11	22.872
715.43	28.492
715.75	24.789
716.07	24.566
716.39	25.143
716.70	25.857
717.02	28.956
717.34	27.698
717.66	29.167
717.97	33.712
718.29	27.113
718.61	29.392
718.93	28.028
719.24	30.201
719.56	27.241
719.88	27.070
720.20	25.484
720.51	25.163
720.83	30.435
721.15	30.612
721.46	27.055
721.78	29.268
722.10	30.556
722.42	29.766
722.73	24.910
723.05	30.526
723.37	28.622
723.68	28.125
724.00	31.061
724.32	32.700
724.63	30.000
724.95	35.294
725.27	30.112
725.58	31.618
725.90	25.352
726.22	25.342
726.53	24.749
726.85	31.922
727.16	31.544
727.48	28.904
727.80	28.777
728.11	28.571
728.43	26.812
728.74	30.070
729.06	26.165
729.38	29.825
729.69	28.667
730.01	32.237
730.32	26.174
730.64	30.565
730.96	21.321
731.27	20.795
731.59	25.000
731.90	22.284
732.22	25.714
732.53	21.083
732.85	25.731
733.16	23.795
733.48	25.705
733.80	29.275
734.11	30.675
734.43	21.345
734.74	24.397
735.06	26.190
735.37	21.907
735.69	23.478
736.00	28.135
736.32	25.455
736.63	23.659
736.95	26.398
737.26	24.695
737.58	23.006
737.89	23.795
738.21	25.166
738.52	25.753
738.83	34.432
739.15	27.526
739.46	26.552
739.78	25.510
740.09	26.822
740.41	26.380
740.72	26.984
741.04	28.322
741.35	30.859
741.66	27.668
741.98	30.472
742.29	31.481
742.61	26.106
742.92	31.780
743.23	28.000
743.55	31.698
743.86	28.235
744.18	25.847
744.49	33.058
744.80	32.719
745.12	30.804
745.43	31.308
745.74	32.000
746.06	29.825
746.37	33.023
746.68	31.858
747.00	33.184
747.31	31.092
747.62	26.639
747.94	28.326
748.25	26.070
748.56	32.203
748.88	31.696
749.19	32.093
749.50	27.397
749.82	28.395
750.13	26.877
750.44	22.333
750.75	27.852
751.07	26.316
751.38	21.122
751.69	25.589
752.01	20.979
752.32	23.588
752.63	30.872
752.94	33.916
753.26	30.469
753.57	28.016
753.88	27.715
754.19	25.271
754.51	23.920
754.82	24.832
755.13	21.959
755.44	29.630
755.75	30.241
756.07	28.425
756.38	24.510
756.69	28.125
757.00	27.300
757.31	27.606
757.63	21.212
757.94	24.468
758.25	26.087
758.56	21.053
758.87	25.063
759.18	23.547
759.50	24.620
759.81	25.519
760.12	23.034
760.43	24.090
760.74	22.278
761.05	24.138
761.36	22.656
761.67	22.372
761.99	27.324
762.30	26.045
762.61	27.083
762.92	31.439
763.23	27.925
763.54	30.000
763.85	23.735
764.16	28.472
764.47	24.324
764.78	24.756
765.10	21.646
765.41	24.148
765.72	22.652
766.03	23.263
766.34	26.829
766.65	27.376
766.96	31.984
767.27	31.776
767.58	35.149
767.89	32.597
768.20	39.024
768.51	34.184
768.82	33.333
769.13	28.627
769.44	25.564
769.75	26.966
770.06	28.571
770.37	25.877
770.68	21.778
770.99	31.780
771.30	32.636
771.61	26.923
771.92	28.244
772.23	25.000
772.54	35.111
772.85	36.634
773.16	30.978
773.47	29.444
773.78	32.673
774.09	34.659
774.39	34.545
774.70	31.176
775.01	27.632
775.32	34.161
775.63	35.616
775.94	44.444
776.25	44.828
776.56	33.588
776.87	45.038
777.18	45.455
777.48	55.118
777.79	33.846
778.10	39.394
778.41	43.284
778.72	42.857
779.03	37.179
779.34	37.838
779.65	36.025
779.95	35.404
780.26	39.286
780.57	47.619
780.88	43.262
781.19	47.500
781.50	39.053
781.80	29.508
782.11	28.571
782.42	32.759
782.73	35.028
783.04	36.774
783.34	33.333
783.65	32.653
783.96	37.419
784.27	36.424
784.57	38.816
784.88	39.855
785.19	48.333
785.50	45.690
785.81	44.186
786.11	42.963
786.42	40.945
786.73	47.748
787.04	38.679
787.34	39.024
787.65	49.242
787.96	42.424
788.26	42.520
788.57	45.255
788.88	38.028
789.19	34.351
789.49	43.919
789.80	44.531
790.11	47.107
790.41	41.667
790.72	51.852
791.03	51.923
791.33	45.455
791.64	50.526
791.95	44.211
792.25	46.875
792.56	47.000
792.87	60.976
793.17	51.136
793.48	54.118
793.79	60.920
794.09	57.955
794.40	45.690
794.70	46.825
795.01	33.846
795.32	39.695
795.62	35.043
795.93	47.059
796.23	51.220
796.54	43.878
796.85	54.545
797.15	61.039
797.46	58.537
797.76	48.750
798.07	72.000
798.37	51.250
798.68	62.500
798.99	68.293
799.29	48.000
799.60	45.349
799.90	40.789
800.21	60.606
800.51	59.155
800.82	62.069
801.12	58.462
801.43	66.667
801.73	44.828
802.04	63.636
802.34	67.123
802.65	62.745
802.95	65.217
803.26	80.645
803.56	70.000
803.87	68.657
804.17	71.429
804.48	52.830
804.78	72.222
805.09	71.212
805.39	55.556
805.70	105.263
806.00	64.286
806.30	70.312
806.61	56.471
806.91	60.000
807.22	54.348
807.52	48.684
807.83	72.368
808.13	69.565
808.43	64.516
808.74	65.753
809.04	75.000
809.35	69.118
809.65	65.152
809.95	90.196
810.26	74.074
810.56	76.562
810.86	75.510
811.17	68.421
811.47	84.783
811.77	74.138
812.08	63.793
812.38	92.857
812.69	92.857
812.99	75.556
813.29	114.286
813.59	112.903
813.90	75.862
814.20	88.525
814.50	64.000
814.81	59.649
815.11	88.889
815.41	89.286
815.72	96.429
816.02	98.000
816.32	90.244
816.62	86.207
816.93	133.333
817.23	107.317
817.53	80.357
817.84	88.889
818.14	85.714
818.44	81.250
818.74	83.019
819.04	89.744
819.35	81.818
819.65	107.692
819.95	92.593
820.25	91.489
820.56	116.216
820.86	107.895
821.16	72.340
821.46	97.368
821.76	76.364
822.07	69.048
822.37	102.632
822.67	106.977
822.97	68.421
823.27	115.217
823.57	93.750
823.88	89.744
824.18	69.697
824.48	100.000
824.78	116.667
825.08	160.870
825.38	134.483
825.69	88.235
825.99	80.851
826.29	119.444
826.59	97.143
826.89	156.667
827.19	80.000
827.49	122.581
827.79	130.769
828.09	78.571
828.39	113.889
828.70	72.973
829.00	135.714
829.30	187.500
829.60	91.667
829.90	141.935
830.20	96.970
830.50	140.541
830.80	204.167
831.10	138.462
831.40	133.333
831.70	179.167
832.00	150.000
832.30	165.217
832.60	166.667
832.90	124.242
833.20	170.000
833.50	134.211
833.80	120.588
834.10	97.368
834.40	131.579
834.70	133.333
835.00	140.000
835.30	91.892
835.60	125.000
835.90	127.027
836.20	157.692
836.50	140.909
836.80	100.000
837.10	156.522
837.40	338.462
837.70	78.947
838.00	143.333
838.30	166.667
838.60	144.000
838.90	270.000
839.19	162.500
839.49	110.000
839.79	106.897
840.09	180.769
840.39	200.000
840.69	184.211
840.99	133.333
841.29	200.000
841.59	155.000
841.88	140.000
842.18	211.111
842.48	103.571
842.78	166.667
843.08	215.385
843.38	145.455
843.68	278.571
843.97	442.857
844.27	173.913
844.57	1400.000
844.87	271.429
845.17	194.444
845.47	119.048
845.76	200.000
846.06	542.857
846.36	147.059
846.66	284.615
846.96	268.750
847.25	246.154
847.55	142.105
847.85	205.556
848.15	500.000
848.44	254.545
848.74	161.905
849.04	208.333
849.34	164.706
849.63	281.250
849.93	281.250
850.23	933.333
850.53	450.000
850.82	227.273
851.12	205.882
851.42	208.333
851.71	175.000
852.01	0.000
852.31	217.647
852.61	420.000
852.90	162.500
853.20	322.222
853.50	-2700.000
853.79	132.000
854.09	128.125
854.39	134.483
854.68	141.379
854.98	195.238
855.28	109.677
855.57	200.000
855.87	216.667
856.17	125.926
856.46	284.211
856.76	164.516
857.05	247.059
857.35	318.182
857.65	276.923
857.94	140.000
858.24	366.667
858.53	257.143
858.83	614.286
859.13	160.870
859.42	322.222
859.72	375.000
860.01	300.000
860.31	950.000
860.60	370.000
860.90	375.000
861.20	238.462
861.49	414.286
861.79	-3800.000
862.08	457.143
862.38	333.333
862.67	271.429
862.97	400.000
863.26	166.667
863.56	650.000
863.85	323.077
864.15	247.059
864.44	227.778
864.74	316.667
865.03	354.545
865.33	375.000
865.62	173.333
865.92	466.667
866.21	850.000
866.51	600.000
866.80	183.333
867.10	800.000
867.39	3200.000
867.69	680.000
867.98	800.000
868.27	166.667
868.57	246.667
868.86	975.000
869.16	133.333
869.45	3000.000
869.75	-500.000
870.04	725.000
870.33	600.000
870.63	350.000
870.92	182.353
871.22	725.000
871.51	371.429
871.80	266.667
872.10	276.923
>>>>>End Processed Spectral Data<<<<<
