SpectraSuite Data File
++++++++++++++++++++++++++++++++++++
Date: Tue May 12 17:18:58 PDT 2015
User: schluterlab
Dark Spectrum Present: Yes
Reference Spectrum Present: Yes
Number of Sampled Component Spectra: 1
Spectrometers: USB2E3373
Integration Time (usec): 3000 (USB2E3373)
Spectra Averaged: 3 (USB2E3373)
Boxcar Smoothing: 0 (USB2E3373)
Correct for Electrical Dark: No (USB2E3373)
Strobe/Lamp Enabled: No (USB2E3373)
Correct for Detector Non-linearity: No (USB2E3373)
Correct for Stray Light: No (USB2E3373)
Number of Pixels in Processed Spectrum: 2048
>>>>>Begin Processed Spectral Data<<<<<
178.53	0.000
178.91	-241.667
179.29	-525.000
179.67	-3900.000
180.04	-113.333
180.42	700.000
180.80	1450.000
181.18	0.000
181.56	-325.000
181.94	0.000
182.31	1000.000
182.69	-3100.000
183.07	571.429
183.45	-3300.000
183.83	-1950.000
184.20	340.000
184.58	500.000
184.96	-284.615
185.34	-225.000
185.72	1650.000
186.09	-600.000
186.47	-3500.000
186.85	1100.000
187.23	660.000
187.61	1550.000
187.98	512.500
188.36	228.571
188.74	291.667
189.12	333.333
189.49	950.000
189.87	0.000
190.25	537.500
190.63	2300.000
191.00	-200.000
191.38	-3400.000
191.76	-800.000
192.14	637.500
192.51	-3100.000
192.89	1450.000
193.27	900.000
193.65	-1066.667
194.02	-740.000
194.40	585.714
194.78	-207.143
195.15	313.333
195.53	-2800.000
195.91	-480.000
196.29	3700.000
196.66	275.000
197.04	725.000
197.42	-1300.000
197.79	450.000
198.17	316.667
198.55	0.000
198.92	385.714
199.30	1433.333
199.68	2250.000
200.05	616.667
200.43	-433.333
200.81	177.778
201.18	3000.000
201.56	291.667
201.94	-825.000
202.31	-237.500
202.69	-460.000
203.07	3300.000
203.44	-633.333
203.82	350.000
204.19	800.000
204.57	-1250.000
204.95	-675.000
205.32	-720.000
205.70	716.667
206.08	700.000
206.45	-800.000
206.83	511.111
207.20	200.000
207.58	241.667
207.96	780.000
208.33	0.000
208.71	585.714
209.08	700.000
209.46	-3600.000
209.84	-625.000
210.21	800.000
210.59	-400.000
210.96	266.667
211.34	-875.000
211.71	418.182
212.09	825.000
212.46	1600.000
212.84	-266.667
213.22	388.889
213.59	-2500.000
213.97	320.000
214.34	825.000
214.72	1066.667
215.09	733.333
215.47	-2600.000
215.84	-310.000
216.22	-275.000
216.59	0.000
216.97	0.000
217.34	1300.000
217.72	-1450.000
218.09	933.333
218.47	525.000
218.84	800.000
219.22	1300.000
219.59	866.667
219.97	657.143
220.34	311.111
220.72	1500.000
221.09	3500.000
221.47	250.000
221.84	866.667
222.22	330.000
222.59	222.222
222.97	192.857
223.34	181.250
223.72	-1500.000
224.09	1166.667
224.46	246.154
224.84	-925.000
225.21	333.333
225.59	233.333
225.96	933.333
226.34	-680.000
226.71	-775.000
227.08	-520.000
227.46	0.000
227.83	-450.000
228.21	-1600.000
228.58	425.000
228.95	1100.000
229.33	311.111
229.70	1125.000
230.08	346.154
230.45	3500.000
230.82	-525.000
231.20	-1100.000
231.57	-1066.667
231.95	620.000
232.32	366.667
232.69	533.333
233.07	383.333
233.44	-1900.000
233.81	240.000
234.19	140.741
234.56	237.500
234.93	194.118
235.31	220.000
235.68	193.750
236.05	160.714
236.43	133.333
236.80	235.714
237.17	165.517
237.55	103.125
237.92	110.000
238.29	130.303
238.67	118.750
239.04	117.073
239.41	58.333
239.79	92.500
240.16	72.917
240.53	49.180
240.91	68.116
241.28	77.966
241.65	42.424
242.02	66.197
242.40	47.143
242.77	46.154
243.14	54.430
243.51	56.566
243.89	46.729
244.26	41.121
244.63	46.535
245.00	40.367
245.38	35.593
245.75	37.879
246.12	34.815
246.49	31.915
246.87	26.230
247.24	34.667
247.61	36.875
247.98	37.415
248.36	26.667
248.73	31.633
249.10	26.786
249.47	27.000
249.84	26.866
250.22	28.649
250.59	25.000
250.96	21.519
251.33	24.651
251.70	23.214
252.08	23.109
252.45	19.522
252.82	19.392
253.19	22.530
253.56	18.846
253.94	21.014
254.31	25.969
254.68	24.390
255.05	23.793
255.42	17.883
255.79	22.801
256.16	20.678
256.54	25.000
256.91	17.320
257.28	22.408
257.65	17.868
258.02	20.354
258.39	22.636
258.76	22.609
259.14	18.000
259.51	20.991
259.88	21.884
260.25	18.132
260.62	20.000
260.99	16.804
261.36	19.499
261.73	21.277
262.10	18.063
262.47	20.000
262.85	17.600
263.22	19.537
263.59	17.391
263.96	20.802
264.33	17.284
264.70	19.410
265.07	17.561
265.44	19.037
265.81	17.689
266.18	17.849
266.55	17.494
266.92	16.555
267.29	15.789
267.66	16.592
268.03	16.143
268.40	17.759
268.77	20.264
269.14	15.184
269.51	15.813
269.88	17.143
270.25	16.847
270.62	15.880
270.99	20.081
271.36	18.699
271.73	16.562
272.10	16.364
272.47	16.865
272.84	16.168
273.21	15.702
273.58	14.980
273.95	16.222
274.32	18.482
274.69	16.929
275.06	16.758
275.43	15.900
275.80	14.151
276.17	17.279
276.54	17.009
276.91	17.164
277.28	16.423
277.65	15.867
278.02	17.096
278.39	15.468
278.76	16.724
279.13	14.235
279.50	15.818
279.87	15.084
280.23	14.365
280.60	16.058
280.97	15.862
281.34	15.017
281.71	16.174
282.08	15.726
282.45	15.203
282.82	13.712
283.19	15.898
283.56	14.215
283.92	14.007
284.29	14.309
284.66	15.798
285.03	15.257
285.40	14.711
285.77	14.198
286.14	15.944
286.51	15.337
286.87	13.133
287.24	12.162
287.61	14.438
287.98	14.030
288.35	13.926
288.72	14.264
289.08	15.015
289.45	14.634
289.82	16.250
290.19	14.934
290.56	15.721
290.93	13.669
291.29	14.641
291.66	12.712
292.03	13.464
292.40	14.770
292.77	13.510
293.13	14.836
293.50	13.900
293.87	12.737
294.24	13.147
294.60	15.343
294.97	14.266
295.34	14.741
295.71	13.666
296.08	15.200
296.44	14.612
296.81	13.524
297.18	12.928
297.55	13.916
297.91	12.069
298.28	15.097
298.65	14.110
299.02	14.958
299.38	14.508
299.75	13.780
300.12	14.106
300.48	14.637
300.85	13.826
301.22	13.488
301.59	12.382
301.95	14.119
302.32	15.134
302.69	14.819
303.05	15.937
303.42	13.901
303.79	15.493
304.15	14.081
304.52	13.002
304.89	13.646
305.25	15.795
305.62	14.392
305.99	14.891
306.35	14.316
306.72	14.776
307.09	14.389
307.45	14.150
307.82	15.535
308.19	15.670
308.55	14.900
308.92	16.585
309.29	16.765
309.65	16.452
310.02	15.213
310.38	16.550
310.75	16.297
311.12	14.943
311.48	18.436
311.85	16.603
312.22	18.052
312.58	17.298
312.95	17.864
313.31	19.007
313.68	18.105
314.05	20.238
314.41	18.063
314.78	20.076
315.14	18.957
315.51	19.868
315.87	19.799
316.24	20.448
316.61	20.143
316.97	19.817
317.34	20.305
317.70	22.212
318.07	21.975
318.43	22.320
318.80	21.454
319.16	22.378
319.53	22.566
319.89	22.133
320.26	24.209
320.62	23.810
320.99	24.309
321.35	24.768
321.72	25.047
322.08	25.762
322.45	27.157
322.81	24.337
323.18	27.176
323.54	27.526
323.91	27.743
324.27	27.851
324.64	27.595
325.00	28.103
325.37	28.583
325.73	29.342
326.10	29.909
326.46	31.709
326.83	30.080
327.19	31.325
327.56	31.070
327.92	32.459
328.29	32.160
328.65	32.192
329.01	31.651
329.38	32.318
329.74	32.024
330.11	33.710
330.47	33.078
330.84	32.701
331.20	33.164
331.56	35.060
331.93	34.474
332.29	32.908
332.66	34.694
333.02	33.677
333.38	35.689
333.75	35.113
334.11	34.228
334.48	34.359
334.84	34.713
335.20	34.902
335.57	34.089
335.93	34.735
336.29	33.333
336.66	36.192
337.02	34.388
337.38	33.792
337.75	34.544
338.11	35.190
338.47	33.192
338.84	34.547
339.20	33.680
339.56	34.735
339.93	33.863
340.29	33.025
340.65	34.702
341.02	35.640
341.38	34.565
341.74	35.631
342.11	33.973
342.47	34.290
342.83	34.947
343.20	34.923
343.56	33.042
343.92	34.600
344.28	35.486
344.65	34.637
345.01	33.730
345.37	33.814
345.73	34.921
346.10	34.582
346.46	35.088
346.82	32.562
347.19	35.162
347.55	33.177
347.91	34.517
348.27	32.765
348.63	33.386
349.00	33.511
349.36	35.019
349.72	35.703
350.08	35.171
350.45	33.968
350.81	34.786
351.17	33.282
351.53	33.410
351.89	33.489
352.26	34.543
352.62	34.540
352.98	34.202
353.34	35.131
353.70	33.257
354.07	33.923
354.43	33.871
354.79	33.485
355.15	35.375
355.51	33.535
355.87	33.886
356.24	33.872
356.60	33.714
356.96	33.813
357.32	33.233
357.68	34.435
358.04	33.967
358.40	34.183
358.77	34.560
359.13	33.258
359.49	33.136
359.85	35.666
360.21	33.135
360.57	33.577
360.93	33.405
361.29	34.343
361.66	35.720
362.02	33.452
362.38	33.333
362.74	34.678
363.10	34.853
363.46	32.390
363.82	34.011
364.18	34.353
364.54	33.977
364.90	34.538
365.26	34.629
365.62	32.873
365.98	33.655
366.35	33.517
366.71	34.004
367.07	33.447
367.43	33.714
367.79	33.311
368.15	31.818
368.51	33.012
368.87	32.948
369.23	33.541
369.59	32.974
369.95	33.497
370.31	34.086
370.67	33.449
371.03	34.244
371.39	33.172
371.75	33.147
372.11	33.583
372.47	34.110
372.83	32.291
373.19	33.173
373.55	32.990
373.91	31.423
374.27	32.209
374.63	33.356
374.99	33.760
375.35	33.468
375.71	32.850
376.07	33.289
376.42	32.353
376.78	33.012
377.14	33.159
377.50	32.085
377.86	32.543
378.22	32.480
378.58	33.475
378.94	32.348
379.30	32.444
379.66	32.812
380.02	33.607
380.38	32.026
380.74	33.852
381.09	32.009
381.45	31.618
381.81	31.738
382.17	31.929
382.53	32.094
382.89	32.643
383.25	32.031
383.61	32.104
383.97	32.394
384.32	32.248
384.68	31.907
385.04	31.829
385.40	31.791
385.76	31.305
386.12	32.468
386.48	32.401
386.83	32.213
387.19	32.038
387.55	32.273
387.91	32.506
388.27	31.945
388.62	31.045
388.98	31.429
389.34	30.518
389.70	31.899
390.06	31.220
390.42	31.709
390.77	31.634
391.13	31.141
391.49	31.397
391.85	32.615
392.20	31.347
392.56	31.601
392.92	31.106
393.28	30.101
393.64	30.562
393.99	30.824
394.35	30.018
394.71	30.097
395.07	31.326
395.42	31.674
395.78	31.956
396.14	32.229
396.50	30.927
396.85	31.402
397.21	31.288
397.57	30.723
397.92	29.232
398.28	30.061
398.64	31.297
399.00	29.610
399.35	29.522
399.71	30.574
400.07	29.737
400.42	30.209
400.78	30.674
401.14	31.004
401.49	29.493
401.85	30.475
402.21	29.408
402.57	29.683
402.92	29.879
403.28	29.654
403.63	30.077
403.99	30.579
404.35	29.777
404.70	30.242
405.06	29.141
405.42	29.922
405.77	29.493
406.13	29.284
406.49	28.596
406.84	29.047
407.20	29.737
407.55	29.846
407.91	30.057
408.27	29.412
408.62	29.805
408.98	29.509
409.34	28.638
409.69	28.687
410.05	28.623
410.40	29.093
410.76	27.762
411.11	29.502
411.47	29.012
411.83	28.471
412.18	29.227
412.54	28.348
412.89	28.024
413.25	28.848
413.60	29.673
413.96	30.521
414.31	28.926
414.67	29.112
415.03	29.310
415.38	29.716
415.74	28.174
416.09	29.544
416.45	30.123
416.80	29.442
417.16	28.326
417.51	28.471
417.87	29.349
418.22	29.162
418.58	29.554
418.93	28.019
419.29	28.466
419.64	28.528
420.00	28.759
420.35	27.700
420.71	27.771
421.06	28.723
421.42	28.555
421.77	27.818
422.12	28.225
422.48	27.632
422.83	28.013
423.19	28.240
423.54	27.702
423.90	28.199
424.25	27.738
424.61	28.207
424.96	27.894
425.31	27.094
425.67	28.507
426.02	28.099
426.38	28.121
426.73	28.456
427.09	28.529
427.44	28.362
427.79	28.245
428.15	28.933
428.50	28.571
428.85	28.336
429.21	27.715
429.56	27.916
429.92	27.151
430.27	26.657
430.62	27.558
430.98	27.695
431.33	26.411
431.68	27.012
432.04	27.315
432.39	28.485
432.74	27.810
433.10	27.796
433.45	28.662
433.80	29.288
434.16	27.325
434.51	27.812
434.86	28.144
435.22	27.229
435.57	27.386
435.92	27.888
436.28	28.571
436.63	28.255
436.98	28.829
437.34	28.767
437.69	28.052
438.04	27.527
438.39	28.605
438.75	28.285
439.10	27.361
439.45	27.869
439.81	28.340
440.16	27.848
440.51	27.252
440.86	27.806
441.22	27.327
441.57	27.979
441.92	27.641
442.27	27.577
442.63	26.880
442.98	27.478
443.33	26.942
443.68	27.968
444.03	26.720
444.39	26.836
444.74	26.915
445.09	27.541
445.44	28.002
445.79	27.583
446.15	26.947
446.50	26.530
446.85	26.793
447.20	27.114
447.55	27.080
447.91	28.130
448.26	27.476
448.61	28.192
448.96	27.941
449.31	27.393
449.66	28.405
450.02	26.742
450.37	27.540
450.72	27.493
451.07	27.341
451.42	27.030
451.77	27.491
452.12	27.283
452.47	27.947
452.83	28.056
453.18	28.048
453.53	28.360
453.88	27.600
454.23	28.298
454.58	26.923
454.93	27.406
455.28	28.091
455.63	27.896
455.98	27.806
456.34	27.173
456.69	27.805
457.04	27.625
457.39	27.200
457.74	27.309
458.09	27.906
458.44	27.054
458.79	27.427
459.14	27.005
459.49	27.520
459.84	27.391
460.19	26.893
460.54	27.407
460.89	26.279
461.24	26.919
461.59	27.608
461.94	26.241
462.29	26.831
462.64	27.261
462.99	27.575
463.34	28.192
463.69	28.131
464.04	27.749
464.39	27.018
464.74	26.788
465.09	27.162
465.44	26.442
465.79	26.402
466.14	26.285
466.49	26.858
466.84	26.477
467.19	27.358
467.54	25.766
467.89	27.054
468.24	27.157
468.59	26.964
468.94	26.872
469.29	27.367
469.64	27.010
469.99	27.571
470.34	27.767
470.68	26.483
471.03	28.352
471.38	27.815
471.73	26.584
472.08	27.593
472.43	27.561
472.78	28.425
473.13	26.846
473.48	27.139
473.83	27.680
474.17	27.660
474.52	27.784
474.87	25.583
475.22	26.956
475.57	26.495
475.92	25.600
476.27	26.605
476.61	26.166
476.96	26.646
477.31	27.352
477.66	27.536
478.01	26.560
478.36	25.798
478.70	25.658
479.05	27.144
479.40	25.744
479.75	26.614
480.10	26.041
480.45	25.070
480.79	25.853
481.14	26.391
481.49	25.480
481.84	25.638
482.19	25.808
482.53	25.428
482.88	25.896
483.23	24.989
483.58	25.853
483.92	26.280
484.27	25.813
484.62	26.868
484.97	25.360
485.31	24.520
485.66	23.326
486.01	22.061
486.36	21.641
486.70	21.585
487.05	22.721
487.40	23.291
487.75	23.418
488.09	24.261
488.44	24.060
488.79	24.679
489.13	24.599
489.48	25.250
489.83	25.646
490.17	25.599
490.52	25.452
490.87	26.293
491.22	26.064
491.56	25.955
491.91	25.672
492.26	25.612
492.60	26.196
492.95	25.918
493.30	26.206
493.64	26.101
493.99	26.297
494.34	25.325
494.68	25.321
495.03	25.550
495.37	26.159
495.72	26.294
496.07	25.022
496.41	24.935
496.76	25.032
497.11	25.407
497.45	25.559
497.80	26.089
498.14	25.613
498.49	25.441
498.84	26.822
499.18	25.137
499.53	26.183
499.87	25.112
500.22	26.117
500.56	24.745
500.91	26.531
501.26	25.494
501.60	25.592
501.95	24.597
502.29	24.933
502.64	25.452
502.98	24.989
503.33	24.410
503.67	24.680
504.02	24.451
504.36	25.339
504.71	25.213
505.06	24.730
505.40	25.409
505.75	24.509
506.09	26.272
506.44	24.671
506.78	25.945
507.13	25.351
507.47	25.619
507.82	25.450
508.16	25.674
508.51	25.749
508.85	25.166
509.19	25.844
509.54	25.879
509.88	25.908
510.23	25.294
510.57	24.855
510.92	26.374
511.26	25.602
511.61	25.258
511.95	25.336
512.30	26.550
512.64	25.857
512.98	25.730
513.33	26.281
513.67	25.738
514.02	25.143
514.36	26.064
514.70	25.707
515.05	25.626
515.39	26.480
515.74	26.681
516.08	26.144
516.42	26.885
516.77	25.333
517.11	25.973
517.46	25.862
517.80	25.505
518.14	27.042
518.49	25.413
518.83	25.440
519.17	26.234
519.52	25.724
519.86	25.995
520.20	26.192
520.55	26.569
520.89	26.379
521.23	27.629
521.58	26.162
521.92	26.472
522.26	25.652
522.61	26.619
522.95	26.847
523.29	26.901
523.64	26.127
523.98	26.408
524.32	25.952
524.66	26.377
525.01	26.391
525.35	25.987
525.69	26.249
526.04	26.889
526.38	26.486
526.72	26.790
527.06	26.611
527.41	26.844
527.75	26.537
528.09	24.804
528.43	27.151
528.78	26.297
529.12	25.707
529.46	25.891
529.80	25.058
530.15	26.046
530.49	26.113
530.83	26.752
531.17	26.076
531.51	26.609
531.86	26.268
532.20	25.587
532.54	26.051
532.88	25.984
533.22	26.447
533.57	26.052
533.91	25.583
534.25	24.582
534.59	25.205
534.93	24.460
535.27	24.587
535.62	24.446
535.96	24.882
536.30	25.716
536.64	24.969
536.98	25.614
537.32	26.813
537.66	25.000
538.01	25.015
538.35	26.201
538.69	25.061
539.03	25.808
539.37	24.272
539.71	24.938
540.05	25.354
540.39	26.541
540.73	25.190
541.07	24.153
541.42	24.254
541.76	25.154
542.10	24.168
542.44	24.626
542.78	24.544
543.12	24.969
543.46	24.687
543.80	24.749
544.14	24.954
544.48	24.818
544.82	24.893
545.16	24.529
545.50	24.339
545.84	25.126
546.18	24.902
546.52	25.180
546.86	25.725
547.20	24.806
547.54	23.496
547.88	24.574
548.22	24.529
548.56	23.335
548.90	25.326
549.24	24.195
549.58	24.291
549.92	25.344
550.26	25.693
550.60	24.684
550.94	25.509
551.28	25.448
551.62	26.345
551.96	24.662
552.30	23.995
552.64	25.049
552.98	23.582
553.32	24.584
553.66	23.322
554.00	24.196
554.34	24.767
554.68	25.739
555.02	24.304
555.36	25.066
555.69	24.935
556.03	24.331
556.37	24.028
556.71	24.511
557.05	24.312
557.39	24.533
557.73	24.124
558.07	24.748
558.41	24.949
558.75	24.555
559.08	26.162
559.42	25.626
559.76	24.733
560.10	24.226
560.44	24.353
560.78	24.936
561.12	24.857
561.45	22.716
561.79	23.845
562.13	23.437
562.47	23.816
562.81	24.854
563.15	24.564
563.48	23.478
563.82	23.706
564.16	23.943
564.50	23.448
564.84	23.647
565.17	23.113
565.51	23.768
565.85	23.751
566.19	23.750
566.52	22.684
566.86	23.351
567.20	22.865
567.54	22.271
567.88	21.857
568.21	21.667
568.55	21.839
568.89	20.484
569.23	20.017
569.56	19.928
569.90	19.404
570.24	19.966
570.57	19.663
570.91	19.126
571.25	18.179
571.59	17.936
571.92	18.057
572.26	17.736
572.60	18.134
572.93	18.488
573.27	18.036
573.61	18.219
573.95	18.078
574.28	18.129
574.62	17.490
574.96	17.224
575.29	17.252
575.63	17.008
575.97	17.722
576.30	17.236
576.64	17.441
576.98	17.297
577.31	17.559
577.65	17.076
577.98	16.914
578.32	16.482
578.66	16.719
578.99	16.929
579.33	17.636
579.67	17.309
580.00	16.762
580.34	17.456
580.67	17.181
581.01	17.358
581.35	16.438
581.68	16.203
582.02	16.289
582.35	16.062
582.69	16.612
583.02	16.587
583.36	17.190
583.70	17.616
584.03	17.798
584.37	17.769
584.70	17.069
585.04	16.916
585.37	17.087
585.71	17.506
586.04	17.070
586.38	17.070
586.72	17.297
587.05	17.936
587.39	17.244
587.72	16.980
588.06	17.035
588.39	17.170
588.73	17.107
589.06	17.712
589.40	17.840
589.73	18.256
590.07	17.982
590.40	18.955
590.73	19.464
591.07	19.089
591.40	18.962
591.74	18.709
592.07	18.677
592.41	18.185
592.74	17.906
593.08	17.839
593.41	17.056
593.75	17.042
594.08	17.924
594.41	17.791
594.75	17.979
595.08	18.141
595.42	17.742
595.75	17.868
596.09	18.283
596.42	18.281
596.75	18.830
597.09	18.861
597.42	18.980
597.75	18.215
598.09	17.768
598.42	18.033
598.76	18.234
599.09	18.573
599.42	17.509
599.76	17.944
600.09	17.458
600.42	17.576
600.76	16.961
601.09	17.846
601.42	17.811
601.76	17.472
602.09	17.807
602.42	17.967
602.76	18.027
603.09	18.363
603.42	18.422
603.76	17.570
604.09	17.662
604.42	17.702
604.76	18.096
605.09	18.531
605.42	18.285
605.75	18.476
606.09	18.018
606.42	18.001
606.75	18.305
607.09	17.726
607.42	18.200
607.75	17.834
608.08	17.506
608.42	18.079
608.75	18.228
609.08	18.082
609.41	18.591
609.75	18.864
610.08	18.390
610.41	17.787
610.74	18.961
611.07	19.100
611.41	18.767
611.74	18.834
612.07	18.353
612.40	18.616
612.73	19.670
613.07	19.260
613.40	18.797
613.73	19.221
614.06	18.300
614.39	18.737
614.72	19.387
615.06	18.447
615.39	18.663
615.72	17.812
616.05	18.584
616.38	18.975
616.71	19.479
617.05	19.714
617.38	18.989
617.71	19.910
618.04	19.798
618.37	19.511
618.70	19.400
619.03	20.269
619.36	21.043
619.69	20.053
620.03	20.939
620.36	20.231
620.69	20.881
621.02	21.264
621.35	20.774
621.68	21.534
622.01	22.509
622.34	21.049
622.67	21.208
623.00	20.558
623.33	21.390
623.66	20.093
623.99	20.685
624.32	21.477
624.65	19.355
624.99	20.419
625.32	20.574
625.65	20.414
625.98	20.363
626.31	20.326
626.64	21.640
626.97	20.275
627.30	21.584
627.63	21.900
627.96	21.674
628.29	21.782
628.62	22.412
628.95	24.379
629.28	22.699
629.61	21.968
629.94	22.040
630.26	23.397
630.59	23.759
630.92	21.256
631.25	23.119
631.58	23.529
631.91	23.597
632.24	23.712
632.57	22.790
632.90	25.052
633.23	24.554
633.56	25.290
633.89	24.223
634.22	24.543
634.55	24.839
634.88	24.863
635.20	25.673
635.53	25.087
635.86	25.168
636.19	25.140
636.52	23.784
636.85	23.085
637.18	24.160
637.51	25.028
637.83	23.913
638.16	26.260
638.49	23.832
638.82	24.883
639.15	24.794
639.48	25.711
639.81	25.641
640.13	25.153
640.46	25.917
640.79	25.098
641.12	24.672
641.45	27.814
641.77	26.288
642.10	25.837
642.43	27.027
642.76	25.852
643.09	26.513
643.41	25.526
643.74	28.489
644.07	25.664
644.40	27.515
644.73	27.177
645.05	27.489
645.38	28.331
645.71	28.073
646.04	29.313
646.36	26.291
646.69	26.560
647.02	28.000
647.35	25.512
647.67	28.849
648.00	27.850
648.33	26.466
648.66	26.818
648.98	24.783
649.31	25.506
649.64	25.173
649.96	23.471
650.29	24.571
650.62	26.804
650.94	28.614
651.27	26.954
651.60	27.856
651.92	26.882
652.25	26.929
652.58	25.957
652.90	26.347
653.23	25.406
653.56	26.706
653.88	26.138
654.21	25.220
654.54	26.354
654.86	26.696
655.19	26.913
655.52	18.228
655.84	12.546
656.17	13.664
656.49	19.323
656.82	22.117
657.15	17.579
657.47	13.497
657.80	10.244
658.13	8.287
658.45	11.015
658.78	13.678
659.10	14.191
659.43	15.178
659.75	15.907
660.08	17.356
660.41	20.145
660.73	24.969
661.06	24.474
661.38	24.702
661.71	25.000
662.03	27.376
662.36	28.190
662.68	29.609
663.01	28.288
663.33	27.170
663.66	28.402
663.98	28.770
664.31	27.985
664.63	28.352
664.96	28.705
665.28	28.625
665.61	27.547
665.93	26.226
666.26	27.477
666.58	29.174
666.91	27.220
667.23	28.313
667.56	29.363
667.88	28.838
668.21	28.893
668.53	30.242
668.86	30.060
669.18	25.662
669.50	28.719
669.83	29.774
670.15	29.314
670.48	25.195
670.80	30.080
671.13	26.693
671.45	28.858
671.77	29.685
672.10	26.571
672.42	27.138
672.75	27.057
673.07	25.755
673.39	24.441
673.72	25.260
674.04	26.344
674.37	29.401
674.69	27.695
675.01	25.746
675.34	27.132
675.66	29.492
675.98	27.416
676.31	26.800
676.63	25.447
676.95	28.175
677.28	26.978
677.60	25.755
677.92	26.984
678.25	23.837
678.57	27.188
678.89	27.125
679.22	25.368
679.54	27.936
679.86	26.178
680.18	26.538
680.51	22.720
680.83	23.142
681.15	23.397
681.48	25.694
681.80	24.694
682.12	26.125
682.44	24.324
682.77	26.868
683.09	26.019
683.41	27.143
683.73	26.772
684.06	26.984
684.38	27.326
684.70	25.360
685.02	24.479
685.34	25.352
685.67	24.759
685.99	23.645
686.31	23.267
686.63	23.415
686.96	24.020
687.28	23.154
687.60	25.256
687.92	23.451
688.24	25.517
688.56	25.979
688.89	26.004
689.21	24.855
689.53	26.482
689.85	24.390
690.17	25.243
690.49	27.218
690.82	26.050
691.14	26.061
691.46	25.667
691.78	24.951
692.10	24.427
692.42	24.864
692.74	27.907
693.06	27.907
693.39	25.889
693.71	24.754
694.03	28.008
694.35	25.904
694.67	26.273
694.99	24.390
695.31	26.802
695.63	26.244
695.95	26.244
696.27	28.097
696.59	25.776
696.91	25.823
697.23	27.828
697.56	22.822
697.88	21.158
698.20	24.340
698.52	23.541
698.84	26.283
699.16	26.439
699.48	26.695
699.80	27.887
700.12	29.099
700.44	28.505
700.76	28.401
701.08	28.721
701.40	26.494
701.72	31.283
702.04	26.558
702.36	29.301
702.68	29.521
703.00	25.313
703.32	29.032
703.64	29.975
703.96	29.427
704.28	27.249
704.60	29.859
704.91	29.132
705.23	26.705
705.55	29.970
705.87	30.159
706.19	35.423
706.51	37.304
706.83	28.024
707.15	29.947
707.47	27.603
707.79	25.287
708.11	24.263
708.43	24.944
708.74	25.113
709.06	26.047
709.38	26.799
709.70	27.520
710.02	30.435
710.34	26.243
710.66	30.278
710.98	30.055
711.29	28.969
711.61	29.248
711.93	29.787
712.25	28.313
712.57	25.402
712.89	29.697
713.20	32.588
713.52	29.283
713.84	32.326
714.16	22.029
714.48	23.919
714.80	24.661
715.11	25.532
715.43	25.140
715.75	29.577
716.07	28.324
716.39	24.857
716.70	26.791
717.02	31.987
717.34	29.496
717.66	32.986
717.97	36.742
718.29	33.451
718.61	28.378
718.93	31.834
719.24	29.866
719.56	31.379
719.88	25.159
720.20	28.387
720.51	30.719
720.83	31.773
721.15	34.014
721.46	31.164
721.78	28.920
722.10	30.556
722.42	31.104
722.73	32.491
723.05	29.474
723.37	33.569
723.68	28.125
724.00	30.303
724.32	30.798
724.63	33.077
724.95	30.196
725.27	33.829
725.58	29.779
725.90	25.000
726.22	30.137
726.53	26.087
726.85	31.270
727.16	29.866
727.48	26.910
727.80	29.496
728.11	29.286
728.43	30.797
728.74	29.720
729.06	31.541
729.38	31.228
729.69	32.000
730.01	34.868
730.32	28.188
730.64	29.568
730.96	28.228
731.27	27.217
731.59	23.563
731.90	25.348
732.22	25.429
732.53	24.786
732.85	31.287
733.16	27.711
733.48	25.078
733.80	26.667
734.11	30.368
734.43	22.222
734.74	23.324
735.06	26.455
735.37	25.258
735.69	24.928
736.00	26.911
736.32	25.152
736.63	25.237
736.95	24.845
737.26	27.744
737.58	27.301
737.89	23.494
738.21	24.172
738.52	25.753
738.83	34.432
739.15	27.875
739.46	26.897
739.78	25.170
740.09	27.988
740.41	26.687
740.72	28.254
741.04	29.720
741.35	33.594
741.66	28.854
741.98	27.897
742.29	36.111
742.61	33.628
742.92	31.780
743.23	35.600
743.55	27.925
743.86	27.451
744.18	34.746
744.49	35.950
744.80	35.484
745.12	37.054
745.43	34.579
745.74	32.889
746.06	30.702
746.37	34.884
746.68	29.204
747.00	28.700
747.31	34.874
747.62	26.230
747.94	24.893
748.25	28.405
748.56	36.017
748.88	33.482
749.19	31.163
749.50	29.224
749.82	27.984
750.13	30.435
750.44	25.333
750.75	28.859
751.07	29.605
751.38	24.752
751.69	25.253
752.01	29.720
752.32	25.581
752.63	27.852
752.94	28.671
753.26	34.766
753.57	28.405
753.88	25.094
754.19	27.437
754.51	25.249
754.82	26.510
755.13	24.324
755.44	25.926
755.75	31.959
756.07	25.685
756.38	26.144
756.69	26.875
757.00	25.223
757.31	25.634
757.63	25.344
757.94	22.074
758.25	23.430
758.56	23.112
758.87	23.810
759.18	25.872
759.50	21.581
759.81	28.783
760.12	23.034
760.43	24.650
760.74	23.544
761.05	24.403
761.36	20.312
761.67	23.450
761.99	22.817
762.30	27.010
762.61	27.083
762.92	26.894
763.23	32.075
763.54	28.077
763.85	28.016
764.16	29.514
764.47	29.054
764.78	27.687
765.10	28.659
765.41	19.886
765.72	20.994
766.03	24.773
766.34	25.784
766.65	23.574
766.96	31.174
767.27	34.112
767.58	33.663
767.89	31.492
768.20	33.537
768.51	29.082
768.82	29.825
769.13	29.412
769.44	25.188
769.75	24.345
770.06	31.513
770.37	30.263
770.68	27.556
770.99	30.508
771.30	37.238
771.61	28.846
771.92	27.099
772.23	29.839
772.54	35.556
772.85	28.713
773.16	32.609
773.47	32.222
773.78	29.703
774.09	30.682
774.39	40.606
774.70	32.941
775.01	31.579
775.32	36.025
775.63	43.836
775.94	48.148
776.25	44.138
776.56	42.748
776.87	48.092
777.18	32.576
777.48	49.606
777.79	40.000
778.10	45.455
778.41	44.030
778.72	34.586
779.03	32.692
779.34	31.081
779.65	35.404
779.95	33.540
780.26	32.738
780.57	42.177
780.88	41.844
781.19	54.167
781.50	39.053
781.80	33.880
782.11	30.688
782.42	27.586
782.73	33.898
783.04	37.419
783.34	35.659
783.65	30.612
783.96	43.871
784.27	27.815
784.57	35.526
784.88	40.580
785.19	36.667
785.50	51.724
785.81	48.062
786.11	40.741
786.42	37.008
786.73	46.847
787.04	41.509
787.34	40.650
787.65	43.182
787.96	43.182
788.26	38.583
788.57	48.175
788.88	45.070
789.19	41.985
789.49	45.946
789.80	35.156
790.11	38.843
790.41	45.370
790.72	37.963
791.03	55.769
791.33	58.586
791.64	60.000
791.95	53.684
792.25	46.875
792.56	46.000
792.87	56.098
793.17	47.727
793.48	63.529
793.79	58.621
794.09	50.000
794.40	58.621
794.70	42.857
795.01	37.692
795.32	37.405
795.62	38.462
795.93	46.218
796.23	46.341
796.54	48.980
796.85	53.409
797.15	77.922
797.46	60.976
797.76	38.750
798.07	66.667
798.37	65.000
798.68	61.250
798.99	63.415
799.29	57.333
799.60	43.023
799.90	48.684
800.21	60.606
800.51	54.930
800.82	68.966
801.12	73.846
801.43	69.333
801.73	63.793
802.04	72.727
802.34	61.644
802.65	72.549
802.95	82.609
803.26	75.806
803.56	81.667
803.87	68.657
804.17	66.667
804.48	79.245
804.78	63.889
805.09	75.758
805.39	73.016
805.70	82.456
806.00	45.714
806.30	65.625
806.61	55.294
806.91	54.444
807.22	50.000
807.52	47.368
807.83	64.474
808.13	57.971
808.43	67.742
808.74	71.233
809.04	85.714
809.35	70.588
809.65	75.758
809.95	80.392
810.26	96.296
810.56	78.125
810.86	89.796
811.17	75.439
811.47	93.478
811.77	87.931
812.08	63.793
812.38	78.571
812.69	73.810
812.99	82.222
813.29	71.429
813.59	119.355
813.90	82.759
814.20	65.574
814.50	60.000
814.81	49.123
815.11	87.037
815.41	89.286
815.72	96.429
816.02	84.000
816.32	97.561
816.62	82.759
816.93	121.212
817.23	95.122
817.53	91.071
817.84	84.444
818.14	90.476
818.44	77.083
818.74	90.566
819.04	94.872
819.35	109.091
819.65	113.462
819.95	111.111
820.25	106.383
820.56	113.514
820.86	94.737
821.16	57.447
821.46	86.842
821.76	72.727
822.07	100.000
822.37	78.947
822.67	109.302
822.97	94.737
823.27	93.478
823.57	100.000
823.88	123.077
824.18	69.697
824.48	121.739
824.78	111.111
825.08	121.739
825.38	124.138
825.69	100.000
825.99	72.340
826.29	122.222
826.59	85.714
826.89	153.333
827.19	122.857
827.49	148.387
827.79	146.154
828.09	83.333
828.39	108.333
828.70	91.892
829.00	175.000
829.30	212.500
829.60	119.444
829.90	158.065
830.20	121.212
830.50	113.514
830.80	137.500
831.10	161.538
831.40	147.619
831.70	212.500
832.00	133.333
832.30	165.217
832.60	141.667
832.90	163.636
833.20	205.000
833.50	142.105
833.80	138.235
834.10	102.632
834.40	152.632
834.70	130.000
835.00	140.000
835.30	110.811
835.60	143.750
835.90	108.108
836.20	169.231
836.50	150.000
836.80	95.122
837.10	178.261
837.40	269.231
837.70	115.789
838.00	153.333
838.30	166.667
838.60	176.000
838.90	380.000
839.19	193.750
839.49	136.667
839.79	100.000
840.09	130.769
840.39	226.667
840.69	210.526
840.99	133.333
841.29	152.174
841.59	165.000
841.88	180.000
842.18	388.889
842.48	142.857
842.78	148.148
843.08	253.846
843.38	168.182
843.68	257.143
843.97	385.714
844.27	147.826
844.57	1650.000
844.87	292.857
845.17	227.778
845.47	142.857
845.76	145.833
846.06	457.143
846.36	194.118
846.66	238.462
846.96	212.500
847.25	300.000
847.55	189.474
847.85	183.333
848.15	640.000
848.44	318.182
848.74	176.190
849.04	208.333
849.34	247.059
849.63	237.500
849.93	256.250
850.23	966.667
850.53	475.000
850.82	290.909
851.12	182.353
851.42	158.333
851.71	281.250
852.01	0.000
852.31	205.882
852.61	410.000
852.90	162.500
853.20	322.222
853.50	-2800.000
853.79	124.000
854.09	168.750
854.39	127.586
854.68	134.483
854.98	176.190
855.28	151.613
855.57	271.429
855.87	161.111
856.17	137.037
856.46	189.474
856.76	103.226
857.05	235.294
857.35	218.182
857.65	200.000
857.94	110.000
858.24	333.333
858.53	250.000
858.83	528.571
859.13	143.478
859.42	266.667
859.72	387.500
860.01	283.333
860.31	700.000
860.60	270.000
860.90	550.000
861.20	207.692
861.49	485.714
861.79	-3400.000
862.08	500.000
862.38	411.111
862.67	242.857
862.97	390.000
863.26	160.000
863.56	625.000
863.85	246.154
864.15	270.588
864.44	172.222
864.74	358.333
865.03	381.818
865.33	350.000
865.62	200.000
865.92	483.333
866.21	700.000
866.51	660.000
866.80	222.222
867.10	1033.333
867.39	4100.000
867.69	740.000
867.98	1025.000
868.27	138.095
868.57	306.667
868.86	975.000
869.16	180.952
869.45	3200.000
869.75	-466.667
870.04	750.000
870.33	560.000
870.63	462.500
870.92	182.353
871.22	875.000
871.51	485.714
871.80	366.667
872.10	269.231
>>>>>End Processed Spectral Data<<<<<
