SpectraSuite Data File
++++++++++++++++++++++++++++++++++++
Date: Tue May 12 17:21:54 PDT 2015
User: schluterlab
Dark Spectrum Present: Yes
Reference Spectrum Present: Yes
Number of Sampled Component Spectra: 1
Spectrometers: USB2E3373
Integration Time (usec): 3000 (USB2E3373)
Spectra Averaged: 3 (USB2E3373)
Boxcar Smoothing: 0 (USB2E3373)
Correct for Electrical Dark: No (USB2E3373)
Strobe/Lamp Enabled: No (USB2E3373)
Correct for Detector Non-linearity: No (USB2E3373)
Correct for Stray Light: No (USB2E3373)
Number of Pixels in Processed Spectrum: 2048
>>>>>Begin Processed Spectral Data<<<<<
178.53	0.000
178.91	-291.667
179.29	-750.000
179.67	-4400.000
180.04	-166.667
180.42	500.000
180.80	1400.000
181.18	0.000
181.56	-287.500
181.94	0.000
182.31	1233.333
182.69	-2500.000
183.07	600.000
183.45	-3400.000
183.83	-1500.000
184.20	370.000
184.58	500.000
184.96	-200.000
185.34	-150.000
185.72	1900.000
186.09	-850.000
186.47	-2600.000
186.85	900.000
187.23	760.000
187.61	1850.000
187.98	412.500
188.36	264.286
188.74	325.000
189.12	400.000
189.49	850.000
189.87	0.000
190.25	425.000
190.63	1700.000
191.00	-241.667
191.38	-3200.000
191.76	-875.000
192.14	562.500
192.51	-3700.000
192.89	1400.000
193.27	1266.667
193.65	-966.667
194.02	-700.000
194.40	628.571
194.78	-221.429
195.15	260.000
195.53	-2800.000
195.91	-620.000
196.29	4300.000
196.66	268.750
197.04	925.000
197.42	-1550.000
197.79	650.000
198.17	325.000
198.55	0.000
198.92	428.571
199.30	1133.333
199.68	2050.000
200.05	733.333
200.43	-350.000
200.81	161.111
201.18	3700.000
201.56	300.000
201.94	-700.000
202.31	-325.000
202.69	-580.000
203.07	2800.000
203.44	-500.000
203.82	350.000
204.19	640.000
204.57	-1400.000
204.95	-675.000
205.32	-680.000
205.70	416.667
206.08	975.000
206.45	-933.333
206.83	311.111
207.20	184.211
207.58	325.000
207.96	500.000
208.33	0.000
208.71	514.286
209.08	620.000
209.46	-3300.000
209.84	-825.000
210.21	720.000
210.59	-420.000
210.96	316.667
211.34	-700.000
211.71	400.000
212.09	925.000
212.46	1350.000
212.84	-383.333
213.22	388.889
213.59	-2600.000
213.97	450.000
214.34	975.000
214.72	1333.333
215.09	1366.667
215.47	-2800.000
215.84	-340.000
216.22	-375.000
216.59	0.000
216.97	0.000
217.34	1150.000
217.72	-1200.000
218.09	1200.000
218.47	425.000
218.84	800.000
219.22	1166.667
219.59	800.000
219.97	628.571
220.34	322.222
220.72	1100.000
221.09	3000.000
221.47	250.000
221.84	1300.000
222.22	280.000
222.59	211.111
222.97	228.571
223.34	243.750
223.72	-1850.000
224.09	933.333
224.46	200.000
224.84	-775.000
225.21	477.778
225.59	280.000
225.96	1300.000
226.34	-580.000
226.71	-625.000
227.08	-580.000
227.46	0.000
227.83	-500.000
228.21	-1700.000
228.58	391.667
228.95	1075.000
229.33	422.222
229.70	975.000
230.08	307.692
230.45	3300.000
230.82	-675.000
231.20	-833.333
231.57	-800.000
231.95	540.000
232.32	275.000
232.69	516.667
233.07	325.000
233.44	-1350.000
233.81	226.667
234.19	177.778
234.56	237.500
234.93	147.059
235.31	210.000
235.68	231.250
236.05	157.143
236.43	133.333
236.80	357.143
237.17	151.724
237.55	125.000
237.92	117.500
238.29	127.273
238.67	118.750
239.04	102.439
239.41	95.833
239.79	105.000
240.16	95.833
240.53	75.410
240.91	55.072
241.28	81.356
241.65	57.576
242.02	73.239
242.40	67.143
242.77	59.341
243.14	67.089
243.51	69.697
243.89	57.009
244.26	56.075
244.63	56.436
245.00	65.138
245.38	52.542
245.75	61.364
246.12	58.519
246.49	53.191
246.87	50.000
247.24	55.333
247.61	53.750
247.98	51.020
248.36	52.727
248.73	56.633
249.10	44.643
249.47	45.500
249.84	43.781
250.22	52.973
250.59	45.000
250.96	38.819
251.33	42.791
251.70	46.429
252.08	42.437
252.45	39.841
252.82	42.966
253.19	41.502
253.56	39.231
253.94	39.855
254.31	41.473
254.68	37.979
255.05	43.103
255.42	41.241
255.79	38.111
256.16	40.678
256.54	40.909
256.91	39.542
257.28	42.475
257.65	36.991
258.02	39.528
258.39	40.115
258.76	39.130
259.14	38.286
259.51	38.484
259.88	38.906
260.25	37.637
260.62	36.712
260.99	35.537
261.36	35.376
261.73	35.106
262.10	36.911
262.47	37.000
262.85	34.667
263.22	38.046
263.59	36.829
263.96	38.847
264.33	34.074
264.70	37.592
265.07	35.610
265.44	36.239
265.81	37.028
266.18	34.783
266.55	36.170
266.92	33.781
267.29	33.991
267.66	37.220
268.03	36.323
268.40	39.112
268.77	33.480
269.14	32.321
269.51	32.517
269.88	34.286
270.25	30.238
270.62	33.262
270.99	32.454
271.36	32.724
271.73	33.124
272.10	32.727
272.47	31.151
272.84	30.739
273.21	33.678
273.58	34.008
273.95	33.881
274.32	30.545
274.69	35.039
275.06	33.151
275.43	33.142
275.80	32.075
276.17	31.618
276.54	29.907
276.91	30.784
277.28	33.577
277.65	32.657
278.02	31.801
278.39	32.374
278.76	31.897
279.13	30.071
279.50	30.182
279.87	29.050
280.23	31.123
280.60	30.839
280.97	31.552
281.34	30.528
281.71	32.348
282.08	31.453
282.45	31.588
282.82	31.605
283.19	31.320
283.56	30.579
283.92	31.107
284.29	30.449
284.66	30.084
285.03	29.851
285.40	30.248
285.77	29.630
286.14	31.579
286.51	30.675
286.87	27.057
287.24	30.781
287.61	31.003
287.98	29.552
288.35	28.444
288.72	28.073
289.08	28.979
289.45	28.049
289.82	28.750
290.19	29.575
290.56	29.985
290.93	28.201
291.29	27.624
291.66	28.390
292.03	28.331
292.40	28.184
292.77	25.627
293.13	27.532
293.50	25.101
293.87	27.236
294.24	28.671
294.60	26.514
294.97	27.692
295.34	26.560
295.71	26.413
296.08	26.267
296.44	24.905
296.81	25.310
297.18	22.940
297.55	24.384
297.91	24.138
298.28	25.121
298.65	25.153
299.02	25.332
299.38	23.981
299.75	23.049
300.12	24.197
300.48	25.059
300.85	25.030
301.22	23.372
301.59	22.759
301.95	24.271
302.32	23.632
302.69	22.964
303.05	23.906
303.42	22.982
303.79	22.427
304.15	22.662
304.52	23.573
304.89	21.748
305.25	22.024
305.62	21.855
305.99	22.174
306.35	23.158
306.72	23.933
307.09	21.843
307.45	21.014
307.82	20.988
308.19	22.474
308.55	21.200
308.92	22.866
309.29	23.077
309.65	21.308
310.02	22.008
310.38	22.034
310.75	19.190
311.12	20.690
311.48	22.297
311.85	21.565
312.22	22.254
312.58	20.603
312.95	21.748
313.31	20.787
313.68	20.638
314.05	22.711
314.41	22.253
314.78	21.591
315.14	22.085
315.51	22.327
315.87	20.255
316.24	20.542
316.61	21.218
316.97	21.284
317.34	21.114
317.70	20.896
318.07	21.085
318.43	21.090
318.80	21.716
319.16	21.154
319.53	19.912
319.89	21.147
320.26	23.091
320.62	23.077
320.99	21.544
321.35	21.985
321.72	21.347
322.08	21.145
322.45	21.617
322.81	22.324
323.18	22.025
323.54	22.909
323.91	23.028
324.27	21.839
324.64	20.675
325.00	20.862
325.37	22.850
325.73	20.995
326.10	21.955
326.46	22.048
326.83	21.040
327.19	22.249
327.56	20.927
327.92	21.967
328.29	22.177
328.65	22.603
329.01	21.557
329.38	23.689
329.74	20.495
330.11	22.242
330.47	21.910
330.84	20.535
331.20	21.235
331.56	23.143
331.93	22.070
332.29	20.748
332.66	21.429
333.02	20.962
333.38	21.640
333.75	22.269
334.11	22.232
334.48	21.111
334.84	20.777
335.20	20.616
335.57	21.662
335.93	20.521
336.29	20.149
336.66	21.184
337.02	20.445
337.38	21.496
337.75	21.875
338.11	21.941
338.47	20.152
338.84	21.084
339.20	19.827
339.56	19.765
339.93	20.652
340.29	19.328
340.65	20.704
341.02	21.078
341.38	20.936
341.74	20.764
342.11	18.948
342.47	20.098
342.83	21.247
343.20	21.261
343.56	19.539
343.92	20.231
344.28	20.335
344.65	19.967
345.01	20.873
345.37	20.272
345.73	19.841
346.10	19.442
346.46	20.734
346.82	18.441
347.19	20.788
347.55	19.126
347.91	19.109
348.27	18.978
348.63	19.699
349.00	19.802
349.36	19.533
349.72	19.725
350.08	19.565
350.45	20.640
350.81	20.948
351.17	18.490
351.53	18.938
351.89	19.425
352.26	19.274
352.62	19.910
352.98	19.248
353.34	20.339
353.70	18.884
354.07	19.615
354.43	19.124
354.79	20.121
355.15	19.219
355.51	18.353
355.87	20.256
356.24	19.630
356.60	18.417
356.96	17.817
357.32	18.839
357.68	18.943
358.04	20.213
358.40	19.565
358.77	18.933
359.13	19.895
359.49	18.681
359.85	18.838
360.21	18.053
360.57	18.759
360.93	19.553
361.29	19.048
361.66	19.463
362.02	18.182
362.38	19.192
362.74	18.542
363.10	19.074
363.46	17.887
363.82	19.705
364.18	18.919
364.54	19.170
364.90	19.478
365.26	19.153
365.62	17.818
365.98	18.926
366.35	18.069
366.71	18.876
367.07	18.430
367.43	18.536
367.79	18.152
368.15	18.521
368.51	18.401
368.87	17.595
369.23	18.850
369.59	18.274
369.95	18.601
370.31	17.454
370.67	17.765
371.03	18.908
371.39	18.213
371.75	18.562
372.11	18.627
372.47	18.288
372.83	17.743
373.19	18.574
373.55	19.038
373.91	17.472
374.27	18.783
374.63	18.508
374.99	18.666
375.35	17.742
375.71	18.008
376.07	18.833
376.42	17.903
376.78	18.561
377.14	17.759
377.50	18.227
377.86	17.168
378.22	18.769
378.58	18.826
378.94	19.071
379.30	18.193
379.66	18.724
380.02	18.065
380.38	18.384
380.74	18.339
381.09	18.575
381.45	17.688
381.81	17.730
382.17	17.705
382.53	17.996
382.89	18.687
383.25	17.999
383.61	17.752
383.97	17.936
384.32	18.143
384.68	18.717
385.04	18.992
385.40	18.149
385.76	18.373
386.12	18.553
386.48	17.143
386.83	18.276
387.19	17.903
387.55	17.786
387.91	17.494
388.27	18.560
388.62	18.545
388.98	18.134
389.34	18.382
389.70	17.276
390.06	18.841
390.42	17.952
390.77	18.857
391.13	17.924
391.49	18.451
391.85	18.338
392.20	18.355
392.56	17.622
392.92	18.136
393.28	17.713
393.64	17.546
393.99	17.546
394.35	19.011
394.71	17.129
395.07	18.674
395.42	17.506
395.78	18.692
396.14	18.614
396.50	18.592
396.85	17.500
397.21	17.509
397.57	18.410
397.92	17.620
398.28	17.595
398.64	18.266
399.00	18.065
399.35	17.767
399.71	17.605
400.07	18.094
400.42	17.731
400.78	17.478
401.14	17.733
401.49	17.281
401.85	17.729
402.21	17.750
402.57	18.552
402.92	17.455
403.28	16.885
403.63	17.657
403.99	17.370
404.35	18.757
404.70	18.370
405.06	17.013
405.42	17.534
405.77	18.467
406.13	18.059
406.49	17.055
406.84	17.484
407.20	17.751
407.55	17.846
407.91	17.932
408.27	17.526
408.62	17.682
408.98	17.268
409.34	18.293
409.69	17.548
410.05	17.352
410.40	17.668
410.76	17.287
411.11	17.002
411.47	17.469
411.83	17.633
412.18	16.908
412.54	17.477
412.89	17.168
413.25	18.073
413.60	17.757
413.96	17.714
414.31	18.477
414.67	18.001
415.03	17.178
415.38	18.170
415.74	17.246
416.09	18.239
416.45	18.100
416.80	18.089
417.16	17.505
417.51	17.707
417.87	17.710
418.22	17.497
418.58	17.834
418.93	18.084
419.29	16.513
419.64	17.202
420.00	18.377
420.35	17.247
420.71	18.145
421.06	17.187
421.42	17.847
421.77	17.324
422.12	16.979
422.48	17.206
422.83	18.025
423.19	16.847
423.54	17.883
423.90	18.120
424.25	16.786
424.61	17.876
424.96	17.165
425.31	16.585
425.67	17.789
426.02	16.545
426.38	17.095
426.73	17.235
427.09	18.031
427.44	16.657
427.79	17.153
428.15	17.914
428.50	18.114
428.85	17.166
429.21	17.234
429.56	16.550
429.92	17.255
430.27	16.739
430.62	16.691
430.98	17.365
431.33	16.935
431.68	16.642
432.04	16.762
432.39	16.520
432.74	17.974
433.10	17.220
433.45	17.346
433.80	17.761
434.16	16.973
434.51	17.234
434.86	17.420
435.22	17.180
435.57	17.190
435.92	17.871
436.28	17.684
436.63	17.342
436.98	17.849
437.34	17.751
437.69	17.245
438.04	17.473
438.39	17.280
438.75	17.149
439.10	17.593
439.45	17.298
439.81	17.582
440.16	17.171
440.51	17.455
440.86	18.177
441.22	16.991
441.57	17.533
441.92	17.275
442.27	16.804
442.63	17.175
442.98	17.295
443.33	16.711
443.68	17.254
444.03	16.824
444.39	17.279
444.74	16.563
445.09	16.904
445.44	17.481
445.79	17.057
446.15	17.158
446.50	17.352
446.85	17.181
447.20	16.468
447.55	17.673
447.91	17.848
448.26	18.104
448.61	16.528
448.96	17.211
449.31	18.042
449.66	17.996
450.02	17.018
450.37	17.657
450.72	17.851
451.07	18.034
451.42	17.427
451.77	18.041
452.12	17.470
452.47	17.740
452.83	18.479
453.18	17.898
453.53	17.821
453.88	18.286
454.23	18.013
454.58	17.949
454.93	18.087
455.28	17.931
455.63	17.967
455.98	18.105
456.34	18.298
456.69	17.683
457.04	17.184
457.39	17.200
457.74	18.356
458.09	16.957
458.44	17.689
458.79	17.719
459.14	17.349
459.49	18.233
459.84	17.663
460.19	17.119
460.54	18.291
460.89	17.537
461.24	17.010
461.59	17.460
461.94	18.085
462.29	18.021
462.64	18.216
462.99	17.083
463.34	18.859
463.69	17.665
464.04	17.617
464.39	17.687
464.74	17.526
465.09	18.050
465.44	17.682
465.79	17.311
466.14	16.958
466.49	17.146
466.84	17.503
467.19	18.746
467.54	18.258
467.89	18.134
468.24	17.371
468.59	18.214
468.94	18.659
469.29	19.120
469.64	18.328
469.99	18.316
470.34	17.647
470.68	17.724
471.03	17.945
471.38	18.079
471.73	17.701
472.08	17.613
472.43	17.815
472.78	17.990
473.13	17.772
473.48	17.543
473.83	18.198
474.17	18.359
474.52	17.476
474.87	17.510
475.22	18.104
475.57	17.576
475.92	17.833
476.27	16.322
476.61	17.534
476.96	17.503
477.31	18.715
477.66	18.304
478.01	17.638
478.36	17.302
478.70	16.824
479.05	18.149
479.40	17.708
479.75	18.073
480.10	17.957
480.45	17.554
480.79	17.834
481.14	17.309
481.49	16.789
481.84	17.986
482.19	17.598
482.53	17.128
482.88	17.608
483.23	16.960
483.58	17.594
483.92	18.053
484.27	17.594
484.62	17.445
484.97	16.751
485.31	16.707
485.66	16.210
486.01	15.941
486.36	15.628
486.70	15.782
487.05	15.878
487.40	16.263
487.75	16.572
488.09	16.648
488.44	16.539
488.79	16.939
489.13	17.059
489.48	17.060
489.83	17.056
490.17	17.217
490.52	17.528
490.87	17.414
491.22	17.332
491.56	17.260
491.91	17.294
492.26	17.862
492.60	18.405
492.95	17.626
493.30	17.607
493.64	18.284
493.99	17.934
494.34	17.526
494.68	17.530
495.03	17.916
495.37	18.460
495.72	17.902
496.07	18.104
496.41	17.116
496.76	18.151
497.11	18.123
497.45	17.887
497.80	17.099
498.14	18.123
498.49	17.874
498.84	17.991
499.18	17.642
499.53	18.144
499.87	17.161
500.22	18.563
500.56	17.502
500.91	18.506
501.26	18.328
501.60	18.033
501.95	17.159
502.29	17.378
502.64	17.380
502.98	17.119
503.33	17.639
503.67	17.395
504.02	17.644
504.36	17.330
504.71	17.833
505.06	17.691
505.40	17.782
505.75	17.867
506.09	17.406
506.44	17.622
506.78	17.864
507.13	17.693
507.47	18.001
507.82	18.443
508.16	18.520
508.51	18.261
508.85	17.949
509.19	18.013
509.54	17.871
509.88	18.299
510.23	18.137
510.57	17.326
510.92	17.832
511.26	18.072
511.61	17.578
511.95	18.019
512.30	18.100
512.64	17.913
512.98	18.350
513.33	17.930
513.67	18.281
514.02	17.870
514.36	18.328
514.70	18.133
515.05	18.700
515.39	17.708
515.74	19.081
516.08	18.682
516.42	18.689
516.77	18.027
517.11	17.600
517.46	18.750
517.80	18.078
518.14	18.986
518.49	18.467
518.83	18.132
519.17	19.357
519.52	19.825
519.86	18.801
520.20	19.726
520.55	19.163
520.89	18.621
521.23	18.808
521.58	18.015
521.92	18.950
522.26	18.424
522.61	18.776
522.95	18.318
523.29	18.596
523.64	18.555
523.98	19.249
524.32	19.031
524.66	18.551
525.01	18.876
525.35	18.503
525.69	19.085
526.04	19.036
526.38	19.011
526.72	19.451
527.06	19.042
527.41	19.105
527.75	19.416
528.09	18.001
528.43	19.646
528.78	19.320
529.12	20.650
529.46	18.469
529.80	18.750
530.15	19.800
530.49	18.472
530.83	19.561
531.17	19.127
531.51	19.497
531.86	18.780
532.20	18.974
532.54	18.519
532.88	19.113
533.22	19.744
533.57	19.463
533.91	18.531
534.25	18.984
534.59	17.836
534.93	18.658
535.27	18.953
535.62	18.028
535.96	18.381
536.30	19.561
536.64	18.075
536.98	19.824
537.32	19.688
537.66	18.686
538.01	18.824
538.35	19.588
538.69	18.871
539.03	18.719
539.37	18.143
539.71	18.333
540.05	18.954
540.39	19.057
540.73	18.671
541.07	18.068
541.42	18.221
541.76	18.681
542.10	18.866
542.44	18.766
542.78	19.069
543.12	19.264
543.46	19.110
543.80	18.484
544.14	19.009
544.48	18.796
544.82	18.654
545.16	18.276
545.50	19.115
545.84	20.391
546.18	19.441
546.52	18.951
546.86	18.891
547.20	18.734
547.54	19.063
547.88	18.127
548.22	19.065
548.56	18.916
548.90	18.921
549.24	19.141
549.58	18.170
549.92	18.795
550.26	18.796
550.60	18.496
550.94	18.453
551.28	20.276
551.62	18.897
551.96	18.581
552.30	18.326
552.64	20.194
552.98	17.784
553.32	18.758
553.66	18.762
554.00	19.498
554.34	19.507
554.68	18.817
555.02	19.280
555.36	18.684
555.69	19.306
556.03	18.471
556.37	18.802
556.71	19.166
557.05	17.955
557.39	18.667
557.73	18.801
558.07	19.182
558.41	18.643
558.75	19.357
559.08	19.442
559.42	18.898
559.76	19.886
560.10	18.926
560.44	18.978
560.78	19.821
561.12	18.754
561.45	17.835
561.79	18.477
562.13	18.762
562.47	19.208
562.81	18.543
563.15	19.392
563.48	17.391
563.82	19.464
564.16	19.963
564.50	18.927
564.84	18.176
565.17	19.311
565.51	19.212
565.85	19.309
566.19	18.869
566.52	18.412
566.86	18.681
567.20	19.101
567.54	18.777
567.88	18.727
568.21	17.224
568.55	18.482
568.89	18.339
569.23	17.256
569.56	17.851
569.90	16.960
570.24	17.615
570.57	17.359
570.91	16.755
571.25	16.578
571.59	16.610
571.92	15.958
572.26	15.768
572.60	16.773
572.93	16.705
573.27	16.284
573.61	16.188
573.95	16.135
574.28	16.311
574.62	16.022
574.96	15.823
575.29	16.346
575.63	15.901
575.97	16.139
576.30	15.996
576.64	16.225
576.98	16.229
577.31	15.946
577.65	16.202
577.98	16.086
578.32	15.543
578.66	16.058
578.99	16.048
579.33	16.193
579.67	16.086
580.00	16.028
580.34	15.713
580.67	15.503
581.01	16.305
581.35	15.643
581.68	15.389
582.02	15.739
582.35	15.376
582.69	16.298
583.02	15.824
583.36	16.241
583.70	16.325
584.03	16.455
584.37	16.406
584.70	16.024
585.04	15.632
585.37	15.352
585.71	16.202
586.04	16.098
586.38	16.208
586.72	16.422
587.05	16.264
587.39	15.853
587.72	16.199
588.06	16.091
588.39	16.453
588.73	16.181
589.06	15.728
589.40	16.870
589.73	16.323
590.07	16.678
590.40	17.178
590.73	17.701
591.07	17.306
591.40	16.727
591.74	16.599
592.07	16.805
592.41	16.667
592.74	16.111
593.08	16.374
593.41	16.278
593.75	15.842
594.08	16.354
594.41	16.520
594.75	16.301
595.08	16.187
595.42	17.051
595.75	16.354
596.09	16.580
596.42	16.642
596.75	17.067
597.09	16.880
597.42	16.857
597.75	16.673
598.09	16.373
598.42	16.157
598.76	16.230
599.09	16.513
599.42	16.159
599.76	16.825
600.09	15.864
600.42	16.367
600.76	16.179
601.09	16.293
601.42	16.297
601.76	16.398
602.09	17.145
602.42	16.562
602.76	16.660
603.09	16.855
603.42	16.294
603.76	16.486
604.09	16.468
604.42	16.723
604.76	16.792
605.09	16.653
605.42	16.904
605.75	16.779
606.09	17.138
606.42	16.159
606.75	16.595
607.09	16.147
607.42	16.874
607.75	16.322
608.08	16.044
608.42	17.366
608.75	16.816
609.08	16.498
609.41	16.818
609.75	16.941
610.08	17.041
610.41	16.469
610.74	16.753
611.07	17.099
611.41	17.609
611.74	16.730
612.07	16.474
612.40	17.154
612.73	17.324
613.07	17.233
613.40	16.842
613.73	17.524
614.06	17.150
614.39	17.172
614.72	16.625
615.06	16.815
615.39	17.228
615.72	16.215
616.05	17.730
616.38	17.453
616.71	17.526
617.05	17.298
617.38	16.854
617.71	18.054
618.04	17.779
618.37	16.732
618.70	17.206
619.03	17.094
619.36	17.965
619.69	17.942
620.03	18.591
620.36	17.469
620.69	17.305
621.02	17.867
621.35	17.049
621.68	18.289
622.01	19.041
622.34	17.844
622.67	18.610
623.00	17.903
623.33	17.814
623.66	17.432
623.99	19.178
624.32	18.225
624.65	17.446
624.99	17.377
625.32	18.704
625.65	17.724
625.98	18.131
626.31	18.620
626.64	17.920
626.97	17.368
627.30	18.012
627.63	18.524
627.96	18.623
628.29	17.904
628.62	18.392
628.95	18.440
629.28	19.895
629.61	18.629
629.94	18.237
630.26	20.624
630.59	20.035
630.92	18.296
631.25	19.220
631.58	20.058
631.91	18.173
632.24	19.631
632.57	18.762
632.90	19.979
633.23	20.252
633.56	20.653
633.89	20.150
634.22	20.452
634.55	18.925
634.88	20.811
635.20	21.300
635.53	20.557
635.86	20.694
636.19	21.100
636.52	18.703
636.85	19.310
637.18	19.935
637.51	20.447
637.83	18.993
638.16	20.281
638.49	21.437
638.82	20.892
639.15	18.919
639.48	20.498
639.81	19.170
640.13	20.613
640.46	22.377
640.79	20.286
641.12	19.291
641.45	21.604
641.77	21.664
642.10	21.821
642.43	22.191
642.76	20.028
643.09	20.029
643.41	20.477
643.74	22.734
644.07	22.124
644.40	20.118
644.73	21.772
645.05	24.368
645.38	22.818
645.71	21.093
646.04	23.817
646.36	21.753
646.69	20.960
647.02	24.800
647.35	21.575
647.67	22.366
648.00	22.638
648.33	21.955
648.66	21.364
648.98	21.304
649.31	20.513
649.64	19.502
649.96	20.626
650.29	20.143
650.62	23.122
650.94	23.042
651.27	22.967
651.60	20.970
651.92	20.891
652.25	22.362
652.58	20.851
652.90	20.060
653.23	21.270
653.56	21.513
653.88	20.558
654.21	21.554
654.54	21.962
654.86	21.534
655.19	21.768
655.52	17.547
655.84	13.616
656.17	15.327
656.49	22.217
656.82	25.681
657.15	20.421
657.47	15.397
657.80	11.738
658.13	9.229
658.45	12.231
658.78	14.846
659.10	14.925
659.43	15.368
659.75	15.907
660.08	16.103
660.41	18.058
660.73	21.330
661.06	21.772
661.38	23.169
661.71	22.842
662.03	23.194
662.36	23.810
662.68	22.905
663.01	24.505
663.33	21.321
663.66	22.288
663.98	23.413
664.31	22.015
664.63	24.330
664.96	24.015
665.28	21.657
665.61	21.698
665.93	22.830
666.26	22.430
666.58	25.138
666.91	24.710
667.23	25.301
667.56	22.382
667.88	24.896
668.21	21.721
668.53	22.581
668.86	26.453
669.18	24.033
669.50	21.694
669.83	22.177
670.15	20.790
670.48	22.070
670.80	23.904
671.13	23.108
671.45	24.248
671.77	23.562
672.10	22.262
672.42	22.697
672.75	20.253
673.07	19.873
673.39	20.927
673.72	21.799
674.04	22.222
674.37	20.871
674.69	21.933
675.01	22.575
675.34	20.349
675.66	24.023
675.98	24.063
676.31	22.600
676.63	22.863
676.95	23.214
677.28	22.718
677.60	22.535
677.92	21.627
678.25	24.225
678.57	22.905
678.89	22.242
679.22	23.713
679.54	22.242
679.86	23.560
680.18	22.144
680.51	21.227
680.83	19.764
681.15	20.797
681.48	22.569
681.80	21.366
682.12	21.626
682.44	20.541
682.77	22.242
683.09	24.078
683.41	23.061
683.73	23.031
684.06	22.421
684.38	23.256
684.70	23.921
685.02	20.139
685.34	22.535
685.67	21.543
685.99	21.675
686.31	21.109
686.63	19.837
686.96	21.569
687.28	21.644
687.60	20.990
687.92	23.283
688.24	23.276
688.56	21.530
688.89	20.650
689.21	24.085
689.53	23.320
689.85	22.154
690.17	24.660
690.49	23.589
690.82	22.899
691.14	23.232
691.46	23.614
691.78	23.392
692.10	21.374
692.42	19.964
692.74	23.837
693.06	20.543
693.39	21.344
693.71	22.986
694.03	24.655
694.35	25.703
694.67	22.403
694.99	23.282
695.31	23.649
695.63	23.529
695.95	23.982
696.27	26.106
696.59	21.957
696.91	23.797
697.23	22.172
697.56	23.029
697.88	19.960
698.20	22.830
698.52	20.817
698.84	23.614
699.16	24.094
699.48	22.246
699.80	24.619
700.12	25.173
700.44	23.832
700.76	23.150
701.08	22.193
701.40	24.935
701.72	25.668
702.04	29.539
702.36	26.882
702.68	25.532
703.00	22.556
703.32	25.806
703.64	25.189
703.96	23.177
704.28	26.455
704.60	26.761
704.91	24.090
705.23	30.682
705.55	25.816
705.87	26.032
706.19	25.078
706.51	28.840
706.83	24.189
707.15	26.203
707.47	23.487
707.79	26.667
708.11	22.902
708.43	24.719
708.74	24.887
709.06	22.558
709.38	24.566
709.70	24.523
710.02	22.826
710.34	22.376
710.66	23.889
710.98	26.230
711.29	22.841
711.61	25.627
711.93	25.836
712.25	28.313
712.57	25.723
712.89	25.455
713.20	26.198
713.52	25.857
713.84	24.773
714.16	23.478
714.48	19.020
714.80	25.745
715.11	23.936
715.43	23.464
715.75	22.254
716.07	24.277
716.39	26.857
716.70	24.611
717.02	28.283
717.34	25.180
717.66	30.208
717.97	34.470
718.29	31.338
718.61	22.973
718.93	26.298
719.24	29.530
719.56	24.138
719.88	21.338
720.20	28.710
720.51	22.222
720.83	24.080
721.15	28.231
721.46	29.452
721.78	28.920
722.10	24.306
722.42	30.100
722.73	28.520
723.05	30.175
723.37	30.742
723.68	33.203
724.00	30.303
724.32	27.376
724.63	26.538
724.95	30.588
725.27	27.881
725.58	32.721
725.90	23.239
726.22	24.658
726.53	29.431
726.85	29.316
727.16	26.846
727.48	30.233
727.80	32.374
728.11	26.071
728.43	27.899
728.74	30.070
729.06	21.864
729.38	31.228
729.69	29.000
730.01	30.263
730.32	22.483
730.64	26.910
730.96	29.429
731.27	19.878
731.59	24.425
731.90	25.627
732.22	24.857
732.53	23.362
732.85	28.363
733.16	24.096
733.48	26.959
733.80	26.377
734.11	30.368
734.43	19.298
734.74	26.273
735.06	25.397
735.37	26.031
735.69	22.029
736.00	26.606
736.32	21.515
736.63	23.344
736.95	25.776
737.26	28.049
737.58	26.994
737.89	26.205
738.21	23.841
738.52	25.084
738.83	27.839
739.15	28.571
739.46	26.552
739.78	24.830
740.09	25.656
740.41	27.301
740.72	28.571
741.04	28.322
741.35	28.906
741.66	26.482
741.98	34.764
742.29	27.778
742.61	27.434
742.92	25.424
743.23	28.400
743.55	27.170
743.86	24.314
744.18	33.051
744.49	33.471
744.80	31.336
745.12	34.375
745.43	30.374
745.74	36.000
746.06	27.193
746.37	33.023
746.68	30.088
747.00	31.390
747.31	30.672
747.62	27.049
747.94	27.039
748.25	28.794
748.56	33.051
748.88	32.143
749.19	28.372
749.50	30.137
749.82	32.099
750.13	29.644
750.44	27.000
750.75	25.839
751.07	28.289
751.38	27.063
751.69	22.896
752.01	27.622
752.32	28.239
752.63	27.181
752.94	29.371
753.26	28.125
753.57	30.350
753.88	24.345
754.19	28.159
754.51	26.578
754.82	25.839
755.13	28.041
755.44	27.778
755.75	29.210
756.07	25.000
756.38	25.490
756.69	24.375
757.00	29.377
757.31	27.042
757.63	26.722
757.94	24.202
758.25	23.671
758.56	21.510
758.87	24.561
759.18	26.744
759.50	27.660
759.81	24.629
760.12	26.404
760.43	21.849
760.74	23.544
761.05	21.485
761.36	20.052
761.67	26.415
761.99	25.070
762.30	27.974
762.61	24.653
762.92	29.545
763.23	24.906
763.54	26.154
763.85	22.568
764.16	27.083
764.47	26.351
764.78	23.453
765.10	20.732
765.41	24.148
765.72	25.967
766.03	24.169
766.34	24.042
766.65	26.996
766.96	28.745
767.27	31.308
767.58	34.158
767.89	31.492
768.20	41.463
768.51	29.592
768.82	28.947
769.13	28.235
769.44	31.203
769.75	29.588
770.06	28.992
770.37	29.386
770.68	28.000
770.99	27.119
771.30	27.197
771.61	31.923
771.92	28.244
772.23	28.629
772.54	32.889
772.85	32.178
773.16	34.239
773.47	36.667
773.78	34.158
774.09	36.364
774.39	26.667
774.70	25.882
775.01	30.921
775.32	40.373
775.63	39.041
775.94	46.914
776.25	31.724
776.56	34.351
776.87	36.641
777.18	34.091
777.48	49.606
777.79	36.923
778.10	40.909
778.41	44.776
778.72	46.617
779.03	41.667
779.34	30.405
779.65	31.677
779.95	38.509
780.26	35.119
780.57	47.619
780.88	42.553
781.19	39.167
781.50	32.544
781.80	37.705
782.11	30.688
782.42	27.011
782.73	35.593
783.04	32.258
783.34	29.457
783.65	36.735
783.96	38.710
784.27	33.113
784.57	28.947
784.88	35.507
785.19	46.667
785.50	43.103
785.81	50.388
786.11	40.000
786.42	44.882
786.73	36.937
787.04	47.170
787.34	29.268
787.65	54.545
787.96	42.424
788.26	44.094
788.57	43.066
788.88	35.211
789.19	34.351
789.49	38.514
789.80	38.281
790.11	39.669
790.41	41.667
790.72	52.778
791.03	48.077
791.33	50.505
791.64	56.842
791.95	52.632
792.25	46.875
792.56	57.000
792.87	43.902
793.17	53.409
793.48	57.647
793.79	50.575
794.09	48.864
794.40	51.724
794.70	38.095
795.01	42.308
795.32	42.748
795.62	37.607
795.93	47.059
796.23	39.024
796.54	51.020
796.85	59.091
797.15	64.935
797.46	52.439
797.76	36.250
798.07	49.333
798.37	50.000
798.68	51.250
798.99	62.195
799.29	52.000
799.60	34.884
799.90	52.632
800.21	69.697
800.51	69.014
800.82	56.897
801.12	67.692
801.43	60.000
801.73	48.276
802.04	57.143
802.34	61.644
802.65	74.510
802.95	69.565
803.26	69.355
803.56	86.667
803.87	73.134
804.17	69.841
804.48	64.151
804.78	51.389
805.09	68.182
805.39	68.254
805.70	68.421
806.00	54.286
806.30	56.250
806.61	47.059
806.91	53.333
807.22	45.652
807.52	52.632
807.83	71.053
808.13	50.725
808.43	69.355
808.74	65.753
809.04	64.286
809.35	63.235
809.65	71.212
809.95	72.549
810.26	75.926
810.56	84.375
810.86	75.510
811.17	75.439
811.47	58.696
811.77	75.862
812.08	56.897
812.38	83.333
812.69	78.571
812.99	86.667
813.29	105.714
813.59	83.871
813.90	68.966
814.20	80.328
814.50	80.000
814.81	61.404
815.11	111.111
815.41	66.071
815.72	82.143
816.02	80.000
816.32	104.878
816.62	81.034
816.93	124.242
817.23	121.951
817.53	73.214
817.84	93.333
818.14	80.952
818.44	93.750
818.74	73.585
819.04	87.179
819.35	112.121
819.65	82.692
819.95	85.185
820.25	108.511
820.56	113.514
820.86	89.474
821.16	76.596
821.46	113.158
821.76	81.818
822.07	80.952
822.37	121.053
822.67	86.047
822.97	78.947
823.27	108.696
823.57	121.875
823.88	74.359
824.18	103.030
824.48	139.130
824.78	97.222
825.08	147.826
825.38	148.276
825.69	100.000
825.99	95.745
826.29	97.222
826.59	100.000
826.89	113.333
827.19	128.571
827.49	145.161
827.79	123.077
828.09	102.381
828.39	94.444
828.70	56.757
829.00	128.571
829.30	175.000
829.60	119.444
829.90	106.452
830.20	100.000
830.50	89.189
830.80	154.167
831.10	169.231
831.40	190.476
831.70	216.667
832.00	116.667
832.30	169.565
832.60	141.667
832.90	148.485
833.20	220.000
833.50	128.947
833.80	117.647
834.10	81.579
834.40	163.158
834.70	96.667
835.00	156.000
835.30	78.378
835.60	159.375
835.90	129.730
836.20	173.077
836.50	90.909
836.80	97.561
837.10	121.739
837.40	276.923
837.70	157.895
838.00	116.667
838.30	212.500
838.60	140.000
838.90	280.000
839.19	175.000
839.49	100.000
839.79	131.034
840.09	150.000
840.39	240.000
840.69	200.000
840.99	90.476
841.29	165.217
841.59	220.000
841.88	196.000
842.18	255.556
842.48	142.857
842.78	155.556
843.08	246.154
843.38	172.727
843.68	264.286
843.97	442.857
844.27	156.522
844.57	1600.000
844.87	278.571
845.17	177.778
845.47	180.952
845.76	158.333
846.06	471.429
846.36	111.765
846.66	300.000
846.96	206.250
847.25	138.462
847.55	147.368
847.85	183.333
848.15	480.000
848.44	263.636
848.74	180.952
849.04	162.500
849.34	170.588
849.63	212.500
849.93	312.500
850.23	600.000
850.53	375.000
850.82	245.455
851.12	205.882
851.42	158.333
851.71	243.750
852.01	0.000
852.31	217.647
852.61	400.000
852.90	133.333
853.20	333.333
853.50	-1400.000
853.79	128.000
854.09	125.000
854.39	141.379
854.68	148.276
854.98	204.762
855.28	132.258
855.57	285.714
855.87	188.889
856.17	122.222
856.46	194.737
856.76	148.387
857.05	223.529
857.35	227.273
857.65	192.308
857.94	145.000
858.24	422.222
858.53	307.143
858.83	585.714
859.13	178.261
859.42	288.889
859.72	362.500
860.01	283.333
860.31	975.000
860.60	310.000
860.90	462.500
861.20	284.615
861.49	414.286
861.79	-3600.000
862.08	500.000
862.38	455.556
862.67	150.000
862.97	330.000
863.26	146.667
863.56	1025.000
863.85	323.077
864.15	252.941
864.44	200.000
864.74	333.333
865.03	363.636
865.33	412.500
865.62	186.667
865.92	633.333
866.21	825.000
866.51	520.000
866.80	277.778
867.10	733.333
867.39	3200.000
867.69	500.000
867.98	725.000
868.27	157.143
868.57	206.667
868.86	950.000
869.16	138.095
869.45	3700.000
869.75	-566.667
870.04	675.000
870.33	580.000
870.63	350.000
870.92	170.588
871.22	625.000
871.51	400.000
871.80	341.667
872.10	269.231
>>>>>End Processed Spectral Data<<<<<
