SpectraSuite Data File
++++++++++++++++++++++++++++++++++++
Date: Tue May 12 17:12:44 PDT 2015
User: schluterlab
Dark Spectrum Present: Yes
Reference Spectrum Present: Yes
Number of Sampled Component Spectra: 1
Spectrometers: USB2E3373
Integration Time (usec): 3000 (USB2E3373)
Spectra Averaged: 3 (USB2E3373)
Boxcar Smoothing: 0 (USB2E3373)
Correct for Electrical Dark: No (USB2E3373)
Strobe/Lamp Enabled: No (USB2E3373)
Correct for Detector Non-linearity: No (USB2E3373)
Correct for Stray Light: No (USB2E3373)
Number of Pixels in Processed Spectrum: 2048
>>>>>Begin Processed Spectral Data<<<<<
178.53	0.000
178.91	-200.000
179.29	-650.000
179.67	-3400.000
180.04	-73.333
180.42	675.000
180.80	1650.000
181.18	0.000
181.56	-287.500
181.94	0.000
182.31	1100.000
182.69	-2200.000
183.07	571.429
183.45	-3100.000
183.83	-1400.000
184.20	430.000
184.58	371.429
184.96	-253.846
185.34	-208.333
185.72	1350.000
186.09	-600.000
186.47	-3300.000
186.85	900.000
187.23	760.000
187.61	1550.000
187.98	487.500
188.36	285.714
188.74	391.667
189.12	291.667
189.49	875.000
189.87	0.000
190.25	337.500
190.63	1800.000
191.00	-225.000
191.38	-3400.000
191.76	-675.000
192.14	537.500
192.51	-3400.000
192.89	1550.000
193.27	1000.000
193.65	-1133.333
194.02	-740.000
194.40	471.429
194.78	-178.571
195.15	266.667
195.53	-2500.000
195.91	-500.000
196.29	3200.000
196.66	212.500
197.04	775.000
197.42	-1200.000
197.79	525.000
198.17	275.000
198.55	0.000
198.92	500.000
199.30	1233.333
199.68	1500.000
200.05	616.667
200.43	-333.333
200.81	211.111
201.18	3700.000
201.56	316.667
201.94	-800.000
202.31	-312.500
202.69	-680.000
203.07	3400.000
203.44	-383.333
203.82	325.000
204.19	600.000
204.57	-1450.000
204.95	-775.000
205.32	-520.000
205.70	516.667
206.08	1075.000
206.45	-1066.667
206.83	366.667
207.20	173.684
207.58	250.000
207.96	720.000
208.33	0.000
208.71	614.286
209.08	420.000
209.46	-3000.000
209.84	-825.000
210.21	840.000
210.59	-680.000
210.96	325.000
211.34	-725.000
211.71	345.455
212.09	875.000
212.46	1250.000
212.84	-383.333
213.22	477.778
213.59	-2800.000
213.97	240.000
214.34	875.000
214.72	1100.000
215.09	800.000
215.47	-1900.000
215.84	-350.000
216.22	-375.000
216.59	0.000
216.97	0.000
217.34	1350.000
217.72	-1100.000
218.09	1200.000
218.47	412.500
218.84	950.000
219.22	866.667
219.59	800.000
219.97	571.429
220.34	366.667
220.72	1450.000
221.09	3600.000
221.47	175.000
221.84	1000.000
222.22	260.000
222.59	272.222
222.97	257.143
223.34	225.000
223.72	-1250.000
224.09	1000.000
224.46	215.385
224.84	-725.000
225.21	333.333
225.59	280.000
225.96	1333.333
226.34	-500.000
226.71	-650.000
227.08	-420.000
227.46	0.000
227.83	-533.333
228.21	-1100.000
228.58	366.667
228.95	950.000
229.33	355.556
229.70	1075.000
230.08	323.077
230.45	3200.000
230.82	-975.000
231.20	-500.000
231.57	-833.333
231.95	600.000
232.32	258.333
232.69	516.667
233.07	325.000
233.44	-1800.000
233.81	240.000
234.19	170.370
234.56	175.000
234.93	152.941
235.31	240.000
235.68	237.500
236.05	164.286
236.43	103.704
236.80	207.143
237.17	134.483
237.55	103.125
237.92	130.000
238.29	142.424
238.67	137.500
239.04	97.561
239.41	70.833
239.79	110.000
240.16	89.583
240.53	77.049
240.91	65.217
241.28	94.915
241.65	74.242
242.02	91.549
242.40	54.286
242.77	67.033
243.14	62.025
243.51	65.657
243.89	56.075
244.26	54.206
244.63	55.446
245.00	44.954
245.38	41.525
245.75	51.515
246.12	48.889
246.49	52.482
246.87	43.443
247.24	48.667
247.61	44.375
247.98	48.980
248.36	43.636
248.73	46.939
249.10	41.071
249.47	40.500
249.84	38.806
250.22	37.297
250.59	39.500
250.96	42.616
251.33	38.605
251.70	41.518
252.08	43.277
252.45	34.661
252.82	36.882
253.19	39.921
253.56	34.615
253.94	35.870
254.31	36.434
254.68	39.721
255.05	34.483
255.42	34.307
255.79	33.225
256.16	40.678
256.54	39.935
256.91	38.562
257.28	35.117
257.65	29.781
258.02	35.988
258.39	36.963
258.76	35.362
259.14	31.429
259.51	35.277
259.88	35.866
260.25	30.220
260.62	31.781
260.99	33.333
261.36	32.591
261.73	32.713
262.10	33.508
262.47	34.250
262.85	30.933
263.22	33.162
263.59	32.737
263.96	32.581
264.33	30.617
264.70	32.432
265.07	33.659
265.44	30.275
265.81	32.075
266.18	32.494
266.55	29.551
266.92	28.635
267.29	33.114
267.66	29.821
268.03	30.045
268.40	29.175
268.77	29.295
269.14	29.501
269.51	29.399
269.88	29.796
270.25	27.862
270.62	29.185
270.99	31.237
271.36	30.081
271.73	31.866
272.10	29.495
272.47	27.579
272.84	26.347
273.21	29.959
273.58	30.567
273.95	25.667
274.32	28.405
274.69	31.299
275.06	29.326
275.43	28.544
275.80	29.057
276.17	27.941
276.54	27.850
276.91	28.545
277.28	27.920
277.65	27.491
278.02	28.676
278.39	29.137
278.76	27.931
279.13	25.445
279.50	29.091
279.87	27.933
280.23	27.993
280.60	29.745
280.97	28.448
281.34	28.713
281.71	29.043
282.08	29.915
282.45	26.520
282.82	28.763
283.19	26.550
283.56	27.603
283.92	28.664
284.29	26.456
284.66	26.387
285.03	27.363
285.40	28.099
285.77	25.309
286.14	29.102
286.51	26.227
286.87	24.525
287.24	25.375
287.61	27.052
287.98	25.522
288.35	25.333
288.72	25.493
289.08	25.075
289.45	27.439
289.82	25.781
290.19	25.037
290.56	25.036
290.93	24.460
291.29	23.481
291.66	24.435
292.03	24.123
292.40	23.713
292.77	22.702
293.13	23.395
293.50	22.672
293.87	22.087
294.24	23.636
294.60	21.803
294.97	22.937
295.34	21.912
295.71	22.208
296.08	21.600
296.44	22.236
296.81	22.829
297.18	20.279
297.55	22.044
297.91	19.581
298.28	20.652
298.65	21.595
299.02	19.903
299.38	22.542
299.75	20.732
300.12	20.642
300.48	22.014
300.85	20.858
301.22	20.000
301.59	20.519
301.95	21.237
302.32	19.674
302.69	20.814
303.05	20.426
303.42	19.843
303.79	19.610
304.15	19.912
304.52	19.345
304.89	19.403
305.25	20.245
305.62	20.362
305.99	19.239
306.35	19.789
306.72	19.771
307.09	17.909
307.45	18.163
307.82	18.416
308.19	19.072
308.55	19.200
308.92	18.646
309.29	20.020
309.65	19.227
310.02	19.371
310.38	19.143
310.75	18.419
311.12	18.966
311.48	19.981
311.85	18.893
312.22	18.816
312.58	18.270
312.95	18.252
313.31	18.258
313.68	17.542
314.05	18.864
314.41	18.529
314.78	17.992
315.14	17.725
315.51	19.205
315.87	17.974
316.24	17.740
316.61	18.174
316.97	17.615
317.34	18.688
317.70	18.701
318.07	18.861
318.43	18.541
318.80	18.214
319.16	18.182
319.53	17.257
319.89	17.384
320.26	19.739
320.62	16.758
320.99	17.541
321.35	19.295
321.72	19.829
322.08	17.359
322.45	17.893
322.81	18.024
323.18	17.673
323.54	18.118
323.91	17.588
324.27	18.391
324.64	17.042
325.00	17.759
325.37	16.695
325.73	18.297
326.10	18.144
326.46	17.589
326.83	17.440
327.19	18.072
327.56	17.732
327.92	17.869
328.29	19.558
328.65	17.808
329.01	17.964
329.38	18.105
329.74	17.763
330.11	17.984
330.47	17.221
330.84	16.135
331.20	18.105
331.56	18.480
331.93	17.793
332.29	16.412
332.66	17.942
333.02	17.268
333.38	16.579
333.75	18.265
334.11	16.946
334.48	16.154
334.84	16.132
335.20	16.595
335.57	16.961
335.93	16.737
336.29	16.833
336.66	19.039
337.02	15.997
337.38	15.993
337.75	16.892
338.11	17.215
338.47	17.273
338.84	17.273
339.20	15.065
339.56	17.410
339.93	17.475
340.29	16.807
340.65	16.681
341.02	17.860
341.38	16.010
341.74	17.110
342.11	15.860
342.47	15.340
342.83	16.899
343.20	17.623
343.56	15.330
343.92	16.350
344.28	15.949
344.65	17.522
345.01	16.429
345.37	16.026
345.73	17.143
346.10	15.777
346.46	16.348
346.82	16.204
347.19	16.461
347.55	15.613
347.91	16.239
348.27	15.105
348.63	15.585
349.00	16.070
349.36	16.187
349.72	15.596
350.08	15.916
350.45	16.451
350.81	16.437
351.17	14.715
351.53	15.242
351.89	15.618
352.26	15.117
352.62	15.460
352.98	15.567
353.34	16.564
353.70	14.832
354.07	16.769
354.43	15.975
354.79	16.097
355.15	16.080
355.51	15.861
355.87	16.566
356.24	15.935
356.60	15.753
356.96	15.087
357.32	15.524
357.68	15.051
358.04	16.641
358.40	15.742
358.77	16.228
359.13	14.640
359.49	15.641
359.85	16.009
360.21	14.413
360.57	15.985
360.93	14.791
361.29	15.368
361.66	15.884
362.02	14.915
362.38	15.368
362.74	15.216
363.10	16.410
363.46	15.193
363.82	15.288
364.18	15.007
364.54	15.379
364.90	15.797
365.26	15.198
365.62	14.088
365.98	14.659
366.35	14.345
366.71	14.990
367.07	16.109
367.43	15.581
367.79	14.761
368.15	14.247
368.51	15.231
368.87	14.606
369.23	14.900
369.59	15.239
369.95	15.315
370.31	14.921
370.67	14.781
371.03	15.686
371.39	14.958
371.75	15.213
372.11	14.888
372.47	15.068
372.83	14.956
373.19	14.325
373.55	14.639
373.91	13.881
374.27	15.212
374.63	14.983
374.99	14.690
375.35	14.180
375.71	15.172
376.07	14.721
376.42	14.514
376.78	14.644
377.14	14.613
377.50	14.669
377.86	13.901
378.22	14.199
378.58	15.799
378.94	14.665
379.30	14.857
379.66	14.028
380.02	15.132
380.38	14.520
380.74	14.360
381.09	14.428
381.45	14.393
381.81	13.652
382.17	14.408
382.53	13.677
382.89	14.370
383.25	14.269
383.61	14.294
383.97	13.557
384.32	14.045
384.68	15.092
385.04	15.064
385.40	15.006
385.76	14.102
386.12	14.224
386.48	15.258
386.83	14.242
387.19	14.075
387.55	14.723
387.91	14.319
388.27	14.456
388.62	13.791
388.98	14.344
389.34	14.039
389.70	13.679
390.06	13.415
390.42	14.250
390.77	14.312
391.13	14.544
391.49	14.519
391.85	14.523
392.20	14.362
392.56	14.636
392.92	13.869
393.28	13.845
393.64	13.131
393.99	13.693
394.35	13.596
394.71	14.053
395.07	14.294
395.42	13.232
395.78	14.250
396.14	15.120
396.50	14.621
396.85	14.085
397.21	14.079
397.57	13.568
397.92	13.287
398.28	13.514
398.64	15.009
399.00	13.469
399.35	14.010
399.71	14.018
400.07	13.870
400.42	12.478
400.78	13.666
401.14	14.445
401.49	13.364
401.85	14.832
402.21	13.767
402.57	13.884
402.92	14.121
403.28	13.544
403.63	14.361
403.99	13.812
404.35	14.537
404.70	14.944
405.06	12.970
405.42	13.824
405.77	13.175
406.13	14.479
406.49	14.042
406.84	14.044
407.20	14.384
407.55	14.646
407.91	13.784
408.27	13.948
408.62	14.252
408.98	14.429
409.34	13.150
409.69	13.317
410.05	13.417
410.40	13.663
410.76	13.623
411.11	13.803
411.47	13.765
411.83	13.591
412.18	13.285
412.54	13.514
412.89	12.802
413.25	13.626
413.60	13.551
413.96	13.405
414.31	13.518
414.67	14.339
415.03	13.346
415.38	14.132
415.74	13.519
416.09	14.803
416.45	14.674
416.80	14.561
417.16	13.940
417.51	13.376
417.87	14.143
418.22	13.548
418.58	14.268
418.93	13.742
419.29	12.569
419.64	13.749
420.00	13.723
420.35	12.544
420.71	13.127
421.06	13.184
421.42	12.896
421.77	13.937
422.12	13.065
422.48	13.867
422.83	13.393
423.19	13.445
423.54	13.769
423.90	13.703
424.25	13.264
424.61	13.871
424.96	13.100
425.31	12.972
425.67	13.244
426.02	13.517
426.38	13.361
426.73	14.170
427.09	14.116
427.44	12.943
427.79	12.807
428.15	14.025
428.50	13.943
428.85	13.933
429.21	13.668
429.56	13.809
429.92	13.277
430.27	13.256
430.62	12.971
430.98	13.723
431.33	13.357
431.68	13.333
432.04	12.571
432.39	14.215
432.74	13.700
433.10	12.957
433.45	13.326
433.80	14.286
434.16	13.400
434.51	14.138
434.86	13.827
435.22	13.398
435.57	13.397
435.92	13.887
436.28	13.882
436.63	13.722
436.98	13.570
437.34	14.098
437.69	12.654
438.04	13.280
438.39	13.252
438.75	13.586
439.10	13.276
439.45	13.624
439.81	14.401
440.16	13.429
440.51	13.288
440.86	13.618
441.22	13.203
441.57	14.068
441.92	13.722
442.27	13.505
442.63	13.211
442.98	12.500
443.33	12.694
443.68	13.129
444.03	13.195
444.39	12.900
444.74	12.578
445.09	13.323
445.44	13.177
445.79	13.207
446.15	13.579
446.50	13.133
446.85	12.849
447.20	12.836
447.55	12.289
447.91	14.012
448.26	13.312
448.61	13.378
448.96	13.126
449.31	13.311
449.66	13.898
450.02	13.128
450.37	13.437
450.72	13.499
451.07	13.205
451.42	13.574
451.77	14.204
452.12	13.840
452.47	13.366
452.83	13.690
453.18	14.174
453.53	14.387
453.88	13.657
454.23	14.468
454.58	14.336
454.93	13.979
455.28	13.953
455.63	14.184
455.98	13.875
456.34	13.739
456.69	13.902
457.04	13.604
457.39	12.914
457.74	13.964
458.09	12.914
458.44	13.417
458.79	13.634
459.14	14.021
459.49	13.024
459.84	13.804
460.19	14.124
460.54	13.504
460.89	14.126
461.24	13.803
461.59	14.116
461.94	13.061
462.29	13.673
462.64	13.819
462.99	13.628
463.34	14.776
463.69	14.338
464.04	13.702
464.39	13.566
464.74	12.954
465.09	14.045
465.44	14.200
465.79	13.010
466.14	13.037
466.49	13.619
466.84	13.601
467.19	14.177
467.54	13.333
467.89	13.556
468.24	13.260
468.59	13.750
468.94	13.406
469.29	14.050
469.64	14.598
469.99	14.139
470.34	14.168
470.68	13.034
471.03	13.943
471.38	14.371
471.73	13.455
472.08	13.633
472.43	14.711
472.78	14.213
473.13	13.392
473.48	13.631
473.83	13.015
474.17	14.225
474.52	14.514
474.87	13.644
475.22	13.421
475.57	13.221
475.92	13.132
476.27	12.568
476.61	13.405
476.96	13.166
477.31	13.625
477.66	14.493
478.01	13.718
478.36	13.028
478.70	12.903
479.05	12.814
479.40	13.442
479.75	13.853
480.10	13.456
480.45	12.745
480.79	13.687
481.14	13.029
481.49	13.312
481.84	13.193
482.19	13.144
482.53	12.956
482.88	13.530
483.23	12.810
483.58	13.330
483.92	14.122
484.27	13.313
484.62	13.158
484.97	13.011
485.31	12.592
485.66	12.177
486.01	11.626
486.36	11.853
486.70	11.738
487.05	12.081
487.40	12.322
487.75	12.344
488.09	12.841
488.44	12.715
488.79	13.086
489.13	12.542
489.48	13.104
489.83	12.636
490.17	12.841
490.52	12.920
490.87	13.405
491.22	13.121
491.56	13.219
491.91	13.038
492.26	12.739
492.60	13.440
492.95	13.367
493.30	14.013
493.64	13.118
493.99	13.596
494.34	12.999
494.68	12.970
495.03	13.516
495.37	13.417
495.72	13.380
496.07	13.342
496.41	13.119
496.76	13.761
497.11	13.325
497.45	13.021
497.80	14.180
498.14	12.760
498.49	13.788
498.84	14.112
499.18	12.751
499.53	12.908
499.87	13.252
500.22	13.588
500.56	13.092
500.91	14.100
501.26	13.551
501.60	13.206
501.95	12.769
502.29	13.156
502.64	12.660
502.98	12.984
503.33	12.650
503.67	13.642
504.02	13.077
504.36	13.258
504.71	13.245
505.06	13.139
505.40	13.102
505.75	13.050
506.09	14.326
506.44	12.876
506.78	13.422
507.13	13.912
507.47	13.197
507.82	13.771
508.16	14.601
508.51	12.995
508.85	13.295
509.19	13.069
509.54	13.232
509.88	13.923
510.23	13.676
510.57	13.320
510.92	13.387
511.26	14.257
511.61	13.392
511.95	13.639
512.30	13.900
512.64	13.499
512.98	13.326
513.33	14.242
513.67	14.034
514.02	13.506
514.36	13.655
514.70	13.600
515.05	13.905
515.39	12.774
515.74	13.942
516.08	13.725
516.42	14.754
516.77	14.027
517.11	13.973
517.46	13.955
517.80	13.927
518.14	13.972
518.49	13.451
518.83	13.956
519.17	14.254
519.52	14.036
519.86	13.787
520.20	14.356
520.55	13.737
520.89	14.138
521.23	12.850
521.58	13.769
521.92	14.286
522.26	13.566
522.61	14.141
522.95	13.514
523.29	13.860
523.64	13.410
523.98	14.613
524.32	14.245
524.66	13.507
525.01	14.083
525.35	13.730
525.69	14.148
526.04	14.158
526.38	14.361
526.72	13.902
527.06	14.429
527.41	14.813
527.75	13.755
528.09	13.305
528.43	14.704
528.78	13.476
529.12	13.606
529.46	14.085
529.80	13.727
530.15	14.850
530.49	13.658
530.83	14.625
531.17	13.530
531.51	14.347
531.86	13.949
532.20	14.277
532.54	12.555
532.88	13.929
533.22	13.163
533.57	14.460
533.91	13.345
534.25	13.791
534.59	13.918
534.93	14.221
535.27	13.034
535.62	12.835
535.96	13.357
536.30	14.016
536.64	13.665
536.98	13.405
537.32	14.625
537.66	13.074
538.01	14.056
538.35	14.161
538.69	13.107
539.03	13.371
539.37	13.653
539.71	13.210
540.05	13.046
540.39	14.151
540.73	13.671
541.07	12.547
541.42	13.495
541.76	13.625
542.10	13.132
542.44	13.903
542.78	13.405
543.12	13.006
543.46	13.659
543.80	13.283
544.14	14.241
544.48	13.747
544.82	14.190
545.16	12.872
545.50	13.092
545.84	13.889
546.18	14.564
546.52	14.164
546.86	14.055
547.20	13.501
547.54	13.173
547.88	14.173
548.22	13.297
548.56	14.143
548.90	13.642
549.24	13.898
549.58	14.240
549.92	14.604
550.26	13.252
550.60	13.506
550.94	13.094
551.28	14.345
551.62	14.414
551.96	13.919
552.30	13.052
552.64	13.916
552.98	13.660
553.32	12.868
553.66	14.137
554.00	13.964
554.34	14.048
554.68	13.038
555.02	14.189
555.36	12.566
555.69	13.743
556.03	13.885
556.37	14.659
556.71	13.103
557.05	13.041
557.39	14.533
557.73	13.949
558.07	14.822
558.41	14.256
558.75	14.706
559.08	14.725
559.42	14.460
559.76	14.255
560.10	13.283
560.44	13.404
560.78	13.875
561.12	13.732
561.45	13.267
561.79	13.171
562.13	13.140
562.47	12.849
562.81	13.403
563.15	13.639
563.48	13.292
563.82	13.724
564.16	13.744
564.50	13.140
564.84	14.286
565.17	13.785
565.51	13.670
565.85	13.942
566.19	13.274
566.52	12.395
566.86	13.602
567.20	13.596
567.54	13.046
567.88	13.824
568.21	13.430
568.55	13.375
568.89	12.865
569.23	13.115
569.56	12.460
569.90	12.397
570.24	12.606
570.57	12.557
570.91	12.231
571.25	12.218
571.59	12.211
571.92	12.083
572.26	11.644
572.60	11.858
572.93	12.363
573.27	11.804
573.61	11.857
573.95	11.753
574.28	12.361
574.62	11.784
574.96	11.302
575.29	11.388
575.63	11.779
575.97	11.855
576.30	11.719
576.64	12.065
576.98	11.911
577.31	12.251
577.65	11.912
577.98	11.699
578.32	11.489
578.66	11.567
578.99	11.559
579.33	11.705
579.67	11.493
580.00	11.993
580.34	11.422
580.67	11.588
581.01	12.464
581.35	11.787
581.68	11.175
582.02	11.721
582.35	11.494
582.69	11.875
583.02	11.682
583.36	11.854
583.70	12.082
584.03	12.180
584.37	12.115
584.70	12.516
585.04	11.658
585.37	11.767
585.71	12.270
586.04	12.005
586.38	11.875
586.72	11.969
587.05	12.146
587.39	12.491
587.72	12.296
588.06	11.994
588.39	11.975
588.73	12.068
589.06	12.168
589.40	12.457
589.73	11.963
590.07	12.697
590.40	12.509
590.73	13.331
591.07	12.789
591.40	12.495
591.74	12.378
592.07	12.188
592.41	12.310
592.74	12.047
593.08	12.044
593.41	12.268
593.75	12.123
594.08	12.689
594.41	12.349
594.75	12.500
595.08	12.311
595.42	12.442
595.75	12.800
596.09	12.791
596.42	12.637
596.75	13.301
597.09	12.670
597.42	12.408
597.75	11.846
598.09	13.008
598.42	12.689
598.76	12.645
599.09	12.688
599.42	12.561
599.76	12.720
600.09	12.542
600.42	12.638
600.76	11.999
601.09	12.012
601.42	12.179
601.76	12.281
602.09	12.215
602.42	12.643
602.76	12.713
603.09	13.348
603.42	13.101
603.76	12.834
604.09	12.342
604.42	12.128
604.76	12.683
605.09	12.694
605.42	13.084
605.75	13.225
606.09	12.471
606.42	12.664
606.75	12.359
607.09	12.633
607.42	12.374
607.75	12.659
608.08	12.307
608.42	12.878
608.75	12.794
609.08	12.758
609.41	12.909
609.75	13.324
610.08	12.275
610.41	13.131
610.74	13.247
611.07	12.779
611.41	12.882
611.74	12.906
612.07	12.861
612.40	13.012
612.73	12.931
613.07	12.823
613.40	13.283
613.73	13.130
614.06	12.300
614.39	13.131
614.72	12.004
615.06	13.353
615.39	12.376
615.72	12.682
616.05	12.808
616.38	12.735
616.71	13.239
617.05	12.740
617.38	13.090
617.71	13.498
618.04	13.292
618.37	13.118
618.70	13.164
619.03	12.698
619.36	14.447
619.69	13.325
620.03	13.960
620.36	13.680
620.69	13.793
621.02	13.519
621.35	14.470
621.68	14.159
622.01	14.539
622.34	13.693
622.67	14.326
623.00	14.500
623.33	13.765
623.66	13.906
623.99	12.877
624.32	13.415
624.65	14.154
624.99	13.185
625.32	14.496
625.65	12.483
625.98	13.598
626.31	13.872
626.64	13.212
626.97	13.849
627.30	14.519
627.63	14.443
627.96	13.693
628.29	13.614
628.62	12.746
628.95	14.982
629.28	14.724
629.61	14.148
629.94	14.780
630.26	13.692
630.59	14.450
630.92	15.067
631.25	14.234
631.58	14.658
631.91	14.558
632.24	14.189
632.57	13.949
632.90	15.010
633.23	15.110
633.56	15.595
633.89	15.756
634.22	15.501
634.55	14.731
634.88	15.553
635.20	14.798
635.53	15.331
635.86	16.443
636.19	15.152
636.52	13.622
636.85	15.318
637.18	15.493
637.51	14.860
637.83	13.844
638.16	16.413
638.49	14.371
638.82	15.728
639.15	13.749
639.48	15.521
639.81	14.774
640.13	16.810
640.46	15.297
640.79	15.345
641.12	15.748
641.45	16.559
641.77	15.852
642.10	16.466
642.43	16.927
642.76	15.199
643.09	16.427
643.41	15.849
643.74	15.827
644.07	17.257
644.40	15.533
644.73	16.817
645.05	16.048
645.38	15.773
645.71	16.995
646.04	18.779
646.36	17.214
646.69	16.640
647.02	17.600
647.35	15.906
647.67	15.397
648.00	16.775
648.33	15.639
648.66	16.667
648.98	14.348
649.31	16.599
649.64	14.938
649.96	15.078
650.29	13.857
650.62	17.820
650.94	16.867
651.27	18.022
651.60	17.058
651.92	17.819
652.25	16.063
652.58	17.163
652.90	14.970
653.23	16.691
653.56	15.282
653.88	16.006
654.21	13.930
654.54	15.520
654.86	16.814
655.19	15.040
655.52	14.395
655.84	10.669
656.17	12.246
656.49	17.600
656.82	20.071
657.15	16.527
657.47	12.419
657.80	9.141
658.13	7.176
658.45	9.729
658.78	11.857
659.10	12.234
659.43	12.591
659.75	12.883
660.08	13.409
660.41	14.610
660.73	17.189
661.06	15.315
661.38	15.843
661.71	16.367
662.03	18.251
662.36	16.190
662.68	15.829
663.01	19.820
663.33	15.094
663.66	17.554
663.98	16.865
664.31	18.284
664.63	19.732
664.96	17.824
665.28	14.501
665.61	17.170
665.93	16.981
666.26	17.570
666.58	18.899
666.91	17.375
667.23	17.671
667.56	20.739
667.88	19.295
668.21	15.779
668.53	18.145
668.86	19.639
669.18	18.737
669.50	18.802
669.83	17.248
670.15	17.672
670.48	17.383
670.80	17.928
671.13	17.928
671.45	18.437
671.77	17.440
672.10	16.158
672.42	16.283
672.75	15.190
673.07	15.421
673.39	16.294
673.72	16.609
674.04	15.771
674.37	18.149
674.69	18.030
675.01	16.791
675.34	16.860
675.66	16.406
675.98	20.316
676.31	16.400
676.63	17.296
676.95	18.452
677.28	18.256
677.60	15.694
677.92	13.492
678.25	16.860
678.57	16.946
678.89	16.456
679.22	17.096
679.54	18.327
679.86	17.801
680.18	15.817
680.51	14.428
680.83	15.372
681.15	17.158
681.48	16.146
681.80	15.587
682.12	18.166
682.44	15.315
682.77	16.548
683.09	17.864
683.41	16.939
683.73	19.685
684.06	15.278
684.38	18.798
684.70	16.906
685.02	15.972
685.34	14.789
685.67	16.720
685.99	15.271
686.31	16.333
686.63	14.309
686.96	17.647
687.28	14.597
687.60	16.382
687.92	18.593
688.24	18.276
688.56	18.861
688.89	15.296
689.21	17.341
689.53	17.391
689.85	14.837
690.17	17.282
690.49	17.540
690.82	15.966
691.14	18.788
691.46	16.016
691.78	17.739
692.10	17.176
692.42	14.701
692.74	18.411
693.06	16.860
693.39	15.020
693.71	17.878
694.03	18.540
694.35	20.281
694.67	16.497
694.99	15.965
695.31	19.369
695.63	16.063
695.95	17.647
696.27	19.690
696.59	18.377
696.91	17.468
697.23	17.421
697.56	16.805
697.88	16.567
698.20	17.358
698.52	14.202
698.84	17.864
699.16	20.043
699.48	20.127
699.80	22.222
700.12	19.400
700.44	19.626
700.76	18.854
701.08	19.843
701.40	19.481
701.72	20.856
702.04	22.222
702.36	18.011
702.68	21.277
703.00	19.298
703.32	19.851
703.64	19.395
703.96	20.573
704.28	16.667
704.60	22.254
704.91	20.448
705.23	21.023
705.55	18.991
705.87	22.857
706.19	23.824
706.51	24.451
706.83	22.124
707.15	20.321
707.47	18.886
707.79	18.621
708.11	17.460
708.43	18.652
708.74	18.552
709.06	19.535
709.38	20.844
709.70	17.439
710.02	18.478
710.34	17.403
710.66	20.833
710.98	20.219
711.29	18.942
711.61	21.727
711.93	19.149
712.25	19.578
712.57	19.293
712.89	22.727
713.20	18.850
713.52	20.872
713.84	19.940
714.16	15.072
714.48	13.256
714.80	17.615
715.11	16.755
715.43	19.553
715.75	18.028
716.07	22.254
716.39	19.143
716.70	19.315
717.02	17.508
717.34	21.583
717.66	22.222
717.97	24.621
718.29	25.352
718.61	17.905
718.93	21.799
719.24	22.148
719.56	18.621
719.88	17.834
720.20	22.903
720.51	20.261
720.83	21.739
721.15	22.449
721.46	22.603
721.78	22.997
722.10	24.306
722.42	25.084
722.73	21.661
723.05	27.368
723.37	25.795
723.68	20.703
724.00	29.924
724.32	26.996
724.63	19.615
724.95	23.922
725.27	19.703
725.58	22.426
725.90	20.070
726.22	18.151
726.53	22.742
726.85	19.218
727.16	23.826
727.48	22.924
727.80	21.942
728.11	21.429
728.43	26.449
728.74	21.329
729.06	20.789
729.38	23.509
729.69	24.667
730.01	23.684
730.32	24.497
730.64	25.249
730.96	22.523
731.27	16.820
731.59	19.540
731.90	17.549
732.22	20.000
732.53	18.519
732.85	21.637
733.16	19.277
733.48	22.257
733.80	23.188
734.11	23.313
734.43	19.006
734.74	19.571
735.06	20.106
735.37	19.588
735.69	18.261
736.00	23.853
736.32	16.364
736.63	19.874
736.95	21.429
737.26	20.732
737.58	19.325
737.89	22.289
738.21	21.523
738.52	22.742
738.83	21.612
739.15	22.300
739.46	20.345
739.78	18.367
740.09	25.364
740.41	16.871
740.72	22.222
741.04	22.028
741.35	20.703
741.66	23.715
741.98	22.318
742.29	23.148
742.61	23.451
742.92	25.847
743.23	25.600
743.55	24.528
743.86	25.098
744.18	26.271
744.49	25.620
744.80	23.041
745.12	19.196
745.43	21.495
745.74	25.778
746.06	21.053
746.37	23.721
746.68	29.204
747.00	19.731
747.31	24.370
747.62	21.311
747.94	25.751
748.25	24.514
748.56	24.576
748.88	25.893
749.19	30.233
749.50	28.767
749.82	25.514
750.13	22.530
750.44	20.000
750.75	20.805
751.07	24.671
751.38	22.112
751.69	19.192
752.01	19.231
752.32	19.269
752.63	23.154
752.94	22.727
753.26	19.531
753.57	21.012
753.88	19.101
754.19	20.939
754.51	22.924
754.82	21.812
755.13	20.608
755.44	24.074
755.75	22.337
756.07	21.233
756.38	17.974
756.69	19.688
757.00	24.332
757.31	22.535
757.63	17.355
757.94	18.085
758.25	19.565
758.56	21.510
758.87	21.053
759.18	23.837
759.50	21.277
759.81	18.991
760.12	21.067
760.43	20.448
760.74	23.038
761.05	19.894
761.36	17.969
761.67	18.598
761.99	18.873
762.30	20.579
762.61	22.569
762.92	20.455
763.23	22.642
763.54	23.462
763.85	19.455
764.16	27.778
764.47	20.946
764.78	21.498
765.10	16.159
765.41	18.750
765.72	18.232
766.03	18.127
766.34	21.951
766.65	23.574
766.96	23.482
767.27	27.570
767.58	31.188
767.89	24.862
768.20	31.707
768.51	21.429
768.82	28.509
769.13	25.098
769.44	18.421
769.75	22.097
770.06	23.950
770.37	16.667
770.68	23.556
770.99	24.576
771.30	24.268
771.61	25.000
771.92	23.664
772.23	25.000
772.54	31.556
772.85	31.683
773.16	25.000
773.47	26.111
773.78	25.248
774.09	26.705
774.39	28.485
774.70	29.412
775.01	23.026
775.32	26.087
775.63	36.986
775.94	38.889
776.25	35.862
776.56	30.534
776.87	35.115
777.18	29.545
777.48	48.031
777.79	36.154
778.10	32.576
778.41	38.806
778.72	33.083
779.03	26.923
779.34	28.378
779.65	31.677
779.95	35.404
780.26	32.143
780.57	38.776
780.88	37.589
781.19	35.833
781.50	30.769
781.80	37.158
782.11	28.571
782.42	25.287
782.73	25.989
783.04	26.452
783.34	28.682
783.65	27.891
783.96	36.774
784.27	26.490
784.57	37.500
784.88	33.333
785.19	30.833
785.50	37.069
785.81	48.837
786.11	40.000
786.42	31.496
786.73	34.234
787.04	42.453
787.34	36.585
787.65	43.182
787.96	38.636
788.26	36.220
788.57	39.416
788.88	34.507
789.19	29.008
789.49	29.054
789.80	33.594
790.11	28.099
790.41	37.037
790.72	28.704
791.03	37.500
791.33	54.545
791.64	45.263
791.95	43.158
792.25	41.667
792.56	46.000
792.87	34.146
793.17	47.727
793.48	48.235
793.79	52.874
794.09	42.045
794.40	46.552
794.70	42.857
795.01	27.692
795.32	38.931
795.62	27.350
795.93	47.059
796.23	41.463
796.54	45.918
796.85	43.182
797.15	61.039
797.46	59.756
797.76	51.250
798.07	64.000
798.37	65.000
798.68	47.500
798.99	65.854
799.29	37.333
799.60	36.047
799.90	34.211
800.21	39.394
800.51	52.113
800.82	55.172
801.12	56.923
801.43	72.000
801.73	51.724
802.04	62.338
802.34	49.315
802.65	66.667
802.95	54.348
803.26	62.903
803.56	68.333
803.87	62.687
804.17	53.968
804.48	71.698
804.78	62.500
805.09	69.697
805.39	63.492
805.70	70.175
806.00	41.429
806.30	51.562
806.61	54.118
806.91	54.444
807.22	47.826
807.52	51.316
807.83	61.842
808.13	66.667
808.43	70.968
808.74	47.945
809.04	48.214
809.35	55.882
809.65	59.091
809.95	78.431
810.26	72.222
810.56	85.937
810.86	71.429
811.17	54.386
811.47	76.087
811.77	72.414
812.08	63.793
812.38	78.571
812.69	97.619
812.99	97.778
813.29	94.286
813.59	96.774
813.90	63.793
814.20	77.049
814.50	52.000
814.81	42.105
815.11	87.037
815.41	73.214
815.72	69.643
816.02	86.000
816.32	92.683
816.62	70.690
816.93	106.061
817.23	90.244
817.53	83.929
817.84	66.667
818.14	97.619
818.44	77.083
818.74	92.453
819.04	71.795
819.35	93.939
819.65	107.692
819.95	96.296
820.25	78.723
820.56	108.108
820.86	86.842
821.16	68.085
821.46	97.368
821.76	60.000
822.07	57.143
822.37	86.842
822.67	95.349
822.97	65.789
823.27	76.087
823.57	109.375
823.88	94.872
824.18	93.939
824.48	117.391
824.78	100.000
825.08	156.522
825.38	117.241
825.69	114.706
825.99	76.596
826.29	66.667
826.59	111.429
826.89	76.667
827.19	97.143
827.49	112.903
827.79	111.538
828.09	102.381
828.39	105.556
828.70	102.703
829.00	142.857
829.30	175.000
829.60	105.556
829.90	100.000
830.20	96.970
830.50	110.811
830.80	154.167
831.10	161.538
831.40	109.524
831.70	137.500
832.00	130.000
832.30	169.565
832.60	133.333
832.90	127.273
833.20	155.000
833.50	134.211
833.80	102.941
834.10	105.263
834.40	136.842
834.70	103.333
835.00	132.000
835.30	78.378
835.60	137.500
835.90	105.405
836.20	123.077
836.50	90.909
836.80	85.366
837.10	152.174
837.40	223.077
837.70	94.737
838.00	133.333
838.30	158.333
838.60	140.000
838.90	320.000
839.19	150.000
839.49	123.333
839.79	86.207
840.09	107.692
840.39	180.000
840.69	194.737
840.99	80.952
841.29	169.565
841.59	195.000
841.88	144.000
842.18	277.778
842.48	167.857
842.78	170.370
843.08	192.308
843.38	159.091
843.68	221.429
843.97	385.714
844.27	147.826
844.57	1150.000
844.87	250.000
845.17	200.000
845.47	133.333
845.76	137.500
846.06	371.429
846.36	170.588
846.66	215.385
846.96	218.750
847.25	238.462
847.55	147.368
847.85	133.333
848.15	600.000
848.44	254.545
848.74	152.381
849.04	187.500
849.34	211.765
849.63	156.250
849.93	250.000
850.23	700.000
850.53	400.000
850.82	200.000
851.12	170.588
851.42	137.500
851.71	187.500
852.01	0.000
852.31	205.882
852.61	360.000
852.90	150.000
853.20	311.111
853.50	-2100.000
853.79	100.000
854.09	125.000
854.39	89.655
854.68	155.172
854.98	200.000
855.28	109.677
855.57	235.714
855.87	177.778
856.17	129.630
856.46	157.895
856.76	122.581
857.05	229.412
857.35	218.182
857.65	223.077
857.94	125.000
858.24	388.889
858.53	307.143
858.83	500.000
859.13	165.217
859.42	200.000
859.72	425.000
860.01	216.667
860.31	500.000
860.60	380.000
860.90	312.500
861.20	230.769
861.49	528.571
861.79	-2500.000
862.08	500.000
862.38	366.667
862.67	250.000
862.97	350.000
863.26	113.333
863.56	525.000
863.85	307.692
864.15	205.882
864.44	83.333
864.74	308.333
865.03	272.727
865.33	250.000
865.62	200.000
865.92	383.333
866.21	625.000
866.51	440.000
866.80	205.556
867.10	800.000
867.39	3300.000
867.69	880.000
867.98	800.000
868.27	171.429
868.57	346.667
868.86	650.000
869.16	104.762
869.45	3800.000
869.75	-400.000
870.04	675.000
870.33	580.000
870.63	362.500
870.92	217.647
871.22	625.000
871.51	385.714
871.80	250.000
872.10	200.000
>>>>>End Processed Spectral Data<<<<<
