SpectraSuite Data File
++++++++++++++++++++++++++++++++++++
Date: Tue May 12 17:20:20 PDT 2015
User: schluterlab
Dark Spectrum Present: Yes
Reference Spectrum Present: Yes
Number of Sampled Component Spectra: 1
Spectrometers: USB2E3373
Integration Time (usec): 3000 (USB2E3373)
Spectra Averaged: 3 (USB2E3373)
Boxcar Smoothing: 0 (USB2E3373)
Correct for Electrical Dark: No (USB2E3373)
Strobe/Lamp Enabled: No (USB2E3373)
Correct for Detector Non-linearity: No (USB2E3373)
Correct for Stray Light: No (USB2E3373)
Number of Pixels in Processed Spectrum: 2048
>>>>>Begin Processed Spectral Data<<<<<
178.53	0.000
178.91	-300.000
179.29	-850.000
179.67	-4300.000
180.04	-133.333
180.42	650.000
180.80	1450.000
181.18	0.000
181.56	-275.000
181.94	0.000
182.31	766.667
182.69	-2600.000
183.07	542.857
183.45	-3800.000
183.83	-1100.000
184.20	340.000
184.58	428.571
184.96	-269.231
185.34	-283.333
185.72	1900.000
186.09	-700.000
186.47	-3100.000
186.85	1100.000
187.23	520.000
187.61	1750.000
187.98	512.500
188.36	257.143
188.74	325.000
189.12	350.000
189.49	950.000
189.87	0.000
190.25	375.000
190.63	3200.000
191.00	-183.333
191.38	-3300.000
191.76	-750.000
192.14	500.000
192.51	-3300.000
192.89	1150.000
193.27	800.000
193.65	-1166.667
194.02	-620.000
194.40	571.429
194.78	-235.714
195.15	253.333
195.53	-3000.000
195.91	-720.000
196.29	4500.000
196.66	231.250
197.04	725.000
197.42	-1400.000
197.79	825.000
198.17	350.000
198.55	0.000
198.92	428.571
199.30	1266.667
199.68	2000.000
200.05	633.333
200.43	-483.333
200.81	227.778
201.18	3300.000
201.56	250.000
201.94	-775.000
202.31	-362.500
202.69	-640.000
203.07	2700.000
203.44	-516.667
203.82	308.333
204.19	700.000
204.57	-1450.000
204.95	-650.000
205.32	-660.000
205.70	733.333
206.08	900.000
206.45	-833.333
206.83	411.111
207.20	226.316
207.58	275.000
207.96	660.000
208.33	0.000
208.71	728.571
209.08	620.000
209.46	-2800.000
209.84	-925.000
210.21	820.000
210.59	-660.000
210.96	258.333
211.34	-925.000
211.71	390.909
212.09	925.000
212.46	1650.000
212.84	-466.667
213.22	466.667
213.59	-3100.000
213.97	320.000
214.34	1000.000
214.72	1166.667
215.09	1133.333
215.47	-3400.000
215.84	-330.000
216.22	-387.500
216.59	0.000
216.97	0.000
217.34	2050.000
217.72	-1950.000
218.09	1566.667
218.47	387.500
218.84	825.000
219.22	1233.333
219.59	866.667
219.97	585.714
220.34	388.889
220.72	1400.000
221.09	4200.000
221.47	233.333
221.84	1000.000
222.22	340.000
222.59	272.222
222.97	235.714
223.34	268.750
223.72	-1200.000
224.09	1166.667
224.46	346.154
224.84	-725.000
225.21	244.444
225.59	233.333
225.96	1366.667
226.34	-660.000
226.71	-725.000
227.08	-360.000
227.46	0.000
227.83	-550.000
228.21	-1800.000
228.58	366.667
228.95	900.000
229.33	322.222
229.70	1025.000
230.08	307.692
230.45	2700.000
230.82	-800.000
231.20	-933.333
231.57	-833.333
231.95	440.000
232.32	308.333
232.69	450.000
233.07	291.667
233.44	-1700.000
233.81	153.333
234.19	151.852
234.56	218.750
234.93	164.706
235.31	200.000
235.68	225.000
236.05	157.143
236.43	129.630
236.80	221.429
237.17	158.621
237.55	131.250
237.92	90.000
238.29	81.818
238.67	121.875
239.04	90.244
239.41	54.167
239.79	75.000
240.16	50.000
240.53	59.016
240.91	43.478
241.28	47.458
241.65	45.455
242.02	50.704
242.40	55.714
242.77	43.956
243.14	36.709
243.51	53.535
243.89	31.776
244.26	34.579
244.63	35.644
245.00	35.780
245.38	27.119
245.75	36.364
246.12	40.000
246.49	41.135
246.87	16.393
247.24	31.333
247.61	36.875
247.98	29.252
248.36	20.000
248.73	27.551
249.10	22.619
249.47	26.000
249.84	19.900
250.22	20.000
250.59	24.500
250.96	22.785
251.33	24.651
251.70	18.750
252.08	19.748
252.45	19.920
252.82	17.490
253.19	16.996
253.56	18.462
253.94	19.928
254.31	19.767
254.68	17.770
255.05	19.310
255.42	17.883
255.79	20.195
256.16	20.339
256.54	20.779
256.91	16.340
257.28	14.047
257.65	15.674
258.02	13.864
258.39	17.765
258.76	16.812
259.14	14.571
259.51	18.950
259.88	16.413
260.25	14.560
260.62	15.068
260.99	10.193
261.36	13.928
261.73	11.968
262.10	17.277
262.47	15.500
262.85	12.267
263.22	13.625
263.59	15.345
263.96	15.789
264.33	15.062
264.70	16.462
265.07	13.659
265.44	15.138
265.81	13.679
266.18	13.272
266.55	13.002
266.92	12.528
267.29	13.596
267.66	13.901
268.03	10.538
268.40	13.531
268.77	13.656
269.14	11.497
269.51	10.913
269.88	13.673
270.25	10.367
270.62	12.661
270.99	14.604
271.36	14.024
271.73	10.901
272.10	12.121
272.47	13.095
272.84	12.974
273.21	10.124
273.58	12.551
273.95	10.267
274.32	13.230
274.69	13.189
275.06	14.026
275.43	13.985
275.80	11.321
276.17	14.154
276.54	12.523
276.91	12.873
277.28	11.679
277.65	12.546
278.02	12.868
278.39	10.612
278.76	11.724
279.13	9.964
279.50	10.727
279.87	7.263
280.23	8.840
280.60	12.226
280.97	12.759
281.34	10.066
281.71	12.174
282.08	12.821
282.45	8.615
282.82	11.037
283.19	9.698
283.56	10.413
283.92	12.052
284.29	11.647
284.66	10.756
285.03	12.106
285.40	11.405
285.77	9.259
286.14	12.074
286.51	10.890
286.87	9.019
287.24	9.309
287.61	9.119
287.98	10.448
288.35	10.667
288.72	9.560
289.08	10.961
289.45	10.823
289.82	11.250
290.19	10.395
290.56	11.354
290.93	10.647
291.29	9.945
291.66	10.734
292.03	11.501
292.40	11.789
292.77	8.914
293.13	10.414
293.50	10.391
293.87	9.485
294.24	10.769
294.60	11.036
294.97	11.049
295.34	13.015
295.71	9.067
296.08	10.933
296.44	10.419
296.81	8.437
297.18	8.619
297.55	11.207
297.91	8.990
298.28	10.386
298.65	9.693
299.02	9.891
299.38	8.633
299.75	9.024
300.12	9.748
300.48	11.475
300.85	10.012
301.22	9.302
301.59	8.844
301.95	8.985
302.32	10.361
302.69	10.294
303.05	10.325
303.42	9.417
303.79	10.076
304.15	8.251
304.52	8.985
304.89	8.849
305.25	10.011
305.62	11.620
305.99	8.804
306.35	9.368
306.72	10.094
307.09	9.317
307.45	9.293
307.82	9.053
308.19	10.000
308.55	9.200
308.92	9.617
309.29	10.848
309.65	9.514
310.02	9.838
310.38	8.076
310.75	8.679
311.12	8.142
311.48	9.942
311.85	10.305
312.22	10.506
312.58	9.135
312.95	10.777
313.31	9.738
313.68	9.099
314.05	10.806
314.41	9.218
314.78	9.186
315.14	10.806
315.51	10.028
315.87	10.036
316.24	9.617
316.61	10.564
316.97	8.532
317.34	10.063
317.70	9.482
318.07	11.388
318.43	9.754
318.80	9.807
319.16	10.490
319.53	9.646
319.89	9.140
320.26	10.987
320.62	9.890
320.99	9.056
321.35	9.184
321.72	10.816
322.08	9.880
322.45	10.718
322.81	9.241
323.18	10.835
323.54	11.411
323.91	9.701
324.27	10.964
324.64	8.304
325.00	9.655
325.37	9.612
325.73	9.781
326.10	10.853
326.46	9.827
326.83	9.760
327.19	11.004
327.56	10.304
327.92	10.328
328.29	11.538
328.65	10.017
329.01	9.923
329.38	9.898
329.74	10.248
330.11	9.904
330.47	10.230
330.84	9.750
331.20	9.814
331.56	11.313
331.93	9.752
332.29	8.929
332.66	9.609
333.02	9.536
333.38	9.860
333.75	10.509
334.11	10.403
334.48	9.915
334.84	9.628
335.20	10.180
335.57	9.320
335.93	9.504
336.29	10.365
336.66	10.377
337.02	9.153
337.38	10.146
337.75	9.713
338.11	8.945
338.47	10.330
338.84	9.568
339.20	9.870
339.56	9.672
339.93	9.448
340.29	9.244
340.65	9.807
341.02	10.378
341.38	10.837
341.74	9.551
342.11	9.098
342.47	9.762
342.83	9.270
343.20	10.267
343.56	8.419
343.92	9.414
344.28	9.729
344.65	9.372
345.01	9.048
345.37	8.894
345.73	9.127
346.10	9.801
346.46	10.048
346.82	9.336
347.19	11.592
347.55	8.899
347.91	8.988
348.27	8.211
348.63	9.098
349.00	9.520
349.36	9.027
349.72	9.098
350.08	9.550
350.45	9.139
350.81	10.092
351.17	8.552
351.53	9.546
351.89	9.324
352.26	8.163
352.62	8.824
352.98	9.816
353.34	10.555
353.70	8.716
354.07	10.000
354.43	8.679
354.79	9.491
355.15	8.806
355.51	9.290
355.87	9.940
356.24	9.315
356.60	8.371
356.96	8.188
357.32	9.420
357.68	8.590
358.04	9.195
358.40	8.471
358.77	8.715
359.13	8.559
359.49	9.340
359.85	9.084
360.21	8.395
360.57	8.321
360.93	8.514
361.29	8.947
361.66	8.277
362.02	8.594
362.38	8.297
362.74	8.988
363.10	9.116
363.46	8.080
363.82	8.836
364.18	8.108
364.54	8.941
364.90	8.902
365.26	8.952
365.62	9.047
365.98	8.809
366.35	7.655
366.71	8.466
367.07	9.488
367.43	8.395
367.79	8.245
368.15	7.734
368.51	8.959
368.87	8.696
369.23	8.039
369.59	8.564
369.95	8.462
370.31	8.350
370.67	8.675
371.03	9.174
371.39	9.141
371.75	8.793
372.11	8.838
372.47	8.904
372.83	8.566
373.19	9.596
373.55	8.935
373.91	8.149
374.27	8.466
374.63	8.271
374.99	8.086
375.35	8.871
375.71	8.839
376.07	8.488
376.42	7.609
376.78	8.671
377.14	8.781
377.50	8.801
377.86	8.200
378.22	8.288
378.58	8.535
378.94	8.751
379.30	8.065
379.66	8.188
380.02	8.563
380.38	8.197
380.74	8.478
381.09	7.535
381.45	7.919
381.81	8.274
382.17	7.753
382.53	8.578
382.89	8.220
383.25	8.585
383.61	8.357
383.97	7.139
384.32	8.861
384.68	9.269
385.04	8.558
385.40	8.422
385.76	8.660
386.12	8.411
386.48	7.903
386.83	8.130
387.19	8.245
387.55	8.539
387.91	8.372
388.27	8.745
388.62	8.685
388.98	8.338
389.34	7.377
389.70	7.370
390.06	8.293
390.42	7.465
390.77	8.722
391.13	8.932
391.49	8.409
391.85	8.800
392.20	8.522
392.56	8.901
392.92	7.580
393.28	7.848
393.64	7.397
393.99	8.002
394.35	7.946
394.71	8.082
395.07	8.151
395.42	8.314
395.78	8.081
396.14	8.855
396.50	7.882
396.85	8.110
397.21	8.002
397.57	8.010
397.92	7.510
398.28	7.005
398.64	8.493
399.00	8.284
399.35	7.622
399.71	7.174
400.07	7.249
400.42	7.343
400.78	7.507
401.14	8.456
401.49	7.776
401.85	8.227
402.21	7.030
402.57	7.959
402.92	7.152
403.28	7.578
403.63	7.769
403.99	7.600
404.35	8.617
404.70	7.561
405.06	7.075
405.42	7.959
405.77	7.497
406.13	7.375
406.49	8.130
406.84	7.389
407.20	7.877
407.55	7.138
407.91	8.168
408.27	8.490
408.62	7.924
408.98	7.392
409.34	7.130
409.69	8.027
410.05	7.990
410.40	6.949
410.76	6.468
411.11	7.464
411.47	7.716
411.83	7.030
412.18	7.428
412.54	7.808
412.89	7.375
413.25	7.640
413.60	7.009
413.96	7.481
414.31	7.084
414.67	7.325
415.03	7.663
415.38	6.940
415.74	7.202
416.09	7.121
416.45	8.468
416.80	7.826
417.16	7.066
417.51	7.898
417.87	7.071
418.22	7.959
418.58	7.707
418.93	7.674
419.29	6.778
419.64	7.632
420.00	7.458
420.35	7.724
420.71	6.709
421.06	6.886
421.42	7.254
421.77	7.718
422.12	7.166
422.48	7.447
422.83	7.031
423.19	7.289
423.54	7.021
423.90	7.305
424.25	7.155
424.61	7.603
424.96	6.776
425.31	7.389
425.67	6.846
426.02	7.235
426.38	6.826
426.73	6.478
427.09	6.940
427.44	7.034
427.79	6.690
428.15	7.896
428.50	7.886
428.85	7.937
429.21	6.969
429.56	7.178
429.92	7.260
430.27	7.063
430.62	6.510
430.98	6.986
431.33	6.351
431.68	6.667
432.04	6.932
432.39	6.422
432.74	7.377
433.10	7.198
433.45	7.754
433.80	7.832
434.16	7.042
434.51	7.121
434.86	7.839
435.22	6.861
435.57	6.935
435.92	7.740
436.28	7.431
436.63	8.050
436.98	7.432
437.34	7.877
437.69	6.551
438.04	7.097
438.39	7.589
438.75	7.461
439.10	7.178
439.45	6.783
439.81	7.981
440.16	6.879
440.51	6.982
440.86	7.521
441.22	7.630
441.57	7.822
441.92	7.502
442.27	6.907
442.63	7.419
442.98	7.435
443.33	7.284
443.68	7.746
444.03	7.116
444.39	6.921
444.74	7.298
445.09	7.267
445.44	7.120
445.79	7.359
446.15	7.158
446.50	7.542
446.85	7.271
447.20	7.065
447.55	7.395
447.91	8.045
448.26	7.561
448.61	7.463
448.96	7.407
449.31	7.206
449.66	7.309
450.02	6.915
450.37	7.551
450.72	7.328
451.07	8.086
451.42	7.943
451.77	7.331
452.12	8.054
452.47	7.594
452.83	7.099
453.18	8.168
453.53	7.697
453.88	7.829
454.23	7.379
454.58	8.217
454.93	7.296
455.28	7.589
455.63	7.151
455.98	7.671
456.34	8.389
456.69	8.110
457.04	7.876
457.39	7.257
457.74	7.827
458.09	7.019
458.44	7.338
458.79	7.268
459.14	7.692
459.49	7.701
459.84	7.120
460.19	6.893
460.54	7.692
460.89	7.143
461.24	7.560
461.59	7.483
461.94	7.565
462.29	8.124
462.64	8.103
462.99	7.486
463.34	8.360
463.69	7.985
464.04	7.369
464.39	7.098
464.74	7.737
465.09	7.255
465.44	7.399
465.79	7.676
466.14	7.154
466.49	6.891
466.84	7.191
467.19	7.381
467.54	7.447
467.89	7.981
468.24	7.585
468.59	6.786
468.94	8.213
469.29	8.064
469.64	8.617
469.99	7.969
470.34	7.717
470.68	7.862
471.03	8.739
471.38	8.411
471.73	8.099
472.08	7.567
472.43	8.070
472.78	8.451
473.13	7.071
473.48	7.763
473.83	7.656
474.17	7.173
474.52	8.116
474.87	7.106
475.22	7.767
475.57	6.978
475.92	7.103
476.27	7.345
476.61	6.434
476.96	7.210
477.31	7.763
477.66	7.783
478.01	7.994
478.36	7.570
478.70	7.196
479.05	6.695
479.40	7.589
479.75	7.398
480.10	7.212
480.45	7.376
480.79	7.189
481.14	6.895
481.49	6.816
481.84	6.772
482.19	7.031
482.53	7.071
482.88	6.855
483.23	6.946
483.58	7.047
483.92	7.815
484.27	6.764
484.62	6.834
484.97	6.934
485.31	6.592
485.66	6.194
486.01	6.157
486.36	5.670
486.70	5.721
487.05	6.051
487.40	6.054
487.75	6.457
488.09	6.335
488.44	6.278
488.79	6.317
489.13	6.868
489.48	6.912
489.83	6.714
490.17	6.606
490.52	6.632
490.87	7.543
491.22	7.181
491.56	7.510
491.91	6.900
492.26	7.038
492.60	6.788
492.95	7.748
493.30	7.370
493.64	6.739
493.99	7.379
494.34	6.679
494.68	6.552
495.03	7.229
495.37	7.294
495.72	7.366
496.07	7.592
496.41	7.341
496.76	6.838
497.11	7.241
497.45	7.190
497.80	7.044
498.14	7.397
498.49	7.707
498.84	7.710
499.18	6.536
499.53	6.890
499.87	7.008
500.22	7.232
500.56	6.639
500.91	7.560
501.26	6.982
501.60	7.195
501.95	6.900
502.29	6.933
502.64	7.234
502.98	6.714
503.33	7.171
503.67	7.329
504.02	6.897
504.36	7.014
504.71	7.190
505.06	7.039
505.40	7.019
505.75	6.782
506.09	7.979
506.44	7.049
506.78	6.805
507.13	7.319
507.47	6.453
507.82	7.348
508.16	7.594
508.51	7.391
508.85	7.217
509.19	6.853
509.54	7.373
509.88	8.056
510.23	6.912
510.57	7.046
510.92	7.542
511.26	7.380
511.61	7.336
511.95	7.168
512.30	7.350
512.64	6.957
512.98	7.022
513.33	7.531
513.67	7.561
514.02	6.961
514.36	7.373
514.70	7.467
515.05	6.553
515.39	7.511
515.74	7.490
516.08	7.462
516.42	8.634
516.77	7.307
517.11	8.000
517.46	7.759
517.80	7.373
518.14	7.831
518.49	7.001
518.83	6.758
519.17	8.264
519.52	8.028
519.86	7.466
520.20	8.603
520.55	7.010
520.89	7.299
521.23	8.002
521.58	7.631
521.92	7.522
522.26	7.583
522.61	7.368
522.95	8.108
523.29	8.012
523.64	7.225
523.98	7.981
524.32	7.439
524.66	7.478
525.01	7.988
525.35	7.130
525.69	7.766
526.04	8.923
526.38	7.652
526.72	7.458
527.06	7.688
527.41	7.618
527.75	7.851
528.09	7.827
528.43	8.725
528.78	8.169
529.12	7.526
529.46	7.423
529.80	7.886
530.15	7.543
530.49	7.040
530.83	8.105
531.17	7.196
531.51	8.155
531.86	8.213
532.20	8.591
532.54	7.784
532.88	7.558
533.22	8.653
533.57	7.871
533.91	6.935
534.25	7.444
534.59	8.363
534.93	7.736
535.27	7.057
535.62	7.993
535.96	7.270
536.30	7.861
536.64	8.137
536.98	7.489
537.32	8.438
537.66	7.334
538.01	8.607
538.35	7.174
538.69	7.403
539.03	7.090
539.37	7.767
539.71	8.333
540.05	7.754
540.39	7.296
540.73	7.532
541.07	7.277
541.42	7.214
541.76	7.953
542.10	7.337
542.44	8.416
542.78	7.678
543.12	7.117
543.46	7.581
543.80	7.143
544.14	7.554
544.48	8.029
544.82	8.012
545.16	7.165
545.50	7.560
545.84	7.513
546.18	9.103
546.52	8.459
546.86	8.253
547.20	7.429
547.54	7.600
547.88	7.360
548.22	7.772
548.56	8.368
548.90	8.007
549.24	7.391
549.58	7.281
549.92	7.662
550.26	7.437
550.60	7.585
550.94	8.005
551.28	8.483
551.62	8.207
551.96	7.703
552.30	7.383
552.64	8.285
552.98	6.379
553.32	7.682
553.66	7.296
554.00	7.400
554.34	7.989
554.68	7.796
555.02	7.943
555.36	7.447
555.69	7.526
556.03	8.471
556.37	7.776
556.71	8.018
557.05	6.881
557.39	7.733
557.73	9.030
558.07	7.378
558.41	8.842
558.75	8.482
559.08	7.577
559.42	7.588
559.76	7.983
560.10	7.433
560.44	8.029
560.78	8.056
561.12	7.692
561.45	7.009
561.79	7.491
562.13	7.075
562.47	7.528
562.81	8.328
563.15	7.692
563.48	7.391
563.82	8.359
564.16	8.147
564.50	7.836
564.84	7.964
565.17	6.952
565.51	7.389
565.85	7.773
566.19	7.738
566.52	7.641
566.86	7.239
567.20	8.258
567.54	7.697
567.88	6.990
568.21	6.990
568.55	7.588
568.89	7.436
569.23	7.032
569.56	6.869
569.90	7.043
570.24	6.780
570.57	6.846
570.91	6.521
571.25	6.406
571.59	6.261
571.92	5.732
572.26	6.038
572.60	5.943
572.93	5.894
573.27	6.634
573.61	6.226
573.95	5.926
574.28	5.986
574.62	6.008
574.96	6.058
575.29	5.977
575.63	6.007
575.97	6.086
576.30	5.948
576.64	5.960
576.98	5.990
577.31	6.092
577.65	6.122
577.98	5.792
578.32	6.101
578.66	6.337
578.99	6.167
579.33	6.270
579.67	5.862
580.00	5.801
580.34	6.035
580.67	5.727
581.01	6.013
581.35	6.043
581.68	5.696
582.02	6.102
582.35	5.889
582.69	5.938
583.02	5.803
583.36	5.969
583.70	6.410
584.03	6.314
584.37	6.411
584.70	6.494
585.04	6.257
585.37	5.658
585.71	6.247
586.04	6.059
586.38	6.201
586.72	6.100
587.05	6.202
587.39	6.068
587.72	6.123
588.06	6.332
588.39	6.269
588.73	5.993
589.06	6.303
589.40	6.510
589.73	6.850
590.07	6.211
590.40	7.003
590.73	7.528
591.07	7.173
591.40	7.026
591.74	6.331
592.07	6.739
592.41	6.635
592.74	6.481
593.08	6.152
593.41	6.194
593.75	6.208
594.08	6.899
594.41	5.963
594.75	6.541
595.08	6.927
595.42	6.912
595.75	7.075
596.09	6.952
596.42	6.555
596.75	6.931
597.09	7.470
597.42	6.286
597.75	6.288
598.09	6.894
598.42	6.895
598.76	6.322
599.09	7.135
599.42	6.851
599.76	6.716
600.09	6.678
600.42	6.630
600.76	6.220
601.09	6.248
601.42	6.547
601.76	6.624
602.09	7.064
602.42	6.543
602.76	6.717
603.09	6.976
603.42	6.826
603.76	6.291
604.09	6.370
604.42	6.290
604.76	7.191
605.09	6.939
605.42	6.867
605.75	6.869
606.09	7.154
606.42	6.840
606.75	6.840
607.09	6.988
607.42	6.549
607.75	6.967
608.08	6.661
608.42	6.879
608.75	6.632
609.08	6.951
609.41	7.000
609.75	7.326
610.08	7.149
610.41	6.763
610.74	7.619
611.07	7.231
611.41	7.322
611.74	6.931
612.07	7.803
612.40	7.505
612.73	7.738
613.07	7.552
613.40	7.368
613.73	7.439
614.06	6.650
614.39	8.232
614.72	7.182
615.06	6.874
615.39	7.673
615.72	6.680
616.05	7.634
616.38	7.306
616.71	6.999
617.05	7.414
617.38	7.528
617.71	7.593
618.04	6.955
618.37	7.615
618.70	6.467
619.03	6.899
619.36	7.726
619.69	7.586
620.03	8.545
620.36	7.643
620.69	7.918
621.02	7.813
621.35	8.095
621.68	8.112
622.01	9.299
622.34	7.356
622.67	9.340
623.00	8.509
623.33	7.760
623.66	7.851
623.99	7.534
624.32	8.130
624.65	8.097
624.99	8.114
625.32	8.150
625.65	6.828
625.98	7.671
626.31	8.605
626.64	7.593
626.97	8.722
627.30	7.376
627.63	8.477
627.96	7.512
628.29	7.921
628.62	8.554
628.95	8.333
629.28	9.115
629.61	8.875
629.94	8.989
630.26	9.099
630.59	9.840
630.92	9.238
631.25	9.157
631.58	8.968
631.91	7.231
632.24	8.649
632.57	7.957
632.90	9.420
633.23	9.444
633.56	9.273
633.89	8.789
634.22	9.580
634.55	9.462
634.88	10.296
635.20	9.865
635.53	9.640
635.86	9.284
636.19	8.979
636.52	8.000
636.85	8.522
637.18	9.967
637.51	8.492
637.83	10.641
638.16	10.785
638.49	9.461
638.82	9.742
639.15	9.166
639.48	10.427
639.81	8.913
640.13	9.448
640.46	10.872
640.79	9.363
641.12	8.661
641.45	11.514
641.77	10.040
642.10	11.513
642.43	10.526
642.76	9.801
643.09	9.366
643.41	9.537
643.74	9.353
644.07	11.799
644.40	9.172
644.73	11.261
645.05	12.333
645.38	9.648
645.71	9.408
646.04	10.382
646.36	11.424
646.69	10.560
647.02	10.880
647.35	10.394
647.67	11.831
648.00	9.446
648.33	10.827
648.66	10.758
648.98	11.014
649.31	10.256
649.64	8.299
649.96	9.104
650.29	11.143
650.62	12.371
650.94	10.542
651.27	11.643
651.60	11.268
651.92	11.367
652.25	11.181
652.58	10.213
652.90	11.078
653.23	9.010
653.56	10.237
653.88	10.866
654.21	10.850
654.54	12.152
654.86	10.177
655.19	11.346
655.52	8.348
655.84	5.562
656.17	5.949
656.49	8.656
656.82	9.760
657.15	8.085
657.47	6.099
657.80	4.490
658.13	3.639
658.45	4.906
658.78	5.740
659.10	6.239
659.43	6.469
659.75	6.748
660.08	7.018
660.41	9.165
660.73	10.790
661.06	11.562
661.38	12.095
661.71	13.129
662.03	11.217
662.36	12.381
662.68	10.801
663.01	12.973
663.33	9.811
663.66	11.834
663.98	12.897
664.31	13.433
664.63	13.410
664.96	13.696
665.28	12.241
665.61	12.075
665.93	11.132
666.26	10.280
666.58	12.844
666.91	10.618
667.23	12.851
667.56	11.499
667.88	12.863
668.21	14.139
668.53	11.290
668.86	15.832
669.18	13.238
669.50	11.364
669.83	13.552
670.15	13.098
670.48	11.328
670.80	13.147
671.13	13.944
671.45	13.427
671.77	13.358
672.10	12.208
672.42	12.336
672.75	10.918
673.07	11.288
673.39	10.064
673.72	11.246
674.04	11.649
674.37	11.797
674.69	12.639
675.01	12.127
675.34	10.271
675.66	13.281
675.98	12.032
676.31	12.400
676.63	10.736
676.95	13.294
677.28	12.779
677.60	12.877
677.92	9.524
678.25	13.178
678.57	12.477
678.89	13.562
679.22	12.316
679.54	13.523
679.86	13.962
680.18	8.612
680.51	9.287
680.83	8.784
681.15	11.785
681.48	11.458
681.80	10.508
682.12	11.246
682.44	9.910
682.77	13.701
683.09	13.981
683.41	13.878
683.73	13.583
684.06	13.690
684.38	12.403
684.70	9.532
685.02	11.285
685.34	11.796
685.67	12.862
685.99	10.837
686.31	10.786
686.63	10.407
686.96	10.621
687.28	9.732
687.60	10.239
687.92	12.563
688.24	13.103
688.56	14.057
688.89	10.325
689.21	11.946
689.53	11.462
689.85	11.992
690.17	11.845
690.49	13.105
690.82	14.076
691.14	14.343
691.46	13.142
691.78	14.815
692.10	11.832
692.42	11.615
692.74	15.310
693.06	11.822
693.39	11.858
693.71	13.360
694.03	13.609
694.35	14.257
694.67	12.627
694.99	14.634
695.31	13.964
695.63	12.443
695.95	14.253
696.27	15.265
696.59	13.604
696.91	12.911
697.23	14.027
697.56	11.203
697.88	7.784
698.20	12.642
698.52	9.728
698.84	13.963
699.16	14.072
699.48	14.407
699.80	14.161
700.12	16.397
700.44	14.019
700.76	17.422
701.08	14.360
701.40	15.584
701.72	16.845
702.04	16.531
702.36	17.204
702.68	16.223
703.00	11.779
703.32	15.136
703.64	16.373
703.96	15.104
704.28	17.460
704.60	13.521
704.91	16.246
705.23	14.773
705.55	15.430
705.87	16.190
706.19	17.868
706.51	15.047
706.83	16.519
707.15	17.647
707.47	12.349
707.79	14.943
708.11	10.884
708.43	14.831
708.74	14.706
709.06	14.186
709.38	13.648
709.70	11.717
710.02	12.500
710.34	15.746
710.66	16.389
710.98	15.301
711.29	17.549
711.61	18.663
711.93	17.325
712.25	15.663
712.57	11.897
712.89	17.273
713.20	17.891
713.52	13.707
713.84	14.804
714.16	13.913
714.48	12.104
714.80	14.363
715.11	13.032
715.43	15.922
715.75	12.676
716.07	17.630
716.39	14.286
716.70	17.445
717.02	15.152
717.34	17.986
717.66	19.444
717.97	18.939
718.29	16.549
718.61	16.554
718.93	20.069
719.24	18.121
719.56	14.483
719.88	14.331
720.20	17.097
720.51	14.706
720.83	17.391
721.15	18.027
721.46	15.411
721.78	15.331
722.10	19.097
722.42	17.057
722.73	16.968
723.05	15.088
723.37	21.201
723.68	16.016
724.00	15.152
724.32	21.293
724.63	21.154
724.95	17.647
725.27	19.331
725.58	16.176
725.90	16.549
726.22	14.041
726.53	17.726
726.85	17.590
727.16	19.799
727.48	18.937
727.80	18.705
728.11	17.500
728.43	16.304
728.74	17.133
729.06	19.355
729.38	20.351
729.69	20.667
730.01	19.408
730.32	18.121
730.64	16.611
730.96	18.619
731.27	14.679
731.59	14.655
731.90	11.421
732.22	15.143
732.53	13.105
732.85	16.374
733.16	17.169
733.48	15.047
733.80	17.391
734.11	19.632
734.43	15.789
734.74	13.673
735.06	16.931
735.37	12.887
735.69	15.072
736.00	15.902
736.32	12.727
736.63	12.618
736.95	14.596
737.26	17.073
737.58	18.405
737.89	19.578
738.21	17.550
738.52	14.716
738.83	17.949
739.15	17.770
739.46	17.586
739.78	16.327
740.09	20.408
740.41	17.178
740.72	19.048
741.04	19.930
741.35	17.969
741.66	17.391
741.98	29.185
742.29	18.981
742.61	19.912
742.92	13.136
743.23	17.600
743.55	18.113
743.86	15.686
744.18	20.339
744.49	22.314
744.80	21.659
745.12	23.214
745.43	24.299
745.74	19.556
746.06	16.667
746.37	19.535
746.68	23.451
747.00	21.525
747.31	23.529
747.62	16.393
747.94	16.738
748.25	19.844
748.56	20.339
748.88	18.750
749.19	18.605
749.50	17.352
749.82	16.049
750.13	17.391
750.44	16.667
750.75	19.463
751.07	18.092
751.38	18.152
751.69	17.508
752.01	17.832
752.32	18.937
752.63	18.792
752.94	20.280
753.26	19.141
753.57	17.899
753.88	13.483
754.19	19.856
754.51	17.608
754.82	17.114
755.13	17.230
755.44	14.444
755.75	19.588
756.07	17.123
756.38	12.418
756.69	17.500
757.00	15.727
757.31	18.310
757.63	14.325
757.94	12.766
758.25	15.459
758.56	15.789
758.87	13.534
759.18	18.895
759.50	13.678
759.81	15.727
760.12	16.292
760.43	17.647
760.74	14.684
761.05	14.324
761.36	14.062
761.67	14.016
761.99	16.620
762.30	15.434
762.61	18.403
762.92	21.591
763.23	18.868
763.54	17.308
763.85	21.790
764.16	23.611
764.47	15.541
764.78	18.893
765.10	17.073
765.41	13.920
765.72	16.575
766.03	16.012
766.34	15.679
766.65	19.392
766.96	23.077
767.27	24.766
767.58	22.772
767.89	28.729
768.20	25.610
768.51	16.327
768.82	18.421
769.13	18.039
769.44	17.669
769.75	16.854
770.06	19.328
770.37	16.228
770.68	21.333
770.99	22.881
771.30	20.921
771.61	20.769
771.92	21.756
772.23	17.742
772.54	23.556
772.85	23.762
773.16	21.739
773.47	22.778
773.78	22.277
774.09	23.864
774.39	26.667
774.70	21.176
775.01	21.711
775.32	23.602
775.63	26.027
775.94	33.951
776.25	25.517
776.56	35.878
776.87	32.824
777.18	29.545
777.48	29.134
777.79	25.385
778.10	31.061
778.41	39.552
778.72	21.805
779.03	28.205
779.34	26.351
779.65	24.224
779.95	22.360
780.26	24.405
780.57	29.932
780.88	29.078
781.19	35.000
781.50	31.361
781.80	26.230
782.11	26.984
782.42	22.414
782.73	30.508
783.04	25.806
783.34	26.357
783.65	21.769
783.96	23.871
784.27	31.126
784.57	29.605
784.88	26.812
785.19	29.167
785.50	35.345
785.81	37.209
786.11	31.111
786.42	26.772
786.73	32.432
787.04	33.962
787.34	28.455
787.65	42.424
787.96	36.364
788.26	37.795
788.57	32.117
788.88	34.507
789.19	31.298
789.49	33.108
789.80	39.062
790.11	38.017
790.41	48.148
790.72	29.630
791.03	39.423
791.33	43.434
791.64	44.211
791.95	51.579
792.25	38.542
792.56	38.000
792.87	36.585
793.17	35.227
793.48	49.412
793.79	52.874
794.09	38.636
794.40	48.276
794.70	28.571
795.01	27.692
795.32	32.824
795.62	21.368
795.93	41.176
796.23	32.520
796.54	41.837
796.85	39.773
797.15	64.935
797.46	53.659
797.76	48.750
798.07	46.667
798.37	53.750
798.68	51.250
798.99	48.780
799.29	48.000
799.60	36.047
799.90	50.000
800.21	65.152
800.51	50.704
800.82	65.517
801.12	61.538
801.43	57.333
801.73	74.138
802.04	58.442
802.34	42.466
802.65	62.745
802.95	56.522
803.26	74.194
803.56	73.333
803.87	56.716
804.17	46.032
804.48	49.057
804.78	62.500
805.09	57.576
805.39	49.206
805.70	68.421
806.00	50.000
806.30	62.500
806.61	50.588
806.91	51.111
807.22	50.000
807.52	59.211
807.83	65.789
808.13	53.623
808.43	50.000
808.74	54.795
809.04	50.000
809.35	61.765
809.65	42.424
809.95	76.471
810.26	72.222
810.56	76.562
810.86	69.388
811.17	75.439
811.47	78.261
811.77	72.414
812.08	68.966
812.38	50.000
812.69	76.190
812.99	62.222
813.29	105.714
813.59	103.226
813.90	63.793
814.20	72.131
814.50	66.000
814.81	52.632
815.11	68.519
815.41	64.286
815.72	82.143
816.02	80.000
816.32	104.878
816.62	68.966
816.93	87.879
817.23	117.073
817.53	78.571
817.84	86.667
818.14	85.714
818.44	77.083
818.74	73.585
819.04	71.795
819.35	103.030
819.65	86.538
819.95	94.444
820.25	85.106
820.56	118.919
820.86	107.895
821.16	61.702
821.46	105.263
821.76	72.727
822.07	45.238
822.37	81.579
822.67	97.674
822.97	65.789
823.27	78.261
823.57	96.875
823.88	84.615
824.18	96.970
824.48	117.391
824.78	94.444
825.08	117.391
825.38	158.621
825.69	105.882
825.99	72.340
826.29	61.111
826.59	114.286
826.89	120.000
827.19	57.143
827.49	96.774
827.79	134.615
828.09	73.810
828.39	97.222
828.70	75.676
829.00	139.286
829.30	156.250
829.60	108.333
829.90	100.000
830.20	103.030
830.50	124.324
830.80	141.667
831.10	134.615
831.40	147.619
831.70	191.667
832.00	146.667
832.30	165.217
832.60	191.667
832.90	136.364
833.20	165.000
833.50	113.158
833.80	126.471
834.10	84.211
834.40	131.579
834.70	93.333
835.00	156.000
835.30	118.919
835.60	93.750
835.90	110.811
836.20	119.231
836.50	109.091
836.80	95.122
837.10	104.348
837.40	261.538
837.70	131.579
838.00	123.333
838.30	187.500
838.60	132.000
838.90	310.000
839.19	181.250
839.49	133.333
839.79	134.483
840.09	157.692
840.39	226.667
840.69	184.211
840.99	119.048
841.29	147.826
841.59	155.000
841.88	144.000
842.18	266.667
842.48	153.571
842.78	159.259
843.08	238.462
843.38	145.455
843.68	257.143
843.97	457.143
844.27	160.870
844.57	1500.000
844.87	235.714
845.17	205.556
845.47	80.952
845.76	158.333
846.06	528.571
846.36	194.118
846.66	276.923
846.96	237.500
847.25	215.385
847.55	178.947
847.85	216.667
848.15	480.000
848.44	327.273
848.74	133.333
849.04	179.167
849.34	147.059
849.63	262.500
849.93	281.250
850.23	700.000
850.53	387.500
850.82	263.636
851.12	205.882
851.42	150.000
851.71	231.250
852.01	0.000
852.31	223.529
852.61	360.000
852.90	175.000
853.20	233.333
853.50	-2200.000
853.79	140.000
854.09	146.875
854.39	117.241
854.68	137.931
854.98	152.381
855.28	116.129
855.57	242.857
855.87	250.000
856.17	85.185
856.46	115.789
856.76	109.677
857.05	241.176
857.35	281.818
857.65	161.538
857.94	130.000
858.24	344.444
858.53	214.286
858.83	714.286
859.13	156.522
859.42	233.333
859.72	375.000
860.01	250.000
860.31	825.000
860.60	390.000
860.90	400.000
861.20	238.462
861.49	357.143
861.79	-2000.000
862.08	400.000
862.38	288.889
862.67	178.571
862.97	270.000
863.26	130.000
863.56	725.000
863.85	307.692
864.15	235.294
864.44	188.889
864.74	308.333
865.03	309.091
865.33	412.500
865.62	166.667
865.92	616.667
866.21	700.000
866.51	560.000
866.80	188.889
867.10	866.667
867.39	2600.000
867.69	700.000
867.98	975.000
868.27	200.000
868.57	253.333
868.86	750.000
869.16	142.857
869.45	3300.000
869.75	-450.000
870.04	650.000
870.33	480.000
870.63	262.500
870.92	205.882
871.22	900.000
871.51	571.429
871.80	358.333
872.10	284.615
>>>>>End Processed Spectral Data<<<<<
