SpectraSuite Data File
++++++++++++++++++++++++++++++++++++
Date: Tue May 12 17:22:12 PDT 2015
User: schluterlab
Dark Spectrum Present: Yes
Reference Spectrum Present: Yes
Number of Sampled Component Spectra: 1
Spectrometers: USB2E3373
Integration Time (usec): 3000 (USB2E3373)
Spectra Averaged: 3 (USB2E3373)
Boxcar Smoothing: 0 (USB2E3373)
Correct for Electrical Dark: No (USB2E3373)
Strobe/Lamp Enabled: No (USB2E3373)
Correct for Detector Non-linearity: No (USB2E3373)
Correct for Stray Light: No (USB2E3373)
Number of Pixels in Processed Spectrum: 2048
>>>>>Begin Processed Spectral Data<<<<<
178.53	0.000
178.91	-250.000
179.29	-500.000
179.67	-4200.000
180.04	-140.000
180.42	650.000
180.80	1500.000
181.18	0.000
181.56	-300.000
181.94	0.000
182.31	1100.000
182.69	-3400.000
183.07	671.429
183.45	-3500.000
183.83	-2100.000
184.20	370.000
184.58	442.857
184.96	-153.846
185.34	-141.667
185.72	1900.000
186.09	-900.000
186.47	-3500.000
186.85	1100.000
187.23	500.000
187.61	1200.000
187.98	437.500
188.36	285.714
188.74	283.333
189.12	466.667
189.49	925.000
189.87	0.000
190.25	500.000
190.63	2900.000
191.00	-250.000
191.38	-2400.000
191.76	-675.000
192.14	587.500
192.51	-2300.000
192.89	1400.000
193.27	1200.000
193.65	-900.000
194.02	-720.000
194.40	571.429
194.78	-200.000
195.15	180.000
195.53	-3100.000
195.91	-540.000
196.29	4000.000
196.66	243.750
197.04	975.000
197.42	-1450.000
197.79	500.000
198.17	325.000
198.55	0.000
198.92	528.571
199.30	1233.333
199.68	1800.000
200.05	716.667
200.43	-533.333
200.81	211.111
201.18	3400.000
201.56	300.000
201.94	-800.000
202.31	-262.500
202.69	-380.000
203.07	2800.000
203.44	-583.333
203.82	300.000
204.19	740.000
204.57	-1300.000
204.95	-750.000
205.32	-680.000
205.70	500.000
206.08	950.000
206.45	-833.333
206.83	355.556
207.20	210.526
207.58	258.333
207.96	660.000
208.33	0.000
208.71	700.000
209.08	720.000
209.46	-2700.000
209.84	-975.000
210.21	640.000
210.59	-620.000
210.96	316.667
211.34	-875.000
211.71	436.364
212.09	875.000
212.46	1650.000
212.84	-416.667
213.22	433.333
213.59	-2400.000
213.97	250.000
214.34	975.000
214.72	1466.667
215.09	1200.000
215.47	-2000.000
215.84	-340.000
216.22	-337.500
216.59	0.000
216.97	0.000
217.34	1200.000
217.72	-1750.000
218.09	1200.000
218.47	387.500
218.84	1050.000
219.22	933.333
219.59	1200.000
219.97	528.571
220.34	388.889
220.72	1900.000
221.09	2600.000
221.47	291.667
221.84	1000.000
222.22	350.000
222.59	255.556
222.97	235.714
223.34	237.500
223.72	-2050.000
224.09	766.667
224.46	223.077
224.84	-975.000
225.21	377.778
225.59	233.333
225.96	1033.333
226.34	-700.000
226.71	-500.000
227.08	-620.000
227.46	0.000
227.83	-533.333
228.21	-1500.000
228.58	483.333
228.95	875.000
229.33	388.889
229.70	850.000
230.08	392.308
230.45	3500.000
230.82	-1075.000
231.20	-633.333
231.57	-766.667
231.95	680.000
232.32	283.333
232.69	533.333
233.07	325.000
233.44	-1950.000
233.81	266.667
234.19	144.444
234.56	225.000
234.93	188.235
235.31	190.000
235.68	256.250
236.05	171.429
236.43	129.630
236.80	250.000
237.17	144.828
237.55	134.375
237.92	112.500
238.29	121.212
238.67	112.500
239.04	78.049
239.41	83.333
239.79	107.500
240.16	102.083
240.53	68.852
240.91	76.812
241.28	62.712
241.65	65.152
242.02	78.873
242.40	55.714
242.77	56.044
243.14	41.772
243.51	50.505
243.89	52.336
244.26	42.991
244.63	43.564
245.00	42.202
245.38	42.373
245.75	40.909
246.12	40.000
246.49	39.716
246.87	22.131
247.24	36.000
247.61	32.500
247.98	36.735
248.36	30.303
248.73	35.204
249.10	27.976
249.47	32.000
249.84	28.856
250.22	31.892
250.59	32.500
250.96	27.848
251.33	25.116
251.70	27.232
252.08	29.832
252.45	24.701
252.82	24.715
253.19	24.901
253.56	24.615
253.94	26.087
254.31	27.907
254.68	27.178
255.05	24.828
255.42	24.818
255.79	25.733
256.16	23.729
256.54	24.675
256.91	25.490
257.28	23.411
257.65	16.614
258.02	22.714
258.39	25.501
258.76	27.246
259.14	19.143
259.51	23.615
259.88	21.581
260.25	21.978
260.62	22.466
260.99	19.559
261.36	20.613
261.73	21.011
262.10	22.775
262.47	21.250
262.85	17.600
263.22	20.566
263.59	21.228
263.96	22.055
264.33	20.247
264.70	19.656
265.07	20.732
265.44	21.101
265.81	19.104
266.18	21.053
266.55	19.858
266.92	21.477
267.29	20.175
267.66	18.386
268.03	17.265
268.40	20.507
268.77	21.586
269.14	18.438
269.51	17.149
269.88	22.653
270.25	18.143
270.62	19.099
270.99	22.110
271.36	19.512
271.73	19.078
272.10	17.172
272.47	16.468
272.84	17.964
273.21	19.421
273.58	18.016
273.95	16.427
274.32	19.455
274.69	19.488
275.06	20.765
275.43	19.540
275.80	19.057
276.17	19.301
276.54	20.374
276.91	19.590
277.28	17.336
277.65	20.480
278.02	19.485
278.39	20.504
278.76	17.931
279.13	18.683
279.50	18.364
279.87	14.898
280.23	16.206
280.60	18.796
280.97	18.621
281.34	17.492
281.71	16.696
282.08	18.291
282.45	16.892
282.82	19.231
283.19	16.852
283.56	17.355
283.92	16.938
284.29	17.637
284.66	16.471
285.03	18.408
285.40	15.868
285.77	15.586
286.14	17.492
286.51	17.025
286.87	15.190
287.24	14.264
287.61	15.957
287.98	15.522
288.35	16.148
288.72	14.871
289.08	17.568
289.45	16.463
289.82	16.094
290.19	15.666
290.56	16.885
290.93	16.547
291.29	13.950
291.66	15.537
292.03	15.708
292.40	15.718
292.77	14.485
293.13	14.551
293.50	14.575
293.87	14.228
294.24	16.224
294.60	15.209
294.97	16.364
295.34	16.069
295.71	15.769
296.08	14.667
296.44	15.375
296.81	13.896
297.18	13.054
297.55	13.916
297.91	12.315
298.28	14.372
298.65	13.006
299.02	13.390
299.38	14.388
299.75	13.780
300.12	13.876
300.48	14.169
300.85	14.422
301.22	14.186
301.59	12.500
301.95	13.652
302.32	12.922
302.69	13.801
303.05	14.590
303.42	12.556
303.79	13.759
304.15	12.981
304.52	13.848
304.89	12.793
305.25	14.016
305.62	12.793
305.99	12.717
306.35	12.737
306.72	12.383
307.09	12.422
307.45	12.883
307.82	13.272
308.19	14.227
308.55	12.700
308.92	13.543
309.29	13.708
309.65	12.686
310.02	14.097
310.38	12.961
310.75	13.790
311.12	13.410
311.48	13.996
311.85	13.263
312.22	14.422
312.58	14.091
312.95	14.660
313.31	13.951
313.68	13.133
314.05	15.842
314.41	14.339
314.78	13.920
315.14	14.408
315.51	14.759
315.87	14.234
316.24	14.846
316.61	14.951
316.97	14.587
317.34	16.173
317.70	15.716
318.07	16.815
318.43	16.872
318.80	15.674
319.16	17.045
319.53	16.814
319.89	17.294
320.26	18.343
320.62	17.491
320.99	17.922
321.35	17.811
321.72	18.311
322.08	18.467
322.45	19.437
322.81	18.207
323.18	19.538
323.54	20.035
323.91	20.943
324.27	20.955
324.64	19.118
325.00	19.914
325.37	20.826
325.73	21.079
326.10	22.949
326.46	22.461
326.83	21.040
327.19	22.731
327.56	22.125
327.92	23.115
328.29	23.322
328.65	23.202
329.01	23.182
329.38	23.350
329.74	22.716
330.11	24.327
330.47	24.382
330.84	22.692
331.20	24.281
331.56	24.957
331.93	23.695
332.29	23.129
332.66	23.810
333.02	23.282
333.38	25.218
333.75	24.854
334.11	24.329
334.48	24.017
334.84	23.902
335.20	24.380
335.57	24.013
335.93	24.390
336.29	25.290
336.66	24.786
337.02	23.011
337.38	22.872
337.75	24.155
338.11	24.895
338.47	24.217
338.84	23.116
339.20	23.030
339.56	24.979
339.93	24.080
340.29	22.353
340.65	24.476
341.02	23.894
341.38	26.026
341.74	24.585
342.11	24.124
342.47	23.872
342.83	25.267
343.20	24.414
343.56	22.240
343.92	24.030
344.28	24.641
344.65	23.879
345.01	23.333
345.37	24.038
345.73	24.286
346.10	24.462
346.46	23.365
346.82	22.917
347.19	24.343
347.55	23.731
347.91	24.094
348.27	23.315
348.63	23.734
349.00	24.296
349.36	25.292
349.72	23.624
350.08	24.146
350.45	23.915
350.81	23.777
351.17	23.498
351.53	22.633
351.89	23.699
352.26	24.187
352.62	23.906
352.98	24.080
353.34	24.422
353.70	24.388
354.07	24.462
354.43	22.811
354.79	24.298
355.15	24.579
355.51	24.169
355.87	24.774
356.24	23.711
356.60	23.896
356.96	24.185
357.32	23.512
357.68	24.523
358.04	24.848
358.40	25.862
358.77	25.169
359.13	23.649
359.49	23.202
359.85	24.497
360.21	23.105
360.57	25.401
360.93	24.459
361.29	23.449
361.66	24.832
362.02	23.437
362.38	24.675
362.74	24.416
363.10	25.526
363.46	23.066
363.82	24.965
364.18	24.893
364.54	24.320
364.90	24.766
365.26	24.636
365.62	23.273
365.98	23.606
366.35	23.862
366.71	24.011
367.07	24.369
367.43	24.580
367.79	24.136
368.15	23.541
368.51	24.190
368.87	23.098
369.23	23.285
369.59	24.208
369.95	24.545
370.31	24.230
370.67	23.387
371.03	24.300
371.39	25.000
371.75	24.843
372.11	24.473
372.47	24.178
372.83	24.201
373.19	24.195
373.55	24.330
373.91	23.273
374.27	24.537
374.63	25.085
374.99	24.798
375.35	24.395
375.71	23.747
376.07	24.138
376.42	22.698
376.78	25.305
377.14	24.050
377.50	24.469
377.86	23.190
378.22	24.741
378.58	24.939
378.94	24.623
379.30	24.924
379.66	23.721
380.02	24.868
380.38	22.834
380.74	24.856
381.09	24.766
381.45	24.046
381.81	23.582
382.17	23.748
382.53	24.295
382.89	24.187
383.25	24.275
383.61	23.458
383.97	23.515
384.32	24.834
384.68	25.312
385.04	24.971
385.40	23.903
385.76	23.991
386.12	24.737
386.48	23.830
386.83	24.144
387.19	23.910
387.55	23.557
387.91	24.654
388.27	24.569
388.62	24.472
388.98	24.082
389.34	23.319
389.70	24.116
390.06	23.963
390.42	24.614
390.77	23.894
391.13	23.959
391.49	23.109
391.85	23.631
392.20	24.315
392.56	24.074
392.92	23.526
393.28	23.487
393.64	23.280
393.99	23.948
394.35	23.838
394.71	22.799
395.07	23.358
395.42	22.482
395.78	25.046
396.14	23.373
396.50	23.165
396.85	22.805
397.21	23.466
397.57	23.371
397.92	22.415
398.28	22.835
398.64	23.793
399.00	22.982
399.35	22.705
399.71	22.406
400.07	23.345
400.42	22.269
400.78	23.226
401.14	22.079
401.49	22.350
401.85	23.117
402.21	21.968
402.57	22.322
402.92	22.000
403.28	21.360
403.63	21.719
403.99	22.557
404.35	23.154
404.70	22.445
405.06	22.235
405.42	21.424
405.77	21.720
406.13	21.529
406.49	21.717
406.84	21.320
407.20	22.203
407.55	22.338
407.91	22.463
408.27	21.831
408.62	22.354
408.98	22.354
409.34	21.391
409.69	21.344
410.05	20.930
410.40	21.673
410.76	21.637
411.11	22.038
411.47	21.852
411.83	21.383
412.18	21.679
412.54	21.441
412.89	21.180
413.25	23.204
413.60	21.671
413.96	21.125
414.31	21.370
414.67	21.788
415.03	21.520
415.38	22.208
415.74	21.920
416.09	21.736
416.45	23.206
416.80	22.899
417.16	21.260
417.51	21.783
417.87	22.090
418.22	21.628
418.58	21.975
418.93	21.594
419.29	21.627
419.64	21.744
420.00	22.852
420.35	22.706
420.71	21.937
421.06	21.719
421.42	22.568
421.77	22.321
422.12	22.492
422.48	21.983
422.83	22.600
423.19	21.868
423.54	21.887
423.90	23.556
424.25	23.060
424.61	22.519
424.96	22.191
425.31	22.496
425.67	22.896
426.02	22.827
426.38	22.170
426.73	23.366
427.09	23.310
427.44	23.016
427.79	22.756
428.15	23.100
428.50	23.486
428.85	23.339
429.21	23.285
429.56	22.183
429.92	23.073
430.27	23.609
430.62	22.418
430.98	23.154
431.33	22.429
431.68	21.926
432.04	22.193
432.39	23.820
432.74	23.653
433.10	23.920
433.45	24.239
433.80	24.655
434.16	23.910
434.51	23.581
434.86	23.734
435.22	23.339
435.57	24.185
435.92	24.929
436.28	24.136
436.63	24.041
436.98	24.155
437.34	24.829
437.69	24.132
438.04	24.247
438.39	24.869
438.75	24.944
439.10	23.637
439.45	24.138
439.81	25.217
440.16	23.941
440.51	24.099
440.86	25.299
441.22	24.405
441.57	24.514
441.92	24.284
442.27	24.691
442.63	24.848
442.98	25.000
443.33	24.960
443.68	24.648
444.03	25.071
444.39	25.706
444.74	24.275
445.09	24.697
445.44	24.867
445.79	24.513
446.15	24.474
446.50	24.947
446.85	25.100
447.20	24.129
447.55	25.394
447.91	25.999
448.26	24.441
448.61	25.041
448.96	25.327
449.31	24.972
449.66	24.972
450.02	24.851
450.37	25.375
450.72	25.895
451.07	25.945
451.42	26.082
451.77	25.086
452.12	25.128
452.47	25.820
452.83	24.958
453.18	25.826
453.53	26.525
453.88	25.886
454.23	25.973
454.58	24.825
454.93	25.077
455.28	25.704
455.63	26.064
455.98	25.719
456.34	26.505
456.69	24.817
457.04	25.716
457.39	25.371
457.74	27.083
458.09	24.818
458.44	26.068
458.79	26.260
459.14	25.805
459.49	25.651
459.84	25.870
460.19	25.593
460.54	25.926
460.89	26.493
461.24	25.888
461.59	26.020
461.94	26.359
462.29	26.373
462.64	27.324
462.99	26.679
463.34	26.831
463.69	27.647
464.04	26.425
464.39	25.529
464.74	25.498
465.09	26.001
465.44	25.680
465.79	25.531
466.14	25.967
466.49	25.610
466.84	26.366
467.19	27.065
467.54	26.066
467.89	26.232
468.24	25.536
468.59	25.714
468.94	26.630
469.29	26.756
469.64	27.203
469.99	27.506
470.34	27.135
470.68	26.759
471.03	26.484
471.38	27.351
471.73	26.715
472.08	26.614
472.43	26.754
472.78	26.504
473.13	26.095
473.48	25.917
473.83	26.561
474.17	26.322
474.52	26.422
474.87	25.810
475.22	26.785
475.57	26.023
475.92	25.703
476.27	26.496
476.61	25.630
476.96	25.810
477.31	26.478
477.66	27.590
478.01	26.147
478.36	26.004
478.70	25.459
479.05	26.726
479.40	26.240
479.75	26.912
480.10	26.864
480.45	25.350
480.79	25.714
481.14	25.487
481.49	25.114
481.84	26.781
482.19	25.895
482.53	26.702
482.88	25.582
483.23	26.207
483.58	26.032
483.92	27.057
484.27	26.584
484.62	25.976
484.97	25.867
485.31	24.765
485.66	23.827
486.01	23.065
486.36	23.070
486.70	22.916
487.05	23.289
487.40	23.932
487.75	24.585
488.09	24.006
488.44	24.379
488.79	24.991
489.13	25.607
489.48	25.370
489.83	25.646
490.17	25.723
490.52	26.012
490.87	25.991
491.22	26.463
491.56	26.702
491.91	25.672
492.26	26.726
492.60	26.424
492.95	26.416
493.30	26.342
493.64	26.460
493.99	26.118
494.34	26.042
494.68	26.118
495.03	26.403
495.37	26.430
495.72	27.459
496.07	26.460
496.41	26.021
496.76	25.834
497.11	26.350
497.45	25.822
497.80	26.830
498.14	26.953
498.49	26.834
498.84	26.262
499.18	26.463
499.53	26.504
499.87	26.505
500.22	26.393
500.56	26.555
500.91	27.365
501.26	27.331
501.60	26.548
501.95	26.299
502.29	26.356
502.64	25.761
502.98	26.145
503.33	26.860
503.67	26.887
504.02	26.064
504.36	26.516
504.71	26.395
505.06	26.607
505.40	26.673
505.75	26.380
506.09	26.738
506.44	27.068
506.78	27.599
507.13	26.563
507.47	26.880
507.82	27.689
508.16	27.242
508.51	27.053
508.85	26.828
509.19	27.606
509.54	27.441
509.88	27.300
510.23	26.961
510.57	27.027
510.92	28.172
511.26	27.711
511.61	27.425
511.95	27.825
512.30	27.950
512.64	27.414
512.98	27.166
513.33	28.074
513.67	28.742
514.02	27.896
514.36	28.037
514.70	28.373
515.05	27.491
515.39	28.180
515.74	29.524
516.08	28.268
516.42	29.180
516.77	27.840
517.11	27.947
517.46	29.149
517.80	28.564
518.14	28.845
518.49	27.729
518.83	28.516
519.17	28.564
519.52	29.492
519.86	28.992
520.20	29.151
520.55	28.773
520.89	29.425
521.23	30.199
521.58	28.973
521.92	29.096
522.26	29.265
522.61	29.590
522.95	29.550
523.29	29.591
523.64	27.919
523.98	29.812
524.32	29.181
524.66	29.565
525.01	28.521
525.35	29.169
525.69	29.621
526.04	28.971
526.38	28.899
526.72	28.699
527.06	28.326
527.41	29.746
527.75	30.189
528.09	27.875
528.43	29.774
528.78	28.801
529.12	29.621
529.46	28.697
529.80	28.271
530.15	29.110
530.49	29.001
530.83	29.311
531.17	29.090
531.51	30.104
531.86	28.684
532.20	29.172
532.54	29.065
532.88	29.357
533.22	29.494
533.57	28.493
533.91	27.448
534.25	28.044
534.59	28.772
534.93	27.929
535.27	27.718
535.62	28.821
535.96	27.778
536.30	29.129
536.64	28.758
536.98	28.257
537.32	29.187
537.66	27.742
538.01	29.288
538.35	29.570
538.69	28.519
539.03	28.172
539.37	27.670
539.71	28.519
540.05	28.369
540.39	29.434
540.73	28.608
541.07	28.043
541.42	28.545
541.76	28.298
542.10	28.730
542.44	28.928
542.78	28.131
543.12	27.546
543.46	28.885
543.80	27.632
544.14	28.545
544.48	27.981
544.82	28.440
545.16	27.444
545.50	28.211
545.84	28.030
546.18	29.909
546.52	28.787
546.86	28.498
547.20	29.070
547.54	27.802
547.88	28.285
548.22	28.051
548.56	28.167
548.90	27.995
549.24	28.743
549.58	28.673
549.92	29.273
550.26	29.074
550.60	28.609
550.94	29.986
551.28	29.310
551.62	30.276
551.96	29.257
552.30	27.884
552.64	29.579
552.98	28.093
553.32	28.745
553.66	28.013
554.00	28.958
554.34	29.294
554.68	29.704
555.02	28.581
555.36	29.189
555.69	28.338
556.03	29.299
556.37	27.470
556.71	29.074
557.05	28.309
557.39	30.333
557.73	29.919
558.07	29.846
558.41	28.787
558.75	29.754
559.08	29.807
559.42	29.563
559.76	29.865
560.10	27.805
560.44	28.003
560.78	28.708
561.12	28.353
561.45	28.160
561.79	28.027
562.13	28.301
562.47	27.190
562.81	28.497
563.15	28.701
563.48	27.143
563.82	28.883
564.16	28.420
564.50	27.004
564.84	28.267
565.17	27.510
565.51	28.387
565.85	28.069
566.19	27.202
566.52	27.978
566.86	28.488
567.20	27.528
567.54	27.784
567.88	27.752
568.21	26.161
568.55	26.119
568.89	25.776
569.23	25.712
569.56	25.759
569.90	24.470
570.24	24.429
570.57	24.238
570.91	23.370
571.25	23.814
571.59	23.068
571.92	22.820
572.26	22.642
572.60	22.549
572.93	23.289
573.27	23.262
573.61	22.767
573.95	22.759
574.28	22.758
574.62	22.636
574.96	22.084
575.29	22.413
575.63	21.979
575.97	22.298
576.30	21.919
576.64	22.452
576.98	21.871
577.31	22.531
577.65	22.241
577.98	21.205
578.32	21.250
578.66	21.559
578.99	22.089
579.33	22.192
579.67	22.340
580.00	21.623
580.34	22.128
580.67	22.013
581.01	22.339
581.35	21.626
581.68	21.429
582.02	21.324
582.35	21.733
582.69	21.487
583.02	21.760
583.36	21.810
583.70	22.550
584.03	22.670
584.37	22.539
584.70	22.195
585.04	22.341
585.37	21.889
585.71	22.494
586.04	22.044
586.38	22.265
586.72	22.703
587.05	22.851
587.39	22.503
587.72	22.518
588.06	22.150
588.39	22.006
588.73	22.719
589.06	23.723
589.40	23.161
589.73	23.599
590.07	23.507
590.40	23.763
590.73	25.083
591.07	24.592
591.40	24.431
591.74	24.188
592.07	24.501
592.41	23.821
592.74	23.728
593.08	23.079
593.41	22.920
593.75	22.782
594.08	23.345
594.41	23.037
594.75	23.253
595.08	23.525
595.42	23.601
595.75	23.264
596.09	23.705
596.42	23.197
596.75	24.319
597.09	24.721
597.42	24.122
597.75	24.219
598.09	24.087
598.42	24.725
598.76	23.901
599.09	23.612
599.42	22.699
599.76	23.406
600.09	23.288
600.42	23.999
600.76	23.623
601.09	23.542
601.42	22.914
601.76	23.058
602.09	23.436
602.42	23.068
602.76	23.378
603.09	23.869
603.42	23.927
603.76	23.283
604.09	23.489
604.42	24.143
604.76	23.864
605.09	23.551
605.42	23.811
605.75	24.201
606.09	23.680
606.42	23.412
606.75	23.708
607.09	23.569
607.42	23.905
607.75	23.607
608.08	23.599
608.42	24.371
608.75	23.320
609.08	23.845
609.41	24.591
609.75	24.908
610.08	24.146
610.41	23.232
610.74	24.935
611.07	24.102
611.41	24.884
611.74	24.904
612.07	24.855
612.40	24.513
612.73	25.012
613.07	24.886
613.40	25.514
613.73	25.711
614.06	24.850
614.39	25.505
614.72	24.761
615.06	24.135
615.39	24.802
615.72	24.201
616.05	25.113
616.38	24.658
616.71	24.688
617.05	25.755
617.38	25.169
617.71	25.478
618.04	25.070
618.37	24.792
618.70	25.289
619.03	25.824
619.36	26.131
619.69	26.253
620.03	26.875
620.36	25.626
620.69	27.203
621.02	27.514
621.35	26.504
621.68	27.802
622.01	27.970
622.34	27.749
622.67	26.896
623.00	26.481
623.33	27.126
623.66	26.547
623.99	26.986
624.32	26.897
624.65	26.136
624.99	26.234
625.32	28.056
625.65	27.448
625.98	26.778
626.31	28.783
626.64	26.803
626.97	28.233
627.30	27.950
627.63	29.121
627.96	26.995
628.29	28.218
628.62	27.545
628.95	29.876
629.28	29.886
629.61	28.735
629.94	29.386
630.26	29.289
630.59	31.383
630.92	29.776
631.25	30.100
631.58	30.087
631.91	28.925
632.24	28.474
632.57	29.764
632.90	31.573
633.23	31.375
633.56	30.558
633.89	31.833
634.22	30.893
634.55	30.323
634.88	32.202
635.20	30.830
635.53	31.707
635.86	32.327
636.19	30.864
636.52	30.703
636.85	30.313
637.18	31.094
637.51	30.391
637.83	29.291
638.16	31.419
638.49	31.617
638.82	32.160
639.15	28.437
639.48	32.938
639.81	31.502
640.13	31.288
640.46	32.111
640.79	32.120
641.12	31.102
641.45	35.317
641.77	34.082
642.10	33.601
642.43	33.570
642.76	32.102
643.09	32.853
643.41	31.557
643.74	33.094
644.07	35.251
644.40	33.284
644.73	36.486
645.05	34.473
645.38	33.691
645.71	34.143
646.04	35.267
646.36	33.959
646.69	34.720
647.02	35.200
647.35	32.126
647.67	33.063
648.00	35.342
648.33	32.481
648.66	32.576
648.98	32.319
649.31	31.714
649.64	31.674
649.96	30.156
650.29	31.143
650.62	33.579
650.94	33.584
651.27	35.885
651.60	33.333
651.92	31.951
652.25	35.276
652.58	33.191
652.90	32.784
653.23	33.383
653.56	32.344
653.88	32.599
654.21	30.938
654.54	32.943
654.86	31.711
655.19	31.662
655.52	24.617
655.84	17.705
656.17	19.443
656.49	28.250
656.82	32.352
657.15	26.241
657.47	19.766
657.80	14.480
658.13	11.706
658.45	15.628
658.78	19.557
659.10	19.452
659.43	20.038
659.75	21.954
660.08	23.246
660.41	26.497
660.73	29.737
661.06	32.583
661.38	33.390
661.71	33.813
662.03	34.981
662.36	35.810
662.68	34.637
663.01	34.414
663.33	35.660
663.66	36.095
663.98	34.325
664.31	37.313
664.63	35.632
664.96	37.148
665.28	32.957
665.61	33.962
665.93	35.283
666.26	34.579
666.58	37.248
666.91	34.749
667.23	36.546
667.56	37.372
667.88	37.759
668.21	32.582
668.53	34.677
668.86	34.870
669.18	37.882
669.50	34.917
669.83	34.292
670.15	37.422
670.48	33.594
670.80	38.247
671.13	34.861
671.45	36.072
671.77	31.540
672.10	33.573
672.42	33.224
672.75	30.063
673.07	31.638
673.39	31.949
673.72	33.391
674.04	32.437
674.37	32.668
674.69	31.599
675.01	32.836
675.34	31.395
675.66	34.961
675.98	36.095
676.31	32.400
676.63	32.207
676.95	34.127
677.28	33.671
677.60	32.596
677.92	31.548
678.25	33.333
678.57	32.402
678.89	35.443
679.22	34.191
679.54	32.740
679.86	32.810
680.18	31.634
680.51	29.022
680.83	27.703
681.15	31.716
681.48	33.854
681.80	31.524
682.12	31.488
682.44	31.171
682.77	32.028
683.09	31.068
683.41	35.714
683.73	35.827
684.06	32.937
684.38	33.721
684.70	33.633
685.02	30.903
685.34	31.866
685.67	31.350
685.99	29.885
686.31	30.663
686.63	29.593
686.96	29.902
687.28	29.698
687.60	30.546
687.92	32.328
688.24	30.172
688.56	30.605
688.89	30.975
689.21	30.250
689.53	32.016
689.85	32.927
690.17	30.485
690.49	33.266
690.82	32.773
691.14	33.131
691.46	32.649
691.78	32.164
692.10	29.580
692.42	31.034
692.74	33.140
693.06	32.364
693.39	31.621
693.71	29.666
694.03	32.742
694.35	34.137
694.67	32.383
694.99	34.368
695.31	34.459
695.63	32.805
695.95	32.579
696.27	34.735
696.59	34.129
696.91	36.456
697.23	31.900
697.56	30.290
697.88	27.745
698.20	30.377
698.52	31.128
698.84	32.854
699.16	30.490
699.48	31.780
699.80	34.205
700.12	31.640
700.44	34.579
700.76	31.265
701.08	34.987
701.40	36.104
701.72	37.701
702.04	36.585
702.36	37.634
702.68	35.372
703.00	31.830
703.32	36.228
703.64	33.501
703.96	35.417
704.28	33.598
704.60	35.775
704.91	36.975
705.23	40.909
705.55	37.092
705.87	38.730
706.19	39.185
706.51	39.185
706.83	39.528
707.15	38.770
707.47	32.203
707.79	34.713
708.11	31.066
708.43	30.112
708.74	31.900
709.06	32.791
709.38	33.251
709.70	31.063
710.02	32.880
710.34	36.188
710.66	35.833
710.98	35.519
711.29	35.097
711.61	34.819
711.93	34.650
712.25	36.446
712.57	38.585
712.89	37.273
713.20	36.422
713.52	35.514
713.84	37.462
714.16	33.333
714.48	34.582
714.80	34.146
715.11	30.851
715.43	30.726
715.75	35.211
716.07	34.104
716.39	33.714
716.70	34.579
717.02	39.394
717.34	36.691
717.66	41.667
717.97	43.182
718.29	34.859
718.61	33.446
718.93	37.024
719.24	36.913
719.56	34.138
719.88	36.943
720.20	33.871
720.51	34.641
720.83	36.789
721.15	37.415
721.46	34.589
721.78	34.843
722.10	37.847
722.42	37.458
722.73	35.740
723.05	36.491
723.37	37.809
723.68	41.406
724.00	40.530
724.32	37.643
724.63	40.000
724.95	38.431
725.27	38.290
725.58	38.603
725.90	33.451
726.22	34.589
726.53	36.789
726.85	37.134
727.16	38.591
727.48	33.887
727.80	37.410
728.11	37.857
728.43	34.420
728.74	36.713
729.06	31.900
729.38	35.088
729.69	38.000
730.01	38.487
730.32	35.906
730.64	35.216
730.96	33.934
731.27	32.110
731.59	29.885
731.90	28.412
732.22	31.143
732.53	28.775
732.85	34.503
733.16	31.325
733.48	34.796
733.80	33.333
734.11	33.436
734.43	30.117
734.74	31.099
735.06	32.011
735.37	30.670
735.69	32.464
736.00	35.474
736.32	27.576
736.63	30.915
736.95	32.298
737.26	32.622
737.58	31.902
737.89	29.518
738.21	35.430
738.52	31.773
738.83	35.897
739.15	34.495
739.46	35.172
739.78	32.313
740.09	34.402
740.41	36.503
740.72	34.603
741.04	34.615
741.35	32.812
741.66	35.573
741.98	39.056
742.29	36.574
742.61	40.708
742.92	33.898
743.23	37.600
743.55	32.453
743.86	36.471
744.18	32.627
744.49	38.430
744.80	39.171
745.12	36.161
745.43	40.654
745.74	38.222
746.06	32.018
746.37	38.605
746.68	40.708
747.00	40.807
747.31	34.874
747.62	37.295
747.94	36.910
748.25	31.518
748.56	40.254
748.88	41.964
749.19	31.163
749.50	38.813
749.82	39.095
750.13	37.549
750.44	31.000
750.75	32.886
751.07	33.553
751.38	31.683
751.69	30.303
752.01	33.217
752.32	34.884
752.63	35.906
752.94	33.217
753.26	37.500
753.57	35.019
753.88	35.955
754.19	31.769
754.51	33.887
754.82	32.550
755.13	30.743
755.44	32.593
755.75	36.082
756.07	30.479
756.38	28.758
756.69	35.000
757.00	34.421
757.31	32.676
757.63	26.997
757.94	25.532
758.25	29.952
758.56	28.604
758.87	29.323
759.18	31.977
759.50	31.003
759.81	31.157
760.12	28.090
760.43	27.731
760.74	28.101
761.05	30.239
761.36	27.083
761.67	28.302
761.99	32.676
762.30	27.974
762.61	23.264
762.92	33.333
763.23	31.321
763.54	34.615
763.85	33.463
764.16	31.597
764.47	30.743
764.78	28.339
765.10	27.744
765.41	29.261
765.72	27.624
766.03	26.586
766.34	28.571
766.65	32.319
766.96	38.462
767.27	35.047
767.58	39.109
767.89	40.331
768.20	46.951
768.51	36.735
768.82	36.842
769.13	31.765
769.44	36.090
769.75	32.959
770.06	37.815
770.37	30.702
770.68	33.778
770.99	36.441
771.30	36.402
771.61	35.000
771.92	29.389
772.23	35.081
772.54	34.222
772.85	39.109
773.16	38.043
773.47	40.000
773.78	40.594
774.09	42.045
774.39	39.394
774.70	38.824
775.01	32.895
775.32	40.373
775.63	45.205
775.94	51.235
776.25	50.345
776.56	43.511
776.87	48.855
777.18	50.000
777.48	48.819
777.79	45.385
778.10	50.758
778.41	54.478
778.72	41.353
779.03	45.513
779.34	47.973
779.65	42.236
779.95	42.857
780.26	36.310
780.57	49.660
780.88	50.355
781.19	50.833
781.50	44.379
781.80	39.891
782.11	42.328
782.42	39.655
782.73	43.503
783.04	46.452
783.34	44.186
783.65	34.014
783.96	41.290
784.27	41.722
784.57	36.184
784.88	45.652
785.19	49.167
785.50	47.414
785.81	55.039
786.11	38.519
786.42	40.157
786.73	51.351
787.04	55.660
787.34	43.089
787.65	54.545
787.96	45.455
788.26	48.819
788.57	47.445
788.88	41.549
789.19	41.221
789.49	41.216
789.80	42.188
790.11	46.281
790.41	51.852
790.72	50.000
791.03	60.577
791.33	61.616
791.64	50.526
791.95	60.000
792.25	42.708
792.56	60.000
792.87	57.317
793.17	56.818
793.48	65.882
793.79	65.517
794.09	55.682
794.40	58.621
794.70	50.794
795.01	42.308
795.32	38.931
795.62	41.880
795.93	42.857
796.23	50.407
796.54	65.306
796.85	52.273
797.15	63.636
797.46	70.732
797.76	53.750
798.07	65.333
798.37	66.250
798.68	70.000
798.99	68.293
799.29	69.333
799.60	46.512
799.90	67.105
800.21	74.242
800.51	52.113
800.82	79.310
801.12	75.385
801.43	72.000
801.73	50.000
802.04	70.130
802.34	67.123
802.65	90.196
802.95	78.261
803.26	79.032
803.56	93.333
803.87	76.119
804.17	77.778
804.48	81.132
804.78	73.611
805.09	78.788
805.39	80.952
805.70	100.000
806.00	77.143
806.30	79.687
806.61	67.059
806.91	61.111
807.22	48.913
807.52	63.158
807.83	68.421
808.13	73.913
808.43	62.903
808.74	75.342
809.04	87.500
809.35	63.235
809.65	81.818
809.95	98.039
810.26	96.296
810.56	71.875
810.86	85.714
811.17	92.982
811.47	65.217
811.77	67.241
812.08	63.793
812.38	66.667
812.69	102.381
812.99	100.000
813.29	102.857
813.59	145.161
813.90	60.345
814.20	81.967
814.50	84.000
814.81	77.193
815.11	98.148
815.41	91.071
815.72	92.857
816.02	86.000
816.32	90.244
816.62	103.448
816.93	106.061
817.23	112.195
817.53	71.429
817.84	91.111
818.14	85.714
818.44	87.500
818.74	98.113
819.04	105.128
819.35	145.455
819.65	113.462
819.95	105.556
820.25	100.000
820.56	116.216
820.86	136.842
821.16	70.213
821.46	128.947
821.76	96.364
822.07	61.905
822.37	86.842
822.67	120.930
822.97	118.421
823.27	102.174
823.57	90.625
823.88	92.308
824.18	112.121
824.48	100.000
824.78	122.222
825.08	160.870
825.38	127.586
825.69	108.824
825.99	106.383
826.29	88.889
826.59	108.571
826.89	120.000
827.19	94.286
827.49	141.935
827.79	142.308
828.09	109.524
828.39	97.222
828.70	86.486
829.00	150.000
829.30	200.000
829.60	113.889
829.90	141.935
830.20	118.182
830.50	121.622
830.80	204.167
831.10	153.846
831.40	128.571
831.70	195.833
832.00	136.667
832.30	156.522
832.60	158.333
832.90	118.182
833.20	195.000
833.50	139.474
833.80	94.118
834.10	121.053
834.40	152.632
834.70	86.667
835.00	184.000
835.30	102.703
835.60	125.000
835.90	135.135
836.20	157.692
836.50	168.182
836.80	104.878
837.10	152.174
837.40	369.231
837.70	152.632
838.00	153.333
838.30	170.833
838.60	120.000
838.90	180.000
839.19	131.250
839.49	156.667
839.79	144.828
840.09	169.231
840.39	153.333
840.69	168.421
840.99	109.524
841.29	165.217
841.59	240.000
841.88	180.000
842.18	255.556
842.48	150.000
842.78	166.667
843.08	238.462
843.38	195.455
843.68	278.571
843.97	400.000
844.27	152.174
844.57	1550.000
844.87	292.857
845.17	233.333
845.47	123.810
845.76	166.667
846.06	471.429
846.36	176.471
846.66	246.154
846.96	193.750
847.25	292.308
847.55	215.789
847.85	222.222
848.15	620.000
848.44	363.636
848.74	171.429
849.04	166.667
849.34	152.941
849.63	262.500
849.93	243.750
850.23	733.333
850.53	375.000
850.82	236.364
851.12	176.471
851.42	129.167
851.71	206.250
852.01	0.000
852.31	188.235
852.61	390.000
852.90	162.500
853.20	255.556
853.50	-2200.000
853.79	132.000
854.09	125.000
854.39	134.483
854.68	151.724
854.98	209.524
855.28	141.935
855.57	221.429
855.87	194.444
856.17	114.815
856.46	178.947
856.76	135.484
857.05	247.059
857.35	254.545
857.65	230.769
857.94	195.000
858.24	333.333
858.53	257.143
858.83	500.000
859.13	169.565
859.42	266.667
859.72	362.500
860.01	225.000
860.31	850.000
860.60	360.000
860.90	425.000
861.20	223.077
861.49	414.286
861.79	-3000.000
862.08	514.286
862.38	344.444
862.67	250.000
862.97	480.000
863.26	166.667
863.56	775.000
863.85	276.923
864.15	282.353
864.44	205.556
864.74	375.000
865.03	327.273
865.33	425.000
865.62	260.000
865.92	433.333
866.21	825.000
866.51	660.000
866.80	222.222
867.10	933.333
867.39	3300.000
867.69	680.000
867.98	675.000
868.27	209.524
868.57	273.333
868.86	1000.000
869.16	161.905
869.45	3000.000
869.75	-450.000
870.04	600.000
870.33	500.000
870.63	412.500
870.92	200.000
871.22	750.000
871.51	442.857
871.80	358.333
872.10	307.692
>>>>>End Processed Spectral Data<<<<<
