SpectraSuite Data File
++++++++++++++++++++++++++++++++++++
Date: Tue May 12 17:16:55 PDT 2015
User: schluterlab
Dark Spectrum Present: Yes
Reference Spectrum Present: Yes
Number of Sampled Component Spectra: 1
Spectrometers: USB2E3373
Integration Time (usec): 3000 (USB2E3373)
Spectra Averaged: 3 (USB2E3373)
Boxcar Smoothing: 0 (USB2E3373)
Correct for Electrical Dark: No (USB2E3373)
Strobe/Lamp Enabled: No (USB2E3373)
Correct for Detector Non-linearity: No (USB2E3373)
Correct for Stray Light: No (USB2E3373)
Number of Pixels in Processed Spectrum: 2048
>>>>>Begin Processed Spectral Data<<<<<
178.53	0.000
178.91	-258.333
179.29	-750.000
179.67	-3400.000
180.04	-140.000
180.42	625.000
180.80	1800.000
181.18	0.000
181.56	-275.000
181.94	0.000
182.31	1200.000
182.69	-3400.000
183.07	614.286
183.45	-3200.000
183.83	-1300.000
184.20	370.000
184.58	457.143
184.96	-261.538
185.34	-300.000
185.72	2050.000
186.09	-925.000
186.47	-3500.000
186.85	733.333
187.23	640.000
187.61	1450.000
187.98	425.000
188.36	250.000
188.74	325.000
189.12	316.667
189.49	1000.000
189.87	0.000
190.25	450.000
190.63	2800.000
191.00	-258.333
191.38	-3900.000
191.76	-575.000
192.14	525.000
192.51	-3100.000
192.89	1600.000
193.27	866.667
193.65	-933.333
194.02	-680.000
194.40	500.000
194.78	-200.000
195.15	240.000
195.53	-2800.000
195.91	-520.000
196.29	3600.000
196.66	300.000
197.04	700.000
197.42	-1000.000
197.79	575.000
198.17	333.333
198.55	0.000
198.92	428.571
199.30	1000.000
199.68	1650.000
200.05	666.667
200.43	-366.667
200.81	277.778
201.18	3000.000
201.56	241.667
201.94	-675.000
202.31	-212.500
202.69	-600.000
203.07	3500.000
203.44	-533.333
203.82	383.333
204.19	580.000
204.57	-1450.000
204.95	-900.000
205.32	-480.000
205.70	416.667
206.08	850.000
206.45	-766.667
206.83	366.667
207.20	189.474
207.58	258.333
207.96	660.000
208.33	0.000
208.71	528.571
209.08	660.000
209.46	-3100.000
209.84	-850.000
210.21	760.000
210.59	-620.000
210.96	275.000
211.34	-950.000
211.71	309.091
212.09	1000.000
212.46	2000.000
212.84	-316.667
213.22	477.778
213.59	-3100.000
213.97	350.000
214.34	700.000
214.72	1133.333
215.09	1033.333
215.47	-2900.000
215.84	-330.000
216.22	-400.000
216.59	0.000
216.97	0.000
217.34	1300.000
217.72	-1600.000
218.09	1166.667
218.47	350.000
218.84	725.000
219.22	1066.667
219.59	933.333
219.97	514.286
220.34	377.778
220.72	1650.000
221.09	4100.000
221.47	208.333
221.84	1000.000
222.22	380.000
222.59	261.111
222.97	214.286
223.34	262.500
223.72	-1150.000
224.09	1200.000
224.46	292.308
224.84	-900.000
225.21	377.778
225.59	280.000
225.96	1166.667
226.34	-740.000
226.71	-575.000
227.08	-500.000
227.46	0.000
227.83	-433.333
228.21	-1550.000
228.58	433.333
228.95	825.000
229.33	388.889
229.70	925.000
230.08	276.923
230.45	4000.000
230.82	-875.000
231.20	-633.333
231.57	-900.000
231.95	620.000
232.32	300.000
232.69	483.333
233.07	283.333
233.44	-1250.000
233.81	220.000
234.19	170.370
234.56	193.750
234.93	147.059
235.31	150.000
235.68	193.750
236.05	114.286
236.43	118.519
236.80	178.571
237.17	141.379
237.55	112.500
237.92	97.500
238.29	103.030
238.67	125.000
239.04	78.049
239.41	60.417
239.79	60.000
240.16	43.750
240.53	40.984
240.91	46.377
241.28	69.492
241.65	57.576
242.02	47.887
242.40	42.857
242.77	35.165
243.14	40.506
243.51	44.444
243.89	41.121
244.26	26.168
244.63	32.673
245.00	25.688
245.38	22.034
245.75	31.061
246.12	31.111
246.49	21.277
246.87	17.213
247.24	28.667
247.61	27.500
247.98	21.088
248.36	12.727
248.73	21.939
249.10	11.905
249.47	17.500
249.84	20.398
250.22	17.838
250.59	16.500
250.96	18.565
251.33	15.814
251.70	20.089
252.08	16.387
252.45	13.546
252.82	10.646
253.19	11.858
253.56	11.154
253.94	15.217
254.31	13.178
254.68	12.892
255.05	15.517
255.42	13.139
255.79	11.401
256.16	9.153
256.54	13.312
256.91	13.725
257.28	9.030
257.65	6.270
258.02	9.440
258.39	14.040
258.76	12.754
259.14	9.143
259.51	11.079
259.88	11.550
260.25	7.418
260.62	6.575
260.99	7.163
261.36	10.306
261.73	9.309
262.10	11.257
262.47	9.500
262.85	7.200
263.22	9.512
263.59	9.719
263.96	10.276
264.33	7.654
264.70	10.565
265.07	6.829
265.44	8.486
265.81	9.906
266.18	8.696
266.55	8.983
266.92	4.474
267.29	8.333
267.66	6.951
268.03	6.278
268.40	7.188
268.77	8.150
269.14	3.037
269.51	6.236
269.88	6.939
270.25	6.479
270.62	5.150
270.99	8.316
271.36	7.317
271.73	7.338
272.10	7.475
272.47	6.944
272.84	5.190
273.21	7.438
273.58	6.478
273.95	5.749
274.32	7.004
274.69	6.299
275.06	6.557
275.43	8.238
275.80	5.849
276.17	8.272
276.54	8.598
276.91	7.836
277.28	7.482
277.65	7.196
278.02	5.515
278.39	6.475
278.76	7.586
279.13	4.626
279.50	5.091
279.87	4.469
280.23	5.525
280.60	7.664
280.97	7.241
281.34	5.611
281.71	8.696
282.08	7.692
282.45	5.068
282.82	6.020
283.19	5.246
283.56	4.628
283.92	5.212
284.29	5.491
284.66	5.378
285.03	6.633
285.40	5.124
285.77	4.938
286.14	7.740
286.51	6.288
286.87	4.272
287.24	4.354
287.61	3.343
287.98	6.269
288.35	5.926
288.72	5.159
289.08	6.306
289.45	6.402
289.82	4.688
290.19	4.832
290.56	5.822
290.93	5.036
291.29	5.525
291.66	5.508
292.03	4.348
292.40	5.014
292.77	4.457
293.13	5.563
293.50	4.723
293.87	3.659
294.24	4.336
294.60	5.518
294.97	4.615
295.34	4.781
295.71	4.336
296.08	5.200
296.44	3.812
296.81	5.211
297.18	4.816
297.55	5.542
297.91	4.064
298.28	5.193
298.65	6.380
299.02	3.498
299.38	3.957
299.75	4.024
300.12	4.587
300.48	4.918
300.85	4.887
301.22	4.651
301.59	2.712
301.95	3.151
302.32	3.842
302.69	4.864
303.05	5.499
303.42	3.027
303.79	4.767
304.15	3.520
304.52	3.171
304.89	4.584
305.25	5.006
305.62	4.478
305.99	2.717
306.35	3.158
306.72	3.954
307.09	3.313
307.45	3.801
307.82	3.498
308.19	4.021
308.55	3.500
308.92	5.103
309.29	4.438
309.65	3.667
310.02	4.970
310.38	3.091
310.75	3.954
311.12	3.736
311.48	5.212
311.85	4.580
312.22	4.489
312.58	4.179
312.95	4.563
313.31	4.494
313.68	3.846
314.05	5.311
314.41	4.469
314.78	3.693
315.14	4.645
315.51	5.298
315.87	4.106
316.24	4.855
316.61	4.655
316.97	3.486
317.34	4.582
317.70	4.653
318.07	5.872
318.43	4.218
318.80	4.116
319.16	3.584
319.53	4.425
319.89	4.839
320.26	6.145
320.62	5.311
320.99	5.052
321.35	4.267
321.72	4.839
322.08	4.986
322.45	4.905
322.81	3.934
323.18	4.796
323.54	5.923
323.91	5.258
324.27	4.863
324.64	3.287
325.00	4.914
325.37	4.637
325.73	5.649
326.10	5.800
326.46	5.780
326.83	4.000
327.19	5.703
327.56	5.431
327.92	5.328
328.29	6.137
328.65	5.993
329.01	5.560
329.38	5.922
329.74	5.124
330.11	5.213
330.47	5.712
330.84	4.918
331.20	5.161
331.56	5.613
331.93	5.218
332.29	4.422
332.66	5.187
333.02	4.038
333.38	5.672
333.75	5.505
334.11	4.782
334.48	5.726
334.84	5.236
335.20	4.790
335.57	5.542
335.93	6.056
336.29	5.556
336.66	5.232
337.02	4.876
337.38	6.277
337.75	5.659
338.11	5.823
338.47	4.742
338.84	5.080
339.20	4.935
339.56	5.299
339.93	5.435
340.29	4.538
340.65	5.365
341.02	5.792
341.38	5.008
341.74	5.648
342.11	4.508
342.47	4.266
342.83	5.742
343.20	6.063
343.56	3.971
343.92	5.367
344.28	4.944
344.65	4.808
345.01	4.762
345.37	4.647
345.73	5.079
346.10	4.861
346.46	6.539
346.82	4.321
347.19	5.332
347.55	4.606
347.91	4.381
348.27	3.408
348.63	5.380
349.00	4.874
349.36	4.981
349.72	4.740
350.08	5.202
350.45	4.950
350.81	5.352
351.17	4.391
351.53	4.696
351.89	3.963
352.26	4.913
352.62	4.676
352.98	4.908
353.34	5.778
353.70	4.128
354.07	4.769
354.43	4.608
354.79	4.024
355.15	4.211
355.51	4.985
355.87	4.970
356.24	4.465
356.60	4.871
356.96	4.701
357.32	5.124
357.68	5.286
358.04	4.255
358.40	4.198
358.77	5.635
359.13	4.580
359.49	4.522
359.85	4.542
360.21	4.012
360.57	4.088
360.93	5.051
361.29	4.762
361.66	4.847
362.02	3.693
362.38	4.329
362.74	4.600
363.10	5.189
363.46	4.006
363.82	5.119
364.18	4.054
364.54	5.007
364.90	5.288
365.26	4.233
365.62	4.558
365.98	3.923
366.35	4.207
366.71	4.511
367.07	4.778
367.43	4.365
367.79	3.989
368.15	4.274
368.51	4.549
368.87	5.027
369.23	3.950
369.59	4.450
369.95	5.105
370.31	4.244
370.67	4.788
371.03	4.202
371.39	4.501
371.75	4.117
372.11	4.147
372.47	4.863
372.83	4.895
373.19	5.003
373.55	4.811
373.91	3.384
374.27	4.630
374.63	4.068
374.99	4.313
375.35	3.629
375.71	5.013
376.07	4.576
376.42	3.708
376.78	4.046
377.14	4.456
377.50	4.057
377.86	3.331
378.22	4.692
378.58	4.358
378.94	4.164
379.30	4.063
379.66	4.154
380.02	4.457
380.38	3.513
380.74	4.729
381.09	3.972
381.45	4.104
381.81	3.014
382.17	3.602
382.53	3.959
382.89	4.140
383.25	3.434
383.61	4.611
383.97	3.359
384.32	4.400
384.68	4.694
385.04	5.041
385.40	4.330
385.76	4.389
386.12	4.453
386.48	4.134
386.83	4.095
387.19	4.240
387.55	3.828
387.91	4.908
388.27	4.700
388.62	3.932
388.98	3.907
389.34	3.510
389.70	3.597
390.06	4.024
390.42	4.627
390.77	4.484
391.13	3.742
391.49	3.932
391.85	4.369
392.20	4.648
392.56	5.018
392.92	3.650
393.28	3.980
393.64	3.555
393.99	3.912
394.35	3.826
394.71	4.403
395.07	3.771
395.42	4.098
395.78	4.380
396.14	4.819
396.50	4.091
396.85	4.146
397.21	3.791
397.57	3.766
397.92	3.177
398.28	3.089
398.64	4.363
399.00	4.009
399.35	3.918
399.71	3.863
400.07	3.767
400.42	3.164
400.78	3.871
401.14	3.582
401.49	3.514
401.85	4.345
402.21	4.101
402.57	3.950
402.92	3.879
403.28	3.222
403.63	3.767
403.99	4.463
404.35	4.162
404.70	3.780
405.06	3.032
405.42	3.471
405.77	3.638
406.13	3.796
406.49	2.672
406.84	4.005
407.20	3.995
407.55	4.185
407.91	4.276
408.27	4.245
408.62	3.430
408.98	3.726
409.34	3.682
409.69	3.734
410.05	3.697
410.40	2.945
410.76	3.492
411.11	3.851
411.47	3.704
411.83	3.281
412.18	3.684
412.54	3.183
412.89	2.950
413.25	3.421
413.60	3.621
413.96	3.351
414.31	3.719
414.67	3.911
415.03	3.448
415.38	4.164
415.74	3.348
416.09	3.560
416.45	4.460
416.80	4.169
417.16	3.565
417.51	4.522
417.87	3.817
418.22	3.524
418.58	3.949
418.93	3.034
419.29	3.389
419.64	3.816
420.00	3.282
420.35	3.252
420.71	3.326
421.06	3.178
421.42	3.915
421.77	3.776
422.12	3.473
422.48	3.390
422.83	3.627
423.19	3.618
423.54	3.675
423.90	3.511
424.25	3.522
424.61	3.831
424.96	2.936
425.31	3.229
425.67	3.199
426.02	3.365
426.38	2.859
426.73	2.950
427.09	4.211
427.44	3.039
427.79	2.744
428.15	3.182
428.50	3.714
428.85	4.174
429.21	3.566
429.56	3.789
429.92	3.133
430.27	3.387
430.62	2.496
430.98	3.343
431.33	2.369
431.68	2.765
432.04	3.104
432.39	3.732
432.74	3.513
433.10	3.156
433.45	2.987
433.80	3.530
434.16	3.468
434.51	3.767
434.86	3.157
435.22	3.187
435.57	3.616
435.92	3.984
436.28	3.802
436.63	3.728
436.98	4.110
437.34	4.167
437.69	2.744
438.04	3.817
438.39	3.269
438.75	3.898
439.10	3.454
439.45	4.070
439.81	3.759
440.16	3.302
440.51	3.998
440.86	3.647
441.22	3.517
441.57	3.727
441.92	3.011
442.27	3.093
442.63	3.252
442.98	3.879
443.33	3.589
443.68	3.672
444.03	3.299
444.39	3.154
444.74	3.364
445.09	3.265
445.44	3.666
445.79	3.314
446.15	3.632
446.50	3.112
446.85	3.436
447.20	2.687
447.55	2.991
447.91	3.836
448.26	4.633
448.61	3.593
448.96	3.322
449.31	3.300
449.66	4.097
450.02	2.701
450.37	4.275
450.72	3.802
451.07	4.130
451.42	4.031
451.77	3.837
452.12	4.141
452.47	4.374
452.83	4.056
453.18	4.505
453.53	4.381
453.88	4.286
454.23	3.893
454.58	4.079
454.93	3.556
455.28	4.039
455.63	3.605
455.98	4.061
456.34	4.438
456.69	3.537
457.04	3.938
457.39	4.800
457.74	4.505
458.09	3.200
458.44	4.272
458.79	3.820
459.14	3.764
459.49	4.134
459.84	4.022
460.19	3.390
460.54	4.387
460.89	3.785
461.24	4.066
461.59	3.855
461.94	3.783
462.29	4.176
462.64	3.894
462.99	3.583
463.34	4.472
463.69	4.235
464.04	4.145
464.39	3.721
464.74	2.989
465.09	4.179
465.44	3.808
465.79	3.756
466.14	4.028
466.49	3.310
466.84	4.125
467.19	4.745
467.54	4.024
467.89	4.636
468.24	3.243
468.59	3.929
468.94	4.287
469.29	4.520
469.64	5.016
469.99	4.820
470.34	3.985
470.68	4.138
471.03	4.670
471.38	4.305
471.73	4.311
472.08	3.914
472.43	4.469
472.78	4.738
473.13	3.567
473.48	3.790
473.83	3.946
474.17	3.465
474.52	4.562
474.87	3.752
475.22	3.427
475.57	3.882
475.92	4.190
476.27	2.992
476.61	3.539
476.96	4.180
477.31	3.599
477.66	3.865
478.01	4.332
478.36	3.656
478.70	3.474
479.05	3.086
479.40	4.167
479.75	4.171
480.10	3.630
480.45	3.735
480.79	3.641
481.14	3.233
481.49	3.522
481.84	4.134
482.19	3.537
482.53	3.821
482.88	3.719
483.23	3.338
483.58	3.232
483.92	3.976
484.27	3.253
484.62	3.862
484.97	3.389
485.31	3.279
485.66	2.741
486.01	2.865
486.36	2.657
486.70	2.466
487.05	2.843
487.40	3.063
487.75	3.060
488.09	3.267
488.44	3.219
488.79	3.436
489.13	3.397
489.48	3.276
489.83	3.336
490.17	3.427
490.52	3.187
490.87	3.966
491.22	3.502
491.56	3.689
491.91	3.539
492.26	3.519
492.60	3.554
492.95	3.670
493.30	4.140
493.64	3.639
493.99	3.354
494.34	3.138
494.68	3.010
495.03	3.637
495.37	4.097
495.72	3.916
496.07	3.010
496.41	3.997
496.76	3.377
497.11	4.284
497.45	3.858
497.80	3.892
498.14	4.068
498.49	3.993
498.84	4.252
499.18	3.565
499.53	3.583
499.87	3.190
500.22	3.639
500.56	3.760
500.91	3.571
501.26	3.950
501.60	4.007
501.95	3.271
502.29	4.000
502.64	3.838
502.98	3.602
503.33	3.430
503.67	3.709
504.02	3.583
504.36	3.846
504.71	3.548
505.06	4.317
505.40	3.276
505.75	3.648
506.09	4.433
506.44	3.289
506.78	3.733
507.13	3.587
507.47	3.736
507.82	4.185
508.16	3.871
508.51	4.058
508.85	3.989
509.19	4.112
509.54	3.711
509.88	4.276
510.23	3.676
510.57	3.861
510.92	3.896
511.26	3.865
511.61	3.939
511.95	4.331
512.30	4.250
512.64	3.427
512.98	4.357
513.33	3.996
513.67	4.350
514.02	3.481
514.36	3.790
514.70	3.840
515.05	3.303
515.39	4.112
515.74	4.483
516.08	4.248
516.42	4.481
516.77	3.467
517.11	3.893
517.46	4.256
517.80	4.315
518.14	4.282
518.49	3.914
518.83	3.736
519.17	4.382
519.52	4.478
519.86	4.251
520.20	4.658
520.55	3.731
520.89	4.310
521.23	4.147
521.58	3.959
521.92	4.082
522.26	3.495
522.61	3.981
522.95	3.784
523.29	4.152
523.64	3.815
523.98	3.815
524.32	4.787
524.66	4.290
525.01	4.201
525.35	3.654
525.69	4.214
526.04	5.057
526.38	3.826
526.72	4.117
527.06	4.317
527.41	4.353
527.75	4.139
528.09	4.877
528.43	4.759
528.78	4.174
529.12	4.335
529.46	3.974
529.80	4.264
530.15	4.950
530.49	4.272
530.83	4.388
531.17	4.244
531.51	4.292
531.86	4.469
532.20	4.388
532.54	3.829
532.88	4.435
533.22	4.388
533.57	3.417
533.91	3.497
534.25	3.578
534.59	4.035
534.93	4.152
535.27	3.472
535.62	3.734
535.96	4.137
536.30	4.997
536.64	4.099
536.98	3.839
537.32	5.750
537.66	3.508
538.01	4.830
538.35	4.429
538.69	4.430
539.03	3.607
539.37	3.519
539.71	4.321
540.05	3.877
540.39	4.277
540.73	3.987
541.07	4.015
541.42	4.415
541.76	4.439
542.10	3.822
542.44	4.426
542.78	4.468
543.12	3.620
543.46	4.887
543.80	3.885
544.14	4.272
544.48	5.049
544.82	3.976
545.16	3.764
545.50	4.057
545.84	3.851
546.18	4.291
546.52	4.852
546.86	4.965
547.20	3.747
547.54	4.877
547.88	4.501
548.22	4.554
548.56	4.007
548.90	4.804
549.24	4.611
549.58	4.124
549.92	4.453
550.26	4.327
550.60	4.059
550.94	4.478
551.28	4.897
551.62	4.828
551.96	4.054
552.30	3.626
552.64	5.566
552.98	3.995
553.32	4.033
553.66	4.039
554.00	4.376
554.34	5.193
554.68	4.772
555.02	4.209
555.36	4.189
555.69	4.647
556.03	4.268
556.37	3.952
556.71	5.411
557.05	4.522
557.39	4.133
557.73	4.852
558.07	3.890
558.41	3.838
558.75	4.651
559.08	4.289
559.42	4.152
559.76	4.562
560.10	4.542
560.44	4.048
560.78	4.795
561.12	4.768
561.45	4.255
561.79	4.307
562.13	3.727
562.47	3.764
562.81	4.359
563.15	3.943
563.48	3.602
563.82	4.616
564.16	4.789
564.50	4.219
564.84	3.647
565.17	4.694
565.51	3.756
565.85	3.763
566.19	4.226
566.52	3.490
566.86	4.320
567.20	3.708
567.54	3.712
567.88	3.652
568.21	3.345
568.55	3.696
568.89	3.604
569.23	3.236
569.56	3.594
569.90	3.450
570.24	3.203
570.57	3.180
570.91	3.027
571.25	2.906
571.59	2.764
571.92	2.664
572.26	2.507
572.60	2.666
572.93	3.076
573.27	2.728
573.61	2.734
573.95	2.764
574.28	2.908
574.62	2.492
574.96	2.464
575.29	2.626
575.63	2.356
575.97	2.799
576.30	2.632
576.64	2.554
576.98	2.577
577.31	2.643
577.65	2.686
577.98	2.482
578.32	2.309
578.66	2.527
578.99	2.685
579.33	3.000
579.67	2.793
580.00	2.431
580.34	2.570
580.67	2.685
581.01	2.743
581.35	2.465
581.68	2.188
582.02	2.467
582.35	2.426
582.69	2.699
583.02	2.157
583.36	2.594
583.70	2.744
584.03	2.784
584.37	2.903
584.70	2.837
585.04	2.474
585.37	2.412
585.71	2.787
586.04	2.442
586.38	2.705
586.72	2.831
587.05	3.139
587.39	2.554
587.72	2.537
588.06	2.781
588.39	2.943
588.73	2.751
589.06	2.743
589.40	3.005
589.73	2.950
590.07	3.157
590.40	3.798
590.73	3.599
591.07	3.719
591.40	3.114
591.74	3.206
592.07	2.621
592.41	3.437
592.74	3.003
593.08	2.897
593.41	2.693
593.75	2.782
594.08	3.111
594.41	2.933
594.75	3.048
595.08	3.395
595.42	3.522
595.75	3.554
596.09	3.094
596.42	3.241
596.75	3.405
597.09	3.549
597.42	3.429
597.75	3.002
598.09	2.954
598.42	3.509
598.76	3.277
599.09	3.347
599.42	3.114
599.76	3.799
600.09	3.153
600.42	3.349
600.76	3.229
601.09	2.831
601.42	2.957
601.76	3.437
602.09	3.311
602.42	3.327
602.76	3.416
603.09	3.356
603.42	4.073
603.76	2.820
604.09	2.968
604.42	3.051
604.76	3.042
605.09	3.388
605.42	3.657
605.75	3.277
606.09	3.405
606.42	2.818
606.75	3.187
607.09	3.158
607.42	3.013
607.75	2.986
608.08	3.087
608.42	3.314
608.75	3.166
609.08	3.300
609.41	3.818
609.75	3.663
610.08	3.282
610.41	3.162
610.74	3.593
611.07	3.047
611.41	3.058
611.74	3.011
612.07	3.709
612.40	3.411
612.73	3.694
613.07	3.649
613.40	3.308
613.73	3.095
614.06	2.800
614.39	3.838
614.72	3.566
615.06	3.462
615.39	3.465
615.72	3.001
616.05	4.370
616.38	3.856
616.71	3.310
617.05	3.295
617.38	3.202
617.71	3.431
618.04	3.758
618.37	3.613
618.70	3.176
619.03	2.930
619.36	4.146
619.69	4.222
620.03	4.631
620.36	3.982
620.69	4.853
621.02	4.008
621.35	4.370
621.68	4.646
622.01	5.387
622.34	3.496
622.67	4.635
623.00	5.037
623.33	3.711
623.66	4.458
623.99	3.904
624.32	4.133
624.65	4.542
624.99	3.516
625.32	4.676
625.65	3.793
625.98	3.766
626.31	4.377
626.64	3.797
626.97	4.897
627.30	4.503
627.63	4.788
627.96	4.460
628.29	4.455
628.62	3.849
628.95	5.142
629.28	6.398
629.61	4.130
629.94	3.803
630.26	4.593
630.59	5.408
630.92	5.112
631.25	5.893
631.58	5.593
631.91	4.757
632.24	4.470
632.57	4.617
632.90	5.383
633.23	5.247
633.56	5.269
633.89	5.681
634.22	5.920
634.55	6.237
634.88	6.024
635.20	5.942
635.53	5.226
635.86	7.047
636.19	5.387
636.52	3.568
636.85	4.315
637.18	6.067
637.51	5.140
637.83	4.005
638.16	4.807
638.49	6.467
638.82	6.690
639.15	5.170
639.48	6.043
639.81	5.250
640.13	6.135
640.46	6.574
640.79	5.462
641.12	4.199
641.45	6.856
641.77	7.662
642.10	5.489
642.43	5.405
642.76	6.534
643.09	5.476
643.41	6.872
643.74	7.338
644.07	6.785
644.40	4.438
644.73	7.207
645.05	8.321
645.38	6.738
645.71	6.070
646.04	6.565
646.36	6.103
646.69	5.280
647.02	6.400
647.35	5.512
647.67	6.321
648.00	6.352
648.33	6.917
648.66	6.818
648.98	5.652
649.31	4.858
649.64	4.288
649.96	4.410
650.29	6.286
650.62	7.953
650.94	8.886
651.27	6.858
651.60	7.042
651.92	6.912
652.25	7.874
652.58	7.660
652.90	7.036
653.23	5.908
653.56	6.528
653.88	6.167
654.21	5.718
654.54	7.174
654.86	6.047
655.19	6.860
655.52	3.748
655.84	2.123
656.17	1.969
656.49	2.605
656.82	2.945
657.15	2.460
657.47	1.815
657.80	1.316
658.13	1.213
658.45	1.803
658.78	2.375
659.10	2.080
659.43	2.430
659.75	2.848
660.08	3.383
660.41	4.900
660.73	7.026
661.06	7.958
661.38	7.666
661.71	7.194
662.03	6.464
662.36	8.952
662.68	9.311
663.01	10.090
663.33	6.792
663.66	8.679
663.98	7.937
664.31	10.261
664.63	10.728
664.96	9.568
665.28	5.838
665.61	7.170
665.93	7.358
666.26	6.542
666.58	9.908
666.91	8.687
667.23	7.430
667.56	9.240
667.88	8.506
668.21	9.631
668.53	6.855
668.86	9.218
669.18	8.147
669.50	8.058
669.83	9.240
670.15	8.524
670.48	6.836
670.80	9.960
671.13	8.765
671.45	9.619
671.77	10.390
672.10	7.899
672.42	6.414
672.75	6.646
673.07	6.995
673.39	6.230
673.72	7.266
674.04	7.885
674.37	7.441
674.69	7.063
675.01	8.022
675.34	5.426
675.66	8.203
675.98	8.679
676.31	7.200
676.63	8.350
676.95	8.135
677.28	6.897
677.60	7.646
677.92	7.143
678.25	7.946
678.57	8.007
678.89	9.765
679.22	8.456
679.54	8.897
679.86	9.773
680.18	7.030
680.51	5.970
680.83	4.730
681.15	9.532
681.48	8.507
681.80	7.180
682.12	7.439
682.44	5.946
682.77	8.185
683.09	7.184
683.41	7.551
683.73	8.858
684.06	7.738
684.38	8.527
684.70	6.655
685.02	6.944
685.34	7.570
685.67	8.682
685.99	6.404
686.31	6.934
686.63	7.154
686.96	8.987
687.28	6.879
687.60	7.509
687.92	6.868
688.24	9.310
688.56	8.185
688.89	4.971
689.21	9.634
689.53	6.917
689.85	7.520
690.17	9.126
690.49	10.484
690.82	7.773
691.14	7.475
691.46	8.830
691.78	8.967
692.10	7.443
692.42	7.078
692.74	10.078
693.06	6.783
693.39	7.510
693.71	7.662
694.03	9.467
694.35	9.839
694.67	8.554
694.99	8.426
695.31	11.261
695.63	7.014
695.95	8.597
696.27	10.177
696.59	7.876
696.91	5.823
697.23	9.502
697.56	5.602
697.88	4.591
698.20	8.868
698.52	6.809
698.84	10.678
699.16	7.889
699.48	8.686
699.80	11.329
700.12	9.931
700.44	9.813
700.76	10.024
701.08	10.183
701.40	9.091
701.72	13.102
702.04	14.363
702.36	8.871
702.68	12.500
703.00	8.772
703.32	10.422
703.64	9.824
703.96	10.937
704.28	12.434
704.60	12.394
704.91	10.364
705.23	12.500
705.55	8.605
705.87	10.159
706.19	12.226
706.51	15.987
706.83	12.684
707.15	12.032
707.47	10.654
707.79	9.195
708.11	10.204
708.43	11.011
708.74	8.371
709.06	10.000
709.38	9.677
709.70	8.447
710.02	10.326
710.34	11.050
710.66	11.111
710.98	15.847
711.29	10.585
711.61	12.535
711.93	10.030
712.25	13.855
712.57	14.469
712.89	15.152
713.20	14.058
713.52	9.346
713.84	11.178
714.16	7.246
714.48	7.493
714.80	8.672
715.11	11.170
715.43	11.453
715.75	7.887
716.07	13.006
716.39	11.714
716.70	9.657
717.02	12.795
717.34	10.072
717.66	14.583
717.97	11.742
718.29	10.563
718.61	11.824
718.93	12.457
719.24	13.423
719.56	10.345
719.88	11.783
720.20	11.935
720.51	11.438
720.83	10.702
721.15	14.286
721.46	12.671
721.78	14.286
722.10	13.194
722.42	14.047
722.73	10.830
723.05	14.737
723.37	14.841
723.68	10.938
724.00	13.258
724.32	15.589
724.63	17.308
724.95	12.157
725.27	13.383
725.58	15.809
725.90	9.859
726.22	13.356
726.53	13.378
726.85	12.052
727.16	12.752
727.48	12.625
727.80	14.388
728.11	14.286
728.43	13.043
728.74	13.986
729.06	11.470
729.38	13.684
729.69	18.000
730.01	16.776
730.32	9.060
730.64	12.957
730.96	15.015
731.27	5.810
731.59	8.621
731.90	9.192
732.22	11.714
732.53	11.396
732.85	13.743
733.16	10.843
733.48	10.972
733.80	13.913
734.11	16.258
734.43	12.281
734.74	7.775
735.06	10.317
735.37	10.309
735.69	9.275
736.00	11.315
736.32	10.303
736.63	8.202
736.95	12.422
737.26	10.366
737.58	10.736
737.89	13.855
738.21	9.272
738.52	9.365
738.83	17.949
739.15	14.286
739.46	12.759
739.78	12.245
740.09	13.703
740.41	11.043
740.72	14.286
741.04	14.336
741.35	12.500
741.66	13.439
741.98	15.451
742.29	20.833
742.61	14.159
742.92	11.441
743.23	15.200
743.55	13.585
743.86	13.333
744.18	17.797
744.49	18.595
744.80	15.207
745.12	12.500
745.43	15.888
745.74	16.444
746.06	14.035
746.37	11.628
746.68	19.027
747.00	17.489
747.31	15.126
747.62	15.164
747.94	16.309
748.25	15.564
748.56	17.373
748.88	13.839
749.19	8.837
749.50	12.785
749.82	15.226
750.13	13.043
750.44	13.000
750.75	9.732
751.07	12.829
751.38	12.871
751.69	12.795
752.01	12.238
752.32	14.286
752.63	12.081
752.94	14.336
753.26	18.359
753.57	15.175
753.88	11.610
754.19	15.162
754.51	12.292
754.82	10.403
755.13	11.149
755.44	17.037
755.75	13.058
756.07	11.644
756.38	10.458
756.69	12.813
757.00	16.914
757.31	12.676
757.63	8.815
757.94	10.106
758.25	9.903
758.56	13.501
758.87	11.779
759.18	11.919
759.50	10.942
759.81	14.243
760.12	12.640
760.43	10.924
760.74	12.911
761.05	11.141
761.36	8.073
761.67	10.512
761.99	11.268
762.30	9.646
762.61	12.153
762.92	17.045
763.23	14.717
763.54	15.769
763.85	10.117
764.16	15.278
764.47	13.514
764.78	8.795
765.10	10.366
765.41	8.523
765.72	10.497
766.03	9.063
766.34	10.453
766.65	14.829
766.96	17.814
767.27	16.822
767.58	23.267
767.89	21.547
768.20	15.244
768.51	17.857
768.82	17.544
769.13	13.725
769.44	13.910
769.75	9.363
770.06	13.445
770.37	16.667
770.68	12.000
770.99	16.525
771.30	15.063
771.61	11.154
771.92	14.504
772.23	12.903
772.54	18.222
772.85	25.743
773.16	19.022
773.47	18.333
773.78	24.752
774.09	17.045
774.39	20.000
774.70	22.941
775.01	18.421
775.32	22.981
775.63	17.123
775.94	33.951
776.25	28.276
776.56	27.481
776.87	21.374
777.18	32.576
777.48	33.071
777.79	33.846
778.10	27.273
778.41	29.104
778.72	21.805
779.03	24.359
779.34	15.541
779.65	20.497
779.95	19.876
780.26	25.000
780.57	24.490
780.88	31.915
781.19	27.500
781.50	29.586
781.80	23.497
782.11	23.280
782.42	16.667
782.73	23.729
783.04	22.581
783.34	16.279
783.65	21.088
783.96	21.290
784.27	19.205
784.57	22.368
784.88	24.638
785.19	24.167
785.50	25.000
785.81	32.558
786.11	28.148
786.42	29.134
786.73	30.631
787.04	26.415
787.34	23.577
787.65	31.061
787.96	23.485
788.26	33.071
788.57	20.438
788.88	30.282
789.19	20.611
789.49	25.676
789.80	25.781
790.11	28.099
790.41	27.778
790.72	26.852
791.03	32.692
791.33	34.343
791.64	38.947
791.95	36.842
792.25	29.167
792.56	31.000
792.87	37.805
793.17	40.909
793.48	36.471
793.79	33.333
794.09	40.909
794.40	31.897
794.70	29.365
795.01	24.615
795.32	20.611
795.62	13.675
795.93	34.454
796.23	32.520
796.54	36.735
796.85	40.909
797.15	53.247
797.46	51.220
797.76	41.250
798.07	48.000
798.37	47.500
798.68	52.500
798.99	54.878
799.29	49.333
799.60	37.209
799.90	44.737
800.21	37.879
800.51	33.803
800.82	67.241
801.12	46.154
801.43	62.667
801.73	29.310
802.04	51.948
802.34	46.575
802.65	56.863
802.95	47.826
803.26	67.742
803.56	70.000
803.87	59.701
804.17	44.444
804.48	47.170
804.78	50.000
805.09	63.636
805.39	71.429
805.70	61.404
806.00	45.714
806.30	35.937
806.61	48.235
806.91	47.778
807.22	47.826
807.52	44.737
807.83	51.316
808.13	55.072
808.43	53.226
808.74	45.205
809.04	46.429
809.35	61.765
809.65	37.879
809.95	50.980
810.26	77.778
810.56	62.500
810.86	51.020
811.17	57.895
811.47	76.087
811.77	67.241
812.08	48.276
812.38	66.667
812.69	76.190
812.99	40.000
813.29	91.429
813.59	80.645
813.90	55.172
814.20	75.410
814.50	72.000
814.81	49.123
815.11	64.815
815.41	50.000
815.72	71.429
816.02	82.000
816.32	46.341
816.62	77.586
816.93	121.212
817.23	90.244
817.53	80.357
817.84	64.444
818.14	78.571
818.44	85.417
818.74	66.038
819.04	53.846
819.35	78.788
819.65	96.154
819.95	101.852
820.25	87.234
820.56	118.919
820.86	97.368
821.16	42.553
821.46	86.842
821.76	54.545
822.07	69.048
822.37	92.105
822.67	90.698
822.97	44.737
823.27	100.000
823.57	84.375
823.88	64.103
824.18	66.667
824.48	95.652
824.78	130.556
825.08	130.435
825.38	100.000
825.69	88.235
825.99	59.574
826.29	41.667
826.59	97.143
826.89	90.000
827.19	80.000
827.49	109.677
827.79	119.231
828.09	100.000
828.39	83.333
828.70	72.973
829.00	103.571
829.30	168.750
829.60	116.667
829.90	96.774
830.20	78.788
830.50	94.595
830.80	104.167
831.10	119.231
831.40	123.810
831.70	133.333
832.00	103.333
832.30	191.304
832.60	175.000
832.90	133.333
833.20	130.000
833.50	139.474
833.80	97.059
834.10	86.842
834.40	94.737
834.70	60.000
835.00	116.000
835.30	75.676
835.60	125.000
835.90	100.000
836.20	173.077
836.50	136.364
836.80	100.000
837.10	121.739
837.40	307.692
837.70	115.789
838.00	146.667
838.30	154.167
838.60	140.000
838.90	210.000
839.19	162.500
839.49	140.000
839.79	141.379
840.09	153.846
840.39	173.333
840.69	173.684
840.99	71.429
841.29	134.783
841.59	145.000
841.88	136.000
842.18	233.333
842.48	125.000
842.78	125.926
843.08	176.923
843.38	154.545
843.68	221.429
843.97	428.571
844.27	165.217
844.57	1400.000
844.87	214.286
845.17	188.889
845.47	66.667
845.76	145.833
846.06	514.286
846.36	170.588
846.66	192.308
846.96	162.500
847.25	153.846
847.55	205.263
847.85	144.444
848.15	400.000
848.44	290.909
848.74	138.095
849.04	137.500
849.34	182.353
849.63	225.000
849.93	237.500
850.23	1200.000
850.53	387.500
850.82	281.818
851.12	141.176
851.42	183.333
851.71	187.500
852.01	0.000
852.31	211.765
852.61	320.000
852.90	158.333
853.20	333.333
853.50	-1500.000
853.79	116.000
854.09	131.250
854.39	113.793
854.68	162.069
854.98	190.476
855.28	96.774
855.57	178.571
855.87	166.667
856.17	88.889
856.46	173.684
856.76	112.903
857.05	223.529
857.35	227.273
857.65	238.462
857.94	135.000
858.24	322.222
858.53	264.286
858.83	528.571
859.13	178.261
859.42	355.556
859.72	400.000
860.01	241.667
860.31	775.000
860.60	300.000
860.90	412.500
861.20	192.308
861.49	371.429
861.79	-2800.000
862.08	600.000
862.38	366.667
862.67	192.857
862.97	290.000
863.26	110.000
863.56	850.000
863.85	253.846
864.15	282.353
864.44	211.111
864.74	333.333
865.03	263.636
865.33	387.500
865.62	226.667
865.92	516.667
866.21	700.000
866.51	520.000
866.80	144.444
867.10	566.667
867.39	3200.000
867.69	720.000
867.98	725.000
868.27	209.524
868.57	260.000
868.86	800.000
869.16	171.429
869.45	2800.000
869.75	-283.333
870.04	475.000
870.33	720.000
870.63	387.500
870.92	205.882
871.22	925.000
871.51	500.000
871.80	300.000
872.10	276.923
>>>>>End Processed Spectral Data<<<<<
