SpectraSuite Data File
++++++++++++++++++++++++++++++++++++
Date: Tue May 12 16:45:55 PDT 2015
User: schluterlab
Dark Spectrum Present: Yes
Reference Spectrum Present: Yes
Number of Sampled Component Spectra: 1
Spectrometers: USB2E3373
Integration Time (usec): 3000 (USB2E3373)
Spectra Averaged: 3 (USB2E3373)
Boxcar Smoothing: 0 (USB2E3373)
Correct for Electrical Dark: No (USB2E3373)
Strobe/Lamp Enabled: No (USB2E3373)
Correct for Detector Non-linearity: No (USB2E3373)
Correct for Stray Light: No (USB2E3373)
Number of Pixels in Processed Spectrum: 2048
>>>>>Begin Processed Spectral Data<<<<<
178.53	0.000
178.91	-216.667
179.29	-600.000
179.67	-3900.000
180.04	-120.000
180.42	775.000
180.80	1650.000
181.18	0.000
181.56	-362.500
181.94	0.000
182.31	1233.333
182.69	-2700.000
183.07	457.143
183.45	-3000.000
183.83	-1350.000
184.20	410.000
184.58	428.571
184.96	-192.308
185.34	-166.667
185.72	1650.000
186.09	-850.000
186.47	-3200.000
186.85	833.333
187.23	620.000
187.61	1750.000
187.98	425.000
188.36	221.429
188.74	308.333
189.12	383.333
189.49	1000.000
189.87	0.000
190.25	612.500
190.63	1500.000
191.00	-200.000
191.38	-4100.000
191.76	-825.000
192.14	487.500
192.51	-2300.000
192.89	1600.000
193.27	1300.000
193.65	-900.000
194.02	-600.000
194.40	528.571
194.78	-214.286
195.15	266.667
195.53	-2600.000
195.91	-540.000
196.29	3200.000
196.66	256.250
197.04	725.000
197.42	-1800.000
197.79	525.000
198.17	316.667
198.55	0.000
198.92	457.143
199.30	733.333
199.68	1700.000
200.05	483.333
200.43	-400.000
200.81	205.556
201.18	3300.000
201.56	233.333
201.94	-575.000
202.31	-362.500
202.69	-500.000
203.07	3400.000
203.44	-583.333
203.82	350.000
204.19	740.000
204.57	-1500.000
204.95	-650.000
205.32	-780.000
205.70	650.000
206.08	850.000
206.45	-733.333
206.83	377.778
207.20	210.526
207.58	300.000
207.96	960.000
208.33	0.000
208.71	528.571
209.08	600.000
209.46	-3500.000
209.84	-725.000
210.21	960.000
210.59	-460.000
210.96	250.000
211.34	-675.000
211.71	390.909
212.09	1025.000
212.46	1650.000
212.84	-350.000
213.22	400.000
213.59	-2800.000
213.97	310.000
214.34	1200.000
214.72	833.333
215.09	933.333
215.47	-2700.000
215.84	-350.000
216.22	-387.500
216.59	0.000
216.97	0.000
217.34	1000.000
217.72	-1300.000
218.09	1333.333
218.47	575.000
218.84	725.000
219.22	1300.000
219.59	866.667
219.97	571.429
220.34	444.444
220.72	800.000
221.09	2900.000
221.47	275.000
221.84	1133.333
222.22	290.000
222.59	238.889
222.97	214.286
223.34	231.250
223.72	-2050.000
224.09	1233.333
224.46	276.923
224.84	-750.000
225.21	366.667
225.59	233.333
225.96	1266.667
226.34	-480.000
226.71	-750.000
227.08	-480.000
227.46	0.000
227.83	-600.000
228.21	-1600.000
228.58	366.667
228.95	1175.000
229.33	433.333
229.70	900.000
230.08	338.462
230.45	4100.000
230.82	-875.000
231.20	-800.000
231.57	-1133.333
231.95	380.000
232.32	241.667
232.69	483.333
233.07	400.000
233.44	-1950.000
233.81	246.667
234.19	166.667
234.56	262.500
234.93	158.824
235.31	210.000
235.68	231.250
236.05	160.714
236.43	137.037
236.80	250.000
237.17	148.276
237.55	109.375
237.92	127.500
238.29	106.061
238.67	143.750
239.04	104.878
239.41	95.833
239.79	105.000
240.16	110.417
240.53	96.721
240.91	91.304
241.28	91.525
241.65	96.970
242.02	101.408
242.40	95.714
242.77	76.923
243.14	77.215
243.51	80.808
243.89	67.290
244.26	70.093
244.63	72.277
245.00	87.156
245.38	72.034
245.75	66.667
246.12	70.370
246.49	72.340
246.87	68.033
247.24	71.333
247.61	63.125
247.98	70.068
248.36	60.000
248.73	58.163
249.10	63.095
249.47	59.500
249.84	52.736
250.22	64.324
250.59	55.000
250.96	56.118
251.33	57.674
251.70	61.161
252.08	57.143
252.45	56.574
252.82	53.232
253.19	54.545
253.56	53.462
253.94	53.986
254.31	55.039
254.68	51.220
255.05	57.931
255.42	51.460
255.79	55.700
256.16	54.915
256.54	55.844
256.91	52.288
257.28	52.508
257.65	49.216
258.02	48.378
258.39	52.436
258.76	54.203
259.14	46.286
259.51	49.854
259.88	53.495
260.25	47.253
260.62	47.123
260.99	49.587
261.36	48.747
261.73	49.202
262.10	48.953
262.47	48.250
262.85	50.133
263.22	51.928
263.59	50.895
263.96	46.867
264.33	48.642
264.70	48.649
265.07	52.439
265.44	50.000
265.81	47.170
266.18	48.970
266.55	50.591
266.92	47.651
267.29	49.342
267.66	47.534
268.03	49.776
268.40	48.837
268.77	48.678
269.14	47.722
269.51	49.889
269.88	47.347
270.25	46.868
270.62	49.785
270.99	49.087
271.36	48.374
271.73	51.363
272.10	49.495
272.47	48.016
272.84	44.910
273.21	48.140
273.58	46.761
273.95	45.791
274.32	45.914
274.69	47.441
275.06	45.173
275.43	48.084
275.80	45.472
276.17	43.566
276.54	47.477
276.91	49.627
277.28	45.438
277.65	49.815
278.02	45.221
278.39	45.504
278.76	44.828
279.13	45.374
279.50	46.727
279.87	41.341
280.23	44.936
280.60	48.175
280.97	46.552
281.34	44.059
281.71	47.478
282.08	46.667
282.45	45.439
282.82	45.151
283.19	45.151
283.56	42.479
283.92	44.463
284.29	44.759
284.66	43.697
285.03	42.289
285.40	44.959
285.77	44.753
286.14	43.653
286.51	44.172
286.87	42.563
287.24	40.841
287.61	43.161
287.98	42.985
288.35	40.593
288.72	42.489
289.08	42.943
289.45	41.921
289.82	41.875
290.19	41.874
290.56	42.940
290.93	42.446
291.29	41.713
291.66	41.808
292.03	42.637
292.40	41.328
292.77	40.390
293.13	39.515
293.50	38.866
293.87	39.837
294.24	42.238
294.60	40.781
294.97	43.077
295.34	40.239
295.71	39.685
296.08	41.733
296.44	39.517
296.81	39.330
297.18	38.276
297.55	41.133
297.91	38.916
298.28	40.338
298.65	39.877
299.02	39.324
299.38	40.048
299.75	37.683
300.12	38.876
300.48	40.164
300.85	41.359
301.22	40.349
301.59	39.387
301.95	38.273
302.32	39.115
302.69	40.271
303.05	40.404
303.42	38.004
303.79	39.545
304.15	39.054
304.52	37.315
304.89	39.765
305.25	39.155
305.62	39.019
305.99	38.261
306.35	37.789
306.72	39.334
307.09	38.716
307.45	38.015
307.82	38.374
308.19	38.763
308.55	38.900
308.92	40.039
309.29	40.631
309.65	39.247
310.02	40.061
310.38	40.678
310.75	38.380
311.12	39.751
311.48	40.927
311.85	39.027
312.22	40.210
312.58	39.650
312.95	38.835
313.31	39.888
313.68	38.180
314.05	40.842
314.41	40.689
314.78	41.951
315.14	41.611
315.51	40.681
315.87	41.606
316.24	41.270
316.61	41.898
316.97	39.817
317.34	41.869
317.70	41.967
318.07	43.327
318.43	42.443
318.80	43.433
319.16	41.608
319.53	41.593
319.89	42.473
320.26	44.320
320.62	41.850
320.99	42.707
321.35	42.486
321.72	43.264
322.08	43.583
322.45	43.869
322.81	44.831
323.18	44.849
323.54	43.902
323.91	45.512
324.27	44.739
324.64	45.242
325.00	45.862
325.37	44.772
325.73	45.278
326.10	46.230
326.46	45.995
326.83	45.120
327.19	46.747
327.56	46.166
327.92	47.459
328.29	46.890
328.65	47.089
329.01	46.536
329.38	46.447
329.74	44.236
330.11	47.089
330.47	47.229
330.84	44.953
331.20	46.616
331.56	47.927
331.93	47.305
332.29	46.173
332.66	45.153
333.02	44.158
333.38	46.335
333.75	46.205
334.11	45.218
334.48	46.410
334.84	46.959
335.20	45.766
335.57	45.004
335.93	46.005
336.29	44.362
336.66	46.913
337.02	45.338
337.38	46.432
337.75	45.777
338.11	47.426
338.47	46.147
338.84	45.301
339.20	44.416
339.56	44.491
339.93	45.819
340.29	45.294
340.65	45.013
341.02	44.489
341.38	44.335
341.74	45.017
342.11	44.407
342.47	44.955
342.83	45.693
343.20	44.462
343.56	44.003
343.92	45.087
344.28	46.013
344.65	43.765
345.01	43.889
345.37	43.590
345.73	43.968
346.10	44.143
346.46	44.657
346.82	42.515
347.19	44.359
347.55	43.794
347.91	43.127
348.27	42.990
348.63	43.829
349.00	43.412
349.36	44.125
349.72	45.183
350.08	44.643
350.45	42.955
350.81	44.343
351.17	43.297
351.53	43.187
351.89	43.978
352.26	44.142
352.62	43.137
352.98	44.632
353.34	44.838
353.70	43.884
354.07	43.385
354.43	42.704
354.79	42.141
355.15	43.798
355.51	43.505
355.87	44.654
356.24	44.111
356.60	42.542
356.96	42.835
357.32	42.577
357.68	43.319
358.04	43.237
358.40	43.703
358.77	45.154
359.13	43.093
359.49	43.069
359.85	43.187
360.21	42.496
360.57	43.212
360.93	43.723
361.29	43.795
361.66	45.041
362.02	41.406
362.38	42.929
362.74	44.657
363.10	43.759
363.46	42.887
363.82	43.338
364.18	42.959
364.54	42.704
364.90	43.641
365.26	44.344
365.62	44.130
365.98	43.909
366.35	43.862
366.71	44.136
367.07	43.891
367.43	43.519
367.79	43.351
368.15	41.995
368.51	43.280
368.87	43.546
369.23	44.006
369.59	43.830
369.95	44.685
370.31	43.532
370.67	43.789
371.03	42.437
371.39	44.183
371.75	41.800
372.11	43.984
372.47	43.767
372.83	43.032
373.19	44.140
373.55	43.986
373.91	43.025
374.27	43.651
374.63	43.390
374.99	44.003
375.35	44.892
375.71	44.591
376.07	42.905
376.42	42.519
376.78	44.509
377.14	45.282
377.50	43.508
377.86	44.843
378.22	44.546
378.58	45.218
378.94	43.693
379.30	43.845
379.66	44.612
380.02	44.340
380.38	43.911
380.74	43.829
381.09	44.801
381.45	43.410
381.81	43.913
382.17	43.590
382.53	43.851
382.89	44.352
383.25	43.694
383.61	43.689
383.97	43.251
384.32	43.942
384.68	45.039
385.04	43.611
385.40	43.713
385.76	44.295
386.12	43.414
386.48	43.465
386.83	45.232
387.19	44.759
387.55	44.229
387.91	43.995
388.27	44.200
388.62	44.366
388.98	43.207
389.34	44.616
389.70	43.632
390.06	44.695
390.42	43.862
390.77	44.349
391.13	43.693
391.49	43.376
391.85	44.554
392.20	44.219
392.56	43.967
392.92	43.683
393.28	42.993
393.64	43.234
393.99	42.976
394.35	44.379
394.71	43.667
395.07	44.404
395.42	44.672
395.78	44.294
396.14	44.337
396.50	44.765
396.85	43.841
397.21	43.081
397.57	43.335
397.92	44.136
398.28	43.685
398.64	43.921
399.00	43.292
399.35	42.405
399.71	43.929
400.07	43.436
400.42	43.761
400.78	43.109
401.14	43.864
401.49	43.433
401.85	43.685
402.21	43.820
402.57	43.746
402.92	43.879
403.28	43.019
403.63	42.142
403.99	42.581
404.35	43.025
404.70	43.591
405.06	42.729
405.42	42.370
405.77	42.834
406.13	41.974
406.49	42.069
406.84	41.794
407.20	43.893
407.55	42.892
407.91	43.586
408.27	43.481
408.62	43.465
408.98	42.697
409.34	42.490
409.69	42.315
410.05	42.457
410.40	41.814
410.76	41.900
411.11	42.891
411.47	42.222
411.83	41.945
412.18	42.331
412.54	42.943
412.89	40.944
413.25	42.987
413.60	41.939
413.96	42.789
414.31	41.854
414.67	42.644
415.03	41.571
415.38	42.839
415.74	42.767
416.09	43.098
416.45	43.310
416.80	43.682
417.16	42.393
417.51	42.611
417.87	41.865
418.22	42.345
418.58	42.994
418.93	42.058
419.29	41.343
419.64	41.551
420.00	42.900
420.35	43.089
420.71	42.240
421.06	42.437
421.42	41.681
421.77	43.087
422.12	42.558
422.48	42.219
422.83	43.192
423.19	41.955
423.54	41.031
423.90	42.695
424.25	42.928
424.61	43.180
424.96	42.236
425.31	42.036
425.67	44.332
426.02	43.186
426.38	42.124
426.73	42.915
427.09	42.705
427.44	42.150
427.79	43.110
428.15	43.371
428.50	42.743
428.85	43.092
429.21	41.761
429.56	43.071
429.92	42.268
430.27	42.187
430.62	41.654
430.98	42.116
431.33	42.591
431.68	41.481
432.04	42.318
432.39	43.030
432.74	43.735
433.10	43.355
433.45	42.849
433.80	44.071
434.16	43.037
434.51	42.415
434.86	43.495
435.22	42.788
435.57	44.398
435.92	44.508
436.28	44.470
436.63	43.328
436.98	43.468
437.34	43.664
437.69	42.553
438.04	44.301
438.39	44.016
438.75	43.096
439.10	43.443
439.45	43.132
439.81	43.320
440.16	43.368
440.51	43.300
440.86	44.615
441.22	42.641
441.57	43.937
441.92	43.189
442.27	43.763
442.63	43.394
442.98	43.373
443.33	43.332
443.68	43.662
444.03	42.696
444.39	43.126
444.74	43.944
445.09	42.707
445.44	43.039
445.79	43.519
446.15	44.526
446.50	43.565
446.85	43.078
447.20	43.085
447.55	43.502
447.91	43.953
448.26	42.918
448.61	44.002
448.96	44.771
449.31	44.499
449.66	43.798
450.02	43.112
450.37	44.309
450.72	43.857
451.07	43.921
451.42	44.043
451.77	44.330
452.12	43.902
452.47	44.654
452.83	44.394
453.18	44.865
453.53	43.813
453.88	44.000
454.23	44.741
454.58	42.890
454.93	43.225
455.28	44.614
455.63	44.504
455.98	43.429
456.34	44.742
456.69	44.207
457.04	43.377
457.39	43.829
457.74	45.495
458.09	43.571
458.44	43.921
458.79	43.501
459.14	42.717
459.49	44.224
459.84	44.076
460.19	43.955
460.54	43.305
460.89	44.136
461.24	42.784
461.59	45.465
461.94	43.794
462.29	45.195
462.64	44.472
462.99	44.530
463.34	43.552
463.69	44.344
464.04	44.444
464.39	43.217
464.74	42.556
465.09	44.051
465.44	43.254
465.79	43.440
466.14	42.607
466.49	42.973
466.84	43.255
467.19	43.702
467.54	43.604
467.89	43.838
468.24	43.717
468.59	43.155
468.94	43.539
469.29	43.372
469.64	43.280
469.99	43.123
470.34	42.821
470.68	43.448
471.03	43.229
471.38	43.642
471.73	43.762
472.08	44.357
472.43	44.507
472.78	44.430
473.13	42.115
473.48	43.643
473.83	43.757
474.17	43.040
474.52	43.306
474.87	43.434
475.22	42.718
475.57	42.707
475.92	42.667
476.27	42.111
476.61	42.466
476.96	42.111
477.31	42.879
477.66	44.015
478.01	43.837
478.36	42.842
478.70	41.985
479.05	42.782
479.40	41.766
479.75	42.999
480.10	41.820
480.45	42.157
480.79	42.166
481.14	42.844
481.49	41.400
481.84	42.128
482.19	42.314
482.53	41.546
482.88	42.339
483.23	41.903
483.58	42.235
483.92	42.687
484.27	41.995
484.62	41.553
484.97	41.371
485.31	41.332
485.66	41.355
486.01	40.383
486.36	40.267
486.70	39.487
487.05	40.061
487.40	40.218
487.75	40.405
488.09	40.057
488.44	40.663
488.79	40.437
489.13	41.247
489.48	42.229
489.83	40.534
490.17	40.339
490.52	41.559
490.87	41.293
491.22	41.445
491.56	41.238
491.91	40.771
492.26	41.559
492.60	41.503
492.95	40.689
493.30	41.765
493.64	41.195
493.99	41.369
494.34	40.968
494.68	40.505
495.03	41.356
495.37	40.747
495.72	40.979
496.07	41.285
496.41	41.051
496.76	40.144
497.11	41.131
497.45	40.246
497.80	41.335
498.14	40.222
498.49	40.761
498.84	41.542
499.18	39.397
499.53	41.433
499.87	39.757
500.22	40.857
500.56	40.622
500.91	41.327
501.26	40.790
501.60	40.984
501.95	39.830
502.29	40.800
502.64	39.876
502.98	39.795
503.33	39.955
503.67	40.044
504.02	40.260
504.36	39.502
504.71	40.161
505.06	40.075
505.40	40.664
505.75	40.084
506.09	40.551
506.44	40.179
506.78	40.879
507.13	39.942
507.47	40.757
507.82	40.584
508.16	41.107
508.51	39.903
508.85	39.839
509.19	39.941
509.54	40.088
509.88	41.124
510.23	40.588
510.57	39.093
510.92	39.261
511.26	41.064
511.61	40.079
511.95	39.970
512.30	39.900
512.64	40.239
512.98	39.262
513.33	39.959
513.67	40.290
514.02	40.000
514.36	38.941
514.70	40.107
515.05	39.584
515.39	39.364
515.74	40.678
516.08	39.488
516.42	41.202
516.77	40.320
517.11	40.427
517.46	40.517
517.80	39.924
518.14	40.732
518.49	39.857
518.83	38.736
519.17	38.824
519.52	40.579
519.86	39.564
520.20	39.836
520.55	39.344
520.89	39.310
521.23	40.070
521.58	38.898
521.92	39.825
522.26	39.929
522.61	40.701
522.95	40.420
523.29	39.708
523.64	39.133
523.98	40.904
524.32	38.639
524.66	38.957
525.01	39.349
525.35	38.480
525.69	39.494
526.04	39.619
526.38	38.846
526.72	38.186
527.06	39.385
527.41	40.689
527.75	39.379
528.09	39.494
528.43	39.536
528.78	39.773
529.12	39.314
529.46	39.275
529.80	39.019
530.15	38.656
530.49	37.906
530.83	39.122
531.17	38.315
531.51	37.278
531.86	38.708
532.20	37.330
532.54	38.544
532.88	38.913
533.22	38.757
533.57	39.780
533.91	37.762
534.25	37.738
534.59	38.713
534.93	37.941
535.27	37.223
535.62	37.690
535.96	38.239
536.30	39.488
536.64	37.205
536.98	38.137
537.32	38.125
537.66	37.372
538.01	37.399
538.35	38.178
538.69	37.621
539.03	37.127
539.37	37.379
539.71	38.642
540.05	37.231
540.39	37.862
540.73	37.658
541.07	36.637
541.42	37.873
541.76	38.101
542.10	37.485
542.44	36.284
542.78	38.137
543.12	37.239
543.46	36.842
543.80	37.469
544.14	37.461
544.48	37.530
544.82	36.636
545.16	36.794
545.50	37.615
545.84	37.437
546.18	38.036
546.52	37.705
546.86	37.137
547.20	37.597
547.54	37.175
547.88	38.260
548.22	36.794
548.56	35.710
548.90	36.418
549.24	36.576
549.58	36.211
549.92	37.525
550.26	36.984
550.60	36.128
550.94	36.703
551.28	37.172
551.62	37.655
551.96	37.500
552.30	35.003
552.64	37.799
552.98	37.178
553.32	36.556
553.66	37.003
554.00	36.422
554.34	37.150
554.68	37.030
555.02	35.845
555.36	35.572
555.69	36.322
556.03	35.605
556.37	35.564
556.71	38.005
557.05	35.583
557.39	37.000
557.73	36.590
558.07	35.949
558.41	36.875
558.75	36.936
559.08	37.241
559.42	36.292
559.76	36.137
560.10	35.650
560.44	35.036
560.78	37.660
561.12	36.364
561.45	35.419
561.79	35.581
562.13	35.439
562.47	35.432
562.81	35.914
563.15	35.941
563.48	35.217
563.82	36.307
564.16	36.754
564.50	34.901
564.84	34.407
565.17	34.997
565.51	36.638
565.85	36.582
566.19	35.179
566.52	35.379
566.86	35.785
567.20	35.112
567.54	35.153
567.88	35.316
568.21	34.348
568.55	34.728
568.89	33.714
569.23	33.607
569.56	34.425
569.90	33.309
570.24	33.390
570.57	33.387
570.91	32.793
571.25	32.533
571.59	32.516
571.92	32.293
572.26	32.022
572.60	32.158
572.93	32.404
573.27	32.510
573.61	32.323
573.95	32.196
574.28	32.865
574.62	32.115
574.96	31.917
575.29	31.560
575.63	31.896
575.97	31.597
576.30	31.815
576.64	31.841
576.98	32.319
577.31	32.318
577.65	31.987
577.98	31.460
578.32	31.200
578.66	31.299
578.99	31.382
579.33	31.642
579.67	31.341
580.00	31.529
580.34	31.582
580.67	31.767
581.01	32.302
581.35	31.644
581.68	31.248
582.02	31.260
582.35	31.487
582.69	31.412
583.02	31.590
583.36	31.744
583.70	32.027
584.03	32.687
584.37	32.231
584.70	31.948
585.04	32.049
585.37	31.560
585.71	31.865
586.04	31.834
586.38	31.219
586.72	31.712
587.05	31.446
587.39	31.277
587.72	31.764
588.06	31.661
588.39	31.909
588.73	31.599
589.06	32.273
589.40	32.300
589.73	32.055
590.07	32.189
590.40	32.160
590.73	33.823
591.07	33.055
591.40	32.495
591.74	32.427
592.07	32.196
592.41	32.094
592.74	31.234
593.08	31.543
593.41	31.688
593.75	31.098
594.08	32.153
594.41	31.737
594.75	32.055
595.08	32.064
595.42	31.567
595.75	31.820
596.09	32.742
596.42	32.156
596.75	33.413
597.09	32.934
597.42	31.306
597.75	31.278
598.09	31.596
598.42	32.069
598.76	31.149
599.09	31.887
599.42	31.488
599.76	31.445
600.09	30.983
600.42	31.181
600.76	31.781
601.09	32.033
601.42	31.045
601.76	31.543
602.09	31.457
602.42	31.645
602.76	31.803
603.09	31.637
603.42	31.706
603.76	31.562
604.09	31.705
604.42	31.262
604.76	30.699
605.09	31.673
605.42	31.654
605.75	31.899
606.09	30.834
606.42	31.116
606.75	31.714
607.09	30.557
607.42	31.177
607.75	31.369
608.08	31.397
608.42	31.376
608.75	31.365
609.08	30.884
609.41	32.182
609.75	31.502
610.08	31.655
610.41	31.225
610.74	31.688
611.07	32.015
611.41	31.881
611.74	31.501
612.07	31.118
612.40	31.433
612.73	32.002
613.07	31.475
613.40	31.729
613.73	31.603
614.06	30.700
614.39	32.121
614.72	31.190
615.06	30.910
615.39	31.782
615.72	31.607
616.05	31.592
616.38	30.949
616.71	31.796
617.05	31.411
617.38	31.236
617.71	31.721
618.04	30.566
618.37	31.128
618.70	32.044
619.03	31.319
619.36	32.098
619.69	31.530
620.03	33.268
620.36	31.792
620.69	32.822
621.02	32.745
621.35	30.946
621.68	31.268
622.01	32.399
622.34	31.901
622.67	32.725
623.00	31.790
623.33	31.444
623.66	32.269
623.99	31.712
624.32	31.775
624.65	30.678
624.99	30.899
625.32	30.995
625.65	30.759
625.98	31.660
626.31	32.270
626.64	32.726
626.97	31.752
627.30	32.686
627.63	32.967
627.96	31.768
628.29	33.251
628.62	31.993
628.95	32.624
629.28	32.603
629.61	33.304
629.94	31.547
630.26	32.929
630.59	33.511
630.92	32.915
631.25	33.182
631.58	33.173
631.91	31.399
632.24	33.042
632.57	31.238
632.90	33.644
633.23	33.788
633.56	33.087
633.89	32.262
634.22	32.078
634.55	32.688
634.88	34.173
635.20	33.296
635.53	34.146
635.86	32.774
636.19	32.323
636.52	31.892
636.85	32.362
637.18	33.369
637.51	31.844
637.83	30.892
638.16	33.177
638.49	33.772
638.82	35.446
639.15	32.315
639.48	33.649
639.81	33.333
640.13	33.497
640.46	33.881
640.79	33.290
641.12	34.252
641.45	32.600
641.77	32.629
642.10	34.270
642.43	33.997
642.76	34.375
643.09	33.862
643.41	32.398
643.74	32.518
644.07	34.661
644.40	31.805
644.73	35.886
645.05	33.730
645.38	35.222
645.71	34.143
646.04	36.794
646.36	34.429
646.69	35.520
647.02	36.320
647.35	33.228
647.67	35.008
648.00	34.365
648.33	32.782
648.66	33.788
648.98	33.333
649.31	32.119
649.64	31.259
649.96	32.432
650.29	30.857
650.62	34.462
650.94	33.886
651.27	34.769
651.60	32.707
651.92	35.023
652.25	33.543
652.58	32.624
652.90	32.934
653.23	31.610
653.56	34.570
653.88	31.278
654.21	34.751
654.54	31.332
654.86	33.186
655.19	32.850
655.52	29.983
655.84	25.373
656.17	29.823
656.49	43.262
656.82	49.580
657.15	39.824
657.47	29.793
657.80	22.008
658.13	17.347
658.45	23.483
658.78	28.405
659.10	29.141
659.43	29.536
659.75	30.500
660.08	31.704
660.41	32.396
660.73	33.124
661.06	35.285
661.38	32.879
661.71	33.453
662.03	35.741
662.36	34.857
662.68	33.333
663.01	33.153
663.33	33.396
663.66	35.503
663.98	33.135
664.31	35.261
664.63	31.034
664.96	36.961
665.28	32.580
665.61	35.660
665.93	33.396
666.26	34.953
666.58	35.963
666.91	34.363
667.23	33.735
667.56	37.372
667.88	33.402
668.21	32.172
668.53	34.879
668.86	33.667
669.18	35.031
669.50	33.058
669.83	35.934
670.15	34.511
670.48	32.031
670.80	34.462
671.13	33.865
671.45	36.874
671.77	33.766
672.10	30.162
672.42	32.566
672.75	33.544
673.07	33.386
673.39	31.150
673.72	33.564
674.04	33.692
674.37	34.664
674.69	32.342
675.01	31.716
675.34	30.620
675.66	35.547
675.98	33.925
676.31	33.600
676.63	32.803
676.95	37.103
677.28	32.454
677.60	32.998
677.92	33.333
678.25	33.333
678.57	35.382
678.89	33.635
679.22	36.029
679.54	34.342
679.86	32.286
680.18	31.986
680.51	29.685
680.83	30.236
681.15	31.196
681.48	32.118
681.80	30.998
682.12	29.585
682.44	33.694
682.77	33.274
683.09	32.621
683.41	32.857
683.73	33.661
684.06	33.333
684.38	33.140
684.70	34.173
685.02	31.944
685.34	33.099
685.67	30.225
685.99	32.184
686.31	30.817
686.63	33.008
686.96	32.516
687.28	30.034
687.60	32.594
687.92	31.993
688.24	35.862
688.56	33.274
688.89	30.402
689.21	31.792
689.53	33.992
689.85	31.707
690.17	33.592
690.49	32.661
690.82	32.563
691.14	32.929
691.46	32.854
691.78	34.503
692.10	31.489
692.42	30.127
692.74	34.109
693.06	32.946
693.39	32.609
693.71	33.006
694.03	33.531
694.35	35.141
694.67	34.012
694.99	32.594
695.31	32.883
695.63	35.068
695.95	32.353
696.27	36.283
696.59	32.220
696.91	35.190
697.23	35.068
697.56	31.950
697.88	29.741
698.20	32.264
698.52	29.572
698.84	33.060
699.16	33.475
699.48	32.203
699.80	33.551
700.12	35.104
700.44	35.047
700.76	33.413
701.08	33.943
701.40	33.247
701.72	37.701
702.04	35.501
702.36	34.140
702.68	33.245
703.00	32.581
703.32	34.243
703.64	36.524
703.96	33.854
704.28	35.450
704.60	36.056
704.91	34.734
705.23	32.102
705.55	39.763
705.87	36.190
706.19	36.364
706.51	38.245
706.83	35.988
707.15	32.086
707.47	32.688
707.79	33.333
708.11	33.333
708.43	32.584
708.74	32.353
709.06	32.326
709.38	33.251
709.70	35.967
710.02	34.239
710.34	33.149
710.66	38.333
710.98	33.880
711.29	35.097
711.61	38.997
711.93	34.650
712.25	32.229
712.57	34.727
712.89	35.758
713.20	34.824
713.52	35.826
713.84	36.858
714.16	31.014
714.48	27.378
714.80	36.585
715.11	31.383
715.43	35.754
715.75	33.239
716.07	35.838
716.39	36.000
716.70	33.333
717.02	37.710
717.34	33.813
717.66	38.194
717.97	40.530
718.29	35.915
718.61	34.122
718.93	36.332
719.24	38.926
719.56	38.966
719.88	37.898
720.20	35.161
720.51	31.373
720.83	34.114
721.15	37.415
721.46	35.616
721.78	33.798
722.10	36.806
722.42	39.799
722.73	35.379
723.05	39.298
723.37	37.102
723.68	37.891
724.00	37.500
724.32	39.163
724.63	40.385
724.95	33.333
725.27	34.944
725.58	35.294
725.90	30.634
726.22	35.959
726.53	36.789
726.85	42.345
727.16	35.906
727.48	35.548
727.80	39.568
728.11	32.143
728.43	35.145
728.74	37.762
729.06	32.616
729.38	36.140
729.69	37.000
730.01	36.184
730.32	34.228
730.64	37.542
730.96	36.937
731.27	27.523
731.59	35.632
731.90	32.312
732.22	33.143
732.53	31.909
732.85	35.673
733.16	34.940
733.48	36.991
733.80	35.072
734.11	34.969
734.43	32.749
734.74	32.440
735.06	34.392
735.37	29.897
735.69	34.783
736.00	33.639
736.32	29.697
736.63	34.069
736.95	34.783
737.26	37.805
737.58	36.503
737.89	33.735
738.21	34.437
738.52	34.783
738.83	38.828
739.15	36.934
739.46	32.069
739.78	34.694
740.09	35.277
740.41	39.264
740.72	35.238
741.04	38.112
741.35	41.406
741.66	39.921
741.98	45.064
742.29	42.130
742.61	34.513
742.92	34.322
743.23	35.200
743.55	40.755
743.86	37.255
744.18	37.288
744.49	38.430
744.80	42.396
745.12	44.643
745.43	46.262
745.74	37.778
746.06	31.579
746.37	42.326
746.68	40.265
747.00	37.668
747.31	36.975
747.62	36.475
747.94	40.343
748.25	31.128
748.56	42.797
748.88	40.179
749.19	37.674
749.50	39.726
749.82	39.918
750.13	34.783
750.44	33.333
750.75	37.584
751.07	33.224
751.38	37.954
751.69	36.364
752.01	29.720
752.32	37.209
752.63	35.906
752.94	40.210
753.26	35.547
753.57	35.798
753.88	35.581
754.19	35.018
754.51	34.219
754.82	34.228
755.13	34.459
755.44	37.037
755.75	38.832
756.07	32.192
756.38	35.294
756.69	33.125
757.00	35.905
757.31	32.958
757.63	33.609
757.94	30.851
758.25	31.643
758.56	30.206
758.87	33.333
759.18	35.756
759.50	34.954
759.81	34.421
760.12	32.584
760.43	30.812
760.74	31.392
761.05	31.034
761.36	30.208
761.67	35.040
761.99	32.113
762.30	34.727
762.61	32.639
762.92	37.500
763.23	35.849
763.54	34.231
763.85	31.518
764.16	35.069
764.47	30.405
764.78	34.528
765.10	32.317
765.41	32.955
765.72	32.873
766.03	34.441
766.34	32.404
766.65	38.783
766.96	39.676
767.27	42.991
767.58	43.069
767.89	46.409
768.20	52.439
768.51	34.184
768.82	33.772
769.13	40.392
769.44	33.459
769.75	36.704
770.06	37.815
770.37	32.018
770.68	35.556
770.99	36.864
771.30	43.515
771.61	35.385
771.92	36.260
772.23	39.113
772.54	43.556
772.85	42.574
773.16	41.848
773.47	40.000
773.78	42.574
774.09	45.455
774.39	47.273
774.70	31.765
775.01	42.105
775.32	43.478
775.63	44.521
775.94	50.617
776.25	46.207
776.56	42.748
776.87	53.435
777.18	44.697
777.48	51.969
777.79	53.077
778.10	56.818
778.41	51.493
778.72	47.368
779.03	39.744
779.34	39.189
779.65	40.994
779.95	45.963
780.26	42.262
780.57	48.980
780.88	53.901
781.19	62.500
781.50	43.195
781.80	46.448
782.11	37.566
782.42	40.805
782.73	44.633
783.04	50.968
783.34	43.411
783.65	43.537
783.96	50.968
784.27	43.046
784.57	45.395
784.88	44.203
785.19	43.333
785.50	44.828
785.81	60.465
786.11	45.926
786.42	50.394
786.73	57.658
787.04	53.774
787.34	37.398
787.65	49.242
787.96	51.515
788.26	47.244
788.57	51.825
788.88	45.070
789.19	44.275
789.49	48.649
789.80	46.875
790.11	48.760
790.41	58.333
790.72	50.000
791.03	60.577
791.33	60.606
791.64	62.105
791.95	55.789
792.25	54.167
792.56	55.000
792.87	63.415
793.17	61.364
793.48	65.882
793.79	58.621
794.09	44.318
794.40	56.034
794.70	47.619
795.01	48.462
795.32	51.908
795.62	38.462
795.93	62.185
796.23	54.472
796.54	62.245
796.85	67.045
797.15	77.922
797.46	63.415
797.76	46.250
798.07	69.333
798.37	67.500
798.68	68.750
798.99	69.512
799.29	54.667
799.60	41.860
799.90	71.053
800.21	68.182
800.51	53.521
800.82	87.931
801.12	78.462
801.43	72.000
801.73	70.690
802.04	81.818
802.34	65.753
802.65	88.235
802.95	80.435
803.26	74.194
803.56	91.667
803.87	82.090
804.17	79.365
804.48	79.245
804.78	61.111
805.09	75.758
805.39	68.254
805.70	94.737
806.00	62.857
806.30	59.375
806.61	56.471
806.91	70.000
807.22	55.435
807.52	61.842
807.83	84.211
808.13	56.522
808.43	85.484
808.74	76.712
809.04	73.214
809.35	82.353
809.65	75.758
809.95	98.039
810.26	96.296
810.56	92.188
810.86	71.429
811.17	89.474
811.47	86.957
811.77	68.966
812.08	62.069
812.38	95.238
812.69	109.524
812.99	77.778
813.29	102.857
813.59	122.581
813.90	72.414
814.20	88.525
814.50	92.000
814.81	71.930
815.11	90.741
815.41	76.786
815.72	91.071
816.02	88.000
816.32	126.829
816.62	96.552
816.93	115.152
817.23	75.610
817.53	108.929
817.84	100.000
818.14	97.619
818.44	108.333
818.74	84.906
819.04	105.128
819.35	145.455
819.65	90.385
819.95	98.148
820.25	108.511
820.56	118.919
820.86	86.842
821.16	63.830
821.46	115.789
821.76	89.091
822.07	85.714
822.37	118.421
822.67	106.977
822.97	81.579
823.27	95.652
823.57	121.875
823.88	112.821
824.18	93.939
824.48	178.261
824.78	111.111
825.08	191.304
825.38	117.241
825.69	117.647
825.99	87.234
826.29	77.778
826.59	105.714
826.89	113.333
827.19	105.714
827.49	161.290
827.79	119.231
828.09	92.857
828.39	97.222
828.70	89.189
829.00	132.143
829.30	206.250
829.60	88.889
829.90	151.613
830.20	106.061
830.50	129.730
830.80	150.000
831.10	115.385
831.40	180.952
831.70	191.667
832.00	123.333
832.30	182.609
832.60	170.833
832.90	172.727
833.20	160.000
833.50	144.737
833.80	108.824
834.10	115.789
834.40	147.368
834.70	90.000
835.00	220.000
835.30	100.000
835.60	131.250
835.90	129.730
836.20	107.692
836.50	163.636
836.80	90.244
837.10	117.391
837.40	300.000
837.70	131.579
838.00	140.000
838.30	166.667
838.60	156.000
838.90	330.000
839.19	237.500
839.49	153.333
839.79	117.241
840.09	173.077
840.39	166.667
840.69	205.263
840.99	104.762
841.29	134.783
841.59	165.000
841.88	148.000
842.18	355.556
842.48	132.143
842.78	188.889
843.08	184.615
843.38	218.182
843.68	271.429
843.97	471.429
844.27	147.826
844.57	1500.000
844.87	214.286
845.17	194.444
845.47	152.381
845.76	183.333
846.06	514.286
846.36	176.471
846.66	307.692
846.96	162.500
847.25	184.615
847.55	126.316
847.85	172.222
848.15	500.000
848.44	290.909
848.74	152.381
849.04	175.000
849.34	176.471
849.63	250.000
849.93	231.250
850.23	966.667
850.53	387.500
850.82	409.091
851.12	270.588
851.42	170.833
851.71	237.500
852.01	0.000
852.31	123.529
852.61	310.000
852.90	150.000
853.20	455.556
853.50	-2400.000
853.79	136.000
854.09	143.750
854.39	131.034
854.68	148.276
854.98	214.286
855.28	154.839
855.57	285.714
855.87	188.889
856.17	137.037
856.46	184.211
856.76	141.935
857.05	205.882
857.35	281.818
857.65	169.231
857.94	180.000
858.24	422.222
858.53	300.000
858.83	371.429
859.13	221.739
859.42	300.000
859.72	337.500
860.01	283.333
860.31	850.000
860.60	400.000
860.90	487.500
861.20	176.923
861.49	428.571
861.79	-4000.000
862.08	614.286
862.38	444.444
862.67	192.857
862.97	430.000
863.26	140.000
863.56	750.000
863.85	330.769
864.15	288.235
864.44	200.000
864.74	291.667
865.03	290.909
865.33	350.000
865.62	253.333
865.92	583.333
866.21	925.000
866.51	360.000
866.80	166.667
867.10	900.000
867.39	2900.000
867.69	680.000
867.98	925.000
868.27	180.952
868.57	226.667
868.86	875.000
869.16	133.333
869.45	3400.000
869.75	-383.333
870.04	750.000
870.33	620.000
870.63	362.500
870.92	241.176
871.22	900.000
871.51	357.143
871.80	333.333
872.10	307.692
>>>>>End Processed Spectral Data<<<<<
