SpectraSuite Data File
++++++++++++++++++++++++++++++++++++
Date: Tue May 12 17:20:17 PDT 2015
User: schluterlab
Dark Spectrum Present: Yes
Reference Spectrum Present: Yes
Number of Sampled Component Spectra: 1
Spectrometers: USB2E3373
Integration Time (usec): 3000 (USB2E3373)
Spectra Averaged: 3 (USB2E3373)
Boxcar Smoothing: 0 (USB2E3373)
Correct for Electrical Dark: No (USB2E3373)
Strobe/Lamp Enabled: No (USB2E3373)
Correct for Detector Non-linearity: No (USB2E3373)
Correct for Stray Light: No (USB2E3373)
Number of Pixels in Processed Spectrum: 2048
>>>>>Begin Processed Spectral Data<<<<<
178.53	0.000
178.91	-250.000
179.29	-600.000
179.67	-4100.000
180.04	-66.667
180.42	700.000
180.80	1400.000
181.18	0.000
181.56	-250.000
181.94	0.000
182.31	1200.000
182.69	-3400.000
183.07	642.857
183.45	-3100.000
183.83	-1350.000
184.20	340.000
184.58	657.143
184.96	-215.385
185.34	-258.333
185.72	900.000
186.09	-575.000
186.47	-3900.000
186.85	833.333
187.23	700.000
187.61	1700.000
187.98	362.500
188.36	314.286
188.74	391.667
189.12	350.000
189.49	925.000
189.87	0.000
190.25	487.500
190.63	2500.000
191.00	-250.000
191.38	-2900.000
191.76	-725.000
192.14	500.000
192.51	-1900.000
192.89	2150.000
193.27	1233.333
193.65	-966.667
194.02	-820.000
194.40	585.714
194.78	-250.000
195.15	240.000
195.53	-3100.000
195.91	-540.000
196.29	3400.000
196.66	262.500
197.04	850.000
197.42	-1500.000
197.79	725.000
198.17	283.333
198.55	0.000
198.92	471.429
199.30	866.667
199.68	1850.000
200.05	700.000
200.43	-433.333
200.81	211.111
201.18	3100.000
201.56	241.667
201.94	-750.000
202.31	-287.500
202.69	-480.000
203.07	2300.000
203.44	-550.000
203.82	325.000
204.19	840.000
204.57	-1900.000
204.95	-950.000
205.32	-700.000
205.70	750.000
206.08	850.000
206.45	-833.333
206.83	444.444
207.20	173.684
207.58	341.667
207.96	720.000
208.33	0.000
208.71	385.714
209.08	660.000
209.46	-3500.000
209.84	-825.000
210.21	920.000
210.59	-480.000
210.96	350.000
211.34	-850.000
211.71	327.273
212.09	875.000
212.46	1550.000
212.84	-283.333
213.22	422.222
213.59	-3600.000
213.97	290.000
214.34	875.000
214.72	1066.667
215.09	933.333
215.47	-3000.000
215.84	-290.000
216.22	-375.000
216.59	0.000
216.97	0.000
217.34	1400.000
217.72	-1350.000
218.09	1133.333
218.47	462.500
218.84	1125.000
219.22	1033.333
219.59	1200.000
219.97	585.714
220.34	344.444
220.72	1650.000
221.09	4200.000
221.47	333.333
221.84	1100.000
222.22	370.000
222.59	244.444
222.97	257.143
223.34	306.250
223.72	-1400.000
224.09	1000.000
224.46	284.615
224.84	-700.000
225.21	411.111
225.59	286.667
225.96	1000.000
226.34	-700.000
226.71	-700.000
227.08	-500.000
227.46	0.000
227.83	-383.333
228.21	-1700.000
228.58	358.333
228.95	850.000
229.33	422.222
229.70	1025.000
230.08	392.308
230.45	4000.000
230.82	-1100.000
231.20	-733.333
231.57	-966.667
231.95	640.000
232.32	275.000
232.69	650.000
233.07	291.667
233.44	-1550.000
233.81	260.000
234.19	148.148
234.56	200.000
234.93	223.529
235.31	230.000
235.68	218.750
236.05	160.714
236.43	162.963
236.80	221.429
237.17	200.000
237.55	118.750
237.92	130.000
238.29	136.364
238.67	134.375
239.04	102.439
239.41	95.833
239.79	90.000
240.16	83.333
240.53	72.131
240.91	79.710
241.28	84.746
241.65	68.182
242.02	71.831
242.40	65.714
242.77	62.637
243.14	59.494
243.51	64.646
243.89	60.748
244.26	56.075
244.63	58.416
245.00	53.211
245.38	42.373
245.75	50.000
246.12	54.074
246.49	47.518
246.87	53.279
247.24	50.667
247.61	49.375
247.98	51.701
248.36	40.606
248.73	42.857
249.10	47.619
249.47	39.500
249.84	38.806
250.22	40.000
250.59	38.500
250.96	39.241
251.33	44.651
251.70	36.161
252.08	36.555
252.45	35.458
252.82	37.262
253.19	33.202
253.56	35.385
253.94	38.043
254.31	35.271
254.68	36.585
255.05	39.655
255.42	32.482
255.79	39.414
256.16	34.915
256.54	36.688
256.91	33.007
257.28	36.120
257.65	28.527
258.02	30.973
258.39	36.676
258.76	33.623
259.14	32.286
259.51	34.985
259.88	32.827
260.25	29.945
260.62	32.877
260.99	29.477
261.36	31.755
261.73	31.117
262.10	32.723
262.47	28.250
262.85	29.067
263.22	34.447
263.59	32.992
263.96	33.083
264.33	30.864
264.70	32.187
265.07	32.195
265.44	31.651
265.81	30.896
266.18	28.833
266.55	29.551
266.92	29.083
267.29	32.237
267.66	32.287
268.03	32.735
268.40	27.696
268.77	32.379
269.14	29.718
269.51	28.508
269.88	29.796
270.25	27.646
270.62	29.399
270.99	32.252
271.36	29.675
271.73	29.350
272.10	30.505
272.47	28.770
272.84	28.343
273.21	31.198
273.58	30.162
273.95	27.105
274.32	28.599
274.69	30.709
275.06	31.330
275.43	26.628
275.80	29.057
276.17	28.309
276.54	26.542
276.91	30.597
277.28	27.372
277.65	28.782
278.02	29.596
278.39	29.676
278.76	27.931
279.13	25.979
279.50	29.818
279.87	27.747
280.23	27.993
280.60	27.190
280.97	27.414
281.34	26.898
281.71	28.348
282.08	27.863
282.45	25.845
282.82	28.595
283.19	27.504
283.56	26.612
283.92	24.756
284.29	28.619
284.66	26.050
285.03	27.032
285.40	26.942
285.77	25.000
286.14	26.780
286.51	26.840
286.87	24.051
287.24	24.625
287.61	27.508
287.98	26.567
288.35	24.889
288.72	24.734
289.08	27.327
289.45	26.524
289.82	27.500
290.19	24.744
290.56	29.112
290.93	26.475
291.29	27.210
291.66	25.282
292.03	25.386
292.40	25.745
292.77	24.513
293.13	25.250
293.50	22.807
293.87	24.390
294.24	25.175
294.60	25.976
294.97	25.594
295.34	25.498
295.71	26.281
296.08	25.867
296.44	25.032
296.81	24.690
297.18	24.081
297.55	25.862
297.91	23.030
298.28	25.362
298.65	24.417
299.02	24.487
299.38	26.499
299.75	25.122
300.12	23.509
300.48	26.230
300.85	26.222
301.22	23.953
301.59	22.759
301.95	23.571
302.32	23.516
302.69	23.077
303.05	24.130
303.42	23.430
303.79	23.619
304.15	23.652
304.52	24.947
304.89	24.840
305.25	25.139
305.62	23.881
305.99	24.130
306.35	22.316
306.72	24.037
307.09	24.224
307.45	24.393
307.82	23.354
308.19	24.742
308.55	23.400
308.92	24.338
309.29	24.260
309.65	23.885
310.02	25.558
310.38	23.629
310.75	23.626
311.12	23.851
311.48	25.386
311.85	23.187
312.22	24.546
312.58	24.490
312.95	23.592
313.31	25.375
313.68	24.765
314.05	25.366
314.41	24.115
314.78	23.958
315.14	24.455
315.51	25.166
315.87	24.818
316.24	25.210
316.61	24.261
316.97	23.578
317.34	25.337
317.70	24.934
318.07	24.288
318.43	25.923
318.80	26.007
319.16	24.738
319.53	24.159
319.89	24.104
320.26	26.071
320.62	26.190
320.99	25.262
321.35	25.046
321.72	26.565
322.08	25.762
322.45	26.158
322.81	26.075
323.18	26.377
323.54	26.394
323.91	28.015
324.27	26.790
324.64	27.249
325.00	25.862
325.37	27.572
325.73	26.981
326.10	28.003
326.46	26.920
326.83	26.560
327.19	28.434
327.56	28.035
327.92	27.377
328.29	27.987
328.65	29.709
329.01	28.400
329.38	28.257
329.74	27.498
330.11	28.410
330.47	28.986
330.84	26.575
331.20	26.565
331.56	29.275
331.93	27.117
332.29	26.701
332.66	28.827
333.02	27.749
333.38	28.010
333.75	27.356
334.11	27.097
334.48	25.897
334.84	26.858
335.20	27.802
335.57	27.036
335.93	28.764
336.29	27.114
336.66	28.388
337.02	27.630
337.38	28.203
337.75	27.534
338.11	27.173
338.47	27.519
338.84	27.265
339.20	27.532
339.56	27.923
339.93	27.007
340.29	26.639
340.65	27.578
341.02	28.479
341.38	27.422
341.74	26.495
342.11	26.711
342.47	26.907
342.83	28.138
343.20	27.486
343.56	25.655
343.92	27.498
344.28	27.033
344.65	27.221
345.01	26.587
345.37	26.362
345.73	27.460
346.10	25.657
346.46	27.193
346.82	26.620
347.19	26.507
347.55	25.449
347.91	26.360
348.27	25.871
348.63	26.424
349.00	25.743
349.36	26.148
349.72	27.370
350.08	28.028
350.45	27.266
350.81	26.835
351.17	26.271
351.53	26.328
351.89	25.874
352.26	25.775
352.62	26.923
352.98	27.454
353.34	28.274
353.70	26.835
354.07	27.692
354.43	27.189
354.79	25.664
355.15	26.493
355.51	25.680
355.87	27.184
356.24	26.328
356.60	27.397
356.96	26.080
357.32	25.923
357.68	26.725
358.04	27.204
358.40	27.211
358.77	27.348
359.13	27.402
359.49	25.871
359.85	26.955
360.21	27.266
360.57	26.496
360.93	26.551
361.29	27.561
361.66	27.964
362.02	25.142
362.38	27.128
362.74	27.389
363.10	26.858
363.46	27.072
363.82	26.718
364.18	27.098
364.54	27.825
364.90	27.108
365.26	27.342
365.62	27.831
365.98	27.047
366.35	26.552
366.71	26.579
367.07	26.826
367.43	26.931
367.79	26.064
368.15	26.526
368.51	26.120
368.87	26.359
369.23	26.958
369.59	26.231
369.95	26.993
370.31	26.557
370.67	27.550
371.03	27.731
371.39	27.493
371.75	27.495
372.11	27.192
372.47	27.329
372.83	27.192
373.19	27.896
373.55	27.285
373.91	26.796
374.27	26.852
374.63	27.051
374.99	27.426
375.35	27.554
375.71	27.639
376.07	27.056
376.42	27.174
376.78	28.003
377.14	28.178
377.50	27.029
377.86	26.650
378.22	27.727
378.58	28.269
378.94	27.580
379.30	26.683
379.66	28.296
380.02	27.449
380.38	26.581
380.74	28.085
381.09	27.044
381.45	27.168
381.81	28.073
382.17	26.801
382.53	28.074
382.89	27.617
383.25	26.939
383.61	26.859
383.97	27.175
384.32	27.366
384.68	27.986
385.04	27.022
385.40	27.699
385.76	26.565
386.12	27.706
386.48	28.267
386.83	28.484
387.19	26.914
387.55	27.797
387.91	27.252
388.27	28.257
388.62	27.523
388.98	27.230
389.34	26.234
389.70	27.358
390.06	28.293
390.42	26.589
390.77	26.843
391.13	28.365
391.49	28.615
391.85	29.108
392.20	27.831
392.56	27.658
392.92	26.727
393.28	27.859
393.64	27.122
393.99	27.623
394.35	26.839
394.71	27.201
395.07	26.946
395.42	27.459
395.78	28.069
396.14	27.771
396.50	27.136
396.85	27.439
397.21	27.076
397.57	27.316
397.92	26.112
398.28	26.806
398.64	26.643
399.00	26.403
399.35	26.516
399.71	26.435
400.07	26.484
400.42	27.403
400.78	26.510
401.14	26.835
401.49	26.498
401.85	26.304
402.21	26.479
402.57	27.229
402.92	26.667
403.28	25.477
403.63	26.545
403.99	27.201
404.35	26.905
404.70	26.521
405.06	25.828
405.42	25.972
405.77	26.626
406.13	26.464
406.49	25.583
406.84	26.396
407.20	25.970
407.55	25.846
407.91	27.441
408.27	26.925
408.62	26.257
408.98	26.257
409.34	26.476
409.69	25.949
410.05	25.462
410.40	25.795
410.76	24.671
411.11	25.948
411.47	25.309
411.83	25.249
412.18	26.208
412.54	24.985
412.89	25.487
413.25	25.656
413.60	26.577
413.96	25.673
414.31	25.738
414.67	27.064
415.03	26.054
415.38	25.994
415.74	26.090
416.09	25.671
416.45	25.986
416.80	26.363
417.16	26.098
417.51	26.688
417.87	25.594
418.22	25.577
418.58	25.860
418.93	25.937
419.29	25.385
419.64	26.166
420.00	27.029
420.35	26.016
420.71	26.079
421.06	25.662
421.42	25.792
421.77	25.875
422.12	26.406
422.48	25.989
422.83	25.781
423.19	26.728
423.54	26.714
423.90	26.840
424.25	25.482
424.61	26.407
424.96	25.918
425.31	26.765
425.67	26.768
426.02	26.248
426.38	25.846
426.73	26.721
427.09	27.521
427.44	26.337
427.79	26.758
428.15	27.460
428.50	26.800
428.85	27.337
429.21	27.012
429.56	26.670
429.92	27.350
430.27	26.802
430.62	26.579
430.98	27.395
431.33	26.613
431.68	26.173
432.04	26.280
432.39	27.058
432.74	27.635
433.10	26.689
433.45	27.858
433.80	27.965
434.16	27.641
434.51	27.606
434.86	27.218
435.22	27.823
435.57	26.734
435.92	27.433
436.28	28.687
436.63	28.039
436.98	27.590
437.34	28.311
437.69	27.604
438.04	27.581
438.39	28.138
438.75	28.285
439.10	28.440
439.45	27.982
439.81	27.935
440.16	27.133
440.51	27.872
440.86	28.718
441.22	26.948
441.57	28.241
441.92	27.838
442.27	28.299
442.63	27.642
442.98	27.748
443.33	28.977
443.68	27.968
444.03	28.087
444.39	28.013
444.74	28.364
445.09	27.330
445.44	28.002
445.79	28.314
446.15	27.895
446.50	28.112
446.85	28.287
447.20	27.164
447.55	27.515
447.91	28.716
448.26	28.754
448.61	28.911
448.96	28.377
449.31	27.668
449.66	28.018
450.02	27.931
450.37	29.150
450.72	28.320
451.07	28.854
451.42	28.453
451.77	29.152
452.12	29.155
452.47	28.858
452.83	28.845
453.18	29.069
453.53	28.656
453.88	28.514
454.23	29.227
454.58	28.322
454.93	27.958
455.28	29.621
455.63	29.137
455.98	29.103
456.34	28.815
456.69	28.598
457.04	28.878
457.39	28.743
457.74	28.998
458.09	28.299
458.44	28.642
458.79	28.117
459.14	28.260
459.49	28.766
459.84	28.478
460.19	28.362
460.54	28.547
460.89	28.092
461.24	27.892
461.59	28.401
461.94	28.664
462.29	28.776
462.64	28.329
462.99	28.599
463.34	28.516
463.69	28.675
464.04	28.843
464.39	28.392
464.74	28.019
465.09	29.948
465.44	27.367
465.79	28.743
466.14	27.133
466.49	27.727
466.84	28.149
467.19	29.115
467.54	28.048
467.89	28.345
468.24	28.431
468.59	28.274
468.94	28.623
469.29	29.627
469.64	29.003
469.99	29.306
470.34	29.728
470.68	29.793
471.03	29.820
471.38	28.411
471.73	28.478
472.08	30.333
472.43	29.236
472.78	29.001
473.13	28.223
473.48	29.279
473.83	28.857
474.17	28.389
474.52	29.206
474.87	27.629
475.22	29.240
475.57	27.754
475.92	28.564
476.27	27.911
476.61	28.097
476.96	28.945
477.31	28.997
477.66	28.610
478.01	28.829
478.36	28.733
478.70	27.990
479.05	27.720
479.40	28.373
479.75	28.947
480.10	29.235
480.45	27.638
480.79	27.327
481.14	28.245
481.49	27.081
481.84	28.056
482.19	28.253
482.53	28.107
482.88	27.330
483.23	27.966
483.58	28.456
483.92	28.565
484.27	27.611
484.62	27.504
484.97	26.568
485.31	26.369
485.66	26.015
486.01	25.744
486.36	25.338
486.70	24.610
487.05	25.137
487.40	25.451
487.75	25.960
488.09	26.165
488.44	26.546
488.79	26.692
489.13	27.249
489.48	27.487
489.83	26.355
490.17	27.333
490.52	28.122
490.87	27.069
491.22	28.103
491.56	27.844
491.91	27.464
492.26	28.196
492.60	28.884
492.95	27.775
493.30	28.025
493.64	27.224
493.99	28.265
494.34	27.701
494.68	28.198
495.03	27.840
495.37	28.095
495.72	28.531
496.07	27.538
496.41	27.368
496.76	27.227
497.11	27.635
497.45	27.050
497.80	28.128
498.14	27.601
498.49	28.273
498.84	28.318
499.18	27.377
499.53	27.928
499.87	27.224
500.22	27.683
500.56	27.855
500.91	28.061
501.26	28.388
501.60	27.869
501.95	27.464
502.29	27.467
502.64	27.481
502.98	26.901
503.33	27.082
503.67	27.241
504.02	27.094
504.36	28.145
504.71	28.193
505.06	27.640
505.40	27.328
505.75	27.128
506.09	28.138
506.44	28.008
506.78	28.733
507.13	27.387
507.47	27.656
507.82	28.078
508.16	28.221
508.51	27.826
508.85	27.920
509.19	28.390
509.54	27.930
509.88	27.946
510.23	27.794
510.57	27.172
510.92	28.022
511.26	28.263
511.61	27.425
511.95	28.671
512.30	27.950
512.64	28.349
512.98	28.396
513.33	28.381
513.67	28.638
514.02	28.104
514.36	28.193
514.70	28.373
515.05	28.077
515.39	29.276
515.74	29.306
516.08	28.105
516.42	29.126
516.77	29.013
517.11	29.653
517.46	28.556
517.80	28.618
518.14	28.394
518.49	27.784
518.83	28.022
519.17	28.564
519.52	28.564
519.86	28.719
520.20	28.658
520.55	28.773
520.89	28.563
521.23	29.498
521.58	28.686
521.92	28.688
522.26	28.614
522.61	28.639
522.95	29.069
523.29	29.415
523.64	28.439
523.98	28.932
524.32	28.316
524.66	28.986
525.01	28.402
525.35	29.051
525.69	28.958
526.04	30.577
526.38	29.194
526.72	28.341
527.06	28.859
527.41	29.383
527.75	29.337
528.09	28.838
528.43	28.554
528.78	28.265
529.12	29.079
529.46	28.755
529.80	28.271
530.15	28.344
530.49	28.279
530.83	29.616
531.17	29.090
531.51	27.897
531.86	28.200
532.20	28.245
532.54	28.562
532.88	28.545
533.22	28.275
533.57	28.066
533.91	27.972
534.25	27.178
534.59	27.719
534.93	26.906
535.27	25.783
535.62	27.305
535.96	27.482
536.30	29.068
536.64	28.199
536.98	28.446
537.32	28.125
537.66	26.722
538.01	28.235
538.35	27.760
538.69	27.670
539.03	27.239
539.37	26.820
539.71	27.654
540.05	26.277
540.39	29.057
540.73	27.658
541.07	26.537
541.42	27.736
541.76	26.387
542.10	28.052
542.44	26.808
542.78	27.942
543.12	26.258
543.46	27.256
543.80	27.569
544.14	26.811
544.48	26.460
544.82	27.095
545.16	26.412
545.50	27.966
545.84	27.967
546.18	29.129
546.52	27.541
546.86	27.337
547.20	26.809
547.54	27.359
547.88	26.460
548.22	27.019
548.56	26.576
548.90	26.335
549.24	26.406
549.58	26.675
549.92	27.570
550.26	26.978
550.60	26.747
550.94	27.951
551.28	28.483
551.62	28.483
551.96	26.757
552.30	26.368
552.64	27.314
552.98	26.869
553.32	27.145
553.66	26.059
554.00	26.834
554.34	27.696
554.68	27.487
555.02	27.495
555.36	25.864
555.69	26.309
556.03	25.924
556.37	27.024
556.71	27.705
557.05	25.688
557.39	26.467
557.73	27.763
558.07	27.632
558.41	27.416
558.75	26.881
559.08	27.877
559.42	28.275
559.76	27.940
560.10	26.359
560.44	25.747
560.78	27.174
561.12	27.400
561.45	26.721
561.79	25.905
562.13	25.837
562.47	26.282
562.81	26.805
563.15	26.180
563.48	25.652
563.82	25.639
564.16	26.493
564.50	25.859
564.84	25.775
565.17	25.787
565.51	26.601
565.85	27.020
566.19	26.131
566.52	25.451
566.86	26.970
567.20	25.899
567.54	25.600
567.88	25.509
568.21	25.012
568.55	25.097
568.89	24.589
569.23	24.374
569.56	24.441
569.90	23.679
570.24	23.509
570.57	23.329
570.91	22.683
571.25	22.746
571.59	22.363
571.92	22.121
572.26	21.887
572.60	22.161
572.93	22.312
573.27	22.430
573.61	22.225
573.95	21.987
574.28	22.685
574.62	21.775
574.96	21.429
575.29	21.191
575.63	21.060
575.97	21.349
576.30	21.387
576.64	21.771
576.98	21.198
577.31	21.680
577.65	21.658
577.98	21.089
578.32	21.063
578.66	21.190
578.99	21.586
579.33	21.448
579.67	21.163
580.00	21.211
580.34	21.077
580.67	21.119
581.01	21.352
581.35	21.209
581.68	20.741
582.02	21.090
582.35	20.897
582.69	21.139
583.02	21.054
583.36	21.029
583.70	21.536
584.03	21.874
584.37	21.933
584.70	21.150
585.04	21.199
585.37	21.145
585.71	21.483
586.04	20.710
586.38	21.523
586.72	21.261
587.05	21.565
587.39	21.618
587.72	21.542
588.06	21.083
588.39	21.213
588.73	21.602
589.06	22.118
589.40	22.222
589.73	22.288
590.07	22.478
590.40	23.066
590.73	23.283
591.07	23.150
591.40	23.034
591.74	22.687
592.07	22.671
592.41	22.702
592.74	21.970
593.08	21.940
593.41	21.215
593.75	21.991
594.08	22.482
594.41	22.287
594.75	22.055
595.08	22.119
595.42	21.922
595.75	22.343
596.09	21.828
596.42	22.068
596.75	22.396
597.09	22.245
597.42	23.020
597.75	22.150
598.09	22.487
598.42	22.603
598.76	21.627
599.09	21.552
599.42	21.834
599.76	22.049
600.09	21.424
600.42	22.238
600.76	21.482
601.09	21.747
601.42	21.507
601.76	21.984
602.09	21.744
602.42	21.738
602.76	22.429
603.09	22.097
603.42	21.982
603.76	21.728
604.09	22.222
604.42	21.620
604.76	22.442
605.09	22.490
605.42	22.430
605.75	22.227
606.09	22.379
606.42	22.285
606.75	22.192
607.09	21.516
607.42	21.736
607.75	21.975
608.08	21.487
608.42	21.896
608.75	22.379
609.08	22.525
609.41	22.909
609.75	22.848
610.08	22.752
610.41	21.915
610.74	22.035
611.07	23.101
611.41	22.382
611.74	21.797
612.07	22.736
612.40	22.758
612.73	22.666
613.07	22.504
613.40	23.058
613.73	22.866
614.06	22.000
614.39	23.232
614.72	23.204
615.06	22.502
615.39	22.574
615.72	22.314
616.05	23.305
616.38	22.831
616.71	22.680
617.05	21.966
617.38	22.865
617.71	23.285
618.04	22.827
618.37	23.180
618.70	23.326
619.03	23.748
619.36	24.183
619.69	23.813
620.03	24.397
620.36	24.213
620.69	24.010
621.02	24.524
621.35	24.355
621.68	24.705
622.01	24.502
622.34	22.942
622.67	24.368
623.00	24.711
623.33	23.954
623.66	23.486
623.99	24.315
624.32	23.780
624.65	22.910
624.99	22.853
625.32	24.115
625.65	23.379
625.98	23.570
626.31	23.961
626.64	23.538
626.97	24.790
627.30	24.379
627.63	25.903
627.96	23.787
628.29	25.413
628.62	24.465
628.95	26.418
629.28	26.205
629.61	25.044
629.94	25.324
630.26	26.256
630.59	26.773
630.92	26.188
631.25	24.569
631.58	27.483
631.91	26.546
632.24	25.656
632.57	24.460
632.90	26.087
633.23	26.967
633.56	24.552
633.89	26.259
634.22	26.695
634.55	25.914
634.88	27.163
635.20	27.242
635.53	26.713
635.86	27.181
636.19	25.926
636.52	25.297
636.85	25.135
637.18	26.544
637.51	26.816
637.83	25.286
638.16	26.964
638.49	27.665
638.82	26.643
639.15	25.499
639.48	27.014
639.81	28.694
640.13	27.485
640.46	28.824
640.79	29.129
641.12	27.690
641.45	27.167
641.77	27.741
642.10	27.443
642.43	29.587
642.76	27.557
643.09	28.098
643.41	28.331
643.74	28.489
644.07	28.614
644.40	28.550
644.73	30.180
645.05	29.272
645.38	29.096
645.71	30.197
646.04	28.855
646.36	28.951
646.69	29.600
647.02	29.280
647.35	27.559
647.67	29.660
648.00	28.827
648.33	28.421
648.66	28.030
648.98	25.362
649.31	27.126
649.64	26.279
649.96	27.027
650.29	27.714
650.62	29.308
650.94	29.819
651.27	28.389
651.60	28.169
651.92	26.421
652.25	29.291
652.58	26.809
652.90	27.545
653.23	27.622
653.56	27.596
653.88	27.460
654.21	26.979
654.54	29.136
654.86	26.696
655.19	25.989
655.52	23.424
655.84	17.670
656.17	20.275
656.49	29.158
656.82	33.328
657.15	26.300
657.47	19.460
657.80	14.369
658.13	11.341
658.45	15.725
658.78	19.279
659.10	19.281
659.43	19.849
659.75	21.209
660.08	21.805
660.41	23.140
660.73	26.600
661.06	27.628
661.38	28.450
661.71	29.137
662.03	27.757
662.36	31.238
662.68	28.492
663.01	30.270
663.33	29.057
663.66	30.769
663.98	29.762
664.31	31.157
664.63	27.586
664.96	30.206
665.28	29.379
665.61	28.679
665.93	30.755
666.26	28.972
666.58	31.560
666.91	29.344
667.23	30.321
667.56	31.417
667.88	32.158
668.21	29.713
668.53	30.444
668.86	28.657
669.18	28.513
669.50	28.099
669.83	29.569
670.15	30.353
670.48	29.492
670.80	33.068
671.13	30.080
671.45	31.864
671.77	27.829
672.10	31.957
672.42	26.809
672.75	28.323
673.07	26.709
673.39	26.677
673.72	29.066
674.04	26.703
674.37	27.586
674.69	31.227
675.01	27.799
675.34	30.233
675.66	27.539
675.98	30.769
676.31	30.200
676.63	29.423
676.95	28.373
677.28	30.223
677.60	30.181
677.92	27.778
678.25	28.682
678.57	28.119
678.89	29.114
679.22	28.309
679.54	26.512
679.86	27.923
680.18	27.417
680.51	28.358
680.83	27.196
681.15	24.090
681.48	27.431
681.80	27.496
682.12	27.855
682.44	27.748
682.77	27.402
683.09	29.515
683.41	30.000
683.73	29.331
684.06	26.984
684.38	30.233
684.70	27.338
685.02	27.951
685.34	29.049
685.67	27.814
685.99	27.586
686.31	23.729
686.63	25.854
686.96	27.778
687.28	24.161
687.60	26.962
687.92	27.638
688.24	27.759
688.56	27.936
688.89	23.518
689.21	28.709
689.53	28.656
689.85	25.000
690.17	28.932
690.49	29.234
690.82	26.471
691.14	29.899
691.46	29.979
691.78	28.265
692.10	27.481
692.42	25.408
692.74	29.651
693.06	27.713
693.39	26.482
693.71	29.470
694.03	29.191
694.35	30.321
694.67	29.735
694.99	30.155
695.31	31.306
695.63	28.281
695.95	30.543
696.27	31.637
696.59	32.220
696.91	32.152
697.23	29.864
697.56	23.651
697.88	24.950
698.20	28.491
698.52	25.292
698.84	28.131
699.16	28.785
699.48	29.025
699.80	30.283
700.12	33.256
700.44	31.308
700.76	31.026
701.08	31.070
701.40	30.909
701.72	31.016
702.04	33.333
702.36	32.258
702.68	32.713
703.00	29.574
703.32	31.762
703.64	32.746
703.96	31.771
704.28	30.952
704.60	30.986
704.91	31.653
705.23	30.682
705.55	33.531
705.87	35.238
706.19	34.796
706.51	35.110
706.83	30.973
707.15	31.016
707.47	29.298
707.79	31.954
708.11	29.932
708.43	28.090
708.74	26.697
709.06	30.465
709.38	31.017
709.70	28.610
710.02	28.804
710.34	28.729
710.66	30.278
710.98	28.415
711.29	31.755
711.61	29.805
711.93	33.739
712.25	33.133
712.57	30.547
712.89	32.121
713.20	33.227
713.52	33.022
713.84	30.211
714.16	28.406
714.48	26.801
714.80	30.623
715.11	31.117
715.43	30.726
715.75	30.986
716.07	32.948
716.39	31.714
716.70	28.037
717.02	35.690
717.34	35.252
717.66	32.986
717.97	37.500
718.29	32.394
718.61	29.392
718.93	33.564
719.24	35.906
719.56	34.138
719.88	29.299
720.20	37.097
720.51	31.373
720.83	33.779
721.15	31.973
721.46	34.932
721.78	33.449
722.10	36.458
722.42	33.445
722.73	30.325
723.05	32.281
723.37	38.516
723.68	32.812
724.00	32.955
724.32	37.262
724.63	35.385
724.95	35.294
725.27	35.316
725.58	31.618
725.90	30.986
726.22	33.219
726.53	34.114
726.85	34.528
727.16	34.228
727.48	29.900
727.80	32.734
728.11	32.500
728.43	28.623
728.74	33.916
729.06	27.240
729.38	33.684
729.69	37.333
730.01	36.184
730.32	32.550
730.64	34.551
730.96	30.030
731.27	24.465
731.59	27.586
731.90	28.969
732.22	26.000
732.53	30.484
732.85	31.579
733.16	28.916
733.48	31.348
733.80	30.435
734.11	29.448
734.43	26.023
734.74	24.397
735.06	30.159
735.37	25.773
735.69	28.406
736.00	32.110
736.32	29.394
736.63	27.445
736.95	31.677
737.26	29.878
737.58	29.755
737.89	28.916
738.21	30.132
738.52	31.438
738.83	31.502
739.15	33.449
739.46	32.759
739.78	30.952
740.09	32.070
740.41	29.141
740.72	33.968
741.04	34.965
741.35	29.688
741.66	30.830
741.98	40.343
742.29	35.648
742.61	34.956
742.92	32.627
743.23	34.000
743.55	33.962
743.86	30.980
744.18	34.322
744.49	36.364
744.80	37.327
745.12	35.714
745.43	39.720
745.74	37.778
746.06	30.702
746.37	33.488
746.68	40.265
747.00	34.529
747.31	38.655
747.62	30.328
747.94	32.189
748.25	29.961
748.56	34.746
748.88	34.821
749.19	30.233
749.50	32.877
749.82	32.922
750.13	32.411
750.44	29.000
750.75	32.886
751.07	30.921
751.38	29.373
751.69	30.976
752.01	28.671
752.32	31.229
752.63	31.879
752.94	26.923
753.26	35.156
753.57	31.518
753.88	30.337
754.19	28.520
754.51	30.233
754.82	31.208
755.13	31.419
755.44	28.889
755.75	32.990
756.07	29.110
756.38	28.105
756.69	30.313
757.00	29.970
757.31	27.042
757.63	26.722
757.94	25.266
758.25	28.744
758.56	27.231
758.87	28.571
759.18	29.360
759.50	28.571
759.81	29.674
760.12	29.213
760.43	27.731
760.74	26.835
761.05	25.729
761.36	27.083
761.67	27.763
761.99	29.859
762.30	26.045
762.61	30.208
762.92	32.197
763.23	31.321
763.54	34.615
763.85	29.572
764.16	31.944
764.47	28.716
764.78	28.013
765.10	29.573
765.41	27.841
765.72	29.558
766.03	27.492
766.34	30.314
766.65	29.658
766.96	31.579
767.27	36.916
767.58	34.158
767.89	39.779
768.20	42.683
768.51	30.612
768.82	30.702
769.13	32.941
769.44	28.947
769.75	29.588
770.06	32.353
770.37	29.386
770.68	27.556
770.99	38.136
771.30	30.544
771.61	29.231
771.92	28.626
772.23	29.435
772.54	37.333
772.85	35.644
773.16	33.152
773.47	38.889
773.78	36.139
774.09	38.636
774.39	35.758
774.70	37.059
775.01	38.816
775.32	42.857
775.63	41.781
775.94	50.000
776.25	42.759
776.56	40.458
776.87	52.672
777.18	40.909
777.48	51.181
777.79	39.231
778.10	43.939
778.41	45.522
778.72	44.361
779.03	43.590
779.34	39.865
779.65	38.509
779.95	40.994
780.26	48.810
780.57	41.497
780.88	40.426
781.19	41.667
781.50	36.095
781.80	36.612
782.11	38.624
782.42	37.931
782.73	37.288
783.04	41.935
783.34	36.434
783.65	39.456
783.96	41.935
784.27	42.384
784.57	38.816
784.88	43.478
785.19	34.167
785.50	50.862
785.81	47.287
786.11	40.000
786.42	33.858
786.73	42.342
787.04	46.226
787.34	39.837
787.65	55.303
787.96	53.030
788.26	48.819
788.57	51.825
788.88	40.845
789.19	47.328
789.49	51.351
789.80	49.219
790.11	44.628
790.41	53.704
790.72	46.296
791.03	50.000
791.33	52.525
791.64	55.789
791.95	49.474
792.25	44.792
792.56	55.000
792.87	54.878
793.17	46.591
793.48	65.882
793.79	52.874
794.09	51.136
794.40	56.897
794.70	39.683
795.01	35.385
795.32	43.511
795.62	38.462
795.93	57.983
796.23	43.902
796.54	52.041
796.85	64.773
797.15	77.922
797.46	71.951
797.76	47.500
798.07	53.333
798.37	66.250
798.68	66.250
798.99	68.293
799.29	65.333
799.60	55.814
799.90	51.316
800.21	63.636
800.51	71.831
800.82	56.897
801.12	86.154
801.43	66.667
801.73	70.690
802.04	62.338
802.34	68.493
802.65	86.275
802.95	56.522
803.26	77.419
803.56	93.333
803.87	65.672
804.17	80.952
804.48	81.132
804.78	59.722
805.09	78.788
805.39	79.365
805.70	68.421
806.00	61.429
806.30	73.437
806.61	56.471
806.91	57.778
807.22	64.130
807.52	55.263
807.83	73.684
808.13	50.725
808.43	77.419
808.74	69.863
809.04	62.500
809.35	63.235
809.65	54.545
809.95	109.804
810.26	81.481
810.56	75.000
810.86	91.837
811.17	89.474
811.47	97.826
811.77	58.621
812.08	68.966
812.38	90.476
812.69	90.476
812.99	88.889
813.29	111.429
813.59	129.032
813.90	62.069
814.20	83.607
814.50	72.000
814.81	73.684
815.11	88.889
815.41	75.000
815.72	91.071
816.02	98.000
816.32	109.756
816.62	87.931
816.93	93.939
817.23	109.756
817.53	80.357
817.84	75.556
818.14	104.762
818.44	95.833
818.74	92.453
819.04	102.564
819.35	127.273
819.65	92.308
819.95	105.556
820.25	114.894
820.56	102.703
820.86	110.526
821.16	65.957
821.46	150.000
821.76	103.636
822.07	83.333
822.37	105.263
822.67	100.000
822.97	73.684
823.27	100.000
823.57	128.125
823.88	123.077
824.18	133.333
824.48	143.478
824.78	111.111
825.08	160.870
825.38	141.379
825.69	111.765
825.99	87.234
826.29	94.444
826.59	122.857
826.89	150.000
827.19	120.000
827.49	116.129
827.79	130.769
828.09	80.952
828.39	66.667
828.70	110.811
829.00	146.429
829.30	225.000
829.60	102.778
829.90	119.355
830.20	84.848
830.50	113.514
830.80	183.333
831.10	192.308
831.40	142.857
831.70	187.500
832.00	143.333
832.30	165.217
832.60	158.333
832.90	145.455
833.20	230.000
833.50	105.263
833.80	105.882
834.10	110.526
834.40	94.737
834.70	123.333
835.00	168.000
835.30	137.838
835.60	137.500
835.90	135.135
836.20	134.615
836.50	131.818
836.80	112.195
837.10	160.870
837.40	253.846
837.70	163.158
838.00	130.000
838.30	162.500
838.60	172.000
838.90	300.000
839.19	162.500
839.49	130.000
839.79	124.138
840.09	169.231
840.39	173.333
840.69	226.316
840.99	152.381
841.29	178.261
841.59	180.000
841.88	180.000
842.18	400.000
842.48	160.714
842.78	188.889
843.08	200.000
843.38	154.545
843.68	307.143
843.97	442.857
844.27	191.304
844.57	1100.000
844.87	264.286
845.17	244.444
845.47	166.667
845.76	191.667
846.06	471.429
846.36	170.588
846.66	253.846
846.96	287.500
847.25	246.154
847.55	194.737
847.85	194.444
848.15	440.000
848.44	300.000
848.74	142.857
849.04	170.833
849.34	200.000
849.63	181.250
849.93	243.750
850.23	1033.333
850.53	350.000
850.82	227.273
851.12	158.824
851.42	166.667
851.71	262.500
852.01	0.000
852.31	205.882
852.61	450.000
852.90	162.500
853.20	422.222
853.50	-3100.000
853.79	172.000
854.09	165.625
854.39	158.621
854.68	168.966
854.98	185.714
855.28	119.355
855.57	257.143
855.87	150.000
856.17	148.148
856.46	189.474
856.76	129.032
857.05	205.882
857.35	272.727
857.65	238.462
857.94	155.000
858.24	455.556
858.53	321.429
858.83	614.286
859.13	178.261
859.42	344.444
859.72	400.000
860.01	266.667
860.31	1025.000
860.60	360.000
860.90	437.500
861.20	246.154
861.49	500.000
861.79	-3800.000
862.08	528.571
862.38	322.222
862.67	207.143
862.97	340.000
863.26	113.333
863.56	800.000
863.85	300.000
864.15	270.588
864.44	216.667
864.74	341.667
865.03	372.727
865.33	475.000
865.62	233.333
865.92	400.000
866.21	950.000
866.51	640.000
866.80	222.222
867.10	733.333
867.39	2600.000
867.69	720.000
867.98	925.000
868.27	214.286
868.57	226.667
868.86	800.000
869.16	152.381
869.45	3000.000
869.75	-566.667
870.04	925.000
870.33	640.000
870.63	337.500
870.92	182.353
871.22	850.000
871.51	571.429
871.80	275.000
872.10	338.462
>>>>>End Processed Spectral Data<<<<<
