SpectraSuite Data File
++++++++++++++++++++++++++++++++++++
Date: Tue May 12 17:05:55 PDT 2015
User: schluterlab
Dark Spectrum Present: Yes
Reference Spectrum Present: Yes
Number of Sampled Component Spectra: 1
Spectrometers: USB2E3373
Integration Time (usec): 3000 (USB2E3373)
Spectra Averaged: 3 (USB2E3373)
Boxcar Smoothing: 0 (USB2E3373)
Correct for Electrical Dark: No (USB2E3373)
Strobe/Lamp Enabled: No (USB2E3373)
Correct for Detector Non-linearity: No (USB2E3373)
Correct for Stray Light: No (USB2E3373)
Number of Pixels in Processed Spectrum: 2048
>>>>>Begin Processed Spectral Data<<<<<
178.53	0.000
178.91	-241.667
179.29	-675.000
179.67	-4100.000
180.04	-106.667
180.42	775.000
180.80	1500.000
181.18	0.000
181.56	-350.000
181.94	0.000
182.31	1000.000
182.69	-3500.000
183.07	485.714
183.45	-3500.000
183.83	-1350.000
184.20	410.000
184.58	428.571
184.96	-307.692
185.34	-241.667
185.72	1450.000
186.09	-1000.000
186.47	-3200.000
186.85	966.667
187.23	760.000
187.61	1550.000
187.98	450.000
188.36	285.714
188.74	350.000
189.12	375.000
189.49	625.000
189.87	0.000
190.25	462.500
190.63	3800.000
191.00	-266.667
191.38	-3600.000
191.76	-950.000
192.14	512.500
192.51	-3400.000
192.89	1800.000
193.27	1200.000
193.65	-1033.333
194.02	-900.000
194.40	571.429
194.78	-264.286
195.15	280.000
195.53	-3800.000
195.91	-560.000
196.29	4500.000
196.66	225.000
197.04	900.000
197.42	-1600.000
197.79	675.000
198.17	325.000
198.55	0.000
198.92	500.000
199.30	1233.333
199.68	2250.000
200.05	733.333
200.43	-483.333
200.81	272.222
201.18	3400.000
201.56	275.000
201.94	-900.000
202.31	-375.000
202.69	-640.000
203.07	2400.000
203.44	-466.667
203.82	333.333
204.19	720.000
204.57	-1550.000
204.95	-850.000
205.32	-540.000
205.70	633.333
206.08	925.000
206.45	-1233.333
206.83	444.444
207.20	168.421
207.58	308.333
207.96	640.000
208.33	0.000
208.71	514.286
209.08	680.000
209.46	-2500.000
209.84	-875.000
210.21	740.000
210.59	-600.000
210.96	216.667
211.34	-775.000
211.71	363.636
212.09	1075.000
212.46	1700.000
212.84	-433.333
213.22	488.889
213.59	-3200.000
213.97	400.000
214.34	825.000
214.72	1133.333
215.09	900.000
215.47	-3300.000
215.84	-330.000
216.22	-425.000
216.59	0.000
216.97	0.000
217.34	1550.000
217.72	-1550.000
218.09	1266.667
218.47	475.000
218.84	925.000
219.22	933.333
219.59	1000.000
219.97	557.143
220.34	400.000
220.72	1550.000
221.09	3500.000
221.47	250.000
221.84	1066.667
222.22	400.000
222.59	300.000
222.97	200.000
223.34	237.500
223.72	-1600.000
224.09	1300.000
224.46	323.077
224.84	-800.000
225.21	388.889
225.59	260.000
225.96	1533.333
226.34	-580.000
226.71	-550.000
227.08	-720.000
227.46	0.000
227.83	-500.000
228.21	-2050.000
228.58	375.000
228.95	1050.000
229.33	444.444
229.70	1000.000
230.08	353.846
230.45	3400.000
230.82	-900.000
231.20	-700.000
231.57	-1000.000
231.95	480.000
232.32	300.000
232.69	483.333
233.07	316.667
233.44	-1350.000
233.81	266.667
234.19	174.074
234.56	243.750
234.93	182.353
235.31	240.000
235.68	275.000
236.05	146.429
236.43	129.630
236.80	242.857
237.17	134.483
237.55	125.000
237.92	120.000
238.29	130.303
238.67	137.500
239.04	124.390
239.41	81.250
239.79	92.500
240.16	83.333
240.53	67.213
240.91	68.116
241.28	83.051
241.65	51.515
242.02	71.831
242.40	67.143
242.77	46.154
243.14	56.962
243.51	62.626
243.89	47.664
244.26	48.598
244.63	49.505
245.00	50.459
245.38	50.000
245.75	44.697
246.12	51.852
246.49	42.553
246.87	45.082
247.24	47.333
247.61	43.125
247.98	40.816
248.36	29.091
248.73	46.429
249.10	34.524
249.47	42.500
249.84	36.816
250.22	37.838
250.59	37.500
250.96	33.333
251.33	38.140
251.70	35.268
252.08	37.815
252.45	33.865
252.82	34.981
253.19	28.458
253.56	30.769
253.94	33.333
254.31	31.395
254.68	32.753
255.05	33.793
255.42	33.577
255.79	27.036
256.16	34.915
256.54	31.169
256.91	29.085
257.28	32.776
257.65	27.900
258.02	29.794
258.39	31.519
258.76	31.594
259.14	25.714
259.51	30.029
259.88	30.091
260.25	28.297
260.62	27.397
260.99	28.650
261.36	29.248
261.73	25.532
262.10	29.581
262.47	28.750
262.85	26.667
263.22	30.848
263.59	30.179
263.96	26.817
264.33	27.901
264.70	30.221
265.07	31.220
265.44	26.376
265.81	25.236
266.18	29.062
266.55	26.241
266.92	29.083
267.29	27.851
267.66	26.457
268.03	26.009
268.40	26.850
268.77	28.414
269.14	25.597
269.51	27.617
269.88	28.571
270.25	26.134
270.62	28.541
270.99	29.615
271.36	27.642
271.73	29.140
272.10	24.040
272.47	25.794
272.84	24.950
273.21	24.380
273.58	27.733
273.95	26.694
274.32	27.237
274.69	27.756
275.06	28.051
275.43	25.287
275.80	26.038
276.17	27.757
276.54	26.916
276.91	26.866
277.28	26.642
277.65	27.306
278.02	27.206
278.39	26.978
278.76	25.172
279.13	24.555
279.50	24.182
279.87	25.698
280.23	24.309
280.60	25.182
280.97	26.552
281.34	25.083
281.71	24.174
282.08	27.009
282.45	24.324
282.82	24.080
283.19	24.642
283.56	22.314
283.92	25.733
284.29	25.291
284.66	23.697
285.03	26.368
285.40	23.471
285.77	25.000
286.14	24.149
286.51	25.613
286.87	23.576
287.24	22.222
287.61	23.556
287.98	24.328
288.35	20.889
288.72	22.610
289.08	23.724
289.45	23.628
289.82	21.719
290.19	22.694
290.56	23.726
290.93	23.597
291.29	22.928
291.66	24.435
292.03	22.581
292.40	22.087
292.77	20.752
293.13	24.108
293.50	21.997
293.87	21.545
294.24	22.797
294.60	23.822
294.97	23.357
295.34	22.444
295.71	22.865
296.08	22.267
296.44	23.507
296.81	21.340
297.18	22.433
297.55	23.030
297.91	21.305
298.28	23.188
298.65	23.067
299.02	22.195
299.38	24.940
299.75	22.439
300.12	22.706
300.48	22.600
300.85	22.288
301.22	23.256
301.59	22.170
301.95	21.470
302.32	22.584
302.69	23.529
303.05	25.140
303.42	23.094
303.79	23.835
304.15	22.332
304.52	22.304
304.89	24.200
305.25	23.915
305.62	24.733
305.99	22.283
306.35	22.526
306.72	24.246
307.09	23.913
307.45	23.548
307.82	23.663
308.19	24.536
308.55	24.000
308.92	25.025
309.29	26.036
309.65	24.182
310.02	25.355
310.38	25.224
310.75	24.397
311.12	24.713
311.48	27.606
311.85	25.477
312.22	26.457
312.58	26.142
312.95	27.379
313.31	27.528
313.68	26.735
314.05	29.579
314.41	28.585
314.78	29.640
315.14	29.194
315.51	30.085
315.87	29.745
316.24	30.906
316.61	30.081
316.97	29.633
317.34	30.818
317.70	31.782
318.07	33.007
318.43	31.898
318.80	31.961
319.16	34.178
319.53	34.248
319.89	32.706
320.26	34.637
320.62	35.531
320.99	34.986
321.35	34.879
321.72	37.097
322.08	36.842
322.45	37.511
322.81	37.694
323.18	39.254
323.54	39.808
323.91	40.163
324.27	39.965
324.64	40.830
325.00	42.155
325.37	42.074
325.73	41.821
326.10	44.988
326.46	43.848
326.83	42.800
327.19	45.221
327.56	44.808
327.92	46.557
328.29	46.318
328.65	47.517
329.01	47.990
329.38	47.970
329.74	45.944
330.11	47.698
330.47	49.446
330.84	47.714
331.20	49.069
331.56	50.345
331.93	49.957
332.29	47.789
332.66	50.255
333.02	49.313
333.38	50.349
333.75	48.040
334.11	48.490
334.48	49.915
334.84	48.649
335.20	48.674
335.57	49.034
335.93	49.706
336.29	49.420
336.66	49.228
337.02	50.385
337.38	48.495
337.75	49.662
338.11	50.127
338.47	49.534
338.84	50.381
339.20	49.697
339.56	50.799
339.93	50.334
340.29	48.824
340.65	49.623
341.02	50.442
341.38	48.851
341.74	49.419
342.11	50.083
342.47	49.303
342.83	50.943
343.20	48.909
343.56	48.133
343.92	50.950
344.28	50.558
344.65	50.937
345.01	47.937
345.37	50.321
345.73	49.524
346.10	48.765
346.46	50.957
346.82	48.380
347.19	50.155
347.55	48.712
347.91	48.867
348.27	49.651
348.63	48.892
349.00	50.114
349.36	51.128
349.72	49.618
350.08	50.078
350.45	49.733
350.81	50.765
351.17	48.305
351.53	49.423
351.89	49.573
352.26	49.660
352.62	50.000
352.98	49.847
353.34	50.308
353.70	48.853
354.07	50.692
354.43	49.232
354.79	49.810
355.15	49.694
355.51	50.453
355.87	49.021
356.24	50.269
356.60	49.391
356.96	50.341
357.32	48.907
357.68	50.367
358.04	50.912
358.40	49.625
358.77	50.413
359.13	48.799
359.49	49.666
359.85	50.037
360.21	49.926
360.57	49.635
360.93	49.278
361.29	50.577
361.66	51.007
362.02	48.295
362.38	50.505
362.74	50.318
363.10	50.421
363.46	49.378
363.82	49.719
364.18	50.569
364.54	51.931
364.90	50.268
365.26	52.186
365.62	50.622
365.98	49.759
366.35	49.448
366.71	50.520
367.07	49.556
367.43	50.034
367.79	48.803
368.15	48.915
368.51	50.103
368.87	49.253
369.23	49.134
369.59	49.899
369.95	50.210
370.31	49.555
370.67	49.965
371.03	49.580
371.39	50.000
371.75	49.965
372.11	51.258
372.47	50.753
372.83	51.462
373.19	50.377
373.55	50.584
373.91	50.345
374.27	50.066
374.63	49.220
374.99	50.809
375.35	51.546
375.71	50.594
376.07	49.801
376.42	49.297
376.78	50.996
377.14	50.721
377.50	50.125
377.86	50.288
378.22	50.335
378.58	50.605
378.94	50.694
379.30	50.940
379.66	49.548
380.02	50.674
380.38	50.234
380.74	51.096
381.09	50.058
381.45	49.653
381.81	49.941
382.17	51.160
382.53	50.390
382.89	50.444
383.25	50.444
383.61	49.683
383.97	51.650
384.32	51.537
384.68	50.564
385.04	51.114
385.40	51.246
385.76	49.912
386.12	50.959
386.48	51.125
386.83	51.467
387.19	49.647
387.55	50.530
387.91	50.924
388.27	51.338
388.62	49.237
388.98	49.621
389.34	49.137
389.70	49.351
390.06	51.037
390.42	49.599
390.77	50.491
391.13	49.789
391.49	51.119
391.85	49.538
392.20	50.119
392.56	50.777
392.92	49.860
393.28	48.430
393.64	49.197
393.99	50.267
394.35	49.323
394.71	49.397
395.07	49.574
395.42	49.883
395.78	50.278
396.14	50.361
396.50	48.917
396.85	47.744
397.21	49.458
397.57	50.389
397.92	47.949
398.28	49.311
398.64	50.611
399.00	49.172
399.35	48.631
399.71	48.731
400.07	49.030
400.42	49.970
400.78	49.267
401.14	48.914
401.49	48.560
401.85	49.710
402.21	48.389
402.57	49.910
402.92	49.152
403.28	48.747
403.63	47.969
403.99	48.432
404.35	49.062
404.70	50.502
405.06	48.119
405.42	49.072
405.77	48.236
406.13	47.397
406.49	47.811
406.84	47.829
407.20	48.288
407.55	48.862
407.91	49.777
408.27	49.242
408.62	48.729
408.98	48.078
409.34	45.996
409.69	47.978
410.05	48.241
410.40	47.703
410.76	47.453
411.11	47.867
411.47	47.222
411.83	46.924
412.18	48.490
412.54	49.670
412.89	47.080
413.25	49.487
413.60	48.248
413.96	48.594
414.31	47.757
414.67	49.100
415.03	49.425
415.38	49.022
415.74	47.631
416.09	47.908
416.45	48.546
416.80	48.749
417.16	47.804
417.51	47.452
417.87	48.999
418.22	47.752
418.58	49.108
418.93	47.829
419.29	48.983
419.64	48.213
420.00	49.165
420.35	49.013
420.71	47.958
421.06	49.264
421.42	47.726
421.77	48.917
422.12	49.338
422.48	47.920
422.83	47.824
423.19	48.110
423.54	47.833
423.90	48.698
424.25	49.752
424.61	49.275
424.96	48.786
425.31	49.261
425.67	49.776
426.02	49.355
426.38	49.067
426.73	49.566
427.09	51.068
427.44	50.366
427.79	48.599
428.15	50.619
428.50	49.829
428.85	49.442
429.21	48.838
429.56	49.801
429.92	49.925
430.27	49.879
430.62	48.458
430.98	48.603
431.33	48.135
431.68	47.802
432.04	49.612
432.39	49.451
432.74	51.464
433.10	50.166
433.45	51.982
433.80	50.469
434.16	49.658
434.51	49.639
434.86	50.191
435.22	51.378
435.57	50.622
435.92	50.427
436.28	51.728
436.63	50.405
436.98	51.520
437.34	50.457
437.69	49.720
438.04	50.645
438.39	50.321
438.75	51.670
439.10	51.160
439.45	51.215
439.81	51.012
440.16	51.128
440.51	50.113
440.86	52.707
441.22	51.677
441.57	50.656
441.92	50.938
442.27	50.515
442.63	51.169
442.98	50.485
443.33	49.973
443.68	50.805
444.03	50.471
444.39	49.153
444.74	49.896
445.09	51.185
445.44	51.169
445.79	50.828
446.15	51.000
446.50	50.580
446.85	51.892
447.20	51.095
447.55	51.876
447.91	51.518
448.26	51.012
448.61	52.128
448.96	50.980
449.31	52.640
449.66	52.436
450.02	51.324
450.37	52.027
450.72	52.507
451.07	51.367
451.42	52.638
451.77	51.661
452.12	52.467
452.47	52.430
452.83	53.014
453.18	51.652
453.53	52.635
453.88	52.857
454.23	51.598
454.58	51.981
454.93	52.361
455.28	52.999
455.63	53.487
455.98	50.649
456.34	53.435
456.69	52.500
457.04	52.148
457.39	52.914
457.74	52.365
458.09	51.600
458.44	53.012
458.79	51.830
459.14	51.609
459.49	52.831
459.84	52.120
460.19	51.356
460.54	52.023
460.89	52.186
461.24	51.203
461.59	53.175
461.94	50.532
462.29	53.432
462.64	53.894
462.99	52.463
463.34	52.884
463.69	52.511
464.04	54.634
464.39	52.318
464.74	51.700
465.09	51.770
465.44	52.557
465.79	51.606
466.14	50.980
466.49	51.275
466.84	51.672
467.19	52.255
467.54	51.411
467.89	51.819
468.24	52.229
468.59	52.440
468.94	53.502
469.29	52.352
469.64	52.862
469.99	53.406
470.34	52.435
470.68	52.621
471.03	53.502
471.38	52.980
471.73	53.690
472.08	54.338
472.43	54.811
472.78	53.585
473.13	51.627
473.48	53.545
473.83	53.887
474.17	53.313
474.52	53.199
474.87	52.644
475.22	53.284
475.57	50.839
475.92	52.683
476.27	51.469
476.61	51.582
476.96	50.836
477.31	52.082
477.66	53.086
478.01	52.295
478.36	52.678
478.70	51.960
479.05	52.929
479.40	52.431
479.75	52.085
480.10	51.597
480.45	51.120
480.79	51.889
481.14	51.213
481.49	50.915
481.84	50.484
482.19	51.354
482.53	50.681
482.88	51.210
483.23	51.872
483.58	51.930
483.92	52.788
484.27	50.771
484.62	52.207
484.97	49.669
485.31	48.866
485.66	48.129
486.01	46.205
486.36	45.456
486.70	45.734
487.05	46.294
487.40	47.222
487.75	47.925
488.09	48.324
488.44	48.885
488.79	49.011
489.13	50.168
489.48	51.338
489.83	49.833
490.17	49.628
490.52	51.206
490.87	51.552
491.22	51.418
491.56	51.208
491.91	50.582
492.26	51.269
492.60	51.481
492.95	51.699
493.30	51.274
493.64	51.303
493.99	50.850
494.34	51.009
494.68	51.837
495.03	50.831
495.37	50.788
495.72	51.422
496.07	51.258
496.41	50.565
496.76	50.359
497.11	50.900
497.45	49.584
497.80	51.529
498.14	51.965
498.49	49.814
498.84	51.542
499.18	50.686
499.53	52.182
499.87	50.898
500.22	52.418
500.56	51.114
500.91	52.365
501.26	51.171
501.60	50.592
501.95	50.000
502.29	50.756
502.64	50.199
502.98	49.266
503.33	50.334
503.67	50.022
504.02	50.963
504.36	50.407
504.71	51.703
505.06	50.915
505.40	50.023
505.75	50.327
506.09	50.350
506.44	51.316
506.78	51.087
507.13	51.575
507.47	51.480
507.82	50.852
508.16	51.445
508.51	50.145
508.85	50.855
509.19	51.689
509.54	50.879
509.88	51.666
510.23	51.029
510.57	50.290
510.92	50.350
511.26	51.657
511.61	49.631
511.95	51.369
512.30	50.950
512.64	50.883
512.98	51.256
513.33	52.152
513.67	51.735
514.02	52.312
514.36	52.492
514.70	51.680
515.05	51.945
515.39	53.673
515.74	51.886
516.08	52.179
516.42	52.678
516.77	52.427
517.11	52.213
517.46	51.185
517.80	52.321
518.14	52.563
518.49	50.772
518.83	50.824
519.17	51.303
519.52	51.557
519.86	51.826
520.20	52.877
520.55	51.385
520.89	51.724
521.23	52.687
521.58	51.635
521.92	52.886
522.26	51.955
522.61	52.288
522.95	53.634
523.29	52.164
523.64	50.809
523.98	53.110
524.32	52.134
524.66	51.768
525.01	52.781
525.35	51.444
525.69	53.101
526.04	52.112
526.38	51.677
526.72	51.193
527.06	51.685
527.41	52.056
527.75	53.013
528.09	51.716
528.43	51.495
528.78	51.044
529.12	53.101
529.46	50.847
529.80	51.519
530.15	50.913
530.49	50.722
530.83	51.127
531.17	51.968
531.51	51.563
531.86	50.242
532.20	49.753
532.54	52.166
532.88	51.780
533.22	50.884
533.57	50.702
533.91	49.825
534.25	49.625
534.59	49.942
534.93	49.374
535.27	49.175
535.62	48.716
535.96	48.995
536.30	50.274
536.64	50.311
536.98	49.087
537.32	50.187
537.66	49.681
538.01	49.226
538.35	49.595
538.69	48.483
539.03	49.316
539.37	47.876
539.71	49.877
540.05	48.800
540.39	49.937
540.73	49.177
541.07	48.996
541.42	49.627
541.76	49.507
542.10	48.150
542.44	48.878
542.78	49.717
543.12	47.546
543.46	48.747
543.80	49.436
544.14	49.288
544.48	47.871
544.82	48.746
545.16	48.270
545.50	48.248
545.84	49.242
546.18	49.090
546.52	48.656
546.86	49.194
547.20	48.127
547.54	48.512
547.88	47.993
548.22	47.966
548.56	47.260
548.90	47.509
549.24	48.073
549.58	47.616
549.92	48.396
550.26	48.749
550.60	47.505
550.94	49.796
551.28	48.690
551.62	49.586
551.96	49.122
552.30	46.935
552.64	48.285
552.98	47.165
553.32	46.927
553.66	47.622
554.00	48.456
554.34	49.134
554.68	48.387
555.02	47.997
555.36	46.609
555.69	48.429
556.03	47.580
556.37	47.164
556.71	47.979
557.05	46.265
557.39	48.133
557.73	47.305
558.07	48.156
558.41	47.430
558.75	48.495
559.08	49.821
559.42	48.962
559.76	50.535
560.10	47.075
560.44	46.583
560.78	47.826
561.12	47.807
561.45	46.558
561.79	46.317
562.13	46.810
562.47	47.112
562.81	48.146
563.15	47.188
563.48	44.658
563.82	47.224
564.16	46.206
564.50	45.750
564.84	46.018
565.17	44.860
565.51	45.998
565.85	46.700
566.19	45.476
566.52	46.209
566.86	45.184
567.20	45.056
567.54	44.924
567.88	44.601
568.21	42.087
568.55	43.920
568.89	41.834
569.23	42.019
569.56	41.094
569.90	39.526
570.24	39.455
570.57	38.611
570.91	38.440
571.25	38.019
571.59	37.253
571.92	37.271
572.26	37.278
572.60	37.267
572.93	38.327
573.27	37.392
573.61	37.195
573.95	36.255
574.28	36.549
574.62	36.074
574.96	35.940
575.29	35.658
575.63	35.830
575.97	35.394
576.30	36.092
576.64	35.733
576.98	35.570
577.31	35.633
577.65	35.735
577.98	34.751
578.32	34.447
578.66	34.623
578.99	35.095
579.33	35.431
579.67	35.772
580.00	35.244
580.34	35.203
580.67	34.743
581.01	35.594
581.35	34.605
581.68	34.033
582.02	34.161
582.35	33.763
582.69	34.355
583.02	34.529
583.36	35.225
583.70	35.601
584.03	35.421
584.37	35.916
584.70	35.506
585.04	34.808
585.37	34.423
585.71	34.854
586.04	35.112
586.38	35.073
586.72	36.113
587.05	35.435
587.39	35.247
587.72	35.667
588.06	35.187
588.39	35.670
588.73	35.140
589.06	36.096
589.40	36.588
589.73	36.578
590.07	37.474
590.40	37.456
590.73	37.679
591.07	37.799
591.40	37.246
591.74	37.175
592.07	36.980
592.41	37.530
592.74	36.214
593.08	35.872
593.41	35.667
593.75	34.758
594.08	35.510
594.41	35.647
594.75	35.548
595.08	35.802
595.42	36.636
595.75	35.472
596.09	35.975
596.42	36.744
596.75	37.861
597.09	37.309
597.42	37.224
597.75	36.187
598.09	36.069
598.42	36.475
598.76	36.122
599.09	36.263
599.42	34.983
599.76	35.482
600.09	34.576
600.42	35.359
600.76	35.486
601.09	34.864
601.42	34.495
601.76	35.589
602.09	35.541
602.42	35.379
602.76	36.243
603.09	36.388
603.42	35.706
603.76	35.177
604.09	35.288
604.42	35.518
604.76	35.717
605.09	35.918
605.42	36.205
605.75	35.373
606.09	35.157
606.42	35.701
606.75	35.367
607.09	34.307
607.42	35.436
607.75	35.908
608.08	35.012
608.42	36.284
608.75	35.344
609.08	35.064
609.41	37.000
609.75	36.310
610.08	36.241
610.41	37.066
610.74	35.931
611.07	36.016
611.41	36.562
611.74	35.946
612.07	36.224
612.40	36.452
612.73	37.743
613.07	36.493
613.40	37.343
613.73	37.094
614.06	35.850
614.39	37.677
614.72	35.962
615.06	35.608
615.39	36.188
615.72	35.915
616.05	37.067
616.38	36.124
616.71	36.517
617.05	36.903
617.38	36.629
617.71	37.120
618.04	36.736
618.37	37.632
618.70	37.182
619.03	37.424
619.36	38.945
619.69	38.391
620.03	39.269
620.36	38.343
620.69	38.825
621.02	39.470
621.35	39.255
621.68	39.749
622.01	39.631
622.34	39.184
622.67	39.537
623.00	38.598
623.33	37.854
623.66	37.924
623.99	38.356
624.32	39.160
624.65	38.512
624.99	39.554
625.32	38.477
625.65	37.931
625.98	38.773
626.31	40.134
626.64	39.560
626.97	40.398
627.30	41.925
627.63	41.209
627.96	39.045
628.29	41.667
628.62	40.719
628.95	42.021
629.28	42.507
629.61	41.652
629.94	41.400
630.26	39.948
630.59	43.085
630.92	40.179
631.25	41.251
631.58	42.430
631.91	41.294
632.24	42.468
632.57	41.061
632.90	43.892
633.23	43.861
633.56	43.625
633.89	44.159
634.22	46.179
634.55	42.258
634.88	43.373
635.20	43.834
635.53	45.761
635.86	45.414
636.19	42.424
636.52	43.027
636.85	44.229
637.18	45.070
637.51	43.575
637.83	43.249
638.16	45.135
638.49	44.072
638.82	44.601
639.15	43.948
639.48	44.431
639.81	46.154
640.13	45.399
640.46	45.891
640.79	46.294
641.12	45.013
641.45	46.184
641.77	45.046
642.10	44.177
642.43	49.218
642.76	47.159
643.09	46.974
643.41	44.881
643.74	47.338
644.07	47.935
644.40	48.077
644.73	47.598
645.05	46.360
645.38	46.248
645.71	46.282
646.04	48.855
646.36	47.418
646.69	48.480
647.02	49.760
647.35	46.142
647.67	46.515
648.00	50.000
648.33	44.662
648.66	46.364
648.98	44.928
649.31	42.915
649.64	43.568
649.96	42.817
650.29	44.571
650.62	44.919
650.94	44.729
651.27	48.325
651.60	45.540
651.92	45.469
652.25	46.772
652.58	43.262
652.90	44.461
653.23	42.836
653.56	44.510
653.88	43.612
654.21	44.428
654.54	43.338
654.86	42.035
655.19	43.536
655.52	35.009
655.84	24.548
656.17	28.049
656.49	39.842
656.82	45.846
657.15	36.905
657.47	27.816
657.80	20.727
658.13	16.354
658.45	22.463
658.78	27.316
659.10	28.016
659.43	28.716
659.75	30.982
660.08	32.456
660.41	36.388
660.73	43.413
661.06	43.544
661.38	48.722
661.71	44.604
662.03	47.338
662.36	47.048
662.68	45.065
663.01	47.748
663.33	46.038
663.66	50.099
663.98	48.810
664.31	45.896
664.63	50.383
664.96	48.968
665.28	44.821
665.61	47.547
665.93	46.981
666.26	47.664
666.58	50.275
666.91	43.822
667.23	46.386
667.56	49.281
667.88	49.378
668.21	47.951
668.53	47.379
668.86	48.497
669.18	49.898
669.50	48.140
669.83	50.308
670.15	48.441
670.48	44.531
670.80	44.821
671.13	47.809
671.45	49.900
671.77	48.794
672.10	44.345
672.42	42.270
672.75	41.297
673.07	42.448
673.39	41.693
673.72	44.118
674.04	42.832
674.37	43.376
674.69	44.238
675.01	43.470
675.34	44.380
675.66	45.898
675.98	44.576
676.31	43.800
676.63	47.913
676.95	44.643
677.28	47.667
677.60	47.082
677.92	46.627
678.25	44.574
678.57	43.389
678.89	46.112
679.22	44.118
679.54	42.527
679.86	44.677
680.18	45.518
680.51	39.635
680.83	40.709
681.15	42.634
681.48	43.750
681.80	41.156
682.12	43.599
682.44	42.162
682.77	40.925
683.09	45.049
683.41	45.306
683.73	44.291
684.06	43.651
684.38	45.736
684.70	39.748
685.02	39.236
685.34	42.430
685.67	41.479
685.99	41.544
686.31	37.750
686.63	40.000
686.96	40.850
687.28	39.094
687.60	40.102
687.92	40.871
688.24	42.069
688.56	39.858
688.89	39.771
689.21	41.618
689.53	45.059
689.85	42.683
690.17	40.000
690.49	44.355
690.82	42.647
691.14	42.222
691.46	45.380
691.78	44.834
692.10	40.267
692.42	39.020
692.74	40.698
693.06	41.860
693.39	40.316
693.71	42.043
694.03	41.420
694.35	41.968
694.67	40.326
694.99	43.237
695.31	44.820
695.63	44.118
695.95	41.855
696.27	45.575
696.59	41.766
696.91	43.291
697.23	44.570
697.56	41.494
697.88	39.122
698.20	40.943
698.52	38.716
698.84	42.094
699.16	43.070
699.48	40.678
699.80	45.534
700.12	47.806
700.44	43.925
700.76	44.153
701.08	43.603
701.40	43.117
701.72	48.663
702.04	46.612
702.36	48.387
702.68	49.202
703.00	45.614
703.32	44.169
703.64	46.851
703.96	43.229
704.28	43.386
704.60	47.606
704.91	43.417
705.23	49.432
705.55	52.522
705.87	50.159
706.19	53.605
706.51	50.157
706.83	47.493
707.15	46.257
707.47	41.646
707.79	40.920
708.11	38.322
708.43	41.348
708.74	42.534
709.06	40.465
709.38	42.432
709.70	46.049
710.02	42.663
710.34	43.370
710.66	43.333
710.98	43.716
711.29	43.175
711.61	46.797
711.93	46.809
712.25	46.687
712.57	49.839
712.89	49.697
713.20	49.201
713.52	45.794
713.84	48.036
714.16	42.899
714.48	44.092
714.80	42.276
715.11	43.351
715.43	42.737
715.75	43.380
716.07	44.798
716.39	42.000
716.70	40.498
717.02	50.168
717.34	51.439
717.66	48.611
717.97	50.379
718.29	47.535
718.61	44.595
718.93	49.481
719.24	47.987
719.56	45.862
719.88	42.038
720.20	46.774
720.51	43.137
720.83	46.154
721.15	44.218
721.46	48.288
721.78	43.902
722.10	48.611
722.42	52.174
722.73	43.321
723.05	54.386
723.37	51.590
723.68	43.359
724.00	50.000
724.32	50.951
724.63	45.769
724.95	50.196
725.27	49.442
725.58	47.426
725.90	42.254
726.22	43.493
726.53	42.140
726.85	47.557
727.16	46.980
727.48	44.850
727.80	43.885
728.11	52.143
728.43	47.464
728.74	48.951
729.06	44.086
729.38	45.263
729.69	48.333
730.01	50.000
730.32	47.651
730.64	44.518
730.96	40.541
731.27	36.086
731.59	39.943
731.90	35.376
732.22	40.000
732.53	37.892
732.85	38.889
733.16	40.964
733.48	42.633
733.80	43.768
734.11	44.172
734.43	38.304
734.74	35.657
735.06	39.947
735.37	36.082
735.69	36.812
736.00	43.425
736.32	37.576
736.63	37.855
736.95	41.304
737.26	39.329
737.58	41.104
737.89	38.554
738.21	38.079
738.52	42.809
738.83	47.985
739.15	43.554
739.46	40.345
739.78	42.857
740.09	41.691
740.41	38.344
740.72	43.492
741.04	43.357
741.35	48.828
741.66	43.083
741.98	51.073
742.29	44.907
742.61	49.115
742.92	43.220
743.23	48.000
743.55	44.151
743.86	50.980
744.18	47.458
744.49	47.107
744.80	48.848
745.12	51.786
745.43	52.336
745.74	44.444
746.06	42.982
746.37	51.628
746.68	51.327
747.00	51.121
747.31	47.059
747.62	42.213
747.94	43.777
748.25	42.023
748.56	46.186
748.88	45.089
749.19	44.651
749.50	44.749
749.82	45.267
750.13	43.874
750.44	37.000
750.75	41.611
751.07	37.829
751.38	37.294
751.69	37.710
752.01	37.413
752.32	42.857
752.63	41.611
752.94	40.909
753.26	46.484
753.57	49.416
753.88	41.948
754.19	42.238
754.51	38.870
754.82	38.926
755.13	36.149
755.44	39.630
755.75	45.361
756.07	42.808
756.38	37.908
756.69	38.750
757.00	41.840
757.31	37.746
757.63	36.639
757.94	35.638
758.25	36.473
758.56	33.867
758.87	37.093
759.18	40.407
759.50	40.729
759.81	35.312
760.12	36.236
760.43	37.535
760.74	33.671
761.05	34.483
761.36	36.458
761.67	36.119
761.99	39.437
762.30	36.334
762.61	38.542
762.92	41.288
763.23	44.528
763.54	43.077
763.85	38.911
764.16	41.319
764.47	37.162
764.78	35.505
765.10	37.805
765.41	33.807
765.72	32.873
766.03	34.743
766.34	37.979
766.65	40.684
766.96	36.842
767.27	50.467
767.58	48.515
767.89	53.039
768.20	54.268
768.51	44.388
768.82	42.982
769.13	39.608
769.44	34.586
769.75	36.704
770.06	42.017
770.37	38.596
770.68	32.889
770.99	42.373
771.30	42.259
771.61	40.000
771.92	37.786
772.23	41.935
772.54	42.667
772.85	50.990
773.16	48.913
773.47	49.444
773.78	41.089
774.09	52.841
774.39	46.061
774.70	52.353
775.01	47.368
775.32	43.478
775.63	53.425
775.94	58.025
776.25	49.655
776.56	59.542
776.87	61.832
777.18	61.364
777.48	58.268
777.79	55.385
778.10	48.485
778.41	60.448
778.72	54.135
779.03	49.359
779.34	60.811
779.65	51.553
779.95	49.689
780.26	48.810
780.57	58.503
780.88	57.447
781.19	55.000
781.50	46.746
781.80	48.634
782.11	47.090
782.42	46.552
782.73	46.328
783.04	49.677
783.34	60.465
783.65	50.340
783.96	47.097
784.27	50.331
784.57	46.711
784.88	45.652
785.19	50.833
785.50	72.414
785.81	54.264
786.11	47.407
786.42	59.843
786.73	55.856
787.04	67.925
787.34	45.528
787.65	65.152
787.96	57.576
788.26	56.693
788.57	48.905
788.88	48.592
789.19	57.252
789.49	50.676
789.80	47.656
790.11	40.496
790.41	58.333
790.72	48.148
791.03	71.154
791.33	66.667
791.64	63.158
791.95	69.474
792.25	41.667
792.56	61.000
792.87	68.293
793.17	59.091
793.48	74.118
793.79	57.471
794.09	59.091
794.40	54.310
794.70	46.032
795.01	54.615
795.32	55.725
795.62	52.991
795.93	56.303
796.23	55.285
796.54	61.224
796.85	68.182
797.15	81.818
797.46	70.732
797.76	55.000
798.07	85.333
798.37	66.250
798.68	73.750
798.99	71.951
799.29	77.333
799.60	54.651
799.90	65.789
800.21	74.242
800.51	77.465
800.82	74.138
801.12	87.692
801.43	84.000
801.73	74.138
802.04	81.818
802.34	83.562
802.65	119.608
802.95	82.609
803.26	100.000
803.56	78.333
803.87	74.627
804.17	77.778
804.48	96.226
804.78	70.833
805.09	78.788
805.39	95.238
805.70	85.965
806.00	72.857
806.30	96.875
806.61	81.176
806.91	68.889
807.22	56.522
807.52	61.842
807.83	81.579
808.13	79.710
808.43	85.484
808.74	72.603
809.04	87.500
809.35	82.353
809.65	89.394
809.95	82.353
810.26	101.852
810.56	85.937
810.86	93.878
811.17	103.509
811.47	89.130
811.77	82.759
812.08	74.138
812.38	107.143
812.69	109.524
812.99	97.778
813.29	117.143
813.59	125.806
813.90	98.276
814.20	75.410
814.50	72.000
814.81	71.930
815.11	87.037
815.41	85.714
815.72	96.429
816.02	94.000
816.32	85.366
816.62	91.379
816.93	84.848
817.23	126.829
817.53	108.929
817.84	95.556
818.14	76.190
818.44	93.750
818.74	90.566
819.04	107.692
819.35	100.000
819.65	109.615
819.95	118.519
820.25	134.043
820.56	121.622
820.86	136.842
821.16	95.745
821.46	105.263
821.76	96.364
822.07	83.333
822.37	100.000
822.67	102.326
822.97	94.737
823.27	123.913
823.57	118.750
823.88	107.692
824.18	127.273
824.48	147.826
824.78	147.222
825.08	173.913
825.38	141.379
825.69	123.529
825.99	91.489
826.29	111.111
826.59	117.143
826.89	150.000
827.19	108.571
827.49	167.742
827.79	200.000
828.09	111.905
828.39	116.667
828.70	129.730
829.00	142.857
829.30	231.250
829.60	111.111
829.90	122.581
830.20	90.909
830.50	148.649
830.80	183.333
831.10	150.000
831.40	204.762
831.70	170.833
832.00	156.667
832.30	178.261
832.60	162.500
832.90	151.515
833.20	220.000
833.50	136.842
833.80	123.529
834.10	126.316
834.40	157.895
834.70	160.000
835.00	172.000
835.30	83.784
835.60	146.875
835.90	102.703
836.20	188.462
836.50	145.455
836.80	117.073
837.10	147.826
837.40	323.077
837.70	205.263
838.00	153.333
838.30	179.167
838.60	196.000
838.90	400.000
839.19	118.750
839.49	130.000
839.79	117.241
840.09	146.154
840.39	246.667
840.69	152.632
840.99	138.095
841.29	173.913
841.59	205.000
841.88	192.000
842.18	388.889
842.48	153.571
842.78	203.704
843.08	300.000
843.38	177.273
843.68	221.429
843.97	542.857
844.27	165.217
844.57	1800.000
844.87	335.714
845.17	188.889
845.47	176.190
845.76	216.667
846.06	557.143
846.36	217.647
846.66	284.615
846.96	268.750
847.25	200.000
847.55	163.158
847.85	200.000
848.15	460.000
848.44	290.909
848.74	157.143
849.04	179.167
849.34	164.706
849.63	243.750
849.93	231.250
850.23	900.000
850.53	512.500
850.82	372.727
851.12	217.647
851.42	200.000
851.71	250.000
852.01	0.000
852.31	176.471
852.61	320.000
852.90	158.333
853.20	266.667
853.50	-1300.000
853.79	136.000
854.09	131.250
854.39	127.586
854.68	151.724
854.98	219.048
855.28	141.935
855.57	242.857
855.87	233.333
856.17	151.852
856.46	173.684
856.76	129.032
857.05	200.000
857.35	254.545
857.65	261.538
857.94	215.000
858.24	444.444
858.53	300.000
858.83	571.429
859.13	191.304
859.42	388.889
859.72	450.000
860.01	258.333
860.31	1025.000
860.60	360.000
860.90	550.000
861.20	276.923
861.49	400.000
861.79	-3000.000
862.08	514.286
862.38	255.556
862.67	228.571
862.97	400.000
863.26	133.333
863.56	725.000
863.85	323.077
864.15	276.471
864.44	211.111
864.74	350.000
865.03	327.273
865.33	450.000
865.62	273.333
865.92	566.667
866.21	1025.000
866.51	640.000
866.80	183.333
867.10	1000.000
867.39	4200.000
867.69	740.000
867.98	700.000
868.27	180.952
868.57	253.333
868.86	800.000
869.16	195.238
869.45	3200.000
869.75	-500.000
870.04	750.000
870.33	920.000
870.63	400.000
870.92	182.353
871.22	625.000
871.51	514.286
871.80	408.333
872.10	338.462
>>>>>End Processed Spectral Data<<<<<
