SpectraSuite Data File
++++++++++++++++++++++++++++++++++++
Date: Tue May 12 16:59:18 PDT 2015
User: schluterlab
Dark Spectrum Present: Yes
Reference Spectrum Present: Yes
Number of Sampled Component Spectra: 1
Spectrometers: USB2E3373
Integration Time (usec): 3000 (USB2E3373)
Spectra Averaged: 3 (USB2E3373)
Boxcar Smoothing: 0 (USB2E3373)
Correct for Electrical Dark: No (USB2E3373)
Strobe/Lamp Enabled: No (USB2E3373)
Correct for Detector Non-linearity: No (USB2E3373)
Correct for Stray Light: No (USB2E3373)
Number of Pixels in Processed Spectrum: 2048
>>>>>Begin Processed Spectral Data<<<<<
178.53	0.000
178.91	-241.667
179.29	-800.000
179.67	-3100.000
180.04	-73.333
180.42	775.000
180.80	1450.000
181.18	0.000
181.56	-437.500
181.94	0.000
182.31	933.333
182.69	-3700.000
183.07	500.000
183.45	-3400.000
183.83	-1800.000
184.20	410.000
184.58	557.143
184.96	-161.538
185.34	-200.000
185.72	1400.000
186.09	-950.000
186.47	-3700.000
186.85	966.667
187.23	660.000
187.61	1600.000
187.98	487.500
188.36	257.143
188.74	333.333
189.12	325.000
189.49	875.000
189.87	0.000
190.25	475.000
190.63	2100.000
191.00	-191.667
191.38	-3500.000
191.76	-800.000
192.14	525.000
192.51	-2800.000
192.89	1700.000
193.27	1066.667
193.65	-900.000
194.02	-680.000
194.40	500.000
194.78	-221.429
195.15	180.000
195.53	-3500.000
195.91	-600.000
196.29	3800.000
196.66	275.000
197.04	600.000
197.42	-1550.000
197.79	525.000
198.17	341.667
198.55	0.000
198.92	457.143
199.30	1333.333
199.68	1850.000
200.05	566.667
200.43	-450.000
200.81	161.111
201.18	2800.000
201.56	275.000
201.94	-625.000
202.31	-337.500
202.69	-420.000
203.07	3600.000
203.44	-466.667
203.82	358.333
204.19	700.000
204.57	-1300.000
204.95	-650.000
205.32	-760.000
205.70	583.333
206.08	925.000
206.45	-733.333
206.83	422.222
207.20	210.526
207.58	325.000
207.96	860.000
208.33	0.000
208.71	542.857
209.08	860.000
209.46	-2800.000
209.84	-825.000
210.21	780.000
210.59	-320.000
210.96	366.667
211.34	-850.000
211.71	345.455
212.09	825.000
212.46	1400.000
212.84	-516.667
213.22	377.778
213.59	-2000.000
213.97	340.000
214.34	1225.000
214.72	1133.333
215.09	1000.000
215.47	-2800.000
215.84	-400.000
216.22	-387.500
216.59	0.000
216.97	0.000
217.34	1250.000
217.72	-1900.000
218.09	1466.667
218.47	462.500
218.84	675.000
219.22	1000.000
219.59	766.667
219.97	442.857
220.34	400.000
220.72	1650.000
221.09	3600.000
221.47	250.000
221.84	1200.000
222.22	290.000
222.59	233.333
222.97	207.143
223.34	237.500
223.72	-1300.000
224.09	1133.333
224.46	261.538
224.84	-675.000
225.21	444.444
225.59	306.667
225.96	1466.667
226.34	-740.000
226.71	-875.000
227.08	-580.000
227.46	0.000
227.83	-583.333
228.21	-1550.000
228.58	366.667
228.95	900.000
229.33	400.000
229.70	850.000
230.08	330.769
230.45	2900.000
230.82	-875.000
231.20	-900.000
231.57	-1066.667
231.95	720.000
232.32	300.000
232.69	566.667
233.07	266.667
233.44	-1900.000
233.81	266.667
234.19	162.963
234.56	212.500
234.93	223.529
235.31	200.000
235.68	275.000
236.05	160.714
236.43	144.444
236.80	221.429
237.17	179.310
237.55	159.375
237.92	132.500
238.29	145.455
238.67	171.875
239.04	146.341
239.41	114.583
239.79	130.000
240.16	106.250
240.53	77.049
240.91	81.159
241.28	89.831
241.65	87.879
242.02	90.141
242.40	92.857
242.77	74.725
243.14	79.747
243.51	93.939
243.89	86.916
244.26	67.290
244.63	83.168
245.00	76.147
245.38	61.864
245.75	59.091
246.12	67.407
246.49	68.085
246.87	59.836
247.24	63.333
247.61	67.500
247.98	68.707
248.36	62.424
248.73	57.143
249.10	63.095
249.47	55.000
249.84	63.682
250.22	62.703
250.59	62.000
250.96	52.743
251.33	59.070
251.70	52.679
252.08	51.681
252.45	48.207
252.82	51.711
253.19	52.964
253.56	47.692
253.94	52.536
254.31	51.550
254.68	51.220
255.05	54.138
255.42	54.015
255.79	50.163
256.16	55.932
256.54	52.273
256.91	50.654
257.28	52.174
257.65	48.903
258.02	48.378
258.39	52.722
258.76	48.406
259.14	48.571
259.51	50.437
259.88	52.584
260.25	48.352
260.62	50.959
260.99	47.383
261.36	48.747
261.73	48.936
262.10	48.429
262.47	49.500
262.85	48.000
263.22	45.501
263.59	45.780
263.96	49.624
264.33	45.185
264.70	50.123
265.07	48.049
265.44	49.083
265.81	46.462
266.18	48.284
266.55	48.700
266.92	46.980
267.29	47.149
267.66	47.534
268.03	45.067
268.40	47.569
268.77	50.881
269.14	45.336
269.51	47.216
269.88	45.510
270.25	46.220
270.62	47.854
270.99	46.450
271.36	46.138
271.73	45.702
272.10	45.051
272.47	44.444
272.84	42.315
273.21	45.455
273.58	44.332
273.95	44.559
274.32	42.996
274.69	47.244
275.06	45.537
275.43	43.487
275.80	44.906
276.17	45.037
276.54	46.168
276.91	46.455
277.28	44.891
277.65	44.649
278.02	42.463
278.39	43.705
278.76	42.931
279.13	43.594
279.50	44.727
279.87	43.762
280.23	43.094
280.60	44.343
280.97	44.138
281.34	43.564
281.71	43.304
282.08	45.641
282.45	42.905
282.82	44.816
283.19	42.925
283.56	41.157
283.92	42.997
284.29	42.429
284.66	42.689
285.03	43.284
285.40	40.000
285.77	40.895
286.14	41.796
286.51	40.031
286.87	40.190
287.24	35.736
287.61	40.729
287.98	40.149
288.35	38.815
288.72	39.454
289.08	38.889
289.45	40.854
289.82	39.531
290.19	38.214
290.56	40.611
290.93	37.842
291.29	37.845
291.66	35.876
292.03	38.710
292.40	37.127
292.77	36.908
293.13	36.805
293.50	36.032
293.87	33.469
294.24	36.923
294.60	37.550
294.97	35.105
295.34	35.857
295.71	35.611
296.08	36.533
296.44	36.595
296.81	33.623
297.18	32.319
297.55	34.360
297.91	31.773
298.28	33.213
298.65	32.147
299.02	33.052
299.38	32.854
299.75	33.171
300.12	31.651
300.48	33.489
300.85	33.254
301.22	30.930
301.59	31.250
301.95	29.638
302.32	31.315
302.69	31.787
303.05	31.538
303.42	30.942
303.79	30.444
304.15	32.013
304.52	29.704
304.89	29.638
305.25	31.479
305.62	30.810
305.99	29.674
306.35	30.737
306.72	29.657
307.09	30.435
307.45	29.356
307.82	29.835
308.19	30.412
308.55	28.600
308.92	30.029
309.29	31.755
309.65	29.237
310.02	29.108
310.38	29.013
310.75	28.447
311.12	29.215
311.48	29.344
311.85	30.057
312.22	29.608
312.58	28.474
312.95	30.194
313.31	29.307
313.68	28.049
314.05	29.304
314.41	29.888
314.78	29.735
315.14	28.626
315.51	28.950
315.87	29.745
316.24	29.599
316.61	29.275
316.97	28.165
317.34	29.021
317.70	28.095
318.07	29.893
318.43	29.086
318.80	28.459
319.16	28.934
319.53	29.115
319.89	27.778
320.26	30.912
320.62	29.396
320.99	28.027
321.35	29.685
321.72	29.602
322.08	27.701
322.45	28.792
322.81	27.905
323.18	28.686
323.54	28.920
323.91	29.284
324.27	27.940
324.64	28.460
325.00	28.190
325.37	28.752
325.73	29.005
326.10	28.500
326.46	28.406
326.83	28.240
327.19	28.032
327.56	27.077
327.92	27.213
328.29	29.133
328.65	29.024
329.01	29.512
329.38	28.680
329.74	26.900
330.11	27.454
330.47	29.156
330.84	26.402
331.20	28.426
331.56	28.584
331.93	28.571
332.29	26.531
332.66	27.976
333.02	27.577
333.38	27.400
333.75	28.691
334.11	27.768
334.48	28.547
334.84	27.703
335.20	27.203
335.57	27.372
335.93	27.418
336.29	26.451
336.66	28.388
337.02	27.973
337.38	26.827
337.75	26.182
338.11	27.764
338.47	27.180
338.84	27.265
339.20	26.667
339.56	28.175
339.93	27.007
340.29	26.387
340.65	26.488
341.02	27.514
341.38	27.011
341.74	25.831
342.11	26.544
342.47	25.677
342.83	27.153
343.20	26.112
343.56	24.623
343.92	26.342
344.28	27.113
344.65	26.813
345.01	26.349
345.37	25.962
345.73	26.429
346.10	26.693
346.46	26.475
346.82	24.691
347.19	27.048
347.55	25.137
347.91	25.604
348.27	25.407
348.63	26.424
349.00	26.580
349.36	26.226
349.72	26.529
350.08	25.621
350.45	25.819
350.81	26.376
351.17	24.653
351.53	24.942
351.89	25.874
352.26	25.775
352.62	25.716
352.98	26.610
353.34	26.425
353.70	25.535
354.07	25.692
354.43	24.654
354.79	25.057
355.15	26.187
355.51	25.151
355.87	26.355
356.24	25.404
356.60	23.896
356.96	24.412
357.32	25.245
357.68	24.670
358.04	25.228
358.40	26.312
358.77	24.793
359.13	26.201
359.49	25.130
359.85	24.497
360.21	25.483
360.57	24.234
360.93	24.387
361.29	24.098
361.66	25.130
362.02	24.077
362.38	25.180
362.74	25.548
363.10	25.316
363.46	24.724
363.82	24.474
364.18	23.257
364.54	24.750
364.90	25.368
365.26	24.705
365.62	23.688
365.98	25.052
366.35	24.069
366.71	24.983
367.07	24.505
367.43	24.782
367.79	23.737
368.15	24.695
368.51	24.673
368.87	23.573
369.23	25.087
369.59	24.208
369.95	25.035
370.31	23.614
370.67	23.595
371.03	23.880
371.39	23.961
371.75	24.983
372.11	24.405
372.47	24.863
372.83	25.289
373.19	25.360
373.55	23.299
373.91	23.826
374.27	24.140
374.63	24.271
374.99	24.124
375.35	25.067
375.71	24.406
376.07	24.801
376.42	23.338
376.78	25.562
377.14	24.115
377.50	23.783
377.86	24.087
378.22	24.314
378.58	24.818
378.94	23.899
379.30	23.833
379.66	23.540
380.02	24.809
380.38	23.829
380.74	25.029
381.09	23.949
381.45	24.162
381.81	23.759
382.17	24.542
382.53	24.475
382.89	24.483
383.25	23.919
383.61	23.631
383.97	23.935
384.32	24.292
384.68	24.658
385.04	24.033
385.40	24.970
385.76	23.523
386.12	24.242
386.48	24.559
386.83	24.939
387.19	24.912
387.55	23.852
387.91	24.307
388.27	24.271
388.62	24.413
388.98	23.440
389.34	24.093
389.70	24.233
390.06	24.146
390.42	23.812
390.77	24.263
391.13	24.080
391.49	24.319
391.85	24.369
392.20	24.434
392.56	24.313
392.92	23.582
393.28	24.215
393.64	24.713
393.99	23.829
394.35	24.426
394.71	24.608
395.07	24.757
395.42	23.946
395.78	24.985
396.14	24.458
396.50	24.428
396.85	24.085
397.21	23.586
397.57	24.029
397.92	23.512
398.28	23.938
398.64	23.967
399.00	22.715
399.35	23.403
399.71	24.227
400.07	23.916
400.42	24.060
400.78	23.460
401.14	24.193
401.49	23.157
401.85	25.029
402.21	23.140
402.57	25.135
402.92	23.636
403.28	23.508
403.63	23.367
403.99	23.945
404.35	23.916
404.70	24.276
405.06	23.358
405.42	24.177
405.77	23.484
406.13	23.915
406.49	22.626
406.84	23.463
407.20	23.288
407.55	24.677
407.91	24.633
408.27	23.347
408.62	23.714
408.98	23.596
409.34	23.320
409.69	23.273
410.05	23.912
410.40	23.793
410.76	23.125
411.11	23.341
411.47	24.012
411.83	23.433
412.18	23.309
412.54	23.243
412.89	23.835
413.25	24.173
413.60	23.189
413.96	23.040
414.31	23.200
414.67	23.774
415.03	23.563
415.38	23.344
415.74	24.068
416.09	23.485
416.45	23.723
416.80	24.054
417.16	23.997
417.51	23.312
417.87	23.842
418.22	23.694
418.58	23.631
418.93	23.617
419.29	23.229
419.64	23.985
420.00	23.926
420.35	23.868
420.71	22.929
421.06	22.955
421.42	23.316
421.77	23.098
422.12	23.043
422.48	23.369
422.83	24.051
423.19	22.732
423.54	23.478
423.90	24.122
424.25	23.830
424.61	23.854
424.96	22.360
425.31	23.207
425.67	23.345
426.02	24.061
426.38	24.037
426.73	23.366
427.09	24.021
427.44	23.129
427.79	22.699
428.15	24.219
428.50	24.114
428.85	23.810
429.21	23.825
429.56	22.981
429.92	22.974
430.27	23.174
430.62	23.446
430.98	23.503
431.33	22.228
431.68	22.321
432.04	23.073
432.39	23.106
432.74	24.239
433.10	22.702
433.45	22.803
433.80	23.607
434.16	23.121
434.51	23.375
434.86	23.517
435.22	22.961
435.57	24.126
435.92	24.360
436.28	24.251
436.63	23.771
436.98	25.056
437.34	24.087
437.69	22.844
438.04	23.602
438.39	23.818
438.75	24.555
439.10	23.745
439.45	22.781
439.81	22.961
440.16	24.051
440.51	23.930
440.86	24.729
441.22	24.242
441.57	23.360
441.92	23.791
442.27	23.608
442.63	23.628
442.98	23.330
443.33	23.674
443.68	23.089
444.03	23.233
444.39	24.294
444.74	22.878
445.09	23.486
445.44	23.698
445.79	23.782
446.15	23.684
446.50	23.207
446.85	22.958
447.20	22.985
447.55	23.763
447.91	24.347
448.26	23.003
448.61	23.936
448.96	24.564
449.31	24.037
449.66	24.585
450.02	23.555
450.37	24.320
450.72	24.242
451.07	24.607
451.42	23.948
451.77	24.399
452.12	25.128
452.47	24.484
452.83	23.775
453.18	24.805
453.53	24.512
453.88	24.571
454.23	24.056
454.58	23.893
454.93	23.360
455.28	24.786
455.63	23.759
455.98	24.196
456.34	24.681
456.69	23.963
457.04	23.866
457.39	24.171
457.74	24.831
458.09	24.031
458.44	24.535
458.79	24.085
459.14	23.241
459.49	23.669
459.84	24.620
460.19	23.503
460.54	23.875
460.89	24.414
461.24	23.769
461.59	23.923
461.94	24.468
462.29	24.314
462.64	25.565
462.99	24.824
463.34	25.016
463.69	25.166
464.04	24.467
464.39	23.984
464.74	22.919
465.09	25.305
465.44	24.701
465.79	24.007
466.14	22.999
466.49	24.579
466.84	24.136
467.19	24.780
467.54	24.144
467.89	24.354
468.24	24.320
468.59	24.107
468.94	24.336
469.29	24.924
469.64	24.566
469.99	24.229
470.34	24.541
470.68	24.207
471.03	24.416
471.38	24.503
471.73	24.951
472.08	25.571
472.43	24.767
472.78	25.800
473.13	23.592
473.48	23.778
473.83	24.558
474.17	23.647
474.52	24.585
474.87	23.366
475.22	24.443
475.57	23.767
475.92	24.119
476.27	24.538
476.61	23.324
476.96	23.459
477.31	23.702
477.66	24.852
478.01	24.600
478.36	23.893
478.70	24.069
479.05	23.274
479.40	24.752
479.75	24.379
480.10	24.879
480.45	24.463
480.79	24.009
481.14	24.251
481.49	23.879
481.84	24.406
482.19	24.105
482.53	23.671
482.88	23.611
483.23	23.996
483.58	24.013
483.92	25.046
484.27	24.229
484.62	23.896
484.97	23.451
485.31	23.195
485.66	22.667
486.01	22.266
486.36	21.920
486.70	22.292
487.05	22.802
487.40	22.792
487.75	23.185
488.09	23.381
488.44	23.454
488.79	23.152
489.13	24.001
489.48	23.412
489.83	23.186
490.17	23.782
490.52	23.988
490.87	23.664
491.22	24.113
491.56	24.682
491.91	24.149
492.26	24.053
492.60	24.465
492.95	24.422
493.30	24.431
493.64	23.989
493.99	23.792
494.34	23.980
494.68	24.081
495.03	24.113
495.37	24.268
495.72	24.149
496.07	23.810
496.41	24.153
496.76	23.892
497.11	23.865
497.45	24.156
497.80	24.282
498.14	24.411
498.49	24.048
498.84	24.252
499.18	23.675
499.53	24.621
499.87	23.630
500.22	24.090
500.56	23.863
500.91	24.954
501.26	24.667
501.60	23.953
501.95	24.104
502.29	24.311
502.64	23.379
502.98	23.699
503.33	23.341
503.67	24.062
504.02	23.690
504.36	24.072
504.71	24.267
505.06	24.167
505.40	23.959
505.75	23.807
506.09	24.778
506.44	24.765
506.78	24.480
507.13	24.430
507.47	24.115
507.82	24.720
508.16	24.596
508.51	24.300
508.85	23.884
509.19	24.816
509.54	24.170
509.88	26.057
510.23	24.657
510.57	23.986
510.92	23.726
511.26	24.498
511.61	24.569
511.95	24.639
512.30	25.350
512.64	24.714
512.98	24.193
513.33	24.232
513.67	24.702
514.02	24.468
514.36	24.663
514.70	24.800
515.05	23.388
515.39	24.452
515.74	25.205
516.08	24.946
516.42	25.574
516.77	24.853
517.11	24.427
517.46	24.838
517.80	24.959
518.14	25.521
518.49	23.925
518.83	23.901
519.17	25.513
519.52	25.014
519.86	25.722
520.20	25.479
520.55	25.382
520.89	25.287
521.23	25.701
521.58	24.670
521.92	25.481
522.26	24.763
522.61	25.787
522.95	25.526
523.29	25.029
523.64	24.566
523.98	25.763
524.32	25.087
524.66	24.928
525.01	24.793
525.35	24.750
525.69	25.406
526.04	25.342
526.38	25.486
526.72	24.940
527.06	24.837
527.41	25.877
527.75	25.502
528.09	25.467
528.43	25.869
528.78	25.224
529.12	25.527
529.46	24.605
529.80	25.409
530.15	25.516
530.49	24.308
530.83	25.046
531.17	24.908
531.51	25.445
531.86	24.940
532.20	24.969
532.54	24.733
532.88	24.797
533.22	25.533
533.57	25.320
533.91	24.767
534.25	24.986
534.59	25.497
534.93	24.744
535.27	23.335
535.62	24.154
535.96	25.177
536.30	26.813
536.64	25.031
536.98	24.229
537.32	25.375
537.66	24.809
538.01	24.830
538.35	25.889
538.69	25.364
539.03	23.943
539.37	24.029
539.71	25.494
540.05	24.923
540.39	25.157
540.73	25.000
541.07	24.718
541.42	25.373
541.76	24.908
542.10	24.538
542.44	25.187
542.78	25.488
543.12	23.558
543.46	24.123
543.80	25.752
544.14	25.449
544.48	25.243
544.82	25.872
545.16	24.954
545.50	25.200
545.84	25.442
546.18	26.658
546.52	25.115
546.86	26.048
547.20	25.517
547.54	25.269
547.88	24.088
548.22	25.562
548.56	24.573
548.90	24.970
549.24	25.332
549.58	25.064
549.92	25.671
550.26	26.099
550.60	25.216
550.94	26.187
551.28	26.138
551.62	25.724
551.96	25.405
552.30	24.192
552.64	25.890
552.98	25.064
553.32	25.160
553.66	24.169
554.00	25.933
554.34	26.165
554.68	25.470
555.02	25.390
555.36	24.601
555.69	26.178
556.03	25.541
556.37	25.558
556.71	25.945
557.05	24.967
557.39	24.533
557.73	25.606
558.07	24.816
558.41	24.812
558.75	25.718
559.08	26.876
559.42	25.698
559.76	26.657
560.10	25.189
560.44	24.818
560.78	25.831
561.12	25.366
561.45	24.343
561.79	24.906
562.13	24.889
562.47	24.205
562.81	25.374
563.15	25.598
563.48	23.913
563.82	25.328
564.16	24.627
564.50	24.714
564.84	24.438
565.17	24.599
565.51	25.862
565.85	24.800
566.19	25.060
566.52	24.609
566.86	25.511
567.20	25.056
567.54	24.400
567.88	24.152
568.21	23.914
568.55	24.660
568.89	24.544
569.23	24.159
569.56	23.882
569.90	23.356
570.24	22.283
570.57	23.589
570.91	23.307
571.25	22.746
571.59	22.504
571.92	22.713
572.26	22.426
572.60	23.132
572.93	23.260
573.27	22.947
573.61	22.631
573.95	22.510
574.28	23.025
574.62	22.986
574.96	22.265
575.29	22.119
575.63	22.191
575.97	22.103
576.30	22.096
576.64	22.306
576.98	22.243
577.31	22.396
577.65	22.428
577.98	22.205
578.32	21.757
578.66	21.928
578.99	22.299
579.33	22.260
579.67	22.640
580.00	22.036
580.34	22.128
580.67	21.678
581.01	22.625
581.35	22.262
581.68	21.519
582.02	21.691
582.35	22.285
582.69	22.114
583.02	22.046
583.36	22.316
583.70	22.504
584.03	23.117
584.37	22.817
584.70	22.269
585.04	22.056
585.37	22.768
585.71	22.607
586.04	22.247
586.38	22.169
586.72	22.574
587.05	22.697
587.39	22.554
587.72	22.835
588.06	22.920
588.39	22.569
588.73	22.446
589.06	22.877
589.40	23.349
589.73	22.812
590.07	23.336
590.40	23.066
590.73	24.275
591.07	23.833
591.40	23.034
591.74	23.295
592.07	22.879
592.41	23.221
592.74	22.885
593.08	22.656
593.41	22.262
593.75	22.079
594.08	22.636
594.41	22.939
594.75	22.397
595.08	22.942
595.42	22.844
595.75	22.902
596.09	23.219
596.42	23.052
596.75	23.678
597.09	22.988
597.42	23.469
597.75	22.921
598.09	23.061
598.42	22.807
598.76	23.015
599.09	22.619
599.42	22.249
599.76	22.931
600.09	22.610
600.42	22.617
600.76	22.774
601.09	22.437
601.42	22.774
601.76	22.735
602.09	23.216
602.42	22.551
602.76	22.657
603.09	23.265
603.42	23.339
603.76	22.777
604.09	22.150
604.42	23.051
604.76	23.074
605.09	22.939
605.42	23.893
605.75	23.056
606.09	23.221
606.42	22.661
606.75	22.620
607.09	22.542
607.42	23.343
607.75	23.049
608.08	22.868
608.42	23.322
608.75	22.550
609.08	22.481
609.41	23.636
609.75	23.489
610.08	23.336
610.41	22.749
610.74	23.247
611.07	23.238
611.41	23.401
611.74	22.945
612.07	23.314
612.40	23.099
612.73	24.264
613.07	23.264
613.40	22.907
613.73	23.165
614.06	22.750
614.39	23.182
614.72	23.204
615.06	22.404
615.39	23.119
615.72	22.991
616.05	23.104
616.38	22.831
616.71	23.114
617.05	23.943
617.38	22.865
617.71	23.622
618.04	23.780
618.37	23.402
618.70	22.806
619.03	23.871
619.36	23.807
619.69	23.615
620.03	24.136
620.36	24.021
620.69	24.713
621.02	23.438
621.35	24.427
621.68	24.263
622.01	25.166
622.34	23.452
622.67	23.736
623.00	23.826
623.33	23.617
623.66	23.886
623.99	23.630
624.32	24.119
624.65	24.029
624.99	23.665
625.32	24.783
625.65	22.828
625.98	23.501
626.31	25.593
626.64	24.677
626.97	23.642
627.30	25.466
627.63	25.667
627.96	23.396
628.29	25.000
628.62	24.294
628.95	24.734
629.28	25.241
629.61	24.605
629.94	25.497
630.26	23.830
630.59	26.152
630.92	25.291
631.25	23.935
631.58	26.615
631.91	25.404
632.24	24.295
632.57	25.049
632.90	25.052
633.23	25.498
633.56	24.868
633.89	24.544
634.22	25.619
634.55	25.054
634.88	26.177
635.20	27.018
635.53	26.481
635.86	26.063
636.19	25.140
636.52	24.432
636.85	25.027
637.18	26.869
637.51	24.693
637.83	25.400
638.16	27.081
638.49	26.946
638.82	25.704
639.15	24.677
639.48	27.251
639.81	25.397
640.13	25.399
640.46	26.296
640.79	26.138
641.12	24.409
641.45	26.261
641.77	26.024
642.10	25.837
642.43	26.458
642.76	25.710
643.09	26.513
643.41	25.386
643.74	26.619
644.07	27.876
644.40	27.811
644.73	27.778
645.05	28.975
645.38	25.268
645.71	28.832
646.04	27.786
646.36	27.700
646.69	27.680
647.02	28.320
647.35	25.354
647.67	25.608
648.00	26.547
648.33	27.068
648.66	28.030
648.98	26.377
649.31	26.316
649.64	25.173
649.96	24.609
650.29	27.143
650.62	27.099
650.94	28.464
651.27	29.187
651.60	27.387
651.92	28.111
652.25	27.402
652.58	26.950
652.90	25.898
653.23	24.520
653.56	27.596
653.88	26.138
654.21	26.540
654.54	27.526
654.86	25.516
655.19	26.913
655.52	22.743
655.84	18.881
656.17	22.269
656.49	32.128
656.82	36.629
657.15	29.253
657.47	21.980
657.80	16.474
658.13	13.080
658.45	17.864
658.78	21.457
659.10	21.727
659.43	22.121
659.75	23.926
660.08	23.371
660.41	24.955
660.73	27.227
661.06	26.727
661.38	26.917
661.71	28.597
662.03	28.517
662.36	28.762
662.68	27.374
663.01	28.829
663.33	28.302
663.66	29.191
663.98	28.175
664.31	28.545
664.63	28.352
664.96	29.081
665.28	27.684
665.61	26.981
665.93	30.000
666.26	29.533
666.58	31.743
666.91	30.309
667.23	26.506
667.56	27.926
667.88	29.046
668.21	29.508
668.53	28.024
668.86	29.058
669.18	26.273
669.50	25.207
669.83	31.211
670.15	28.067
670.48	27.539
670.80	30.876
671.13	28.287
671.45	32.064
671.77	28.200
672.10	26.930
672.42	26.316
672.75	25.475
673.07	27.186
673.39	25.080
673.72	25.433
674.04	27.240
674.37	28.675
674.69	26.208
675.01	26.493
675.34	26.357
675.66	31.836
675.98	28.797
676.31	28.200
676.63	26.839
676.95	29.167
677.28	26.572
677.60	27.163
677.92	26.190
678.25	27.326
678.57	28.305
678.89	29.295
679.22	28.125
679.54	27.224
679.86	27.051
680.18	26.011
680.51	26.534
680.83	26.689
681.15	26.170
681.48	26.042
681.80	29.597
682.12	29.585
682.44	26.486
682.77	28.292
683.09	26.796
683.41	28.980
683.73	26.181
684.06	27.579
684.38	26.163
684.70	26.439
685.02	26.215
685.34	26.408
685.67	25.563
685.99	26.108
686.31	24.653
686.63	26.179
686.96	25.654
687.28	25.168
687.60	26.792
687.92	24.623
688.24	29.483
688.56	25.089
688.89	25.813
689.21	25.241
689.53	28.656
689.85	25.813
690.17	24.466
690.49	26.613
690.82	25.630
691.14	24.848
691.46	29.363
691.78	26.511
692.10	28.053
692.42	27.768
692.74	27.326
693.06	25.194
693.39	27.668
693.71	25.147
694.03	28.994
694.35	29.719
694.67	27.495
694.99	27.273
695.31	29.054
695.63	26.471
695.95	27.149
696.27	28.540
696.59	26.492
696.91	28.608
697.23	27.149
697.56	26.141
697.88	26.148
698.20	27.736
698.52	27.432
698.84	26.283
699.16	29.424
699.48	25.847
699.80	30.719
700.12	29.330
700.44	30.140
700.76	30.310
701.08	29.504
701.40	26.753
701.72	33.957
702.04	26.016
702.36	32.796
702.68	30.585
703.00	25.063
703.32	28.784
703.64	32.242
703.96	31.250
704.28	28.836
704.60	30.141
704.91	31.933
705.23	32.102
705.55	31.751
705.87	30.476
706.19	30.094
706.51	33.229
706.83	32.153
707.15	30.481
707.47	29.540
707.79	28.736
708.11	29.478
708.43	28.989
708.74	25.339
709.06	27.442
709.38	29.280
709.70	26.975
710.02	29.348
710.34	29.282
710.66	31.111
710.98	28.415
711.29	29.805
711.61	28.691
711.93	30.395
712.25	28.916
712.57	27.974
712.89	28.485
713.20	29.393
713.52	31.153
713.84	32.024
714.16	27.536
714.48	28.242
714.80	29.810
715.11	27.926
715.43	28.212
715.75	29.859
716.07	28.613
716.39	28.857
716.70	28.037
717.02	31.313
717.34	29.856
717.66	35.069
717.97	34.470
718.29	30.634
718.61	29.054
718.93	34.256
719.24	29.195
719.56	26.207
719.88	24.841
720.20	33.548
720.51	30.392
720.83	29.431
721.15	36.735
721.46	32.877
721.78	33.101
722.10	32.986
722.42	33.445
722.73	30.686
723.05	31.930
723.37	33.216
723.68	26.172
724.00	32.955
724.32	36.882
724.63	33.846
724.95	33.725
725.27	35.688
725.58	35.294
725.90	30.282
726.22	27.055
726.53	29.766
726.85	34.202
727.16	36.242
727.48	31.561
727.80	33.094
728.11	30.714
728.43	32.609
728.74	32.168
729.06	26.523
729.38	31.579
729.69	33.000
730.01	29.605
730.32	30.201
730.64	33.887
730.96	31.532
731.27	25.382
731.59	27.874
731.90	28.969
732.22	30.571
732.53	29.060
732.85	29.825
733.16	28.614
733.48	28.213
733.80	31.594
734.11	31.288
734.43	27.193
734.74	30.563
735.06	31.217
735.37	26.289
735.69	29.855
736.00	29.969
736.32	29.394
736.63	28.076
736.95	27.950
737.26	27.134
737.58	27.914
737.89	28.313
738.21	31.457
738.52	32.776
738.83	32.967
739.15	32.404
739.46	28.276
739.78	35.034
740.09	34.985
740.41	30.675
740.72	31.111
741.04	36.014
741.35	32.812
741.66	30.435
741.98	32.618
742.29	33.333
742.61	32.743
742.92	31.780
743.23	35.200
743.55	32.075
743.86	24.314
744.18	31.780
744.49	34.298
744.80	34.562
745.12	30.357
745.43	36.449
745.74	36.000
746.06	33.333
746.37	38.605
746.68	38.496
747.00	32.287
747.31	29.832
747.62	32.787
747.94	35.622
748.25	27.237
748.56	35.169
748.88	33.929
749.19	31.163
749.50	32.877
749.82	34.979
750.13	33.597
750.44	31.333
750.75	36.577
751.07	31.579
751.38	30.363
751.69	31.313
752.01	34.965
752.32	31.894
752.63	29.195
752.94	31.469
753.26	32.812
753.57	36.576
753.88	32.210
754.19	34.296
754.51	32.226
754.82	31.208
755.13	32.770
755.44	34.815
755.75	31.271
756.07	30.822
756.38	30.065
756.69	28.438
757.00	32.938
757.31	29.577
757.63	30.579
757.94	26.596
758.25	28.261
758.56	29.977
758.87	30.827
759.18	28.488
759.50	28.875
759.81	30.861
760.12	27.809
760.43	29.132
760.74	28.354
761.05	28.382
761.36	23.958
761.67	29.380
761.99	32.676
762.30	33.762
762.61	29.514
762.92	31.818
763.23	33.585
763.54	29.231
763.85	32.296
764.16	32.292
764.47	35.473
764.78	30.945
765.10	28.049
765.41	28.125
765.72	30.387
766.03	25.076
766.34	32.056
766.65	34.981
766.96	29.555
767.27	37.383
767.58	37.129
767.89	37.017
768.20	42.073
768.51	29.592
768.82	36.404
769.13	34.118
769.44	32.707
769.75	31.086
770.06	33.613
770.37	29.825
770.68	28.889
770.99	36.017
771.30	36.402
771.61	35.385
771.92	32.443
772.23	32.661
772.54	40.444
772.85	37.129
773.16	40.217
773.47	40.556
773.78	39.604
774.09	37.500
774.39	33.939
774.70	40.588
775.01	34.211
775.32	40.994
775.63	45.890
775.94	43.210
776.25	37.931
776.56	41.221
776.87	38.931
777.18	46.212
777.48	44.882
777.79	50.769
778.10	42.424
778.41	47.015
778.72	42.105
779.03	38.462
779.34	38.514
779.65	54.037
779.95	37.267
780.26	37.500
780.57	46.259
780.88	45.390
781.19	52.500
781.50	40.828
781.80	37.705
782.11	35.450
782.42	33.908
782.73	40.678
783.04	41.935
783.34	37.984
783.65	42.177
783.96	47.097
784.27	36.424
784.57	32.237
784.88	42.029
785.19	42.500
785.50	50.000
785.81	55.814
786.11	42.222
786.42	45.669
786.73	46.847
787.04	45.283
787.34	39.837
787.65	43.939
787.96	42.424
788.26	53.543
788.57	48.905
788.88	42.254
789.19	41.221
789.49	43.243
789.80	43.750
790.11	44.628
790.41	52.778
790.72	45.370
791.03	55.769
791.33	59.596
791.64	57.895
791.95	51.579
792.25	53.125
792.56	47.000
792.87	58.537
793.17	48.864
793.48	49.412
793.79	51.724
794.09	57.955
794.40	56.897
794.70	37.302
795.01	38.462
795.32	41.221
795.62	48.718
795.93	50.420
796.23	49.593
796.54	54.082
796.85	45.455
797.15	74.026
797.46	75.610
797.76	45.000
798.07	77.333
798.37	63.750
798.68	70.000
798.99	62.195
799.29	57.333
799.60	52.326
799.90	72.368
800.21	65.152
800.51	60.563
800.82	86.207
801.12	72.308
801.43	74.667
801.73	60.345
802.04	61.039
802.34	61.644
802.65	72.549
802.95	82.609
803.26	74.194
803.56	96.667
803.87	68.657
804.17	55.556
804.48	71.698
804.78	55.556
805.09	66.667
805.39	61.905
805.70	84.211
806.00	57.143
806.30	71.875
806.61	54.118
806.91	56.667
807.22	51.087
807.52	59.211
807.83	68.421
808.13	75.362
808.43	67.742
808.74	68.493
809.04	78.571
809.35	80.882
809.65	69.697
809.95	100.000
810.26	103.704
810.56	92.188
810.86	67.347
811.17	80.702
811.47	78.261
811.77	65.517
812.08	63.793
812.38	83.333
812.69	76.190
812.99	84.444
813.29	85.714
813.59	112.903
813.90	82.759
814.20	88.525
814.50	74.000
814.81	78.947
815.11	83.333
815.41	82.143
815.72	94.643
816.02	92.000
816.32	104.878
816.62	100.000
816.93	103.030
817.23	109.756
817.53	78.571
817.84	84.444
818.14	71.429
818.44	83.333
818.74	115.094
819.04	66.667
819.35	127.273
819.65	96.154
819.95	100.000
820.25	102.128
820.56	113.514
820.86	110.526
821.16	76.596
821.46	105.263
821.76	98.182
822.07	92.857
822.37	113.158
822.67	116.279
822.97	68.421
823.27	78.261
823.57	121.875
823.88	84.615
824.18	118.182
824.48	130.435
824.78	102.778
825.08	139.130
825.38	134.483
825.69	123.529
825.99	106.383
826.29	86.111
826.59	125.714
826.89	113.333
827.19	88.571
827.49	141.935
827.79	161.538
828.09	111.905
828.39	105.556
828.70	91.892
829.00	139.286
829.30	212.500
829.60	80.556
829.90	83.871
830.20	106.061
830.50	124.324
830.80	150.000
831.10	126.923
831.40	161.905
831.70	183.333
832.00	120.000
832.30	147.826
832.60	145.833
832.90	160.606
833.20	200.000
833.50	121.053
833.80	102.941
834.10	105.263
834.40	152.632
834.70	80.000
835.00	172.000
835.30	102.703
835.60	118.750
835.90	81.081
836.20	138.462
836.50	150.000
836.80	95.122
837.10	152.174
837.40	223.077
837.70	131.579
838.00	120.000
838.30	116.667
838.60	184.000
838.90	390.000
839.19	168.750
839.49	143.333
839.79	137.931
840.09	157.692
840.39	166.667
840.69	210.526
840.99	161.905
841.29	156.522
841.59	215.000
841.88	220.000
842.18	277.778
842.48	157.143
842.78	148.148
843.08	207.692
843.38	186.364
843.68	250.000
843.97	428.571
844.27	147.826
844.57	1250.000
844.87	250.000
845.17	200.000
845.47	123.810
845.76	179.167
846.06	528.571
846.36	123.529
846.66	161.538
846.96	268.750
847.25	246.154
847.55	189.474
847.85	155.556
848.15	300.000
848.44	327.273
848.74	176.190
849.04	183.333
849.34	200.000
849.63	256.250
849.93	293.750
850.23	966.667
850.53	375.000
850.82	263.636
851.12	194.118
851.42	191.667
851.71	193.750
852.01	0.000
852.31	164.706
852.61	390.000
852.90	187.500
853.20	288.889
853.50	-2200.000
853.79	112.000
854.09	143.750
854.39	151.724
854.68	165.517
854.98	190.476
855.28	151.613
855.57	250.000
855.87	172.222
856.17	151.852
856.46	200.000
856.76	112.903
857.05	252.941
857.35	272.727
857.65	269.231
857.94	170.000
858.24	388.889
858.53	214.286
858.83	585.714
859.13	165.217
859.42	311.111
859.72	337.500
860.01	275.000
860.31	825.000
860.60	330.000
860.90	475.000
861.20	223.077
861.49	500.000
861.79	-3100.000
862.08	557.143
862.38	344.444
862.67	278.571
862.97	290.000
863.26	140.000
863.56	925.000
863.85	300.000
864.15	223.529
864.44	216.667
864.74	258.333
865.03	245.455
865.33	437.500
865.62	280.000
865.92	666.667
866.21	925.000
866.51	680.000
866.80	261.111
867.10	1033.333
867.39	3800.000
867.69	520.000
867.98	750.000
868.27	138.095
868.57	240.000
868.86	1125.000
869.16	180.952
869.45	3300.000
869.75	-466.667
870.04	1100.000
870.33	680.000
870.63	450.000
870.92	182.353
871.22	675.000
871.51	428.571
871.80	383.333
872.10	315.385
>>>>>End Processed Spectral Data<<<<<
