SpectraSuite Data File
++++++++++++++++++++++++++++++++++++
Date: Tue May 12 17:19:05 PDT 2015
User: schluterlab
Dark Spectrum Present: Yes
Reference Spectrum Present: Yes
Number of Sampled Component Spectra: 1
Spectrometers: USB2E3373
Integration Time (usec): 3000 (USB2E3373)
Spectra Averaged: 3 (USB2E3373)
Boxcar Smoothing: 0 (USB2E3373)
Correct for Electrical Dark: No (USB2E3373)
Strobe/Lamp Enabled: No (USB2E3373)
Correct for Detector Non-linearity: No (USB2E3373)
Correct for Stray Light: No (USB2E3373)
Number of Pixels in Processed Spectrum: 2048
>>>>>Begin Processed Spectral Data<<<<<
178.53	0.000
178.91	-200.000
179.29	-900.000
179.67	-3400.000
180.04	-146.667
180.42	725.000
180.80	1850.000
181.18	0.000
181.56	-300.000
181.94	0.000
182.31	1200.000
182.69	-3000.000
183.07	671.429
183.45	-3900.000
183.83	-2000.000
184.20	290.000
184.58	471.429
184.96	-192.308
185.34	-208.333
185.72	1650.000
186.09	-900.000
186.47	-2600.000
186.85	1133.333
187.23	640.000
187.61	1500.000
187.98	437.500
188.36	242.857
188.74	391.667
189.12	408.333
189.49	1050.000
189.87	0.000
190.25	462.500
190.63	2900.000
191.00	-225.000
191.38	-4000.000
191.76	-725.000
192.14	575.000
192.51	-3100.000
192.89	1600.000
193.27	1333.333
193.65	-766.667
194.02	-740.000
194.40	557.143
194.78	-250.000
195.15	173.333
195.53	-3000.000
195.91	-500.000
196.29	4700.000
196.66	225.000
197.04	850.000
197.42	-1200.000
197.79	575.000
198.17	308.333
198.55	0.000
198.92	514.286
199.30	1133.333
199.68	1450.000
200.05	883.333
200.43	-533.333
200.81	155.556
201.18	3200.000
201.56	283.333
201.94	-675.000
202.31	-287.500
202.69	-440.000
203.07	3300.000
203.44	-616.667
203.82	366.667
204.19	760.000
204.57	-1600.000
204.95	-850.000
205.32	-600.000
205.70	616.667
206.08	600.000
206.45	-1066.667
206.83	366.667
207.20	226.316
207.58	250.000
207.96	900.000
208.33	0.000
208.71	557.143
209.08	860.000
209.46	-2800.000
209.84	-825.000
210.21	940.000
210.59	-480.000
210.96	358.333
211.34	-975.000
211.71	390.909
212.09	725.000
212.46	1850.000
212.84	-300.000
213.22	400.000
213.59	-2200.000
213.97	370.000
214.34	725.000
214.72	1000.000
215.09	733.333
215.47	-3400.000
215.84	-250.000
216.22	-500.000
216.59	0.000
216.97	0.000
217.34	1350.000
217.72	-1400.000
218.09	1200.000
218.47	475.000
218.84	700.000
219.22	1100.000
219.59	900.000
219.97	442.857
220.34	422.222
220.72	1250.000
221.09	3000.000
221.47	316.667
221.84	1200.000
222.22	320.000
222.59	272.222
222.97	200.000
223.34	275.000
223.72	-1700.000
224.09	1500.000
224.46	292.308
224.84	-775.000
225.21	344.444
225.59	226.667
225.96	1066.667
226.34	-800.000
226.71	-800.000
227.08	-720.000
227.46	0.000
227.83	-566.667
228.21	-2050.000
228.58	325.000
228.95	850.000
229.33	344.444
229.70	1250.000
230.08	330.769
230.45	4200.000
230.82	-800.000
231.20	-833.333
231.57	-1366.667
231.95	440.000
232.32	333.333
232.69	650.000
233.07	283.333
233.44	-1700.000
233.81	240.000
234.19	166.667
234.56	237.500
234.93	282.353
235.31	210.000
235.68	293.750
236.05	146.429
236.43	140.741
236.80	285.714
237.17	148.276
237.55	140.625
237.92	120.000
238.29	160.606
238.67	150.000
239.04	119.512
239.41	70.833
239.79	102.500
240.16	97.917
240.53	72.131
240.91	76.812
241.28	76.271
241.65	68.182
242.02	87.324
242.40	68.571
242.77	56.044
243.14	68.354
243.51	67.677
243.89	57.009
244.26	46.729
244.63	54.455
245.00	53.211
245.38	49.153
245.75	47.727
246.12	52.593
246.49	36.879
246.87	42.623
247.24	47.333
247.61	46.250
247.98	48.299
248.36	36.364
248.73	41.837
249.10	39.286
249.47	42.000
249.84	38.806
250.22	37.297
250.59	37.500
250.96	34.177
251.33	38.605
251.70	33.482
252.08	36.134
252.45	37.052
252.82	35.361
253.19	35.968
253.56	31.154
253.94	35.507
254.31	32.558
254.68	34.495
255.05	35.172
255.42	33.577
255.79	35.505
256.16	33.559
256.54	34.416
256.91	29.739
257.28	35.117
257.65	29.154
258.02	30.383
258.39	30.086
258.76	35.652
259.14	29.714
259.51	36.735
259.88	30.699
260.25	28.571
260.62	31.233
260.99	25.895
261.36	27.298
261.73	32.181
262.10	31.152
262.47	29.750
262.85	29.600
263.22	31.105
263.59	30.691
263.96	31.328
264.33	30.370
264.70	28.010
265.07	30.488
265.44	27.982
265.81	29.953
266.18	29.519
266.55	29.787
266.92	28.859
267.29	31.579
267.66	27.130
268.03	31.166
268.40	28.118
268.77	34.361
269.14	26.681
269.51	28.285
269.88	28.163
270.25	27.646
270.62	29.614
270.99	27.992
271.36	30.691
271.73	26.415
272.10	27.273
272.47	28.968
272.84	29.940
273.21	26.653
273.58	28.138
273.95	28.953
274.32	27.043
274.69	29.331
275.06	28.962
275.43	27.778
275.80	28.302
276.17	28.125
276.54	29.346
276.91	30.784
277.28	25.182
277.65	29.336
278.02	27.941
278.39	27.158
278.76	26.207
279.13	29.181
279.50	27.091
279.87	24.395
280.23	27.440
280.60	30.292
280.97	28.276
281.34	26.073
281.71	25.565
282.08	27.692
282.45	27.703
282.82	26.589
283.19	27.504
283.56	25.950
283.92	28.502
284.29	26.123
284.66	26.555
285.03	25.705
285.40	25.785
285.77	25.463
286.14	28.019
286.51	25.613
286.87	25.158
287.24	25.075
287.61	25.380
287.98	25.224
288.35	24.593
288.72	25.493
289.08	26.577
289.45	26.677
289.82	25.625
290.19	25.183
290.56	26.346
290.93	26.187
291.29	24.448
291.66	24.294
292.03	24.544
292.40	22.629
292.77	24.095
293.13	25.107
293.50	23.752
293.87	22.900
294.24	25.035
294.60	24.630
294.97	23.497
295.34	23.240
295.71	25.099
296.08	25.467
296.44	23.253
296.81	22.457
297.18	22.560
297.55	23.768
297.91	22.783
298.28	23.430
298.65	23.067
299.02	22.437
299.38	23.981
299.75	21.829
300.12	22.821
300.48	24.590
300.85	23.719
301.22	23.837
301.59	22.759
301.95	22.054
302.32	23.399
302.69	22.738
303.05	24.916
303.42	22.646
303.79	22.319
304.15	21.782
304.52	22.410
304.89	22.708
305.25	23.026
305.62	23.881
305.99	23.370
306.35	22.105
306.72	22.581
307.09	22.671
307.45	22.914
307.82	22.737
308.19	22.990
308.55	23.000
308.92	24.141
309.29	24.753
309.65	24.281
310.02	24.138
310.38	23.529
310.75	24.108
311.12	23.084
311.48	25.290
311.85	24.046
312.22	25.024
312.58	24.976
312.95	25.922
313.31	26.217
313.68	25.891
314.05	26.282
314.41	26.443
314.78	28.504
315.14	27.299
315.51	28.004
315.87	27.007
316.24	28.385
316.61	28.827
316.97	28.624
317.34	29.200
317.70	30.553
318.07	30.427
318.43	30.316
318.80	30.123
319.16	30.682
319.53	31.062
319.89	30.287
320.26	32.961
320.62	31.777
320.99	32.031
321.35	31.447
321.72	31.973
322.08	34.072
322.45	33.697
322.81	33.577
323.18	34.725
323.54	35.714
323.91	35.267
324.27	34.041
324.64	34.343
325.00	36.121
325.37	35.160
325.73	36.256
326.10	35.626
326.46	37.077
326.83	36.080
327.19	38.876
327.56	38.339
327.92	39.918
328.29	38.953
328.65	39.897
329.01	38.152
329.38	40.863
329.74	39.710
330.11	40.660
330.47	39.983
330.84	38.654
331.20	37.902
331.56	40.242
331.93	39.863
332.29	40.136
332.66	40.476
333.02	39.605
333.38	41.623
333.75	41.284
334.11	40.436
334.48	41.026
334.84	40.287
335.20	40.975
335.57	39.127
335.93	40.706
336.29	40.381
336.66	40.480
337.02	39.692
337.38	41.273
337.75	40.878
338.11	39.662
338.47	39.966
338.84	41.829
339.20	40.173
339.56	39.781
339.93	40.970
340.29	39.412
340.65	40.654
341.02	40.869
341.38	40.805
341.74	40.947
342.11	40.401
342.47	40.033
342.83	41.345
343.20	40.744
343.56	39.317
343.92	40.050
344.28	40.670
344.65	41.076
345.01	42.063
345.37	41.506
345.73	41.508
346.10	41.036
346.46	41.547
346.82	40.201
347.19	40.263
347.55	40.047
347.91	39.350
348.27	39.504
348.63	42.009
349.00	41.432
349.36	41.089
349.72	41.514
350.08	41.770
350.45	42.422
350.81	42.355
351.17	40.755
351.53	41.032
351.89	41.026
352.26	41.119
352.62	42.308
352.98	41.028
353.34	41.988
353.70	41.361
354.07	42.308
354.43	42.089
354.79	40.623
355.15	41.424
355.51	41.088
355.87	41.114
356.24	42.109
356.60	41.933
356.96	42.229
357.32	41.748
357.68	43.392
358.04	43.541
358.40	44.003
358.77	41.548
359.13	42.793
359.49	42.921
359.85	42.442
360.21	42.496
360.57	43.139
360.93	42.352
361.29	43.218
361.66	43.624
362.02	42.259
362.38	42.136
362.74	42.887
363.10	42.847
363.46	41.851
363.82	42.707
364.18	43.528
364.54	42.775
364.90	43.106
365.26	42.609
365.62	43.094
365.98	42.670
366.35	41.172
366.71	43.581
367.07	41.911
367.43	42.445
367.79	43.351
368.15	41.384
368.51	43.901
368.87	42.188
369.23	43.867
369.59	43.021
369.95	43.636
370.31	42.505
370.67	43.026
371.03	42.297
371.39	44.114
371.75	42.359
372.11	43.644
372.47	42.671
372.83	42.624
373.19	43.729
373.55	42.268
373.91	42.127
374.27	42.262
374.63	42.102
374.99	42.520
375.35	42.339
375.71	42.876
376.07	42.175
376.42	41.432
376.78	42.389
377.14	42.792
377.50	42.072
377.86	40.551
378.22	42.535
378.58	42.433
378.94	41.943
379.30	41.844
379.66	42.505
380.02	42.346
380.38	41.335
380.74	41.580
381.09	42.699
381.45	41.214
381.81	41.430
382.17	40.354
382.53	40.672
382.89	41.514
383.25	40.793
383.61	40.173
383.97	39.772
384.32	40.205
384.68	42.008
385.04	40.387
385.40	40.273
385.76	40.316
386.12	40.631
386.48	40.243
386.83	40.526
387.19	39.929
387.55	39.576
387.91	40.358
388.27	39.500
388.62	38.732
388.98	38.892
389.34	37.835
389.70	38.856
390.06	38.354
390.42	38.988
390.77	38.821
391.13	39.167
391.49	37.992
391.85	39.138
392.20	38.677
392.56	37.754
392.92	38.293
393.28	38.901
393.64	38.073
393.99	37.582
394.35	38.434
394.71	37.153
395.07	37.835
395.42	37.529
395.78	38.001
396.14	37.530
396.50	36.282
396.85	37.744
397.21	37.906
397.57	37.657
397.92	35.644
398.28	35.742
398.64	37.056
399.00	35.649
399.35	35.158
399.71	35.982
400.07	35.502
400.42	34.866
400.78	35.308
401.14	36.054
401.49	35.599
401.85	34.994
402.21	35.032
402.57	35.129
402.92	35.030
403.28	34.547
403.63	34.079
403.99	34.198
404.35	34.877
404.70	34.908
405.06	33.408
405.42	34.171
405.77	34.399
406.13	33.460
406.49	33.314
406.84	33.277
407.20	33.847
407.55	33.662
407.91	33.504
408.27	33.414
408.62	34.240
408.98	33.530
409.34	32.262
409.69	31.861
410.05	31.723
410.40	33.098
410.76	32.284
411.11	32.524
411.47	32.654
411.83	31.283
412.18	32.488
412.54	32.492
412.89	32.153
413.25	31.927
413.60	31.893
413.96	31.897
414.31	31.582
414.67	32.278
415.03	31.865
415.38	31.356
415.74	32.154
416.09	31.168
416.45	32.321
416.80	33.611
417.16	32.081
417.51	32.675
417.87	32.103
418.22	30.923
418.58	31.083
418.93	31.350
419.29	30.684
419.64	30.648
420.00	30.907
420.35	30.662
420.71	30.805
421.06	30.371
421.42	31.203
421.77	30.816
422.12	30.485
422.48	30.406
422.83	30.859
423.19	29.860
423.54	30.719
423.90	31.144
424.25	30.270
424.61	31.050
424.96	30.830
425.31	29.009
425.67	30.191
426.02	30.679
426.38	29.638
426.73	30.480
427.09	29.241
427.44	29.432
427.79	30.360
428.15	30.642
428.50	30.457
428.85	30.218
429.21	30.362
429.56	30.010
429.92	30.085
430.27	28.737
430.62	29.515
430.98	29.192
431.33	28.730
431.68	28.741
432.04	29.384
432.39	28.979
432.74	29.098
433.10	29.790
433.45	30.270
433.80	30.171
434.16	28.902
434.51	28.947
434.86	29.505
435.22	29.984
435.57	28.927
435.92	30.507
436.28	29.839
436.63	28.849
436.98	29.786
437.34	29.509
437.69	27.940
438.04	29.462
438.39	29.714
438.75	29.900
439.10	28.926
439.45	27.925
439.81	29.150
440.16	28.949
440.51	28.885
440.86	30.085
441.22	29.167
441.57	28.399
441.92	29.121
442.27	29.588
442.63	28.608
442.98	29.364
443.33	29.084
443.68	29.628
444.03	29.595
444.39	28.672
444.74	28.882
445.09	29.331
445.44	28.693
445.79	28.558
446.15	29.158
446.50	28.428
446.85	29.382
447.20	28.507
447.55	29.418
447.91	29.728
448.26	28.701
448.61	29.851
448.96	29.956
449.31	29.153
449.66	28.295
450.02	28.255
450.37	28.651
450.72	29.146
451.07	28.912
451.42	28.394
451.77	29.152
452.12	28.985
452.47	29.162
452.83	28.958
453.18	28.408
453.53	28.893
453.88	29.314
454.23	29.169
454.58	28.671
454.93	28.510
455.28	29.376
455.63	29.314
455.98	28.878
456.34	29.605
456.69	28.598
457.04	29.057
457.39	28.857
457.74	29.167
458.09	28.074
458.44	27.820
458.79	27.798
459.14	27.496
459.49	28.482
459.84	28.207
460.19	28.079
460.54	28.433
460.89	28.625
461.24	28.293
461.59	28.798
461.94	27.778
462.29	29.176
462.64	28.832
462.99	28.151
463.34	28.905
463.69	28.312
464.04	28.958
464.39	28.334
464.74	27.550
465.09	27.336
465.44	27.911
465.79	27.817
466.14	26.868
466.49	26.967
466.84	28.261
467.19	28.295
467.54	26.547
467.89	27.934
468.24	27.331
468.59	27.679
468.94	28.382
469.29	27.917
469.64	27.653
469.99	28.342
470.34	28.020
470.68	27.172
471.03	28.886
471.38	27.947
471.73	27.106
472.08	28.180
472.43	28.057
472.78	28.489
473.13	27.159
473.48	27.384
473.83	27.680
474.17	27.842
474.52	28.555
474.87	26.777
475.22	26.499
475.57	27.440
475.92	27.338
476.27	26.986
476.61	26.273
476.96	26.594
477.31	27.506
477.66	27.858
478.01	26.973
478.36	27.343
478.70	26.154
479.05	26.883
479.40	26.339
479.75	27.061
480.10	27.348
480.45	26.751
480.79	26.636
481.14	26.581
481.49	26.670
481.84	25.374
482.19	27.118
482.53	26.219
482.88	27.151
483.23	26.071
483.58	26.436
483.92	26.463
484.27	25.813
484.62	25.849
484.97	25.984
485.31	26.230
485.66	25.092
486.01	24.461
486.36	24.499
486.70	24.642
487.05	24.467
487.40	24.027
487.75	24.663
488.09	25.142
488.44	24.793
488.79	25.234
489.13	25.495
489.48	25.929
489.83	25.980
490.17	24.525
490.52	25.366
490.87	26.121
491.22	25.798
491.56	25.955
491.91	25.627
492.26	24.677
492.60	26.241
492.95	26.099
493.30	26.433
493.64	25.067
493.99	25.313
494.34	24.966
494.68	25.764
495.03	25.640
495.37	25.754
495.72	26.061
496.07	25.202
496.41	25.282
496.76	25.538
497.11	25.835
497.45	25.296
497.80	25.440
498.14	25.335
498.49	25.627
498.84	25.841
499.18	24.817
499.53	24.667
499.87	24.798
500.22	25.841
500.56	25.070
500.91	26.345
501.26	25.494
501.60	25.273
501.95	24.821
502.29	25.467
502.64	24.967
502.98	24.767
503.33	24.944
503.67	25.077
504.02	24.810
504.36	25.430
504.71	25.260
505.06	25.199
505.40	24.988
505.75	25.070
506.09	25.665
506.44	25.893
506.78	25.803
507.13	25.400
507.47	25.182
507.82	25.645
508.16	26.017
508.51	25.411
508.85	25.878
509.19	25.404
509.54	25.732
509.88	25.908
510.23	25.441
510.57	24.566
510.92	25.225
511.26	26.255
511.61	25.012
511.95	25.535
512.30	25.550
512.64	25.441
512.98	25.320
513.33	25.564
513.67	26.152
514.02	25.247
514.36	26.012
514.70	25.440
515.05	26.052
515.39	26.974
515.74	27.119
516.08	26.634
516.42	27.268
516.77	26.347
517.11	25.973
517.46	26.185
517.80	26.925
518.14	26.986
518.49	26.902
518.83	26.209
519.17	26.789
519.52	27.034
519.86	26.812
520.20	27.452
520.55	26.343
520.89	27.126
521.23	27.453
521.58	26.850
521.92	26.822
522.26	27.073
522.61	27.510
522.95	27.267
523.29	27.544
523.64	26.358
523.98	27.289
524.32	26.932
524.66	27.420
525.01	27.456
525.35	27.932
525.69	28.116
526.04	28.019
526.38	27.722
526.72	27.983
527.06	27.853
527.41	28.235
527.75	27.632
528.09	27.213
528.43	28.859
528.78	27.907
529.12	28.356
529.46	26.476
529.80	26.928
530.15	27.519
530.49	27.437
530.83	28.215
531.17	27.798
531.51	28.510
531.86	27.597
532.20	27.750
532.54	27.684
532.88	27.920
533.22	27.910
533.57	26.968
533.91	26.923
534.25	28.159
534.59	29.064
534.93	28.043
535.27	27.376
535.62	27.013
535.96	27.541
536.30	28.946
536.64	27.391
536.98	26.495
537.32	28.562
537.66	27.232
538.01	27.492
538.35	26.762
538.69	27.488
539.03	27.114
539.37	26.942
539.71	28.395
540.05	27.446
540.39	27.107
540.73	28.228
541.07	27.666
541.42	27.301
541.76	27.189
542.10	27.559
542.44	27.307
542.78	27.313
543.12	26.994
543.46	27.193
543.80	27.193
544.14	27.492
544.48	26.886
544.82	27.951
545.16	26.472
545.50	26.552
545.84	27.336
546.18	28.739
546.52	27.803
546.86	26.950
547.20	27.067
547.54	27.169
547.88	27.251
548.22	26.958
548.56	26.694
548.90	26.453
549.24	28.048
549.58	27.384
549.92	27.112
550.26	27.181
550.60	27.811
550.94	27.205
551.28	28.207
551.62	28.621
551.96	26.622
552.30	26.500
552.64	27.638
552.98	27.191
553.32	26.761
553.66	26.840
554.00	27.284
554.34	28.828
554.68	27.016
555.02	27.631
555.36	27.327
555.69	26.374
556.03	26.433
556.37	27.470
556.71	28.488
557.05	25.754
557.39	27.067
557.73	27.358
558.07	26.962
558.41	27.485
558.75	26.881
559.08	27.877
559.42	28.132
559.76	27.584
560.10	27.116
560.44	27.007
560.78	27.877
561.12	27.082
561.45	27.785
561.79	26.904
562.13	26.279
562.47	26.347
562.81	26.936
563.15	27.343
563.48	25.590
563.82	27.199
564.16	26.679
564.50	26.582
564.84	25.836
565.17	26.263
565.51	27.463
565.85	27.205
566.19	26.131
566.52	26.173
566.86	26.503
567.20	26.348
567.54	26.037
567.88	26.761
568.21	25.662
568.55	25.049
568.89	24.909
569.23	25.496
569.56	25.280
569.90	24.434
570.24	24.634
570.57	24.205
570.91	24.181
571.25	24.585
571.59	24.309
571.92	23.332
572.26	23.288
572.60	23.993
572.93	23.663
573.27	23.894
573.61	23.119
573.95	23.481
574.28	23.776
574.62	23.312
574.96	23.056
575.29	22.753
575.63	23.439
575.97	22.566
576.30	23.057
576.64	22.914
576.98	22.754
577.31	23.449
577.65	22.990
577.98	22.705
578.32	22.865
578.66	22.298
578.99	23.117
579.33	22.869
579.67	23.356
580.00	22.839
580.34	22.798
580.67	22.662
581.01	23.415
581.35	22.739
581.68	22.297
582.02	22.774
582.35	22.988
582.69	22.828
583.02	22.791
583.36	22.337
583.70	23.011
584.03	23.192
584.37	23.145
584.70	22.866
585.04	23.031
585.37	22.340
585.71	22.989
586.04	23.265
586.38	23.031
586.72	23.166
587.05	22.903
587.39	22.933
587.72	23.323
588.06	23.069
588.39	23.388
588.73	23.536
589.06	23.461
589.40	24.194
589.73	23.435
590.07	23.885
590.40	23.693
590.73	24.385
591.07	24.554
591.40	23.872
591.74	23.742
592.07	23.045
592.41	23.421
592.74	23.252
593.08	23.275
593.41	23.010
593.75	23.104
594.08	23.221
594.41	23.069
594.75	23.459
595.08	22.840
595.42	23.272
595.75	23.166
596.09	23.810
596.42	23.161
596.75	23.638
597.09	23.607
597.42	24.082
597.75	23.489
598.09	23.513
598.42	23.949
598.76	22.745
599.09	23.428
599.42	22.941
599.76	23.406
600.09	23.254
600.42	23.032
600.76	22.978
601.09	23.611
601.42	23.266
601.76	22.807
602.09	23.510
602.42	22.884
602.76	23.264
603.09	23.416
603.42	23.633
603.76	22.813
604.09	22.620
604.42	23.465
604.76	23.746
605.09	23.673
605.42	23.486
605.75	23.332
606.09	23.604
606.42	22.924
606.75	22.736
607.09	23.371
607.42	23.061
607.75	23.129
608.08	23.071
608.42	23.448
608.75	22.721
609.08	23.097
609.41	23.818
609.75	23.626
610.08	23.921
610.41	22.969
610.74	23.550
611.07	23.283
611.41	23.401
611.74	22.658
612.07	23.555
612.40	23.538
612.73	23.365
613.07	23.568
613.40	23.709
613.73	23.115
614.06	23.300
614.39	23.687
614.72	23.857
615.06	23.492
615.39	23.663
615.72	23.475
616.05	23.807
616.38	23.389
616.71	23.549
617.05	23.339
617.38	23.202
617.71	24.409
618.04	23.948
618.37	23.735
618.70	24.192
619.03	23.504
619.36	24.497
619.69	23.615
620.03	25.179
620.36	23.956
620.69	25.351
621.02	24.864
621.35	24.785
621.68	25.590
622.01	25.018
622.34	24.690
622.67	24.508
623.00	25.051
623.33	24.831
623.66	23.952
623.99	24.658
624.32	25.136
624.65	23.634
624.99	24.814
625.32	24.115
625.65	22.621
625.98	24.895
626.31	25.297
626.64	24.298
626.97	23.259
627.30	23.835
627.63	25.196
627.96	23.865
628.29	26.155
628.62	25.235
628.95	24.645
629.28	25.241
629.61	24.956
629.94	24.806
630.26	25.303
630.59	25.798
630.92	26.547
631.25	26.292
631.58	26.422
631.91	25.309
632.24	25.364
632.57	25.639
632.90	26.708
633.23	26.653
633.56	26.344
633.89	25.831
634.22	26.157
634.55	27.634
634.88	25.411
635.20	27.354
635.53	25.436
635.86	27.181
636.19	27.385
636.52	24.973
636.85	26.537
637.18	27.302
637.51	26.704
637.83	27.574
638.16	27.784
638.49	27.784
638.82	27.700
639.15	27.615
639.48	27.962
639.81	26.862
640.13	27.607
640.46	27.434
640.79	27.438
641.12	28.084
641.45	28.072
641.77	29.590
642.10	27.577
642.43	27.881
642.76	28.835
643.09	27.810
643.41	28.471
643.74	29.928
644.07	30.236
644.40	27.071
644.73	29.279
645.05	30.163
645.38	29.709
645.71	28.073
646.04	29.924
646.36	29.421
646.69	27.520
647.02	28.320
647.35	28.976
647.67	26.904
648.00	28.990
648.33	27.820
648.66	28.788
648.98	28.116
649.31	25.641
649.64	26.141
649.96	27.312
650.29	24.857
650.62	28.277
650.94	31.476
651.27	29.665
651.60	28.638
651.92	27.803
652.25	29.921
652.58	29.078
652.90	28.443
653.23	27.917
653.56	27.596
653.88	28.341
654.21	27.566
654.54	26.794
654.86	29.204
655.19	28.496
655.52	23.935
655.84	18.179
656.17	20.818
656.49	30.227
656.82	35.415
657.15	29.227
657.47	21.564
657.80	15.388
658.13	11.850
658.45	15.837
658.78	19.398
659.10	19.476
659.43	20.417
659.75	21.472
660.08	23.810
660.41	24.955
660.73	27.102
661.06	27.778
661.38	28.961
661.71	29.317
662.03	30.228
662.36	30.667
662.68	29.236
663.01	29.009
663.33	27.925
663.66	27.416
663.98	29.167
664.31	30.037
664.63	31.034
664.96	29.081
665.28	28.814
665.61	28.113
665.93	28.868
666.26	27.477
666.58	29.725
666.91	27.992
667.23	28.715
667.56	30.595
667.88	30.083
668.21	31.148
668.53	30.040
668.86	29.860
669.18	29.735
669.50	28.512
669.83	31.211
670.15	28.482
670.48	28.906
670.80	30.080
671.13	29.084
671.45	32.465
671.77	29.499
672.10	26.750
672.42	28.618
672.75	28.323
673.07	26.550
673.39	27.636
673.72	28.893
674.04	30.287
674.37	29.764
674.69	28.625
675.01	30.037
675.34	25.581
675.66	30.469
675.98	28.402
676.31	28.000
676.63	29.225
676.95	29.167
677.28	27.383
677.60	28.974
677.92	29.365
678.25	29.457
678.57	28.492
678.89	29.656
679.22	27.757
679.54	27.402
679.86	28.447
680.18	27.417
680.51	24.710
680.83	27.872
681.15	29.116
681.48	28.472
681.80	26.970
682.12	30.623
682.44	25.225
682.77	30.783
683.09	27.573
683.41	32.041
683.73	29.921
684.06	30.357
684.38	27.519
684.70	27.878
685.02	27.257
685.34	28.697
685.67	26.688
685.99	27.586
686.31	25.732
686.63	28.130
686.96	26.634
687.28	26.846
687.60	26.280
687.92	27.471
688.24	28.276
688.56	27.758
688.89	26.004
689.21	30.058
689.53	30.435
689.85	26.626
690.17	26.408
690.49	30.040
690.82	27.731
691.14	27.879
691.46	27.310
691.78	31.969
692.10	28.244
692.42	27.042
692.74	28.101
693.06	30.039
693.39	29.249
693.71	29.862
694.03	29.389
694.35	29.317
694.67	29.532
694.99	27.494
695.31	29.955
695.63	29.186
695.95	28.281
696.27	29.867
696.59	28.640
696.91	28.354
697.23	29.864
697.56	28.631
697.88	24.750
698.20	29.245
698.52	24.514
698.84	29.158
699.16	29.211
699.48	29.237
699.80	32.026
700.12	27.714
700.44	29.439
700.76	31.026
701.08	30.287
701.40	30.909
701.72	33.690
702.04	34.146
702.36	30.376
702.68	30.319
703.00	30.326
703.32	31.762
703.64	31.234
703.96	30.469
704.28	29.630
704.60	31.268
704.91	31.933
705.23	32.670
705.55	31.751
705.87	31.429
706.19	33.856
706.51	36.677
706.83	30.383
707.15	31.551
707.47	30.266
707.79	28.506
708.11	27.438
708.43	29.213
708.74	30.090
709.06	30.000
709.38	32.506
709.70	29.428
710.02	29.348
710.34	31.215
710.66	33.333
710.98	30.055
711.29	29.805
711.61	34.262
711.93	32.827
712.25	32.229
712.57	31.190
712.89	33.636
713.20	32.907
713.52	34.268
713.84	34.139
714.16	32.464
714.48	27.089
714.80	30.894
715.11	28.457
715.43	30.447
715.75	29.014
716.07	31.214
716.39	34.571
716.70	29.595
717.02	34.680
717.34	39.568
717.66	36.806
717.97	39.015
718.29	37.324
718.61	32.770
718.93	34.256
719.24	31.544
719.56	35.172
719.88	30.892
720.20	35.484
720.51	29.412
720.83	34.114
721.15	36.735
721.46	33.904
721.78	34.843
722.10	35.069
722.42	31.773
722.73	33.213
723.05	31.228
723.37	31.802
723.68	34.766
724.00	39.015
724.32	31.939
724.63	34.615
724.95	35.686
725.27	36.059
725.58	34.559
725.90	32.394
726.22	29.795
726.53	32.107
726.85	31.596
727.16	34.228
727.48	33.887
727.80	33.094
728.11	30.714
728.43	34.420
728.74	31.469
729.06	32.975
729.38	33.333
729.69	33.000
730.01	34.211
730.32	32.550
730.64	35.548
730.96	30.631
731.27	27.217
731.59	27.299
731.90	27.577
732.22	32.000
732.53	29.060
732.85	31.871
733.16	29.819
733.48	29.467
733.80	31.304
734.11	30.368
734.43	28.655
734.74	28.150
735.06	28.042
735.37	25.258
735.69	26.957
736.00	33.945
736.32	29.091
736.63	24.921
736.95	32.298
737.26	33.537
737.58	32.209
737.89	28.313
738.21	31.788
738.52	29.097
738.83	32.234
739.15	28.920
739.46	33.448
739.78	30.612
740.09	32.362
740.41	31.595
740.72	33.333
741.04	33.217
741.35	33.594
741.66	34.783
741.98	32.618
742.29	37.963
742.61	33.628
742.92	32.627
743.23	31.200
743.55	35.472
743.86	35.294
744.18	34.322
744.49	38.017
744.80	38.710
745.12	31.250
745.43	33.178
745.74	37.333
746.06	34.211
746.37	37.674
746.68	40.265
747.00	32.735
747.31	35.294
747.62	29.508
747.94	32.189
748.25	33.074
748.56	36.441
748.88	37.054
749.19	37.674
749.50	28.767
749.82	38.683
750.13	33.597
750.44	27.667
750.75	30.537
751.07	29.276
751.38	33.003
751.69	29.966
752.01	30.420
752.32	29.236
752.63	30.201
752.94	33.916
753.26	31.250
753.57	33.852
753.88	31.086
754.19	33.574
754.51	28.571
754.82	29.195
755.13	30.743
755.44	32.963
755.75	35.052
756.07	27.397
756.38	28.758
756.69	29.375
757.00	28.487
757.31	31.549
757.63	27.273
757.94	26.330
758.25	26.812
758.56	26.316
758.87	29.574
759.18	31.977
759.50	31.307
759.81	32.047
760.12	31.461
760.43	26.891
760.74	27.342
761.05	31.300
761.36	25.260
761.67	30.997
761.99	29.859
762.30	29.260
762.61	29.514
762.92	31.061
763.23	31.698
763.54	35.769
763.85	27.237
764.16	31.250
764.47	33.784
764.78	30.619
765.10	31.098
765.41	27.273
765.72	24.862
766.03	28.399
766.34	29.268
766.65	31.939
766.96	34.413
767.27	35.047
767.58	39.109
767.89	40.331
768.20	46.341
768.51	34.694
768.82	29.386
769.13	34.510
769.44	29.323
769.75	32.584
770.06	31.513
770.37	29.386
770.68	35.111
770.99	33.898
771.30	37.238
771.61	32.692
771.92	30.534
772.23	27.823
772.54	33.778
772.85	36.139
773.16	36.413
773.47	40.556
773.78	35.644
774.09	35.795
774.39	40.000
774.70	35.294
775.01	36.184
775.32	37.267
775.63	47.945
775.94	48.148
776.25	42.069
776.56	42.748
776.87	40.458
777.18	50.000
777.48	51.181
777.79	47.692
778.10	48.485
778.41	43.284
778.72	42.857
779.03	40.385
779.34	45.946
779.65	42.857
779.95	37.888
780.26	41.071
780.57	41.497
780.88	49.645
781.19	55.833
781.50	43.195
781.80	39.344
782.11	35.979
782.42	39.080
782.73	41.243
783.04	34.839
783.34	42.636
783.65	40.816
783.96	41.935
784.27	39.735
784.57	46.053
784.88	36.957
785.19	45.000
785.50	45.690
785.81	48.837
786.11	43.704
786.42	53.543
786.73	48.649
787.04	52.830
787.34	36.585
787.65	48.485
787.96	43.939
788.26	51.969
788.57	54.015
788.88	44.366
789.19	40.458
789.49	33.108
789.80	42.969
790.11	47.107
790.41	53.704
790.72	50.000
791.03	56.731
791.33	61.616
791.64	58.947
791.95	51.579
792.25	48.958
792.56	50.000
792.87	57.317
793.17	52.273
793.48	63.529
793.79	48.276
794.09	56.818
794.40	54.310
794.70	53.968
795.01	39.231
795.32	37.405
795.62	46.154
795.93	49.580
796.23	43.902
796.54	50.000
796.85	65.909
797.15	72.727
797.46	73.171
797.76	55.000
798.07	73.333
798.37	73.750
798.68	77.500
798.99	74.390
799.29	62.667
799.60	34.884
799.90	67.105
800.21	63.636
800.51	70.423
800.82	100.000
801.12	78.462
801.43	73.333
801.73	82.759
802.04	74.026
802.34	64.384
802.65	88.235
802.95	65.217
803.26	77.419
803.56	70.000
803.87	71.642
804.17	74.603
804.48	64.151
804.78	69.444
805.09	78.788
805.39	80.952
805.70	82.456
806.00	58.571
806.30	67.188
806.61	55.294
806.91	62.222
807.22	45.652
807.52	51.316
807.83	52.632
808.13	76.812
808.43	88.710
808.74	63.014
809.04	69.643
809.35	69.118
809.65	71.212
809.95	88.235
810.26	88.889
810.56	96.875
810.86	71.429
811.17	80.702
811.47	95.652
811.77	77.586
812.08	70.690
812.38	71.429
812.69	97.619
812.99	73.333
813.29	111.429
813.59	109.677
813.90	79.310
814.20	83.607
814.50	70.000
814.81	73.684
815.11	88.889
815.41	80.357
815.72	98.214
816.02	74.000
816.32	78.049
816.62	91.379
816.93	127.273
817.23	109.756
817.53	76.786
817.84	100.000
818.14	78.571
818.44	62.500
818.74	105.660
819.04	87.179
819.35	118.182
819.65	119.231
819.95	109.259
820.25	93.617
820.56	102.703
820.86	86.842
821.16	74.468
821.46	121.053
821.76	105.455
822.07	64.286
822.37	89.474
822.67	118.605
822.97	76.316
823.27	91.304
823.57	118.750
823.88	107.692
824.18	100.000
824.48	178.261
824.78	125.000
825.08	152.174
825.38	155.172
825.69	111.765
825.99	82.979
826.29	91.667
826.59	108.571
826.89	106.667
827.19	120.000
827.49	125.806
827.79	123.077
828.09	97.619
828.39	130.556
828.70	89.189
829.00	114.286
829.30	181.250
829.60	119.444
829.90	125.806
830.20	112.121
830.50	113.514
830.80	158.333
831.10	169.231
831.40	157.143
831.70	179.167
832.00	133.333
832.30	173.913
832.60	175.000
832.90	169.697
833.20	210.000
833.50	115.789
833.80	126.471
834.10	107.895
834.40	173.684
834.70	116.667
835.00	152.000
835.30	81.081
835.60	140.625
835.90	110.811
836.20	150.000
836.50	140.909
836.80	78.049
837.10	139.130
837.40	384.615
837.70	157.895
838.00	166.667
838.30	162.500
838.60	172.000
838.90	300.000
839.19	131.250
839.49	146.667
839.79	127.586
840.09	138.462
840.39	220.000
840.69	200.000
840.99	119.048
841.29	156.522
841.59	220.000
841.88	176.000
842.18	300.000
842.48	196.429
842.78	177.778
843.08	269.231
843.38	181.818
843.68	228.571
843.97	471.429
844.27	173.913
844.57	1550.000
844.87	271.429
845.17	177.778
845.47	161.905
845.76	166.667
846.06	557.143
846.36	188.235
846.66	246.154
846.96	231.250
847.25	307.692
847.55	157.895
847.85	238.889
848.15	580.000
848.44	354.545
848.74	223.810
849.04	166.667
849.34	164.706
849.63	175.000
849.93	281.250
850.23	1033.333
850.53	337.500
850.82	309.091
851.12	164.706
851.42	137.500
851.71	212.500
852.01	0.000
852.31	188.235
852.61	350.000
852.90	170.833
853.20	300.000
853.50	-2400.000
853.79	144.000
854.09	134.375
854.39	131.034
854.68	141.379
854.98	204.762
855.28	151.613
855.57	300.000
855.87	200.000
856.17	118.519
856.46	168.421
856.76	129.032
857.05	276.471
857.35	236.364
857.65	192.308
857.94	230.000
858.24	422.222
858.53	264.286
858.83	471.429
859.13	169.565
859.42	255.556
859.72	300.000
860.01	300.000
860.31	600.000
860.60	430.000
860.90	362.500
861.20	292.308
861.49	385.714
861.79	-2600.000
862.08	528.571
862.38	366.667
862.67	171.429
862.97	370.000
863.26	136.667
863.56	800.000
863.85	276.923
864.15	288.235
864.44	177.778
864.74	300.000
865.03	254.545
865.33	437.500
865.62	226.667
865.92	650.000
866.21	700.000
866.51	600.000
866.80	250.000
867.10	533.333
867.39	3500.000
867.69	640.000
867.98	875.000
868.27	209.524
868.57	273.333
868.86	800.000
869.16	190.476
869.45	3400.000
869.75	-466.667
870.04	775.000
870.33	680.000
870.63	350.000
870.92	176.471
871.22	800.000
871.51	514.286
871.80	350.000
872.10	269.231
>>>>>End Processed Spectral Data<<<<<
