SpectraSuite Data File
++++++++++++++++++++++++++++++++++++
Date: Tue May 12 16:59:11 PDT 2015
User: schluterlab
Dark Spectrum Present: Yes
Reference Spectrum Present: Yes
Number of Sampled Component Spectra: 1
Spectrometers: USB2E3373
Integration Time (usec): 3000 (USB2E3373)
Spectra Averaged: 3 (USB2E3373)
Boxcar Smoothing: 0 (USB2E3373)
Correct for Electrical Dark: No (USB2E3373)
Strobe/Lamp Enabled: No (USB2E3373)
Correct for Detector Non-linearity: No (USB2E3373)
Correct for Stray Light: No (USB2E3373)
Number of Pixels in Processed Spectrum: 2048
>>>>>Begin Processed Spectral Data<<<<<
178.53	0.000
178.91	-208.333
179.29	-475.000
179.67	-3700.000
180.04	-100.000
180.42	775.000
180.80	1900.000
181.18	0.000
181.56	-312.500
181.94	0.000
182.31	1100.000
182.69	-3700.000
183.07	600.000
183.45	-3200.000
183.83	-1700.000
184.20	370.000
184.58	500.000
184.96	-215.385
185.34	-183.333
185.72	1050.000
186.09	-775.000
186.47	-3400.000
186.85	1100.000
187.23	640.000
187.61	1500.000
187.98	412.500
188.36	271.429
188.74	308.333
189.12	325.000
189.49	1125.000
189.87	0.000
190.25	437.500
190.63	3400.000
191.00	-233.333
191.38	-3200.000
191.76	-400.000
192.14	500.000
192.51	-3500.000
192.89	2000.000
193.27	933.333
193.65	-1300.000
194.02	-700.000
194.40	514.286
194.78	-157.143
195.15	226.667
195.53	-4000.000
195.91	-500.000
196.29	4300.000
196.66	250.000
197.04	775.000
197.42	-1500.000
197.79	450.000
198.17	283.333
198.55	0.000
198.92	457.143
199.30	1333.333
199.68	2050.000
200.05	733.333
200.43	-550.000
200.81	216.667
201.18	2900.000
201.56	291.667
201.94	-750.000
202.31	-200.000
202.69	-520.000
203.07	3200.000
203.44	-416.667
203.82	366.667
204.19	700.000
204.57	-1650.000
204.95	-1000.000
205.32	-800.000
205.70	550.000
206.08	600.000
206.45	-866.667
206.83	500.000
207.20	221.053
207.58	300.000
207.96	780.000
208.33	0.000
208.71	485.714
209.08	460.000
209.46	-2500.000
209.84	-800.000
210.21	680.000
210.59	-340.000
210.96	325.000
211.34	-875.000
211.71	409.091
212.09	875.000
212.46	1750.000
212.84	-383.333
213.22	522.222
213.59	-2600.000
213.97	230.000
214.34	800.000
214.72	1033.333
215.09	966.667
215.47	-2700.000
215.84	-240.000
216.22	-375.000
216.59	0.000
216.97	0.000
217.34	1550.000
217.72	-1350.000
218.09	1066.667
218.47	425.000
218.84	925.000
219.22	1300.000
219.59	866.667
219.97	414.286
220.34	288.889
220.72	1350.000
221.09	3400.000
221.47	216.667
221.84	1166.667
222.22	280.000
222.59	266.667
222.97	200.000
223.34	231.250
223.72	-1450.000
224.09	1166.667
224.46	253.846
224.84	-825.000
225.21	466.667
225.59	346.667
225.96	1166.667
226.34	-600.000
226.71	-700.000
227.08	-580.000
227.46	0.000
227.83	-533.333
228.21	-1200.000
228.58	400.000
228.95	825.000
229.33	355.556
229.70	1075.000
230.08	323.077
230.45	2500.000
230.82	-725.000
231.20	-966.667
231.57	-933.333
231.95	620.000
232.32	250.000
232.69	700.000
233.07	300.000
233.44	-1550.000
233.81	293.333
234.19	159.259
234.56	187.500
234.93	200.000
235.31	175.000
235.68	200.000
236.05	153.571
236.43	159.259
236.80	214.286
237.17	89.655
237.55	100.000
237.92	90.000
238.29	115.152
238.67	137.500
239.04	97.561
239.41	56.250
239.79	70.000
240.16	50.000
240.53	63.934
240.91	47.826
241.28	71.186
241.65	53.030
242.02	47.887
242.40	47.143
242.77	51.648
243.14	32.911
243.51	45.455
243.89	30.841
244.26	32.710
244.63	29.703
245.00	33.028
245.38	23.729
245.75	29.545
246.12	37.778
246.49	26.950
246.87	25.410
247.24	28.000
247.61	30.000
247.98	23.810
248.36	25.455
248.73	26.020
249.10	19.643
249.47	19.000
249.84	17.413
250.22	24.865
250.59	19.000
250.96	21.097
251.33	17.674
251.70	18.750
252.08	18.908
252.45	19.522
252.82	14.829
253.19	18.182
253.56	14.615
253.94	21.014
254.31	15.891
254.68	17.422
255.05	13.103
255.42	13.869
255.79	13.029
256.16	17.966
256.54	16.558
256.91	15.359
257.28	14.716
257.65	7.837
258.02	15.634
258.39	16.332
258.76	15.942
259.14	13.714
259.51	13.703
259.88	12.158
260.25	10.440
260.62	12.329
260.99	12.121
261.36	10.306
261.73	12.500
262.10	10.209
262.47	10.500
262.85	10.400
263.22	14.653
263.59	13.043
263.96	13.033
264.33	8.148
264.70	12.776
265.07	12.439
265.44	13.761
265.81	11.085
266.18	10.526
266.55	11.348
266.92	10.291
267.29	11.404
267.66	9.641
268.03	8.969
268.40	12.051
268.77	11.454
269.14	9.111
269.51	10.245
269.88	10.816
270.25	9.071
270.62	9.013
270.99	12.779
271.36	11.382
271.73	11.111
272.10	10.303
272.47	8.929
272.84	8.982
273.21	8.884
273.58	13.158
273.95	10.062
274.32	11.673
274.69	13.583
275.06	9.654
275.43	10.345
275.80	8.868
276.17	9.007
276.54	10.280
276.91	11.194
277.28	11.314
277.65	10.332
278.02	12.132
278.39	10.612
278.76	11.897
279.13	8.897
279.50	9.818
279.87	10.242
280.23	7.919
280.60	9.672
280.97	11.379
281.34	9.901
281.71	9.217
282.08	11.453
282.45	8.615
282.82	10.368
283.19	9.698
283.56	8.760
283.92	8.958
284.29	8.652
284.66	8.235
285.03	8.292
285.40	6.942
285.77	7.562
286.14	9.133
286.51	10.583
286.87	7.911
287.24	7.207
287.61	8.663
287.98	8.955
288.35	7.704
288.72	7.284
289.08	9.309
289.45	8.689
289.82	10.000
290.19	8.346
290.56	9.316
290.93	7.482
291.29	8.978
291.66	6.638
292.03	7.574
292.40	8.943
292.77	6.964
293.13	8.702
293.50	5.668
293.87	7.588
294.24	7.413
294.60	6.595
294.97	8.252
295.34	8.632
295.71	7.490
296.08	9.200
296.44	6.607
296.81	7.320
297.18	6.084
297.55	7.389
297.91	6.650
298.28	7.850
298.65	8.466
299.02	7.479
299.38	7.554
299.75	7.805
300.12	5.849
300.48	8.548
300.85	5.721
301.22	7.326
301.59	6.604
301.95	6.184
302.32	7.218
302.69	6.674
303.05	7.632
303.42	7.399
303.79	7.584
304.15	7.261
304.52	6.977
304.89	5.970
305.25	6.118
305.62	7.249
305.99	6.522
306.35	5.684
306.72	7.076
307.09	7.557
307.45	5.597
307.82	6.584
308.19	7.216
308.55	6.700
308.92	6.084
309.29	7.594
309.65	7.830
310.02	5.781
310.38	5.882
310.75	5.111
311.12	6.130
311.48	7.722
311.85	5.534
312.22	6.590
312.58	5.734
312.95	6.893
313.31	6.835
313.68	6.754
314.05	7.143
314.41	7.076
314.78	6.439
315.14	7.299
315.51	8.136
315.87	6.569
316.24	5.135
316.61	5.551
316.97	6.239
317.34	7.098
317.70	6.058
318.07	7.117
318.43	6.942
318.80	6.743
319.16	6.906
319.53	7.168
319.89	6.631
320.26	7.821
320.62	6.593
320.99	6.959
321.35	6.772
321.72	7.780
322.08	6.464
322.45	8.174
322.81	6.953
323.18	7.815
323.54	8.537
323.91	7.978
324.27	6.897
324.64	6.055
325.00	7.586
325.37	7.336
325.73	6.830
326.10	7.291
326.46	7.102
326.83	7.120
327.19	7.470
327.56	7.428
327.92	7.869
328.29	8.838
328.65	8.219
329.01	7.528
329.38	7.699
329.74	6.917
330.11	8.254
330.47	8.014
330.84	7.938
331.20	7.783
331.56	8.463
331.93	8.554
332.29	7.568
332.66	8.078
333.02	7.560
333.38	6.806
333.75	8.257
334.11	7.215
334.48	7.179
334.84	7.686
335.20	8.212
335.57	7.557
335.93	7.990
336.29	7.131
336.66	8.148
337.02	6.843
337.38	6.277
337.75	8.530
338.11	8.101
338.47	7.367
338.84	7.028
339.20	6.234
339.56	7.317
339.93	7.441
340.29	6.975
340.65	7.795
341.02	8.850
341.38	7.143
341.74	7.060
342.11	6.594
342.47	6.809
342.83	7.383
343.20	8.165
343.56	7.307
343.92	7.184
344.28	7.974
344.65	7.090
345.01	7.698
345.37	6.971
345.73	6.905
346.10	6.454
346.46	7.257
346.82	7.176
347.19	8.346
347.55	7.104
347.91	6.420
348.27	6.197
348.63	7.358
349.00	7.692
349.36	7.004
349.72	8.180
350.08	7.376
350.45	6.778
350.81	7.263
351.17	6.394
351.53	6.467
351.89	6.605
352.26	6.198
352.62	7.466
352.98	7.209
353.34	7.473
353.70	6.269
354.07	7.154
354.43	6.682
354.79	6.986
355.15	7.274
355.51	6.873
355.87	7.154
356.24	7.082
356.60	6.773
356.96	5.383
357.32	7.008
357.68	6.828
358.04	6.307
358.40	7.271
358.77	6.762
359.13	6.231
359.49	7.042
359.85	7.297
360.21	5.423
360.57	7.518
360.93	6.926
361.29	6.710
361.66	7.755
362.02	5.895
362.38	6.566
362.74	6.369
363.10	6.522
363.46	6.630
363.82	7.223
364.18	6.757
364.54	6.795
364.90	7.028
365.26	7.287
365.62	6.630
365.98	6.125
366.35	6.276
366.71	8.258
367.07	6.758
367.43	6.783
367.79	6.715
368.15	6.242
368.51	7.099
368.87	6.250
369.23	6.376
369.59	6.339
369.95	7.133
370.31	5.476
370.67	7.772
371.03	7.423
371.39	6.925
371.75	6.281
372.11	7.070
372.47	6.986
372.83	6.390
373.19	7.951
373.55	6.735
373.91	6.699
374.27	6.878
374.63	6.712
374.99	6.873
375.35	6.317
375.71	7.190
376.07	6.499
376.42	6.138
376.78	6.615
377.14	6.881
377.50	6.929
377.86	6.919
378.22	5.789
378.58	7.809
378.94	6.940
379.30	6.610
379.66	6.924
380.02	7.214
380.38	6.323
380.74	7.036
381.09	6.776
381.45	6.416
381.81	7.033
382.17	7.204
382.53	6.899
382.89	7.510
383.25	7.282
383.61	7.550
383.97	7.199
384.32	7.294
384.68	8.021
385.04	7.737
385.40	8.066
385.76	6.963
386.12	6.926
386.48	7.173
386.83	7.457
387.19	6.714
387.55	7.774
387.91	7.621
388.27	7.198
388.62	8.216
388.98	6.822
389.34	7.258
389.70	6.840
390.06	6.707
390.42	7.526
390.77	7.371
391.13	7.242
391.49	8.167
391.85	7.446
392.20	7.986
392.56	8.244
392.92	6.738
393.28	7.623
393.64	7.397
393.99	7.350
394.35	7.534
394.71	6.574
395.07	7.117
395.42	7.377
395.78	7.711
396.14	9.217
396.50	6.980
396.85	7.927
397.21	7.702
397.57	7.412
397.92	6.932
398.28	7.612
398.64	8.144
399.00	7.483
399.35	6.978
399.71	7.174
400.07	7.192
400.42	7.821
400.78	7.625
401.14	7.751
401.49	7.200
401.85	7.532
402.21	6.678
402.57	7.421
402.92	6.545
403.28	7.697
403.63	7.769
403.99	7.901
404.35	7.972
404.70	6.970
405.06	7.355
405.42	7.301
405.77	6.946
406.13	7.267
406.49	6.595
406.84	7.107
407.20	7.363
407.55	7.323
407.91	7.594
408.27	8.005
408.62	7.333
408.98	7.392
409.34	7.247
409.69	6.783
410.05	7.335
410.40	7.538
410.76	6.182
411.11	7.227
411.47	7.407
411.83	7.323
412.18	7.367
412.54	6.907
412.89	6.313
413.25	7.640
413.60	7.009
413.96	7.002
414.31	7.438
414.67	7.387
415.03	6.897
415.38	7.886
415.74	7.265
416.09	7.995
416.45	7.886
416.80	7.441
417.16	8.020
417.51	7.962
417.87	7.822
418.22	7.776
418.58	7.452
418.93	7.733
419.29	6.778
419.64	7.450
420.00	8.294
420.35	7.259
420.71	7.001
421.06	7.122
421.42	7.714
421.77	7.052
422.12	6.946
422.48	7.345
422.83	7.812
423.19	7.073
423.54	7.021
423.90	7.814
424.25	6.604
424.61	8.474
424.96	6.268
425.31	6.897
425.67	7.744
426.02	7.515
426.38	7.235
426.73	7.577
427.09	7.592
427.44	6.922
427.79	7.433
428.15	8.132
428.50	7.886
428.85	7.995
429.21	7.077
429.56	8.026
429.92	7.161
430.27	6.967
430.62	6.608
430.98	7.635
431.33	7.107
431.68	7.210
432.04	7.139
432.39	7.300
432.74	8.607
433.10	7.364
433.45	8.156
433.80	8.053
434.16	7.672
434.51	8.153
434.86	8.710
435.22	8.050
435.57	8.299
435.92	8.765
436.28	8.237
436.63	7.996
436.98	8.164
437.34	7.477
437.69	7.447
438.04	8.011
438.39	8.406
438.75	8.686
439.10	7.447
439.45	7.631
439.81	8.444
440.16	9.301
440.51	8.221
440.86	8.604
441.22	7.900
441.57	8.346
441.92	7.799
442.27	7.526
442.63	8.333
442.98	8.028
443.33	8.463
443.68	8.099
444.03	8.247
444.39	8.145
444.74	8.075
445.09	8.478
445.44	8.342
445.79	7.846
446.15	8.053
446.50	7.226
446.85	8.068
447.20	7.363
447.55	7.450
447.91	8.524
448.26	8.892
448.61	8.402
448.96	8.769
449.31	7.921
449.66	9.468
450.02	7.888
450.37	8.440
450.72	8.926
451.07	9.133
451.42	8.654
451.77	8.820
452.12	8.225
452.47	9.417
452.83	8.901
453.18	9.189
453.53	8.881
453.88	8.800
454.23	9.123
454.58	8.916
454.93	9.013
455.28	9.180
455.63	9.161
455.98	8.968
456.34	9.058
456.69	8.720
457.04	8.711
457.39	8.229
457.74	9.234
458.09	8.759
458.44	9.200
458.79	8.859
459.14	8.783
459.49	9.117
459.84	8.750
460.19	8.757
460.54	9.345
460.89	9.222
461.24	8.591
461.59	9.127
461.94	10.461
462.29	9.268
462.64	9.422
462.99	9.341
463.34	9.527
463.69	10.042
464.04	9.787
464.39	8.930
464.74	8.499
465.09	9.170
465.44	9.576
465.79	8.982
466.14	9.115
466.49	8.790
466.84	9.086
467.19	10.369
467.54	9.069
467.89	9.624
468.24	9.380
468.59	9.286
468.94	9.541
469.29	10.385
469.64	10.032
469.99	9.383
470.34	9.804
470.68	9.586
471.03	9.873
471.38	9.735
471.73	9.471
472.08	10.372
472.43	9.311
472.78	10.051
473.13	10.075
473.48	9.780
473.83	9.894
474.17	10.213
474.52	9.656
474.87	8.982
475.22	9.252
475.57	9.969
475.92	9.555
476.27	8.379
476.61	9.276
476.96	9.927
477.31	9.152
477.66	9.447
478.01	10.366
478.36	9.011
478.70	8.933
479.05	9.780
479.40	9.573
479.75	10.030
480.10	9.342
480.45	9.197
480.79	9.724
481.14	9.130
481.49	9.149
481.84	9.191
482.19	9.563
482.53	9.574
482.88	9.453
483.23	8.976
483.58	9.201
483.92	9.872
484.27	9.589
484.62	9.805
484.97	9.155
485.31	8.894
485.66	8.171
486.01	8.166
486.36	8.016
486.70	7.891
487.05	8.325
487.40	8.333
487.75	8.766
488.09	8.665
488.44	9.369
488.79	8.990
489.13	8.959
489.48	9.309
489.83	9.800
490.17	8.629
490.52	9.905
490.87	10.000
491.22	10.062
491.56	10.760
491.91	9.050
492.26	9.800
492.60	9.886
492.95	9.878
493.30	9.827
493.64	9.569
493.99	9.436
494.34	9.861
494.68	9.208
495.03	10.193
495.37	10.041
495.72	9.883
496.07	10.018
496.41	9.861
496.76	9.751
497.11	10.283
497.45	10.171
497.80	10.612
498.14	10.125
498.49	9.842
498.84	10.374
499.18	9.918
499.53	10.152
499.87	9.883
500.22	9.581
500.56	9.564
500.91	10.529
501.26	10.473
501.60	9.654
501.95	9.319
502.29	10.622
502.64	9.572
502.98	10.049
503.33	10.334
503.67	10.199
504.02	9.539
504.36	9.774
504.71	10.549
505.06	10.418
505.40	10.716
505.75	9.542
506.09	10.919
506.44	10.432
506.78	9.783
507.13	10.325
507.47	9.947
507.82	11.338
508.16	10.779
508.51	10.580
508.85	10.494
509.19	11.062
509.54	11.475
509.88	11.487
510.23	10.588
510.57	9.942
510.92	10.789
511.26	10.341
511.61	11.226
511.95	10.602
512.30	10.750
512.64	10.384
512.98	10.866
513.33	11.014
513.67	11.031
514.02	10.130
514.36	10.696
514.70	10.347
515.05	10.655
515.39	10.855
515.74	12.466
516.08	11.002
516.42	12.022
516.77	11.200
517.11	11.253
517.46	11.153
517.80	11.032
518.14	11.380
518.49	11.521
518.83	10.934
519.17	11.259
519.52	11.305
519.86	10.845
520.20	11.890
520.55	11.306
520.89	11.839
521.23	11.507
521.58	11.819
521.92	11.429
522.26	11.611
522.61	11.111
522.95	12.072
523.29	11.404
523.64	11.214
523.98	12.383
524.32	11.592
524.66	12.174
525.01	11.361
525.35	12.198
525.69	12.643
526.04	12.731
526.38	11.948
526.72	11.874
527.06	11.591
527.41	12.031
527.75	11.808
528.09	11.800
528.43	12.447
528.78	11.389
529.12	12.282
529.46	11.163
529.80	12.150
530.15	11.962
530.49	11.733
530.83	12.310
531.17	11.316
531.51	12.876
531.86	12.621
532.20	11.743
532.54	12.053
532.88	12.242
533.22	11.822
533.57	12.142
533.91	11.655
534.25	12.175
534.59	11.871
534.93	11.832
535.27	11.269
535.62	11.377
535.96	12.766
536.30	13.163
536.64	11.118
536.98	12.209
537.32	12.500
537.66	11.352
538.01	11.827
538.35	11.853
538.69	11.529
539.03	11.443
539.37	11.650
539.71	12.469
540.05	11.877
540.39	12.390
540.73	11.709
541.07	11.731
541.42	12.251
541.76	12.700
542.10	11.467
542.44	12.095
542.78	11.768
543.12	11.902
543.46	11.779
543.80	11.905
544.14	11.146
544.48	10.949
544.82	11.743
545.16	11.415
545.50	11.801
545.84	11.995
546.18	13.329
546.52	11.869
546.86	12.508
547.20	12.597
547.54	11.716
547.88	12.956
548.22	11.961
548.56	12.257
548.90	11.922
549.24	12.129
549.58	12.049
549.92	12.836
550.26	11.359
550.60	11.843
550.94	12.415
551.28	13.310
551.62	12.207
551.96	12.365
552.30	11.470
552.64	12.816
552.98	11.662
553.32	11.908
553.66	11.857
554.00	12.741
554.34	12.383
554.68	12.500
555.02	12.356
555.36	12.035
555.69	12.238
556.03	11.274
556.37	12.173
556.71	12.516
557.05	11.533
557.39	12.800
557.73	13.073
558.07	12.408
558.41	12.748
558.75	12.449
559.08	12.366
559.42	12.670
559.76	12.046
560.10	11.975
560.44	12.608
560.78	12.404
561.12	12.460
561.45	11.076
561.79	12.047
562.13	11.623
562.47	11.746
562.81	11.971
563.15	12.605
563.48	11.615
563.82	11.790
564.16	12.189
564.50	11.814
564.84	11.793
565.17	12.181
565.51	12.131
565.85	12.091
566.19	11.667
566.52	11.191
566.86	12.084
567.20	11.461
567.54	11.299
567.88	11.633
568.21	11.133
568.55	11.041
568.89	11.496
569.23	10.095
569.56	10.783
569.90	10.313
570.24	10.119
570.57	10.286
570.91	9.672
571.25	9.786
571.59	9.222
571.92	9.177
572.26	8.895
572.60	9.497
572.93	9.431
573.27	9.075
573.61	9.367
573.95	9.039
574.28	9.186
574.62	8.687
574.96	8.838
575.29	8.807
575.63	8.787
575.97	8.861
576.30	8.783
576.64	8.806
576.98	9.171
577.31	8.914
577.65	8.767
577.98	8.293
578.32	8.767
578.66	8.748
578.99	8.936
579.33	8.841
579.67	8.931
580.00	8.507
580.34	8.784
580.67	8.725
581.01	9.085
581.35	8.706
581.68	8.156
582.02	8.219
582.35	8.499
582.69	8.584
583.02	8.551
583.36	9.007
583.70	8.785
584.03	8.998
584.37	9.112
584.70	8.833
585.04	8.732
585.37	8.341
585.71	9.079
586.04	8.908
586.38	8.714
586.72	8.726
587.05	9.290
587.39	9.153
587.72	9.197
588.06	9.138
588.39	8.956
588.73	8.989
589.06	9.163
589.40	9.546
589.73	9.177
590.07	9.746
590.40	9.895
590.73	9.952
591.07	10.019
591.40	10.100
591.74	9.943
592.07	9.692
592.41	10.072
592.74	9.227
593.08	9.245
593.41	9.066
593.75	9.019
594.08	9.670
594.41	9.352
594.75	9.760
595.08	9.053
595.42	9.908
595.75	9.444
596.09	9.489
596.42	9.978
596.75	10.737
597.09	10.483
597.42	9.429
597.75	9.331
598.09	10.012
598.42	9.955
598.76	10.177
599.09	9.857
599.42	8.927
599.76	9.837
600.09	9.492
600.42	9.669
600.76	9.415
601.09	9.665
601.42	9.257
601.76	8.879
602.09	9.713
602.42	9.834
602.76	9.981
603.09	9.314
603.42	9.725
603.76	9.617
604.09	9.338
604.42	9.567
604.76	9.996
605.09	9.796
605.42	9.874
605.75	10.107
606.09	9.946
606.42	9.996
606.75	9.444
607.09	9.791
607.42	9.401
607.75	9.992
608.08	9.220
608.42	10.109
608.75	9.499
609.08	10.207
609.41	9.727
609.75	10.760
610.08	9.982
610.41	9.925
610.74	10.260
611.07	10.186
611.41	10.148
611.74	9.704
612.07	9.682
612.40	10.234
612.73	10.684
613.07	10.340
613.40	10.276
613.73	9.486
614.06	9.750
614.39	11.414
614.72	10.799
615.06	9.693
615.39	10.743
615.72	9.632
616.05	10.347
616.38	9.843
616.71	9.875
617.05	9.830
617.38	10.506
617.71	10.405
618.04	9.478
618.37	10.506
618.70	9.815
619.03	11.233
619.36	11.181
619.69	11.609
620.03	12.655
620.36	11.111
620.69	11.686
621.02	11.549
621.35	11.246
621.68	12.168
622.01	12.472
622.34	10.197
622.67	12.640
623.00	11.504
623.33	11.606
623.66	10.978
623.99	11.027
624.32	10.772
624.65	11.455
624.99	11.021
625.32	12.224
625.65	10.414
625.98	10.809
626.31	11.647
626.64	10.858
626.97	10.941
627.30	11.413
627.63	11.931
627.96	11.189
628.29	11.716
628.62	11.548
628.95	12.589
629.28	12.621
629.61	12.390
629.94	12.446
630.26	12.392
630.59	13.918
630.92	12.018
631.25	13.055
631.58	12.150
631.91	12.750
632.24	12.245
632.57	12.279
632.90	13.458
633.23	12.802
633.56	13.699
633.89	14.684
634.22	14.855
634.55	13.118
634.88	15.991
635.20	14.013
635.53	14.170
635.86	14.765
636.19	14.478
636.52	12.865
636.85	11.758
637.18	13.976
637.51	13.073
637.83	12.929
638.16	14.068
638.49	13.892
638.82	13.263
639.15	13.161
639.48	15.521
639.81	14.774
640.13	14.847
640.46	13.401
640.79	12.874
641.12	13.780
641.45	14.748
641.77	14.531
642.10	14.324
642.43	14.083
642.76	14.205
643.09	14.986
643.41	14.727
643.74	16.259
644.07	15.782
644.40	14.053
644.73	16.667
645.05	15.602
645.38	14.855
645.71	14.568
646.04	16.947
646.36	15.962
646.69	15.360
647.02	15.840
647.35	14.646
647.67	15.721
648.00	15.472
648.33	15.038
648.66	16.061
648.98	13.188
649.31	13.090
649.64	13.693
649.96	13.229
650.29	13.000
650.62	15.317
650.94	17.470
651.27	17.065
651.60	16.275
651.92	16.129
652.25	14.961
652.58	13.759
652.90	15.120
653.23	13.885
653.56	14.985
653.88	12.335
654.21	15.396
654.54	14.788
654.86	15.487
655.19	14.248
655.52	11.329
655.84	6.720
656.17	7.027
656.49	10.115
656.82	11.457
657.15	9.400
657.47	7.100
657.80	5.330
658.13	4.258
658.45	5.885
658.78	7.522
659.10	7.487
659.43	8.015
659.75	8.896
660.08	9.023
660.41	11.162
660.73	14.304
661.06	15.916
661.38	16.184
661.71	17.806
662.03	17.871
662.36	17.143
662.68	16.574
663.01	16.396
663.33	15.849
663.66	16.568
663.98	16.270
664.31	17.724
664.63	17.625
664.96	19.887
665.28	17.326
665.61	16.038
665.93	16.226
666.26	16.636
666.58	18.899
666.91	15.251
667.23	17.068
667.56	17.454
667.88	17.012
668.21	18.852
668.53	18.145
668.86	17.635
669.18	16.904
669.50	16.942
669.83	17.248
670.15	17.256
670.48	17.187
670.80	18.127
671.13	14.940
671.45	17.836
671.77	17.440
672.10	16.158
672.42	14.638
672.75	14.873
673.07	15.739
673.39	12.460
673.72	14.706
674.04	14.695
674.37	15.064
674.69	16.171
675.01	15.672
675.34	17.054
675.66	16.406
675.98	18.935
676.31	17.000
676.63	14.314
676.95	19.444
677.28	16.633
677.60	15.895
677.92	15.476
678.25	16.667
678.57	15.270
678.89	16.456
679.22	16.176
679.54	16.370
679.86	14.660
680.18	14.060
680.51	13.599
680.83	12.500
681.15	16.464
681.48	17.361
681.80	14.536
682.12	14.360
682.44	15.135
682.77	16.904
683.09	15.922
683.41	17.551
683.73	18.898
684.06	15.476
684.38	16.473
684.70	14.568
685.02	15.799
685.34	13.556
685.67	17.203
685.99	14.614
686.31	14.176
686.63	14.959
686.96	15.523
687.28	13.087
687.60	13.993
687.92	16.080
688.24	16.552
688.56	14.413
688.89	14.149
689.21	17.726
689.53	16.798
689.85	14.634
690.17	15.922
690.49	16.734
690.82	16.176
691.14	17.980
691.46	16.838
691.78	15.400
692.10	15.076
692.42	15.971
692.74	17.054
693.06	12.791
693.39	15.020
693.71	13.949
694.03	16.371
694.35	19.478
694.67	16.090
694.99	17.960
695.31	17.342
695.63	14.932
695.95	16.742
696.27	18.142
696.59	15.752
696.91	14.937
697.23	17.421
697.56	13.485
697.88	12.974
698.20	16.604
698.52	12.646
698.84	17.659
699.16	17.058
699.48	17.161
699.80	18.736
700.12	18.476
700.44	16.822
700.76	19.332
701.08	17.232
701.40	17.662
701.72	20.856
702.04	20.325
702.36	16.935
702.68	19.681
703.00	17.043
703.32	19.107
703.64	16.121
703.96	16.146
704.28	16.667
704.60	20.000
704.91	15.966
705.23	19.602
705.55	21.958
705.87	20.635
706.19	21.003
706.51	21.944
706.83	20.059
707.15	20.321
707.47	18.402
707.79	19.770
708.11	18.141
708.43	14.607
708.74	16.516
709.06	19.070
709.38	16.873
709.70	17.439
710.02	17.391
710.34	16.851
710.66	18.889
710.98	18.852
711.29	17.270
711.61	23.677
711.93	22.188
712.25	19.277
712.57	14.469
712.89	21.818
713.20	22.364
713.52	20.561
713.84	18.429
714.16	13.333
714.48	12.968
714.80	17.073
715.11	16.223
715.43	16.201
715.75	17.746
716.07	17.630
716.39	18.286
716.70	15.576
717.02	18.519
717.34	25.180
717.66	22.222
717.97	23.106
718.29	23.239
718.61	17.230
718.93	22.145
719.24	21.812
719.56	17.241
719.88	16.242
720.20	17.742
720.51	18.627
720.83	18.395
721.15	15.306
721.46	20.205
721.78	21.951
722.10	18.056
722.42	21.405
722.73	17.690
723.05	21.404
723.37	22.261
723.68	22.656
724.00	20.076
724.32	24.715
724.63	18.846
724.95	20.784
725.27	21.933
725.58	20.221
725.90	17.606
726.22	16.781
726.53	19.732
726.85	20.521
727.16	22.148
727.48	20.266
727.80	25.540
728.11	21.071
728.43	18.116
728.74	18.881
729.06	20.789
729.38	20.351
729.69	21.667
730.01	21.382
730.32	20.470
730.64	21.595
730.96	18.919
731.27	17.125
731.59	16.092
731.90	18.384
732.22	18.000
732.53	14.245
732.85	21.637
733.16	15.964
733.48	17.555
733.80	17.681
734.11	19.632
734.43	16.374
734.74	17.426
735.06	17.460
735.37	15.464
735.69	17.391
736.00	18.043
736.32	14.545
736.63	14.826
736.95	13.043
737.26	19.207
737.58	17.178
737.89	16.265
738.21	16.556
738.52	16.722
738.83	22.344
739.15	22.300
739.46	20.690
739.78	18.027
740.09	22.741
740.41	20.245
740.72	20.952
741.04	22.378
741.35	25.391
741.66	26.877
741.98	21.459
742.29	25.926
742.61	20.354
742.92	22.458
743.23	23.600
743.55	19.245
743.86	21.569
744.18	19.915
744.49	21.901
744.80	22.581
745.12	22.321
745.43	21.495
745.74	20.444
746.06	18.860
746.37	24.651
746.68	24.779
747.00	26.457
747.31	24.370
747.62	19.262
747.94	22.747
748.25	23.346
748.56	25.847
748.88	24.554
749.19	23.721
749.50	21.461
749.82	23.045
750.13	19.763
750.44	20.333
750.75	15.101
751.07	18.092
751.38	18.482
751.69	21.886
752.01	16.434
752.32	19.601
752.63	24.832
752.94	19.231
753.26	20.703
753.57	19.455
753.88	20.599
754.19	20.578
754.51	19.601
754.82	17.450
755.13	20.946
755.44	20.370
755.75	24.055
756.07	16.781
756.38	16.013
756.69	18.438
757.00	20.178
757.31	20.563
757.63	13.499
757.94	13.830
758.25	17.633
758.56	15.103
758.87	20.551
759.18	16.570
759.50	21.277
759.81	18.398
760.12	17.135
760.43	14.566
760.74	16.456
761.05	16.976
761.36	14.062
761.67	16.981
761.99	18.310
762.30	15.756
762.61	16.667
762.92	20.076
763.23	20.755
763.54	22.308
763.85	16.342
764.16	21.528
764.47	20.946
764.78	17.915
765.10	19.207
765.41	14.489
765.72	15.746
766.03	16.012
766.34	12.544
766.65	21.673
766.96	25.101
767.27	27.103
767.58	32.178
767.89	24.862
768.20	23.171
768.51	22.449
768.82	25.439
769.13	17.647
769.44	20.301
769.75	14.981
770.06	23.529
770.37	20.175
770.68	21.778
770.99	23.729
771.30	22.594
771.61	22.308
771.92	19.847
772.23	20.161
772.54	26.222
772.85	29.208
773.16	25.000
773.47	23.333
773.78	25.248
774.09	26.136
774.39	29.091
774.70	24.118
775.01	27.632
775.32	22.360
775.63	34.247
775.94	33.333
776.25	33.793
776.56	29.771
776.87	30.534
777.18	24.242
777.48	40.157
777.79	33.077
778.10	31.061
778.41	38.806
778.72	29.323
779.03	33.974
779.34	25.000
779.65	32.919
779.95	31.677
780.26	25.595
780.57	34.694
780.88	35.461
781.19	32.500
781.50	34.911
781.80	28.415
782.11	31.217
782.42	23.563
782.73	31.073
783.04	22.581
783.34	26.357
783.65	33.333
783.96	28.387
784.27	21.192
784.57	23.684
784.88	31.884
785.19	43.333
785.50	41.379
785.81	40.310
786.11	29.630
786.42	46.457
786.73	36.937
787.04	33.962
787.34	31.707
787.65	39.394
787.96	35.606
788.26	34.646
788.57	37.226
788.88	25.352
789.19	35.878
789.49	32.432
789.80	37.500
790.11	29.752
790.41	48.148
790.72	41.667
791.03	33.654
791.33	42.424
791.64	44.211
791.95	37.895
792.25	27.083
792.56	38.000
792.87	48.780
793.17	53.409
793.48	56.471
793.79	44.828
794.09	55.682
794.40	45.690
794.70	37.302
795.01	34.615
795.32	29.771
795.62	29.060
795.93	33.613
796.23	39.837
796.54	39.796
796.85	53.409
797.15	57.143
797.46	50.000
797.76	38.750
798.07	57.333
798.37	63.750
798.68	56.250
798.99	63.415
799.29	56.000
799.60	46.512
799.90	39.474
800.21	53.030
800.51	59.155
800.82	58.621
801.12	56.923
801.43	58.667
801.73	67.241
802.04	66.234
802.34	53.425
802.65	66.667
802.95	56.522
803.26	59.677
803.56	88.333
803.87	70.149
804.17	53.968
804.48	67.925
804.78	56.944
805.09	81.818
805.39	65.079
805.70	43.860
806.00	51.429
806.30	59.375
806.61	58.824
806.91	42.222
807.22	35.870
807.52	46.053
807.83	64.474
808.13	57.971
808.43	56.452
808.74	49.315
809.04	51.786
809.35	70.588
809.65	78.788
809.95	70.588
810.26	83.333
810.56	82.813
810.86	71.429
811.17	75.439
811.47	89.130
811.77	68.966
812.08	56.897
812.38	57.143
812.69	83.333
812.99	66.667
813.29	94.286
813.59	96.774
813.90	84.483
814.20	73.770
814.50	74.000
814.81	63.158
815.11	81.481
815.41	53.571
815.72	53.571
816.02	78.000
816.32	104.878
816.62	79.310
816.93	115.152
817.23	107.317
817.53	87.500
817.84	104.444
818.14	88.095
818.44	52.083
818.74	88.679
819.04	89.744
819.35	81.818
819.65	82.692
819.95	122.222
820.25	119.149
820.56	110.811
820.86	84.211
821.16	68.085
821.46	86.842
821.76	80.000
822.07	69.048
822.37	84.211
822.67	97.674
822.97	92.105
823.27	95.652
823.57	121.875
823.88	100.000
824.18	96.970
824.48	108.696
824.78	130.556
825.08	156.522
825.38	131.034
825.69	102.941
825.99	72.340
826.29	88.889
826.59	100.000
826.89	116.667
827.19	97.143
827.49	116.129
827.79	107.692
828.09	85.714
828.39	102.778
828.70	91.892
829.00	121.429
829.30	181.250
829.60	97.222
829.90	116.129
830.20	130.303
830.50	110.811
830.80	162.500
831.10	138.462
831.40	138.095
831.70	133.333
832.00	123.333
832.30	108.696
832.60	150.000
832.90	154.545
833.20	140.000
833.50	128.947
833.80	97.059
834.10	123.684
834.40	142.105
834.70	76.667
835.00	156.000
835.30	83.784
835.60	140.625
835.90	108.108
836.20	150.000
836.50	81.818
836.80	100.000
837.10	156.522
837.40	300.000
837.70	89.474
838.00	150.000
838.30	166.667
838.60	132.000
838.90	230.000
839.19	175.000
839.49	140.000
839.79	89.655
840.09	134.615
840.39	200.000
840.69	163.158
840.99	166.667
841.29	217.391
841.59	170.000
841.88	144.000
842.18	366.667
842.48	128.571
842.78	140.741
843.08	246.154
843.38	104.545
843.68	207.143
843.97	485.714
844.27	156.522
844.57	1350.000
844.87	228.571
845.17	261.111
845.47	133.333
845.76	233.333
846.06	514.286
846.36	188.235
846.66	215.385
846.96	256.250
847.25	300.000
847.55	173.684
847.85	161.111
848.15	500.000
848.44	263.636
848.74	176.190
849.04	179.167
849.34	152.941
849.63	187.500
849.93	193.750
850.23	1200.000
850.53	387.500
850.82	209.091
851.12	147.059
851.42	170.833
851.71	275.000
852.01	0.000
852.31	241.176
852.61	430.000
852.90	150.000
853.20	322.222
853.50	-2400.000
853.79	128.000
854.09	150.000
854.39	141.379
854.68	106.897
854.98	166.667
855.28	103.226
855.57	228.571
855.87	211.111
856.17	122.222
856.46	147.368
856.76	90.323
857.05	252.941
857.35	218.182
857.65	207.692
857.94	170.000
858.24	400.000
858.53	285.714
858.83	514.286
859.13	165.217
859.42	311.111
859.72	450.000
860.01	183.333
860.31	425.000
860.60	280.000
860.90	362.500
861.20	269.231
861.49	371.429
861.79	-2800.000
862.08	528.571
862.38	311.111
862.67	200.000
862.97	380.000
863.26	123.333
863.56	1050.000
863.85	338.462
864.15	252.941
864.44	183.333
864.74	391.667
865.03	354.545
865.33	375.000
865.62	280.000
865.92	700.000
866.21	700.000
866.51	560.000
866.80	216.667
867.10	1133.333
867.39	3200.000
867.69	500.000
867.98	1025.000
868.27	171.429
868.57	266.667
868.86	725.000
869.16	190.476
869.45	2900.000
869.75	-466.667
870.04	800.000
870.33	700.000
870.63	350.000
870.92	229.412
871.22	700.000
871.51	485.714
871.80	333.333
872.10	353.846
>>>>>End Processed Spectral Data<<<<<
