SpectraSuite Data File
++++++++++++++++++++++++++++++++++++
Date: Tue May 12 16:59:39 PDT 2015
User: schluterlab
Dark Spectrum Present: Yes
Reference Spectrum Present: Yes
Number of Sampled Component Spectra: 1
Spectrometers: USB2E3373
Integration Time (usec): 3000 (USB2E3373)
Spectra Averaged: 3 (USB2E3373)
Boxcar Smoothing: 0 (USB2E3373)
Correct for Electrical Dark: No (USB2E3373)
Strobe/Lamp Enabled: No (USB2E3373)
Correct for Detector Non-linearity: No (USB2E3373)
Correct for Stray Light: No (USB2E3373)
Number of Pixels in Processed Spectrum: 2048
>>>>>Begin Processed Spectral Data<<<<<
178.53	0.000
178.91	-150.000
179.29	-625.000
179.67	-3100.000
180.04	-193.333
180.42	800.000
180.80	1800.000
181.18	0.000
181.56	-325.000
181.94	0.000
182.31	1133.333
182.69	-2900.000
183.07	600.000
183.45	-3800.000
183.83	-1700.000
184.20	440.000
184.58	400.000
184.96	-223.077
185.34	-200.000
185.72	1600.000
186.09	-1000.000
186.47	-3300.000
186.85	700.000
187.23	580.000
187.61	1750.000
187.98	412.500
188.36	207.143
188.74	416.667
189.12	425.000
189.49	975.000
189.87	0.000
190.25	612.500
190.63	2600.000
191.00	-175.000
191.38	-4200.000
191.76	-700.000
192.14	475.000
192.51	-3800.000
192.89	2000.000
193.27	933.333
193.65	-1333.333
194.02	-720.000
194.40	357.143
194.78	-242.857
195.15	253.333
195.53	-3500.000
195.91	-660.000
196.29	4600.000
196.66	231.250
197.04	700.000
197.42	-1600.000
197.79	750.000
198.17	333.333
198.55	0.000
198.92	485.714
199.30	1133.333
199.68	1950.000
200.05	766.667
200.43	-533.333
200.81	177.778
201.18	2900.000
201.56	391.667
201.94	-725.000
202.31	-300.000
202.69	-560.000
203.07	2800.000
203.44	-633.333
203.82	283.333
204.19	620.000
204.57	-1800.000
204.95	-725.000
205.32	-660.000
205.70	483.333
206.08	800.000
206.45	-933.333
206.83	333.333
207.20	157.895
207.58	375.000
207.96	800.000
208.33	0.000
208.71	657.143
209.08	640.000
209.46	-3000.000
209.84	-850.000
210.21	960.000
210.59	-700.000
210.96	350.000
211.34	-875.000
211.71	400.000
212.09	1025.000
212.46	1400.000
212.84	-466.667
213.22	466.667
213.59	-3500.000
213.97	320.000
214.34	775.000
214.72	1200.000
215.09	1100.000
215.47	-3400.000
215.84	-340.000
216.22	-362.500
216.59	0.000
216.97	0.000
217.34	1300.000
217.72	-1550.000
218.09	1400.000
218.47	475.000
218.84	850.000
219.22	800.000
219.59	800.000
219.97	585.714
220.34	444.444
220.72	1700.000
221.09	3100.000
221.47	241.667
221.84	1300.000
222.22	430.000
222.59	300.000
222.97	250.000
223.34	231.250
223.72	-1850.000
224.09	1166.667
224.46	261.538
224.84	-875.000
225.21	533.333
225.59	306.667
225.96	1366.667
226.34	-560.000
226.71	-800.000
227.08	-640.000
227.46	0.000
227.83	-516.667
228.21	-1600.000
228.58	400.000
228.95	1000.000
229.33	444.444
229.70	1100.000
230.08	346.154
230.45	2900.000
230.82	-875.000
231.20	-933.333
231.57	-1033.333
231.95	680.000
232.32	383.333
232.69	516.667
233.07	241.667
233.44	-1700.000
233.81	253.333
234.19	155.556
234.56	287.500
234.93	264.706
235.31	255.000
235.68	206.250
236.05	160.714
236.43	159.259
236.80	321.429
237.17	186.207
237.55	137.500
237.92	137.500
238.29	169.697
238.67	153.125
239.04	124.390
239.41	89.583
239.79	115.000
240.16	112.500
240.53	70.492
240.91	81.159
241.28	96.610
241.65	90.909
242.02	101.408
242.40	84.286
242.77	78.022
243.14	87.342
243.51	76.768
243.89	71.963
244.26	57.009
244.63	79.208
245.00	64.220
245.38	57.627
245.75	62.879
246.12	61.481
246.49	58.865
246.87	60.656
247.24	67.333
247.61	58.750
247.98	66.667
248.36	55.758
248.73	63.776
249.10	54.762
249.47	54.000
249.84	56.716
250.22	62.703
250.59	51.500
250.96	51.477
251.33	55.349
251.70	59.375
252.08	50.420
252.45	50.199
252.82	50.570
253.19	51.383
253.56	48.846
253.94	53.986
254.31	51.550
254.68	51.568
255.05	54.828
255.42	53.285
255.79	53.094
256.16	53.898
256.54	51.948
256.91	48.693
257.28	48.495
257.65	46.082
258.02	46.608
258.39	49.570
258.76	46.377
259.14	47.429
259.51	48.397
259.88	51.368
260.25	46.703
260.62	46.575
260.99	45.730
261.36	46.518
261.73	48.670
262.10	45.026
262.47	47.750
262.85	50.133
263.22	46.272
263.59	47.315
263.96	45.113
264.33	45.679
264.70	51.843
265.07	47.561
265.44	44.495
265.81	44.575
266.18	46.911
266.55	46.336
266.92	46.532
267.29	48.246
267.66	45.740
268.03	45.740
268.40	41.860
268.77	48.018
269.14	44.469
269.51	44.098
269.88	43.673
270.25	40.605
270.62	47.425
270.99	45.436
271.36	45.528
271.73	44.235
272.10	45.253
272.47	44.048
272.84	42.715
273.21	43.182
273.58	44.332
273.95	44.148
274.32	42.412
274.69	47.244
275.06	44.991
275.43	42.720
275.80	42.264
276.17	43.015
276.54	41.869
276.91	45.149
277.28	42.883
277.65	45.572
278.02	44.118
278.39	40.108
278.76	41.034
279.13	41.103
279.50	43.091
279.87	42.272
280.23	43.646
280.60	41.971
280.97	44.138
281.34	41.914
281.71	40.174
282.08	41.197
282.45	41.554
282.82	43.980
283.19	43.720
283.56	40.165
283.92	43.648
284.29	41.930
284.66	42.353
285.03	42.454
285.40	39.339
285.77	40.123
286.14	39.628
286.51	40.644
286.87	39.241
287.24	38.288
287.61	41.185
287.98	40.000
288.35	40.444
288.72	38.088
289.08	39.640
289.45	41.311
289.82	39.844
290.19	39.385
290.56	36.099
290.93	38.561
291.29	36.878
291.66	36.864
292.03	36.746
292.40	38.076
292.77	33.983
293.13	35.806
293.50	35.897
293.87	35.908
294.24	36.643
294.60	35.666
294.97	35.804
295.34	35.724
295.71	34.560
296.08	36.133
296.44	35.451
296.81	34.615
297.18	35.108
297.55	32.759
297.91	33.251
298.28	34.300
298.65	32.393
299.02	34.379
299.38	33.213
299.75	32.805
300.12	32.225
300.48	35.480
300.85	34.327
301.22	33.721
301.59	32.665
301.95	32.789
302.32	33.178
302.69	34.389
303.05	35.578
303.42	33.072
303.79	33.911
304.15	33.883
304.52	33.298
304.89	33.475
305.25	33.482
305.62	33.902
305.99	33.152
306.35	34.842
306.72	34.547
307.09	33.333
307.45	35.164
307.82	32.407
308.19	34.845
308.55	34.100
308.92	35.329
309.29	34.813
309.65	34.886
310.02	34.990
310.38	35.793
310.75	34.908
311.12	33.908
311.48	37.259
311.85	35.878
312.22	36.581
312.58	36.249
312.95	36.893
313.31	38.670
313.68	37.430
314.05	39.377
314.41	39.106
314.78	39.867
315.14	40.664
315.51	40.208
315.87	40.785
316.24	40.056
316.61	41.629
316.97	41.468
317.34	43.217
317.70	42.932
318.07	44.840
318.43	43.849
318.80	46.147
319.16	45.455
319.53	46.195
319.89	46.953
320.26	47.486
320.62	50.092
320.99	49.952
321.35	49.072
321.72	52.087
322.08	52.909
322.45	52.589
322.81	53.339
323.18	54.440
323.54	56.446
323.91	58.114
324.27	58.267
324.64	57.958
325.00	61.293
325.37	61.551
325.73	62.732
326.10	64.954
326.46	65.070
326.83	66.400
327.19	68.273
327.56	69.010
327.92	71.803
328.29	72.913
328.65	72.432
329.01	73.139
329.38	74.873
329.74	72.758
330.11	73.328
330.47	75.362
330.84	72.476
331.20	76.058
331.56	77.029
331.93	79.470
332.29	77.126
332.66	78.486
333.02	77.577
333.38	79.407
333.75	78.899
334.11	77.013
334.48	79.060
334.84	77.196
335.20	80.411
335.57	78.589
335.93	77.544
336.29	78.856
336.66	81.904
337.02	80.068
337.38	81.341
337.75	82.010
338.11	80.338
338.47	79.340
338.84	78.747
339.20	81.039
339.56	81.077
339.93	80.268
340.29	79.244
340.65	82.565
341.02	80.370
341.38	80.049
341.74	82.392
342.11	81.219
342.47	79.491
342.83	81.460
343.20	79.709
343.56	79.349
343.92	82.164
344.28	81.499
344.65	82.315
345.01	81.429
345.37	79.968
345.73	81.746
346.10	82.948
346.46	81.659
346.82	80.324
347.19	81.376
347.55	80.796
347.91	79.003
348.27	80.403
348.63	81.962
349.00	81.340
349.36	81.479
349.72	83.104
350.08	83.152
350.45	81.036
350.81	81.040
351.17	81.741
351.53	82.217
351.89	82.129
352.26	80.801
352.62	80.845
352.98	82.515
353.34	83.205
353.70	81.957
354.07	81.462
354.43	82.028
354.79	81.169
355.15	83.231
355.51	82.326
355.87	82.455
356.24	82.910
356.60	80.746
356.96	81.350
357.32	81.688
357.68	82.232
358.04	81.307
358.40	81.259
358.77	82.044
359.13	81.982
359.49	84.136
359.85	82.725
360.21	81.352
360.57	83.431
360.93	81.890
361.29	83.333
361.66	83.669
362.02	81.747
362.38	83.694
362.74	83.439
363.10	83.450
363.46	82.251
363.82	82.328
364.18	83.073
364.54	83.977
364.90	83.199
365.26	82.373
365.62	83.840
365.98	83.276
366.35	83.379
366.71	82.929
367.07	82.730
367.43	85.695
367.79	82.247
368.15	82.904
368.51	84.425
368.87	84.307
369.23	84.823
369.59	81.794
369.95	85.594
370.31	81.725
370.67	83.692
371.03	82.773
371.39	83.864
371.75	82.624
372.11	81.781
372.47	84.932
372.83	84.228
373.19	83.482
373.55	83.505
373.91	82.320
374.27	82.937
374.63	83.661
374.99	82.682
375.35	84.409
375.71	83.905
376.07	85.146
376.42	82.992
376.78	85.164
377.14	85.780
377.50	82.335
377.86	83.985
378.22	83.973
378.58	85.472
378.94	85.094
379.30	84.172
379.66	83.323
380.02	84.399
380.38	83.841
380.74	84.429
381.09	86.157
381.45	83.353
381.81	84.161
382.17	84.737
382.53	84.583
382.89	84.151
383.25	83.245
383.61	84.092
383.97	84.223
384.32	83.846
384.68	84.492
385.04	85.053
385.40	83.215
385.76	83.265
386.12	85.220
386.48	85.106
386.83	85.269
387.19	86.042
387.55	83.863
387.91	85.104
388.27	85.604
388.62	84.507
388.98	82.974
389.34	82.689
389.70	83.314
390.06	85.610
390.42	83.467
390.77	82.924
391.13	83.887
391.49	83.182
391.85	84.246
392.20	83.135
392.56	83.333
392.92	83.212
393.28	83.016
393.64	83.142
393.99	83.225
394.35	83.225
394.71	81.363
395.07	84.611
395.42	83.782
395.78	84.824
396.14	84.819
396.50	85.018
396.85	83.354
397.21	83.875
397.57	83.025
397.92	83.131
398.28	84.446
398.64	82.432
399.00	81.828
399.35	81.428
399.71	82.285
400.07	82.648
400.42	82.866
400.78	81.877
401.14	83.500
401.49	82.373
401.85	82.851
402.21	82.601
402.57	84.381
402.92	84.061
403.28	82.399
403.63	82.284
403.99	83.172
404.35	82.591
404.70	83.520
405.06	81.864
405.42	81.628
405.77	81.477
406.13	81.508
406.49	80.330
406.84	80.034
407.20	82.363
407.55	81.600
407.91	83.918
408.27	82.474
408.62	82.791
408.98	82.082
409.34	81.064
409.69	82.452
410.05	82.349
410.40	80.683
410.76	80.137
411.11	82.109
411.47	80.123
411.83	79.965
412.18	81.944
412.54	81.742
412.89	80.531
413.25	80.388
413.60	81.951
413.96	81.628
414.31	80.815
414.67	81.688
415.03	81.226
415.38	81.262
415.74	82.249
416.09	81.886
416.45	82.482
416.80	82.232
417.16	80.140
417.51	83.312
417.87	80.350
418.22	81.652
418.58	83.822
418.93	81.916
419.29	81.331
419.64	81.829
420.00	83.055
420.35	82.230
420.71	82.789
421.06	81.695
421.42	81.347
421.77	83.787
422.12	83.131
422.48	81.150
422.83	83.092
423.19	82.127
423.54	82.227
423.90	83.409
424.25	83.379
424.61	82.937
424.96	84.190
425.31	83.196
425.67	86.869
426.02	82.557
426.38	83.081
426.73	85.483
427.09	84.460
427.44	84.524
427.79	84.563
428.15	86.918
428.50	84.686
428.85	84.891
429.21	84.495
429.56	83.400
429.92	84.734
430.27	84.132
430.62	82.330
430.98	83.433
431.33	81.855
431.68	82.568
432.04	82.618
432.39	84.907
432.74	85.890
433.10	85.770
433.45	87.076
433.80	86.376
434.16	83.868
434.51	86.326
434.86	84.322
435.22	86.170
435.57	86.485
435.92	86.454
436.28	85.772
436.63	85.413
436.98	87.162
437.34	85.788
437.69	84.882
438.04	84.355
438.39	84.180
438.75	85.189
439.10	86.616
439.45	84.568
439.81	87.276
440.16	84.920
440.51	86.318
440.86	87.578
441.22	85.877
441.57	85.827
441.92	86.426
442.27	85.515
442.63	86.230
442.98	86.153
443.33	86.824
443.68	86.922
444.03	87.323
444.39	86.394
444.74	85.352
445.09	86.888
445.44	87.460
445.79	86.745
446.15	86.842
446.50	85.918
446.85	87.251
447.20	85.970
447.55	89.668
447.91	87.214
448.26	86.581
448.61	87.728
448.96	87.582
449.31	89.989
449.66	87.874
450.02	87.412
450.37	88.840
450.72	87.824
451.07	86.969
451.42	86.900
451.77	88.946
452.12	88.145
452.47	87.789
452.83	87.662
453.18	88.468
453.53	89.284
453.88	89.600
454.23	88.437
454.58	87.587
454.93	88.841
455.28	88.494
455.63	88.121
455.98	87.422
456.34	88.997
456.69	88.659
457.04	88.544
457.39	87.486
457.74	88.739
458.09	88.209
458.44	87.130
458.79	89.867
459.14	87.834
459.49	88.052
459.84	89.076
460.19	87.684
460.54	86.952
460.89	89.072
461.24	87.285
461.59	88.889
461.94	87.943
462.29	88.330
462.64	88.254
462.99	88.292
463.34	87.946
463.69	89.171
464.04	89.925
464.39	88.437
464.74	87.808
465.09	87.464
465.44	89.173
465.79	87.861
466.14	85.957
466.49	87.141
466.84	86.288
467.19	89.104
467.54	88.408
467.89	88.380
468.24	89.346
468.59	88.214
468.94	89.855
469.29	87.783
469.64	87.267
469.99	88.175
470.34	88.741
470.68	87.448
471.03	88.926
471.38	88.146
471.73	90.202
472.08	92.042
472.43	90.379
472.78	90.397
473.13	87.484
473.48	89.059
473.83	89.164
474.17	89.544
474.52	88.270
474.87	88.516
475.22	89.834
475.57	89.244
475.92	88.452
476.27	87.922
476.61	88.257
476.96	88.192
477.31	90.643
477.66	90.607
478.01	88.293
478.36	87.796
478.70	87.593
479.05	89.487
479.40	88.790
479.75	90.367
480.10	89.400
480.45	89.496
480.79	88.295
481.14	89.111
481.49	88.015
481.84	89.226
482.19	89.345
482.53	88.011
482.88	89.516
483.23	88.769
483.58	89.273
483.92	89.717
484.27	86.815
484.62	88.540
484.97	87.417
485.31	86.885
485.66	85.635
486.01	84.431
486.36	84.076
486.70	83.857
487.05	84.569
487.40	84.236
487.75	86.100
488.09	85.426
488.44	86.616
488.79	87.192
489.13	87.383
489.48	88.933
489.83	87.198
490.17	88.026
490.52	88.200
490.87	87.931
491.22	89.096
491.56	88.318
491.91	88.486
492.26	88.151
492.60	91.162
492.95	88.582
493.30	89.490
493.64	88.814
493.99	89.490
494.34	89.242
494.68	89.376
495.03	89.717
495.37	89.644
495.72	89.557
496.07	88.724
496.41	88.749
496.76	88.772
497.11	88.775
497.45	87.681
497.80	89.852
498.14	87.702
498.49	88.579
498.84	90.187
499.18	87.569
499.53	88.746
499.87	88.275
500.22	88.577
500.56	90.251
500.91	89.425
501.26	89.665
501.60	89.344
501.95	88.351
502.29	89.156
502.64	87.428
502.98	87.283
503.33	88.909
503.67	87.020
504.02	87.461
504.36	87.647
504.71	89.782
505.06	88.644
505.40	88.301
505.75	88.728
506.09	88.847
506.44	88.816
506.78	89.887
507.13	90.499
507.47	89.229
507.82	89.538
508.16	90.740
508.51	89.034
508.85	87.797
509.19	90.113
509.54	87.842
509.88	89.160
510.23	89.020
510.57	87.548
510.92	89.660
511.26	91.516
511.61	88.577
511.95	87.954
512.30	88.950
512.64	89.252
512.98	90.364
513.33	89.447
513.67	89.436
514.02	90.078
514.36	88.681
514.70	90.187
515.05	89.664
515.39	90.022
515.74	92.947
516.08	90.795
516.42	92.951
516.77	90.453
517.11	89.387
517.46	88.847
517.80	90.333
518.14	91.324
518.49	89.085
518.83	89.176
519.17	90.904
519.52	91.043
519.86	89.428
520.20	89.753
520.55	90.220
520.89	90.460
521.23	91.939
521.58	91.222
521.92	91.079
522.26	91.943
522.61	90.493
522.95	92.613
523.29	90.292
523.64	91.387
523.98	91.373
524.32	90.888
524.66	91.536
525.01	91.716
525.35	90.218
525.69	91.451
526.04	91.672
526.38	90.171
526.72	91.050
527.06	90.361
527.41	91.838
527.75	92.696
528.09	90.307
528.43	92.373
528.78	91.354
529.12	92.294
529.46	90.941
529.80	89.136
530.15	90.572
530.49	90.554
530.83	91.286
531.17	90.898
531.51	90.926
531.86	87.681
532.20	91.100
532.54	91.149
532.88	92.005
533.22	90.128
533.57	91.885
533.91	88.986
534.25	88.171
534.59	90.058
534.93	87.600
535.27	87.479
535.62	89.032
535.96	89.184
536.30	91.347
536.64	90.559
536.98	89.994
537.32	89.688
537.66	88.457
538.01	88.483
538.35	89.395
538.69	89.320
539.03	87.998
539.37	87.257
539.71	88.889
540.05	88.554
540.39	90.692
540.73	90.190
541.07	89.523
541.42	88.557
541.76	88.656
542.10	87.731
542.44	90.087
542.78	88.546
543.12	87.301
543.46	87.845
543.80	89.223
544.14	88.545
544.48	88.260
544.82	87.584
545.16	85.671
545.50	89.613
545.84	87.563
546.18	90.572
546.52	88.328
546.86	89.168
547.20	88.049
547.54	88.347
547.88	86.922
548.22	87.553
548.56	85.857
548.90	85.469
549.24	89.071
549.58	88.918
549.92	89.260
550.26	90.061
550.60	89.222
550.94	89.620
551.28	90.759
551.62	90.000
551.96	88.311
552.30	87.541
552.64	89.450
552.98	88.789
553.32	85.723
553.66	86.840
554.00	86.937
554.34	88.083
554.68	89.247
555.02	89.274
555.36	86.303
555.69	89.594
556.03	86.433
556.37	86.679
556.71	89.570
557.05	88.008
557.39	89.200
557.73	86.927
558.07	88.062
558.41	89.171
558.75	87.620
559.08	89.778
559.42	90.551
559.76	90.021
560.10	88.851
560.44	87.193
560.78	88.683
561.12	87.413
561.45	86.170
561.79	87.516
562.13	87.050
562.47	86.567
562.81	88.029
563.15	85.973
563.48	85.963
563.82	88.147
564.16	88.060
564.50	84.268
564.84	85.106
565.17	84.967
565.51	87.931
565.85	86.552
566.19	86.667
566.52	86.101
566.86	86.632
567.20	86.180
567.54	85.590
567.88	86.698
568.21	83.874
568.55	83.609
568.89	83.120
569.23	82.053
569.56	83.107
569.90	80.956
570.24	80.954
570.57	81.213
570.91	80.468
571.25	79.389
571.59	78.624
571.92	78.149
572.26	77.736
572.60	79.506
572.93	80.104
573.27	78.891
573.61	78.614
573.95	78.262
574.28	78.914
574.62	77.993
574.96	77.260
575.29	76.070
575.63	76.938
575.97	76.558
576.30	76.335
576.64	77.256
576.98	77.270
577.31	78.634
577.65	76.739
577.98	76.005
578.32	75.558
578.66	75.855
578.99	76.421
579.33	76.410
579.67	77.037
580.00	76.450
580.34	76.598
580.67	76.801
581.01	76.805
581.35	75.929
581.68	75.298
582.02	75.492
582.35	75.958
582.69	75.379
583.02	75.816
583.36	76.566
583.70	76.343
584.03	78.051
584.37	77.183
584.70	76.238
585.04	76.279
585.37	75.068
585.71	77.348
586.04	75.921
586.38	76.610
586.72	76.190
587.05	76.943
587.39	77.092
587.72	77.653
588.06	76.260
588.39	76.714
588.73	76.982
589.06	78.815
589.40	78.028
589.73	77.811
590.07	79.513
590.40	78.362
590.73	80.059
591.07	80.114
591.40	78.762
591.74	78.328
592.07	77.912
592.41	78.617
592.74	78.030
593.08	78.092
593.41	76.152
593.75	76.808
594.08	76.563
594.41	77.289
594.75	76.952
595.08	77.195
595.42	77.650
595.75	76.999
596.09	77.998
596.42	77.276
596.75	79.167
597.09	79.282
597.42	78.612
597.75	76.957
598.09	77.472
598.42	77.927
598.76	76.793
599.09	78.043
599.42	75.606
599.76	76.153
600.09	74.983
600.42	75.932
600.76	76.649
601.09	76.942
601.42	75.290
601.76	77.730
602.09	76.637
602.42	75.712
602.76	76.357
603.09	77.602
603.42	76.367
603.76	76.753
604.09	76.475
604.42	76.121
604.76	75.662
605.09	76.776
605.42	76.920
605.75	76.826
606.09	75.899
606.42	75.536
606.75	75.942
607.09	76.826
607.42	76.818
607.75	75.557
608.08	75.630
608.42	75.629
608.75	75.567
609.08	76.727
609.41	77.182
609.75	77.152
610.08	76.484
610.41	76.460
610.74	77.489
611.07	76.080
611.41	77.433
611.74	77.151
612.07	78.468
612.40	77.096
612.73	77.933
613.07	78.206
613.40	77.343
613.73	78.333
614.06	77.050
614.39	76.919
614.72	76.695
615.06	75.964
615.39	74.505
615.72	75.024
616.05	76.595
616.38	75.901
616.71	77.428
617.05	76.991
617.38	77.022
617.71	78.459
618.04	79.641
618.37	78.099
618.70	77.079
619.03	77.839
619.36	78.204
619.69	77.375
620.03	81.148
620.36	79.512
620.69	80.268
621.02	81.658
621.35	81.375
621.68	80.015
622.01	81.181
622.34	78.878
622.67	79.986
623.00	78.489
623.33	78.340
623.66	76.780
623.99	79.589
624.32	78.659
624.65	79.065
624.99	80.595
625.32	78.490
625.65	78.483
625.98	77.615
626.31	80.564
626.64	79.423
626.97	78.959
627.30	80.280
627.63	80.298
627.96	80.282
628.29	83.003
628.62	81.009
628.95	82.181
629.28	81.245
629.61	81.634
629.94	81.331
630.26	81.716
630.59	82.447
630.92	80.628
631.25	82.321
631.58	82.739
631.91	81.541
632.24	80.466
632.57	84.381
632.90	85.714
633.23	83.841
633.56	83.035
633.89	83.494
634.22	83.961
634.55	83.978
634.88	83.790
635.20	84.753
635.53	85.830
635.86	85.459
636.19	84.512
636.52	80.649
636.85	83.927
637.18	83.532
637.51	84.469
637.83	83.181
638.16	84.408
638.49	85.030
638.82	85.329
639.15	82.844
639.48	84.953
639.81	83.883
640.13	85.031
640.46	85.841
640.79	84.525
641.12	84.252
641.45	85.382
641.77	85.469
642.10	84.873
642.43	87.055
642.76	87.642
643.09	87.896
643.41	83.590
643.74	86.619
644.07	87.906
644.40	85.059
644.73	88.438
645.05	87.519
645.38	84.227
645.71	83.915
646.04	88.855
646.36	89.045
646.69	86.240
647.02	88.960
647.35	82.520
647.67	86.872
648.00	88.274
648.33	85.113
648.66	87.121
648.98	82.319
649.31	79.352
649.64	82.296
649.96	81.650
650.29	80.000
650.62	84.536
650.94	83.283
651.27	86.124
651.60	83.881
651.92	81.413
652.25	86.772
652.58	82.128
652.90	84.731
653.23	80.650
653.56	82.641
653.88	81.498
654.21	81.232
654.54	78.770
654.86	81.121
655.19	81.530
655.52	70.358
655.84	59.818
656.17	69.108
656.49	98.133
656.82	100.000
657.15	100.000
657.47	70.080
657.80	51.248
658.13	40.707
658.45	54.934
658.78	67.003
659.10	67.335
659.43	69.328
659.75	71.078
660.08	74.311
660.41	76.134
660.73	82.434
661.06	81.532
661.38	86.201
661.71	82.914
662.03	86.502
662.36	85.143
662.68	80.261
663.01	81.982
663.33	81.887
663.66	85.602
663.98	86.706
664.31	84.888
664.63	83.333
664.96	86.116
665.28	82.109
665.61	81.887
665.93	84.151
666.26	82.617
666.58	82.385
666.91	84.170
667.23	83.735
667.56	87.269
667.88	84.647
668.21	84.221
668.53	86.089
668.86	83.768
669.18	84.725
669.50	85.124
669.83	83.573
670.15	86.071
670.48	81.445
670.80	81.474
671.13	84.661
671.45	83.166
671.77	81.447
672.10	81.508
672.42	76.316
672.75	79.747
673.07	77.901
673.39	77.796
673.72	79.066
674.04	78.853
674.37	79.855
674.69	81.784
675.01	77.799
675.34	79.457
675.66	81.445
675.98	81.460
676.31	83.200
676.63	81.710
676.95	82.143
677.28	81.947
677.60	82.495
677.92	77.579
678.25	81.202
678.57	79.330
678.89	81.555
679.22	77.941
679.54	79.359
679.86	76.963
680.18	80.844
680.51	75.456
680.83	76.014
681.15	76.256
681.48	75.521
681.80	75.482
682.12	77.336
682.44	78.739
682.77	76.868
683.09	78.835
683.41	81.429
683.73	77.362
684.06	80.556
684.38	79.651
684.70	76.259
685.02	75.000
685.34	76.761
685.67	73.955
685.99	75.369
686.31	73.652
686.63	76.423
686.96	73.693
687.28	72.651
687.60	74.573
687.92	75.712
688.24	74.655
688.56	74.555
688.89	74.570
689.21	76.493
689.53	80.435
689.85	75.813
690.17	74.951
690.49	77.218
690.82	76.891
691.14	76.970
691.46	80.082
691.78	75.049
692.10	75.382
692.42	74.773
692.74	75.775
693.06	75.000
693.39	74.111
693.71	74.656
694.03	78.501
694.35	80.522
694.67	73.931
694.99	79.601
695.31	76.577
695.63	79.864
695.95	76.923
696.27	79.867
696.59	81.384
696.91	77.468
697.23	78.281
697.56	73.859
697.88	73.453
698.20	70.755
698.52	72.957
698.84	73.922
699.16	76.972
699.48	74.576
699.80	79.521
700.12	78.291
700.44	76.402
700.76	77.088
701.08	83.812
701.40	76.364
701.72	82.086
702.04	80.759
702.36	77.957
702.68	76.862
703.00	74.687
703.32	74.690
703.64	75.063
703.96	78.125
704.28	78.836
704.60	82.254
704.91	78.431
705.23	80.966
705.55	81.602
705.87	83.175
706.19	80.251
706.51	82.445
706.83	78.466
707.15	75.401
707.47	75.545
707.79	73.563
708.11	69.615
708.43	71.236
708.74	73.077
709.06	71.163
709.38	75.434
709.70	73.569
710.02	72.826
710.34	74.033
710.66	73.889
710.98	72.678
711.29	70.474
711.61	80.780
711.93	78.116
712.25	78.916
712.57	80.707
712.89	72.727
713.20	85.304
713.52	73.520
713.84	79.154
714.16	75.652
714.48	74.928
714.80	72.629
715.11	72.872
715.43	77.933
715.75	76.901
716.07	73.988
716.39	76.571
716.70	72.586
717.02	77.778
717.34	78.777
717.66	84.028
717.97	87.121
718.29	77.817
718.61	76.014
718.93	78.547
719.24	75.503
719.56	82.069
719.88	70.382
720.20	74.839
720.51	76.144
720.83	77.926
721.15	75.510
721.46	77.740
721.78	76.307
722.10	78.819
722.42	76.254
722.73	76.173
723.05	77.544
723.37	76.678
723.68	81.250
724.00	77.652
724.32	77.947
724.63	81.923
724.95	81.961
725.27	73.606
725.58	77.941
725.90	76.761
726.22	75.685
726.53	80.602
726.85	75.244
727.16	74.161
727.48	70.100
727.80	76.619
728.11	74.643
728.43	73.913
728.74	73.077
729.06	72.401
729.38	81.404
729.69	75.333
730.01	75.658
730.32	76.174
730.64	69.767
730.96	69.970
731.27	66.667
731.59	70.115
731.90	66.852
732.22	69.429
732.53	67.806
732.85	70.760
733.16	69.880
733.48	70.219
733.80	64.928
734.11	73.006
734.43	71.053
734.74	65.684
735.06	67.989
735.37	66.753
735.69	68.406
736.00	73.700
736.32	65.758
736.63	65.300
736.95	69.255
737.26	70.732
737.58	70.245
737.89	67.470
738.21	72.517
738.52	69.231
738.83	75.092
739.15	74.216
739.46	73.793
739.78	71.769
740.09	69.388
740.41	69.632
740.72	71.746
741.04	71.329
741.35	77.344
741.66	71.542
741.98	77.253
742.29	85.185
742.61	70.796
742.92	72.881
743.23	68.800
743.55	68.679
743.86	63.137
744.18	73.729
744.49	68.595
744.80	79.724
745.12	78.125
745.43	78.972
745.74	80.444
746.06	76.316
746.37	82.326
746.68	85.398
747.00	76.233
747.31	80.252
747.62	69.262
747.94	75.536
748.25	68.482
748.56	77.542
748.88	73.214
749.19	78.140
749.50	76.256
749.82	70.782
750.13	71.937
750.44	67.000
750.75	72.148
751.07	70.724
751.38	66.337
751.69	70.034
752.01	72.727
752.32	64.784
752.63	68.456
752.94	63.636
753.26	69.531
753.57	73.930
753.88	64.794
754.19	70.397
754.51	67.442
754.82	66.779
755.13	65.203
755.44	70.370
755.75	68.041
756.07	68.493
756.38	67.320
756.69	67.188
757.00	66.172
757.31	63.380
757.63	62.810
757.94	61.968
758.25	59.662
758.56	60.641
758.87	63.659
759.18	65.407
759.50	64.438
759.81	67.062
760.12	63.202
760.43	63.025
760.74	64.810
761.05	63.926
761.36	62.760
761.67	62.264
761.99	62.254
762.30	70.418
762.61	63.889
762.92	69.697
763.23	69.057
763.54	68.462
763.85	67.704
764.16	65.625
764.47	66.216
764.78	61.889
765.10	59.451
765.41	61.648
765.72	60.221
766.03	62.236
766.34	67.596
766.65	67.300
766.96	71.660
767.27	79.439
767.58	73.267
767.89	83.425
768.20	85.976
768.51	70.918
768.82	64.912
769.13	64.706
769.44	66.541
769.75	64.794
770.06	66.807
770.37	67.982
770.68	68.889
770.99	72.881
771.30	66.527
771.61	69.615
771.92	69.084
772.23	66.129
772.54	73.778
772.85	71.287
773.16	77.717
773.47	76.667
773.78	67.822
774.09	78.409
774.39	78.182
774.70	74.706
775.01	73.026
775.32	75.776
775.63	83.562
775.94	79.630
776.25	75.172
776.56	86.260
776.87	81.679
777.18	74.242
777.48	91.339
777.79	82.308
778.10	79.545
778.41	85.821
778.72	85.714
779.03	77.564
779.34	72.973
779.65	81.366
779.95	75.776
780.26	75.000
780.57	85.714
780.88	78.014
781.19	90.000
781.50	71.598
781.80	72.131
782.11	69.841
782.42	64.368
782.73	74.011
783.04	80.000
783.34	82.171
783.65	65.986
783.96	75.484
784.27	71.523
784.57	65.789
784.88	78.261
785.19	78.333
785.50	82.759
785.81	80.620
786.11	80.000
786.42	77.165
786.73	87.387
787.04	82.075
787.34	82.927
787.65	86.364
787.96	71.212
788.26	79.528
788.57	78.102
788.88	70.423
789.19	73.282
789.49	83.784
789.80	75.781
790.11	72.727
790.41	77.778
790.72	78.704
791.03	78.846
791.33	84.848
791.64	78.947
791.95	88.421
792.25	78.125
792.56	82.000
792.87	97.561
793.17	90.909
793.48	95.294
793.79	93.103
794.09	95.455
794.40	91.379
794.70	67.460
795.01	78.462
795.32	76.336
795.62	77.778
795.93	83.193
796.23	69.919
796.54	89.796
796.85	90.909
797.15	96.104
797.46	100.000
797.76	87.500
798.07	104.000
798.37	96.250
798.68	105.000
798.99	93.902
799.29	93.333
799.60	73.256
799.90	77.632
800.21	104.545
800.51	84.507
800.82	110.345
801.12	120.000
801.43	97.333
801.73	129.310
802.04	96.104
802.34	93.151
802.65	123.529
802.95	108.696
803.26	101.613
803.56	118.333
803.87	94.030
804.17	103.175
804.48	100.000
804.78	87.500
805.09	93.939
805.39	107.937
805.70	98.246
806.00	101.429
806.30	100.000
806.61	92.941
806.91	91.111
807.22	86.957
807.52	93.421
807.83	94.737
808.13	98.551
808.43	98.387
808.74	95.890
809.04	121.429
809.35	114.706
809.65	107.576
809.95	121.569
810.26	127.778
810.56	126.563
810.86	102.041
811.17	101.754
811.47	110.870
811.77	89.655
812.08	91.379
812.38	116.667
812.69	145.238
812.99	111.111
813.29	154.286
813.59	170.968
813.90	101.724
814.20	119.672
814.50	104.000
814.81	107.018
815.11	129.630
815.41	98.214
815.72	110.714
816.02	138.000
816.32	139.024
816.62	120.690
816.93	154.545
817.23	117.073
817.53	107.143
817.84	102.222
818.14	116.667
818.44	122.917
818.74	107.547
819.04	107.692
819.35	169.697
819.65	115.385
819.95	127.778
820.25	114.894
820.56	140.541
820.86	139.474
821.16	129.787
821.46	126.316
821.76	85.455
822.07	119.048
822.37	128.947
822.67	132.558
822.97	118.421
823.27	136.957
823.57	137.500
823.88	158.974
824.18	151.515
824.48	182.609
824.78	147.222
825.08	152.174
825.38	172.414
825.69	135.294
825.99	102.128
826.29	122.222
826.59	151.429
826.89	150.000
827.19	128.571
827.49	177.419
827.79	203.846
828.09	109.524
828.39	155.556
828.70	86.486
829.00	178.571
829.30	262.500
829.60	138.889
829.90	151.613
830.20	133.333
830.50	154.054
830.80	183.333
831.10	219.231
831.40	252.381
831.70	241.667
832.00	166.667
832.30	173.913
832.60	170.833
832.90	175.758
833.20	245.000
833.50	147.368
833.80	129.412
834.10	128.947
834.40	205.263
834.70	126.667
835.00	228.000
835.30	124.324
835.60	159.375
835.90	129.730
836.20	211.538
836.50	150.000
836.80	109.756
837.10	195.652
837.40	338.462
837.70	178.947
838.00	170.000
838.30	183.333
838.60	160.000
838.90	440.000
839.19	250.000
839.49	170.000
839.79	141.379
840.09	207.692
840.39	226.667
840.69	242.105
840.99	161.905
841.29	230.435
841.59	215.000
841.88	180.000
842.18	444.444
842.48	196.429
842.78	177.778
843.08	269.231
843.38	200.000
843.68	278.571
843.97	500.000
844.27	126.087
844.57	1600.000
844.87	364.286
845.17	261.111
845.47	214.286
845.76	175.000
846.06	528.571
846.36	211.765
846.66	353.846
846.96	268.750
847.25	253.846
847.55	194.737
847.85	200.000
848.15	640.000
848.44	354.545
848.74	147.619
849.04	141.667
849.34	152.941
849.63	268.750
849.93	262.500
850.23	1133.333
850.53	575.000
850.82	345.455
851.12	241.176
851.42	200.000
851.71	268.750
852.01	0.000
852.31	235.294
852.61	370.000
852.90	204.167
853.20	355.556
853.50	-3200.000
853.79	176.000
854.09	165.625
854.39	151.724
854.68	165.517
854.98	247.619
855.28	161.290
855.57	257.143
855.87	194.444
856.17	151.852
856.46	173.684
856.76	135.484
857.05	241.176
857.35	263.636
857.65	276.923
857.94	195.000
858.24	422.222
858.53	307.143
858.83	685.714
859.13	217.391
859.42	333.333
859.72	412.500
860.01	208.333
860.31	725.000
860.60	400.000
860.90	412.500
861.20	261.538
861.49	457.143
861.79	-3000.000
862.08	571.429
862.38	388.889
862.67	257.143
862.97	430.000
863.26	143.333
863.56	825.000
863.85	361.538
864.15	264.706
864.44	244.444
864.74	341.667
865.03	272.727
865.33	525.000
865.62	266.667
865.92	683.333
866.21	1000.000
866.51	760.000
866.80	272.222
867.10	866.667
867.39	2400.000
867.69	680.000
867.98	700.000
868.27	223.810
868.57	220.000
868.86	950.000
869.16	195.238
869.45	2600.000
869.75	-516.667
870.04	675.000
870.33	560.000
870.63	425.000
870.92	182.353
871.22	1025.000
871.51	485.714
871.80	325.000
872.10	384.615
>>>>>End Processed Spectral Data<<<<<
