SpectraSuite Data File
++++++++++++++++++++++++++++++++++++
Date: Tue May 12 16:59:43 PDT 2015
User: schluterlab
Dark Spectrum Present: Yes
Reference Spectrum Present: Yes
Number of Sampled Component Spectra: 1
Spectrometers: USB2E3373
Integration Time (usec): 3000 (USB2E3373)
Spectra Averaged: 3 (USB2E3373)
Boxcar Smoothing: 0 (USB2E3373)
Correct for Electrical Dark: No (USB2E3373)
Strobe/Lamp Enabled: No (USB2E3373)
Correct for Detector Non-linearity: No (USB2E3373)
Correct for Stray Light: No (USB2E3373)
Number of Pixels in Processed Spectrum: 2048
>>>>>Begin Processed Spectral Data<<<<<
178.53	0.000
178.91	-233.333
179.29	-625.000
179.67	-3300.000
180.04	-113.333
180.42	775.000
180.80	1550.000
181.18	0.000
181.56	-375.000
181.94	0.000
182.31	1333.333
182.69	-3200.000
183.07	542.857
183.45	-3800.000
183.83	-1550.000
184.20	310.000
184.58	485.714
184.96	-253.846
185.34	-208.333
185.72	1650.000
186.09	-825.000
186.47	-2700.000
186.85	1266.667
187.23	580.000
187.61	2000.000
187.98	425.000
188.36	278.571
188.74	225.000
189.12	300.000
189.49	1025.000
189.87	0.000
190.25	487.500
190.63	2600.000
191.00	-208.333
191.38	-3500.000
191.76	-1000.000
192.14	437.500
192.51	-3200.000
192.89	1800.000
193.27	1066.667
193.65	-1166.667
194.02	-740.000
194.40	485.714
194.78	-192.857
195.15	266.667
195.53	-2900.000
195.91	-600.000
196.29	4700.000
196.66	181.250
197.04	700.000
197.42	-1300.000
197.79	600.000
198.17	316.667
198.55	0.000
198.92	557.143
199.30	1266.667
199.68	1650.000
200.05	733.333
200.43	-383.333
200.81	272.222
201.18	3000.000
201.56	250.000
201.94	-825.000
202.31	-462.500
202.69	-440.000
203.07	3500.000
203.44	-516.667
203.82	333.333
204.19	520.000
204.57	-1250.000
204.95	-875.000
205.32	-820.000
205.70	616.667
206.08	950.000
206.45	-1033.333
206.83	400.000
207.20	184.211
207.58	383.333
207.96	760.000
208.33	0.000
208.71	557.143
209.08	760.000
209.46	-2700.000
209.84	-950.000
210.21	780.000
210.59	-620.000
210.96	308.333
211.34	-850.000
211.71	381.818
212.09	975.000
212.46	1600.000
212.84	-350.000
213.22	477.778
213.59	-3000.000
213.97	340.000
214.34	950.000
214.72	1000.000
215.09	1200.000
215.47	-2700.000
215.84	-310.000
216.22	-487.500
216.59	0.000
216.97	0.000
217.34	1600.000
217.72	-1900.000
218.09	1133.333
218.47	575.000
218.84	650.000
219.22	1100.000
219.59	1066.667
219.97	471.429
220.34	277.778
220.72	1900.000
221.09	2900.000
221.47	300.000
221.84	1066.667
222.22	340.000
222.59	266.667
222.97	200.000
223.34	262.500
223.72	-1800.000
224.09	1200.000
224.46	292.308
224.84	-675.000
225.21	388.889
225.59	240.000
225.96	1166.667
226.34	-620.000
226.71	-725.000
227.08	-440.000
227.46	0.000
227.83	-483.333
228.21	-1550.000
228.58	391.667
228.95	1075.000
229.33	433.333
229.70	1100.000
230.08	330.769
230.45	2800.000
230.82	-1000.000
231.20	-866.667
231.57	-1200.000
231.95	780.000
232.32	300.000
232.69	533.333
233.07	266.667
233.44	-1600.000
233.81	300.000
234.19	166.667
234.56	231.250
234.93	200.000
235.31	260.000
235.68	268.750
236.05	203.571
236.43	188.889
236.80	314.286
237.17	182.759
237.55	171.875
237.92	127.500
238.29	154.545
238.67	159.375
239.04	143.902
239.41	100.000
239.79	122.500
240.16	129.167
240.53	88.525
240.91	85.507
241.28	111.864
241.65	109.091
242.02	100.000
242.40	92.857
242.77	82.418
243.14	89.873
243.51	86.869
243.89	80.374
244.26	85.047
244.63	82.178
245.00	81.651
245.38	66.949
245.75	68.182
246.12	83.704
246.49	82.270
246.87	70.492
247.24	70.667
247.61	73.125
247.98	74.150
248.36	73.939
248.73	70.918
249.10	76.786
249.47	66.000
249.84	64.677
250.22	78.919
250.59	63.000
250.96	58.650
251.33	63.721
251.70	65.179
252.08	66.387
252.45	63.347
252.82	63.118
253.19	63.636
253.56	63.462
253.94	55.797
254.31	63.178
254.68	60.627
255.05	61.379
255.42	64.234
255.79	64.495
256.16	63.729
256.54	62.338
256.91	60.784
257.28	60.201
257.65	59.875
258.02	59.882
258.39	58.166
258.76	61.159
259.14	59.714
259.51	64.723
259.88	63.830
260.25	59.066
260.62	59.452
260.99	57.300
261.36	62.117
261.73	56.383
262.10	56.806
262.47	56.000
262.85	56.800
263.22	58.869
263.59	57.801
263.96	60.652
264.33	57.037
264.70	59.705
265.07	58.780
265.44	56.651
265.81	61.557
266.18	58.124
266.55	58.156
266.92	55.705
267.29	60.526
267.66	58.969
268.03	61.435
268.40	55.180
268.77	58.370
269.14	59.436
269.51	57.016
269.88	54.082
270.25	56.156
270.62	56.223
270.99	55.578
271.36	52.846
271.73	56.184
272.10	54.747
272.47	53.968
272.84	55.888
273.21	54.132
273.58	57.490
273.95	57.290
274.32	52.724
274.69	57.677
275.06	54.827
275.43	53.257
275.80	53.396
276.17	56.066
276.54	53.832
276.91	57.090
277.28	53.102
277.65	55.535
278.02	52.941
278.39	51.978
278.76	54.138
279.13	52.135
279.50	55.455
279.87	53.818
280.23	53.223
280.60	55.474
280.97	55.690
281.34	52.145
281.71	53.913
282.08	51.795
282.45	52.027
282.82	51.171
283.19	51.033
283.56	53.388
283.92	55.537
284.29	52.912
284.66	51.092
285.03	53.068
285.40	50.744
285.77	49.228
286.14	51.393
286.51	49.387
286.87	52.057
287.24	47.598
287.61	51.672
287.98	51.045
288.35	49.481
288.72	48.862
289.08	48.498
289.45	49.238
289.82	51.250
290.19	47.731
290.56	49.636
290.93	48.489
291.29	47.652
291.66	48.305
292.03	48.107
292.40	45.935
292.77	46.797
293.13	48.645
293.50	46.424
293.87	46.206
294.24	45.455
294.60	46.299
294.97	48.112
295.34	45.286
295.71	46.518
296.08	46.933
296.44	45.235
296.81	44.169
297.18	42.205
297.55	45.197
297.91	42.734
298.28	44.203
298.65	43.926
299.02	44.150
299.38	44.724
299.75	44.146
300.12	44.037
300.48	45.316
300.85	44.100
301.22	43.605
301.59	43.750
301.95	44.224
302.32	45.285
302.69	45.475
303.05	45.567
303.42	43.610
303.79	44.204
304.15	44.994
304.52	44.292
304.89	44.563
305.25	45.161
305.62	43.390
305.99	43.804
306.35	44.421
306.72	45.786
307.09	44.513
307.45	44.773
307.82	43.210
308.19	45.979
308.55	45.300
308.92	44.259
309.29	45.858
309.65	45.887
310.02	46.552
310.38	45.165
310.75	45.227
311.12	45.498
311.48	47.008
311.85	46.469
312.22	47.469
312.58	48.105
312.95	47.184
313.31	47.940
313.68	47.561
314.05	48.718
314.41	48.883
314.78	49.337
315.14	49.668
315.51	49.763
315.87	50.091
316.24	51.354
316.61	50.224
316.97	51.651
317.34	53.190
317.70	51.624
318.07	52.580
318.43	53.076
318.80	52.890
319.16	53.234
319.53	52.743
319.89	53.674
320.26	55.214
320.62	55.586
320.99	56.530
321.35	55.009
321.72	57.495
322.08	58.079
322.45	58.038
322.81	58.554
323.18	61.012
323.54	59.233
323.91	62.194
324.27	59.947
324.64	60.035
325.00	61.724
325.37	62.226
325.73	63.322
326.10	63.629
326.46	63.171
326.83	63.520
327.19	65.462
327.56	66.374
327.92	67.131
328.29	67.185
328.65	67.209
329.01	67.237
329.38	67.090
329.74	65.329
330.11	68.028
330.47	67.008
330.84	67.041
331.20	67.851
331.56	67.789
331.93	68.178
332.29	65.986
332.66	70.068
333.02	66.495
333.38	69.721
333.75	66.138
334.11	67.617
334.48	68.974
334.84	67.568
335.20	67.921
335.57	66.919
335.93	67.368
336.29	66.335
336.66	69.554
337.02	66.809
337.38	67.240
337.75	67.905
338.11	68.270
338.47	67.231
338.84	66.300
339.20	67.359
339.56	68.124
339.93	66.890
340.29	66.134
340.65	66.387
341.02	66.854
341.38	66.092
341.74	68.189
342.11	67.696
342.47	66.284
342.83	68.171
343.20	66.047
343.56	64.972
343.92	67.300
344.28	66.029
344.65	67.482
345.01	65.000
345.37	67.388
345.73	67.143
346.10	66.534
346.46	68.501
346.82	66.281
347.19	67.233
347.55	66.432
347.91	66.843
348.27	67.157
348.63	66.930
349.00	65.727
349.36	67.860
349.72	65.979
350.08	68.012
350.45	66.413
350.81	66.437
351.17	65.794
351.53	66.513
351.89	67.288
352.26	66.818
352.62	66.667
352.98	67.485
353.34	67.180
353.70	66.514
354.07	67.538
354.43	66.897
354.79	65.452
355.15	67.381
355.51	66.012
355.87	66.265
356.24	68.822
356.60	66.895
356.96	66.945
357.32	66.767
357.68	65.786
358.04	67.553
358.40	67.466
358.77	68.820
359.13	68.544
359.49	66.197
359.85	67.759
360.21	66.642
360.57	67.007
360.93	68.326
361.29	67.388
361.66	67.934
362.02	67.401
362.38	68.110
362.74	68.577
363.10	67.952
363.46	68.370
363.82	69.004
364.18	69.559
364.54	68.741
364.90	67.470
365.26	68.633
365.62	67.127
365.98	67.515
366.35	69.103
366.71	68.910
367.07	67.577
367.43	68.972
367.79	66.888
368.15	67.707
368.51	69.056
368.87	69.226
369.23	68.815
369.59	68.105
369.95	69.790
370.31	66.872
370.67	68.217
371.03	67.927
371.39	68.698
371.75	69.923
372.11	68.933
372.47	70.205
372.83	69.477
373.19	69.637
373.55	68.110
373.91	68.923
374.27	68.783
374.63	69.627
374.99	69.744
375.35	71.707
375.71	69.921
376.07	68.966
376.42	68.606
376.78	70.649
377.14	69.987
377.50	69.039
377.86	70.147
378.22	70.018
378.58	71.429
378.94	69.885
379.30	70.891
379.66	70.379
380.02	70.205
380.38	68.677
380.74	71.050
381.09	69.451
381.45	69.538
381.81	69.622
382.17	69.658
382.53	70.366
382.89	71.200
383.25	70.693
383.61	68.012
383.97	69.406
384.32	70.766
384.68	71.777
385.04	70.164
385.40	70.996
385.76	70.099
386.12	72.356
386.48	71.489
386.83	70.660
387.19	71.025
387.55	70.436
387.91	71.016
388.27	72.278
388.62	69.542
388.98	69.679
389.34	69.839
389.70	70.755
390.06	70.549
390.42	70.574
390.77	70.332
391.13	71.515
391.49	71.204
391.85	72.000
392.20	70.799
392.56	69.355
392.92	69.231
393.28	69.955
393.64	68.463
393.99	70.302
394.35	68.629
394.71	70.929
395.07	70.438
395.42	69.087
395.78	70.265
396.14	70.964
396.50	71.059
396.85	70.549
397.21	69.615
397.57	69.815
397.92	67.591
398.28	70.546
398.64	69.692
399.00	68.894
399.35	68.492
399.71	69.040
400.07	68.550
400.42	70.567
400.78	69.150
401.14	69.818
401.49	69.758
401.85	69.235
402.21	69.127
402.57	69.120
402.92	70.424
403.28	68.675
403.63	68.511
403.99	69.300
404.35	68.406
404.70	68.754
405.06	68.332
405.42	69.719
405.77	68.853
406.13	68.655
406.49	68.050
406.84	67.795
407.20	68.322
407.55	68.923
407.91	69.687
408.27	69.739
408.62	68.539
408.98	68.066
409.34	66.745
409.69	67.704
410.05	69.112
410.40	68.080
410.76	67.029
411.11	67.002
411.47	67.531
411.83	65.788
412.18	66.606
412.54	68.709
412.89	66.136
413.25	67.218
413.60	67.874
413.96	67.684
414.31	67.532
414.67	67.908
415.03	67.178
415.38	67.445
415.74	67.467
416.09	66.771
416.45	68.584
416.80	68.634
417.16	67.091
417.51	67.134
417.87	66.834
418.22	67.132
418.58	68.599
418.93	67.460
419.29	66.728
419.64	67.111
420.00	66.169
420.35	66.899
420.71	66.219
421.06	67.275
421.42	67.012
421.77	65.852
422.12	69.019
422.48	64.407
422.83	67.746
423.19	66.523
423.54	65.826
423.90	67.327
424.25	68.795
424.61	66.512
424.96	66.798
425.31	66.667
425.67	67.901
426.02	66.181
426.38	65.519
426.73	67.727
427.09	67.438
427.44	65.560
427.79	68.153
428.15	67.413
428.50	67.029
428.85	66.961
429.21	66.505
429.56	66.550
429.92	67.131
430.27	66.038
430.62	65.688
430.98	65.918
431.33	65.776
431.68	66.420
432.04	66.632
432.39	67.124
432.74	67.681
433.10	66.279
433.45	68.581
433.80	68.395
434.16	67.788
434.51	66.976
434.86	67.556
435.22	67.747
435.57	66.805
435.92	68.298
436.28	67.857
436.63	67.261
436.98	67.286
437.34	67.180
437.69	66.349
438.04	67.688
438.39	67.542
438.75	66.091
439.10	67.242
439.45	66.196
439.81	67.033
440.16	67.309
440.51	66.948
440.86	68.547
441.22	66.613
441.57	67.717
441.92	66.387
442.27	67.165
442.63	66.463
442.98	66.649
443.33	67.059
443.68	67.354
444.03	66.635
444.39	67.514
444.74	67.081
445.09	68.036
445.44	66.153
445.79	67.057
446.15	67.053
446.50	66.614
446.85	66.783
447.20	66.766
447.55	67.700
447.91	67.768
448.26	66.241
448.61	66.888
448.96	68.355
449.31	67.052
449.66	67.331
450.02	66.397
450.37	67.740
450.72	66.722
451.07	66.725
451.42	67.576
451.77	66.380
452.12	66.818
452.47	67.132
452.83	66.704
453.18	67.808
453.53	66.134
453.88	66.971
454.23	66.822
454.58	65.734
454.93	65.604
455.28	66.218
455.63	66.667
455.98	65.595
456.34	67.234
456.69	66.829
457.04	66.706
457.39	65.086
457.74	66.779
458.09	66.255
458.44	66.046
458.79	64.297
459.14	65.466
459.49	64.892
459.84	65.326
460.19	64.802
460.54	65.755
460.89	65.991
461.24	64.834
461.59	65.703
461.94	66.076
462.29	65.618
462.64	67.274
462.99	66.347
463.34	65.392
463.69	65.033
464.04	66.494
464.39	65.140
464.74	64.596
465.09	64.481
465.44	65.887
465.79	65.215
466.14	64.494
466.49	65.328
466.84	65.106
467.19	64.616
467.54	63.664
467.89	64.613
468.24	65.373
468.59	65.000
468.94	65.217
469.29	64.386
469.64	64.437
469.99	65.553
470.34	64.579
470.68	64.414
471.03	63.709
471.38	63.377
471.73	62.573
472.08	65.036
472.43	64.122
472.78	64.597
473.13	64.080
473.48	64.303
473.83	63.545
474.17	64.924
474.52	63.329
474.87	63.331
475.22	63.906
475.57	62.434
475.92	62.902
476.27	63.058
476.61	62.145
476.96	63.166
477.31	63.753
477.66	63.768
478.01	62.352
478.36	63.440
478.70	62.283
479.05	63.598
479.40	62.996
479.75	63.307
480.10	62.585
480.45	62.792
480.79	62.350
481.14	63.005
481.49	61.619
481.84	61.566
482.19	62.664
482.53	61.616
482.88	61.290
483.23	62.201
483.58	61.670
483.92	61.700
484.27	62.586
484.62	61.545
484.97	60.538
485.31	61.423
485.66	61.149
486.01	61.012
486.36	60.183
486.70	59.592
487.05	60.487
487.40	59.734
487.75	59.310
488.09	59.432
488.44	59.879
488.79	60.326
489.13	61.515
489.48	61.806
489.83	59.341
490.17	60.239
490.52	60.336
490.87	59.612
491.22	61.525
491.56	60.518
491.91	59.991
492.26	60.624
492.60	62.551
492.95	60.716
493.30	59.691
493.64	60.108
493.99	60.555
494.34	59.659
494.68	60.558
495.03	60.575
495.37	60.783
495.72	60.420
496.07	58.985
496.41	60.382
496.76	60.152
497.11	60.154
497.45	59.491
497.80	59.500
498.14	59.963
498.49	60.121
498.84	60.234
499.18	59.506
499.53	60.772
499.87	58.535
500.22	59.374
500.56	58.960
500.91	59.647
501.26	59.761
501.60	59.699
501.95	59.588
502.29	59.378
502.64	58.447
502.98	58.782
503.33	58.619
503.67	58.190
504.02	59.248
504.36	58.869
504.71	58.751
505.06	59.033
505.40	58.353
505.75	58.326
506.09	58.563
506.44	58.835
506.78	58.129
507.13	60.010
507.47	57.787
507.82	58.102
508.16	59.138
508.51	59.372
508.85	58.357
509.19	58.786
509.54	57.178
509.88	59.423
510.23	57.843
510.57	56.853
510.92	58.142
511.26	59.187
511.61	58.149
511.95	58.188
512.30	56.850
512.64	58.048
512.98	58.278
513.33	58.043
513.67	58.467
514.02	58.026
514.36	57.996
514.70	58.827
515.05	57.912
515.39	59.156
515.74	59.103
516.08	57.516
516.42	59.617
516.77	57.653
517.11	57.067
517.46	58.567
517.80	57.564
518.14	57.859
518.49	57.497
518.83	56.593
519.17	57.515
519.52	58.329
519.86	58.038
520.20	57.260
520.55	56.812
520.89	57.529
521.23	58.119
521.58	56.799
521.92	59.184
522.26	57.227
522.61	57.873
522.95	57.778
523.29	57.602
523.64	57.572
523.98	57.570
524.32	57.555
524.66	57.275
525.01	56.272
525.35	56.099
525.69	57.194
526.04	56.752
526.38	56.916
526.72	57.339
527.06	56.416
527.41	57.981
527.75	56.969
528.09	55.870
528.43	56.864
528.78	57.126
529.12	58.338
529.46	56.166
529.80	56.542
530.15	55.628
530.49	56.438
530.83	56.734
531.17	57.011
531.51	57.327
531.86	55.797
532.20	56.799
532.54	56.497
532.88	55.903
533.22	56.490
533.57	55.888
533.91	56.119
534.25	54.991
534.59	56.842
534.93	56.200
535.27	54.525
535.62	56.068
535.96	55.378
536.30	55.881
536.64	55.031
536.98	55.758
537.32	55.312
537.66	55.357
538.01	54.799
538.35	56.769
538.69	55.340
539.03	55.037
539.37	54.126
539.71	55.123
540.05	55.815
540.39	55.535
540.73	56.456
541.07	55.395
541.42	54.602
541.76	54.994
542.10	55.240
542.44	55.736
542.78	55.003
543.12	53.620
543.46	53.697
543.80	54.762
544.14	54.861
544.48	53.589
544.82	54.679
545.16	52.702
545.50	55.132
545.84	54.672
546.18	55.267
546.52	54.033
546.86	54.352
547.20	53.682
547.54	53.135
547.88	52.920
548.22	54.523
548.56	53.978
548.90	52.432
549.24	54.833
549.58	54.253
549.92	55.272
550.26	55.510
550.60	54.025
550.94	56.038
551.28	54.828
551.62	55.103
551.96	54.122
552.30	53.329
552.64	55.663
552.98	53.286
553.32	51.985
553.66	53.355
554.00	53.539
554.34	54.794
554.68	54.167
555.02	54.447
555.36	52.660
555.69	54.254
556.03	53.822
556.37	52.263
556.71	54.824
557.05	52.818
557.39	52.733
557.73	54.043
558.07	53.789
558.41	52.639
558.75	53.830
559.08	54.396
559.42	55.261
559.76	55.167
560.10	53.613
560.44	53.351
560.78	53.517
561.12	54.863
561.45	52.378
561.79	52.060
562.13	51.927
562.47	53.342
562.81	51.269
563.15	53.135
563.48	51.988
563.82	53.213
564.16	52.674
564.50	52.140
564.84	51.915
565.17	52.525
565.51	54.926
565.85	54.164
566.19	52.857
566.52	52.647
566.86	52.598
567.20	52.247
567.54	53.384
567.88	52.582
568.21	51.373
568.55	51.702
568.89	52.007
569.23	51.682
569.56	52.196
569.90	51.204
570.24	51.687
570.57	50.584
570.91	50.671
571.25	50.237
571.59	50.338
571.92	50.323
572.26	49.946
572.60	50.375
572.93	51.208
573.27	50.172
573.61	50.054
573.95	49.925
574.28	50.557
574.62	49.977
574.96	49.231
575.29	48.698
575.63	49.258
575.97	49.197
576.30	49.076
576.64	49.453
576.98	49.245
577.31	50.638
577.65	49.313
577.98	49.048
578.32	49.503
578.66	49.300
578.99	49.780
579.33	49.188
579.67	48.535
580.00	48.475
580.34	49.352
580.67	49.441
581.01	49.462
581.35	49.553
581.68	49.439
582.02	49.116
582.35	49.506
582.69	49.243
583.02	49.437
583.36	49.357
583.70	48.951
584.03	49.789
584.37	49.470
584.70	48.843
585.04	48.798
585.37	49.098
585.71	50.494
586.04	49.243
586.38	49.006
586.72	49.009
587.05	49.074
587.39	49.254
587.72	49.110
588.06	48.870
588.39	49.360
588.73	50.068
589.06	50.073
589.40	49.484
589.73	49.492
590.07	49.897
590.40	49.826
590.73	50.533
591.07	50.057
591.40	49.301
591.74	49.594
592.07	49.210
592.41	49.001
592.74	48.737
593.08	48.926
593.41	48.833
593.75	48.697
594.08	49.184
594.41	47.866
594.75	47.979
595.08	48.148
595.42	48.552
595.75	48.799
596.09	49.322
596.42	48.689
596.75	49.760
597.09	49.608
597.42	49.755
597.75	48.519
598.09	48.625
598.42	48.592
598.76	47.918
599.09	48.694
599.42	47.612
599.76	48.745
600.09	47.356
600.42	48.722
600.76	48.300
601.09	48.429
601.42	47.589
601.76	48.084
602.09	48.234
602.42	47.726
602.76	48.159
603.09	48.982
603.42	49.028
603.76	48.771
604.09	47.702
604.42	47.608
604.76	47.926
605.09	47.673
605.42	47.785
605.75	47.493
606.09	48.279
606.42	46.825
606.75	47.804
607.09	48.125
607.42	47.168
607.75	46.935
608.08	47.157
608.42	47.525
608.75	46.855
609.08	48.570
609.41	47.773
609.75	47.527
610.08	47.887
610.41	48.046
610.74	47.143
611.07	48.704
611.41	47.729
611.74	47.180
612.07	48.314
612.40	48.002
612.73	48.777
613.07	48.150
613.40	47.870
613.73	47.479
614.06	46.900
614.39	47.879
614.72	48.167
615.06	46.588
615.39	46.733
615.72	47.435
616.05	47.464
616.38	46.778
616.71	47.965
617.05	48.655
617.38	46.910
617.71	48.425
618.04	46.999
618.37	47.471
618.70	46.940
619.03	47.497
619.36	47.676
619.69	47.164
620.03	48.402
620.36	48.426
620.69	48.723
621.02	48.641
621.35	47.636
621.68	47.861
622.01	49.151
622.34	47.924
622.67	49.298
623.00	47.651
623.33	47.436
623.66	47.572
623.99	48.082
624.32	47.154
624.65	46.873
624.99	47.803
625.32	46.760
625.65	46.966
625.98	46.583
626.31	48.961
626.64	45.938
626.97	46.595
627.30	48.370
627.63	47.645
627.96	46.557
628.29	49.670
628.62	46.963
628.95	47.961
629.28	47.502
629.61	47.540
629.94	46.845
630.26	47.140
630.59	48.582
630.92	47.623
631.25	47.416
631.58	47.252
631.91	46.622
632.24	46.356
632.57	47.053
632.90	49.482
633.23	47.324
633.56	47.734
633.89	47.160
634.22	47.147
634.55	47.312
634.88	48.631
635.20	47.646
635.53	47.735
635.86	47.315
636.19	48.036
636.52	47.676
636.85	47.789
637.18	47.887
637.51	47.374
637.83	46.453
638.16	48.183
638.49	47.904
638.82	48.005
639.15	46.651
639.48	47.393
639.81	46.642
640.13	47.730
640.46	48.293
640.79	47.464
641.12	47.507
641.45	49.159
641.77	49.802
642.10	47.523
642.43	47.511
642.76	47.585
643.09	46.110
643.41	46.844
643.74	47.914
644.07	48.230
644.40	48.077
644.73	49.399
645.05	48.143
645.38	49.617
645.71	48.407
646.04	48.702
646.36	47.887
646.69	49.120
647.02	49.760
647.35	46.299
647.67	45.705
648.00	48.697
648.33	48.271
648.66	48.182
648.98	46.232
649.31	45.614
649.64	46.196
649.96	45.661
650.29	44.714
650.62	47.128
650.94	46.084
651.27	50.558
651.60	47.731
651.92	47.312
652.25	47.559
652.58	45.390
652.90	48.204
653.23	47.120
653.56	47.033
653.88	44.934
654.21	45.748
654.54	46.266
654.86	47.788
655.19	47.361
655.52	42.845
655.84	40.060
656.17	47.085
656.49	67.957
656.82	77.968
657.15	62.806
657.47	46.675
657.80	33.967
658.13	26.465
658.45	35.784
658.78	42.795
659.10	43.797
659.43	44.683
659.75	46.845
660.08	48.058
660.41	48.185
660.73	49.686
661.06	46.096
661.38	47.871
661.71	48.921
662.03	45.817
662.36	47.048
662.68	44.879
663.01	45.946
663.33	49.434
663.66	47.732
663.98	47.222
664.31	48.134
664.63	47.126
664.96	48.218
665.28	43.503
665.61	45.472
665.93	47.547
666.26	49.159
666.58	48.624
666.91	45.753
667.23	47.590
667.56	47.639
667.88	45.851
668.21	47.951
668.53	47.177
668.86	50.100
669.18	45.825
669.50	44.421
669.83	50.308
670.15	47.817
670.48	46.484
670.80	48.207
671.13	47.211
671.45	46.894
671.77	45.640
672.10	49.192
672.42	45.395
672.75	43.829
673.07	45.469
673.39	45.527
673.72	46.021
674.04	47.312
674.37	45.735
674.69	47.026
675.01	45.522
675.34	45.930
675.66	45.703
675.98	47.337
676.31	48.400
676.63	43.936
676.95	46.825
677.28	46.856
677.60	45.070
677.92	43.849
678.25	45.736
678.57	48.231
678.89	47.559
679.22	46.507
679.54	42.705
679.86	47.295
680.18	45.343
680.51	42.123
680.83	45.101
681.15	45.061
681.48	45.139
681.80	44.483
682.12	44.464
682.44	43.604
682.77	46.263
683.09	47.379
683.41	46.531
683.73	45.866
684.06	45.635
684.38	44.961
684.70	44.784
685.02	40.625
685.34	45.599
685.67	46.141
685.99	44.335
686.31	43.451
686.63	45.203
686.96	45.915
687.28	44.463
687.60	41.297
687.92	43.384
688.24	45.862
688.56	43.594
688.89	43.977
689.21	43.353
689.53	47.233
689.85	42.480
690.17	45.243
690.49	46.774
690.82	48.950
691.14	45.657
691.46	45.791
691.78	44.055
692.10	46.183
692.42	42.468
692.74	45.155
693.06	44.186
693.39	46.245
693.71	44.204
694.03	46.943
694.35	46.988
694.67	45.621
694.99	47.228
695.31	49.324
695.63	46.380
695.95	45.475
696.27	44.690
696.59	45.346
696.91	45.063
697.23	47.964
697.56	41.494
697.88	42.315
698.20	46.415
698.52	42.607
698.84	44.148
699.16	45.842
699.48	45.127
699.80	47.930
700.12	49.423
700.44	42.991
700.76	47.971
701.08	45.170
701.40	45.455
701.72	49.198
702.04	49.593
702.36	48.656
702.68	46.011
703.00	44.361
703.32	47.891
703.64	48.111
703.96	48.437
704.28	45.238
704.60	50.141
704.91	48.179
705.23	47.443
705.55	47.774
705.87	49.206
706.19	53.605
706.51	48.589
706.83	44.543
707.15	48.396
707.47	45.036
707.79	47.126
708.11	47.166
708.43	45.843
708.74	45.701
709.06	45.349
709.38	47.643
709.70	43.597
710.02	44.293
710.34	43.370
710.66	47.222
710.98	47.268
711.29	45.125
711.61	47.632
711.93	48.328
712.25	45.181
712.57	44.373
712.89	46.970
713.20	49.840
713.52	45.171
713.84	46.224
714.16	44.058
714.48	45.245
714.80	47.967
715.11	42.287
715.43	43.855
715.75	45.352
716.07	45.954
716.39	48.857
716.70	47.040
717.02	50.505
717.34	48.561
717.66	45.833
717.97	51.894
718.29	49.296
718.61	44.257
718.93	45.675
719.24	49.664
719.56	48.966
719.88	44.268
720.20	47.742
720.51	44.771
720.83	48.829
721.15	48.299
721.46	46.233
721.78	47.038
722.10	45.833
722.42	49.164
722.73	46.570
723.05	47.018
723.37	47.350
723.68	46.094
724.00	51.515
724.32	44.487
724.63	49.615
724.95	53.333
725.27	49.442
725.58	48.529
725.90	45.423
726.22	48.973
726.53	47.157
726.85	50.163
727.16	48.658
727.48	48.173
727.80	49.281
728.11	52.857
728.43	45.652
728.74	46.154
729.06	43.369
729.38	47.018
729.69	52.333
730.01	51.974
730.32	48.322
730.64	51.163
730.96	47.748
731.27	43.425
731.59	40.230
731.90	44.290
732.22	46.857
732.53	42.165
732.85	45.906
733.16	44.277
733.48	47.022
733.80	47.536
734.11	48.773
734.43	43.567
734.74	45.040
735.06	46.296
735.37	41.495
735.69	44.638
736.00	49.847
736.32	42.121
736.63	46.372
736.95	46.273
737.26	45.732
737.58	45.399
737.89	46.687
738.21	46.026
738.52	47.157
738.83	54.945
739.15	47.387
739.46	44.828
739.78	46.599
740.09	44.898
740.41	50.307
740.72	46.984
741.04	48.252
741.35	52.344
741.66	51.383
741.98	48.498
742.29	54.167
742.61	51.770
742.92	44.492
743.23	50.000
743.55	45.660
743.86	42.745
744.18	52.119
744.49	47.934
744.80	49.770
745.12	47.768
745.43	50.000
745.74	54.222
746.06	46.930
746.37	48.837
746.68	52.212
747.00	45.740
747.31	49.580
747.62	49.590
747.94	49.785
748.25	47.471
748.56	51.695
748.88	51.786
749.19	46.512
749.50	45.205
749.82	50.617
750.13	45.850
750.44	44.667
750.75	45.302
751.07	47.039
751.38	43.234
751.69	45.455
752.01	46.154
752.32	43.854
752.63	47.987
752.94	48.951
753.26	47.656
753.57	47.860
753.88	47.566
754.19	51.986
754.51	43.522
754.82	46.644
755.13	43.919
755.44	47.778
755.75	48.110
756.07	47.603
756.38	41.830
756.69	41.875
757.00	45.697
757.31	43.662
757.63	39.118
757.94	43.883
758.25	42.995
758.56	41.876
758.87	43.609
759.18	47.965
759.50	44.377
759.81	46.291
760.12	42.978
760.43	42.017
760.74	41.013
761.05	39.788
761.36	41.927
761.67	44.205
761.99	45.634
762.30	50.161
762.61	46.181
762.92	51.136
763.23	41.887
763.54	45.000
763.85	43.580
764.16	45.833
764.47	42.568
764.78	43.322
765.10	40.854
765.41	40.341
765.72	44.475
766.03	45.015
766.34	49.826
766.65	51.711
766.96	46.559
767.27	52.336
767.58	48.020
767.89	50.276
768.20	55.488
768.51	50.000
768.82	42.982
769.13	49.804
769.44	44.737
769.75	44.569
770.06	49.580
770.37	48.246
770.68	44.000
770.99	49.153
771.30	52.301
771.61	46.538
771.92	47.710
772.23	48.790
772.54	47.111
772.85	51.980
773.16	55.435
773.47	54.444
773.78	51.485
774.09	52.841
774.39	55.758
774.70	50.000
775.01	55.921
775.32	45.963
775.63	60.959
775.94	56.790
776.25	57.241
776.56	64.122
776.87	61.069
777.18	50.758
777.48	52.756
777.79	61.538
778.10	53.030
778.41	63.433
778.72	46.617
779.03	45.513
779.34	52.027
779.65	59.006
779.95	58.385
780.26	50.595
780.57	58.503
780.88	58.865
781.19	79.167
781.50	53.254
781.80	54.098
782.11	46.561
782.42	48.276
782.73	51.977
783.04	52.903
783.34	55.814
783.65	56.463
783.96	61.935
784.27	52.980
784.57	51.974
784.88	57.971
785.19	50.000
785.50	71.552
785.81	59.690
786.11	57.778
786.42	59.843
786.73	70.270
787.04	54.717
787.34	54.472
787.65	65.152
787.96	55.303
788.26	58.268
788.57	64.234
788.88	55.634
789.19	55.725
789.49	60.811
789.80	66.406
790.11	66.116
790.41	66.667
790.72	68.519
791.03	60.577
791.33	72.727
791.64	68.421
791.95	66.316
792.25	63.542
792.56	66.000
792.87	78.049
793.17	70.455
793.48	67.059
793.79	75.862
794.09	71.591
794.40	63.793
794.70	62.698
795.01	58.462
795.32	51.145
795.62	54.701
795.93	59.664
796.23	60.163
796.54	77.551
796.85	71.591
797.15	84.416
797.46	80.488
797.76	76.250
798.07	76.000
798.37	70.000
798.68	66.250
798.99	76.829
799.29	74.667
799.60	63.953
799.90	68.421
800.21	69.697
800.51	90.141
800.82	72.414
801.12	81.538
801.43	77.333
801.73	75.862
802.04	81.818
802.34	72.603
802.65	96.078
802.95	89.130
803.26	95.161
803.56	81.667
803.87	82.090
804.17	80.952
804.48	90.566
804.78	73.611
805.09	93.939
805.39	106.349
805.70	91.228
806.00	61.429
806.30	90.625
806.61	70.588
806.91	72.222
807.22	60.870
807.52	73.684
807.83	88.158
808.13	75.362
808.43	85.484
808.74	76.712
809.04	101.786
809.35	88.235
809.65	92.424
809.95	109.804
810.26	96.296
810.56	82.813
810.86	97.959
811.17	94.737
811.47	93.478
811.77	101.724
812.08	82.759
812.38	88.095
812.69	85.714
812.99	108.889
813.29	125.714
813.59	145.161
813.90	84.483
814.20	111.475
814.50	88.000
814.81	71.930
815.11	90.741
815.41	92.857
815.72	108.929
816.02	98.000
816.32	151.220
816.62	96.552
816.93	139.394
817.23	117.073
817.53	85.714
817.84	111.111
818.14	107.143
818.44	112.500
818.74	98.113
819.04	112.821
819.35	121.212
819.65	109.615
819.95	111.111
820.25	131.915
820.56	143.243
820.86	102.632
821.16	82.979
821.46	123.684
821.76	89.091
822.07	104.762
822.37	107.895
822.67	100.000
822.97	110.526
823.27	130.435
823.57	118.750
823.88	143.590
824.18	121.212
824.48	195.652
824.78	122.222
825.08	169.565
825.38	124.138
825.69	123.529
825.99	108.511
826.29	88.889
826.59	94.286
826.89	133.333
827.19	111.429
827.49	164.516
827.79	176.923
828.09	100.000
828.39	102.778
828.70	113.514
829.00	139.286
829.30	175.000
829.60	133.333
829.90	132.258
830.20	112.121
830.50	116.216
830.80	187.500
831.10	161.538
831.40	161.905
831.70	175.000
832.00	150.000
832.30	217.391
832.60	158.333
832.90	151.515
833.20	215.000
833.50	134.211
833.80	132.353
834.10	100.000
834.40	178.947
834.70	123.333
835.00	184.000
835.30	108.108
835.60	140.625
835.90	143.243
836.20	142.308
836.50	122.727
836.80	112.195
837.10	121.739
837.40	323.077
837.70	147.368
838.00	176.667
838.30	150.000
838.60	160.000
838.90	320.000
839.19	218.750
839.49	126.667
839.79	117.241
840.09	130.769
840.39	240.000
840.69	184.211
840.99	142.857
841.29	147.826
841.59	200.000
841.88	180.000
842.18	288.889
842.48	128.571
842.78	151.852
843.08	292.308
843.38	177.273
843.68	192.857
843.97	514.286
844.27	121.739
844.57	1850.000
844.87	378.571
845.17	211.111
845.47	152.381
845.76	166.667
846.06	471.429
846.36	176.471
846.66	276.923
846.96	275.000
847.25	184.615
847.55	131.579
847.85	194.444
848.15	640.000
848.44	300.000
848.74	180.952
849.04	183.333
849.34	141.176
849.63	225.000
849.93	237.500
850.23	933.333
850.53	400.000
850.82	309.091
851.12	229.412
851.42	175.000
851.71	200.000
852.01	0.000
852.31	176.471
852.61	390.000
852.90	204.167
853.20	455.556
853.50	-2300.000
853.79	176.000
854.09	143.750
854.39	103.448
854.68	158.621
854.98	209.524
855.28	129.032
855.57	221.429
855.87	194.444
856.17	148.148
856.46	189.474
856.76	141.935
857.05	229.412
857.35	272.727
857.65	192.308
857.94	100.000
858.24	400.000
858.53	257.143
858.83	685.714
859.13	200.000
859.42	311.111
859.72	312.500
860.01	208.333
860.31	800.000
860.60	370.000
860.90	350.000
861.20	353.846
861.49	400.000
861.79	-4100.000
862.08	542.857
862.38	300.000
862.67	285.714
862.97	480.000
863.26	130.000
863.56	1000.000
863.85	261.538
864.15	235.294
864.44	216.667
864.74	383.333
865.03	318.182
865.33	387.500
865.62	253.333
865.92	616.667
866.21	1075.000
866.51	700.000
866.80	261.111
867.10	833.333
867.39	3100.000
867.69	700.000
867.98	1075.000
868.27	161.905
868.57	226.667
868.86	825.000
869.16	157.143
869.45	3100.000
869.75	-500.000
870.04	600.000
870.33	600.000
870.63	362.500
870.92	170.588
871.22	650.000
871.51	342.857
871.80	316.667
872.10	300.000
>>>>>End Processed Spectral Data<<<<<
