SpectraSuite Data File
++++++++++++++++++++++++++++++++++++
Date: Tue May 12 17:17:02 PDT 2015
User: schluterlab
Dark Spectrum Present: Yes
Reference Spectrum Present: Yes
Number of Sampled Component Spectra: 1
Spectrometers: USB2E3373
Integration Time (usec): 3000 (USB2E3373)
Spectra Averaged: 3 (USB2E3373)
Boxcar Smoothing: 0 (USB2E3373)
Correct for Electrical Dark: No (USB2E3373)
Strobe/Lamp Enabled: No (USB2E3373)
Correct for Detector Non-linearity: No (USB2E3373)
Correct for Stray Light: No (USB2E3373)
Number of Pixels in Processed Spectrum: 2048
>>>>>Begin Processed Spectral Data<<<<<
178.53	0.000
178.91	-266.667
179.29	-800.000
179.67	-3700.000
180.04	-120.000
180.42	675.000
180.80	1350.000
181.18	0.000
181.56	-362.500
181.94	0.000
182.31	1166.667
182.69	-2500.000
183.07	585.714
183.45	-4000.000
183.83	-1350.000
184.20	390.000
184.58	485.714
184.96	-238.462
185.34	-216.667
185.72	1250.000
186.09	-625.000
186.47	-3300.000
186.85	1166.667
187.23	600.000
187.61	1550.000
187.98	475.000
188.36	228.571
188.74	283.333
189.12	383.333
189.49	775.000
189.87	0.000
190.25	462.500
190.63	2800.000
191.00	-125.000
191.38	-3300.000
191.76	-525.000
192.14	512.500
192.51	-3500.000
192.89	1900.000
193.27	1100.000
193.65	-1300.000
194.02	-520.000
194.40	571.429
194.78	-171.429
195.15	280.000
195.53	-3400.000
195.91	-540.000
196.29	3600.000
196.66	300.000
197.04	725.000
197.42	-1200.000
197.79	475.000
198.17	308.333
198.55	0.000
198.92	557.143
199.30	1633.333
199.68	1700.000
200.05	716.667
200.43	-400.000
200.81	222.222
201.18	2800.000
201.56	208.333
201.94	-575.000
202.31	-325.000
202.69	-520.000
203.07	3100.000
203.44	-483.333
203.82	300.000
204.19	680.000
204.57	-1550.000
204.95	-1100.000
205.32	-740.000
205.70	583.333
206.08	850.000
206.45	-900.000
206.83	366.667
207.20	168.421
207.58	241.667
207.96	860.000
208.33	0.000
208.71	657.143
209.08	780.000
209.46	-3100.000
209.84	-725.000
210.21	700.000
210.59	-520.000
210.96	325.000
211.34	-925.000
211.71	381.818
212.09	700.000
212.46	1300.000
212.84	-583.333
213.22	377.778
213.59	-1600.000
213.97	320.000
214.34	875.000
214.72	800.000
215.09	1000.000
215.47	-3400.000
215.84	-280.000
216.22	-325.000
216.59	0.000
216.97	0.000
217.34	1600.000
217.72	-1350.000
218.09	966.667
218.47	450.000
218.84	750.000
219.22	1300.000
219.59	766.667
219.97	500.000
220.34	433.333
220.72	1750.000
221.09	3300.000
221.47	283.333
221.84	1166.667
222.22	280.000
222.59	261.111
222.97	235.714
223.34	193.750
223.72	-1400.000
224.09	1266.667
224.46	292.308
224.84	-850.000
225.21	388.889
225.59	253.333
225.96	1500.000
226.34	-720.000
226.71	-725.000
227.08	-640.000
227.46	0.000
227.83	-466.667
228.21	-1550.000
228.58	358.333
228.95	1000.000
229.33	388.889
229.70	825.000
230.08	323.077
230.45	4100.000
230.82	-875.000
231.20	-700.000
231.57	-966.667
231.95	580.000
232.32	266.667
232.69	733.333
233.07	283.333
233.44	-1300.000
233.81	286.667
234.19	181.481
234.56	218.750
234.93	258.824
235.31	205.000
235.68	206.250
236.05	192.857
236.43	140.741
236.80	207.143
237.17	165.517
237.55	140.625
237.92	112.500
238.29	127.273
238.67	156.250
239.04	100.000
239.41	68.750
239.79	122.500
240.16	83.333
240.53	81.967
240.91	66.667
241.28	93.220
241.65	68.182
242.02	71.831
242.40	62.857
242.77	61.538
243.14	43.038
243.51	68.687
243.89	59.813
244.26	45.794
244.63	53.465
245.00	49.541
245.38	38.983
245.75	43.939
246.12	48.889
246.49	39.716
246.87	40.164
247.24	47.333
247.61	48.750
247.98	36.735
248.36	40.606
248.73	45.408
249.10	41.071
249.47	40.000
249.84	35.821
250.22	35.676
250.59	40.500
250.96	33.333
251.33	35.349
251.70	33.929
252.08	31.933
252.45	34.661
252.82	29.658
253.19	28.854
253.56	31.923
253.94	35.870
254.31	29.845
254.68	36.585
255.05	31.379
255.42	33.577
255.79	29.967
256.16	34.237
256.54	30.844
256.91	33.660
257.28	31.438
257.65	29.781
258.02	28.614
258.39	30.372
258.76	31.884
259.14	29.143
259.51	31.778
259.88	29.179
260.25	25.824
260.62	27.123
260.99	29.477
261.36	25.348
261.73	29.255
262.10	29.581
262.47	30.000
262.85	28.000
263.22	26.478
263.59	32.225
263.96	29.323
264.33	28.395
264.70	29.730
265.07	28.537
265.44	26.835
265.81	28.066
266.18	29.519
266.55	26.478
266.92	26.174
267.29	29.825
267.66	28.027
268.03	26.906
268.40	27.273
268.77	28.194
269.14	26.030
269.51	28.062
269.88	30.816
270.25	23.758
270.62	29.614
270.99	27.383
271.36	31.098
271.73	27.044
272.10	25.455
272.47	25.992
272.84	26.148
273.21	28.099
273.58	26.721
273.95	25.462
274.32	25.875
274.69	28.150
275.06	27.869
275.43	28.927
275.80	24.528
276.17	25.000
276.54	27.850
276.91	26.306
277.28	28.285
277.65	24.723
278.02	25.919
278.39	27.698
278.76	25.517
279.13	24.911
279.50	25.455
279.87	25.140
280.23	24.125
280.60	26.095
280.97	27.586
281.34	24.092
281.71	25.565
282.08	26.667
282.45	24.324
282.82	25.585
283.19	22.576
283.56	24.463
283.92	25.081
284.29	23.461
284.66	22.521
285.03	26.368
285.40	24.298
285.77	25.154
286.14	24.613
286.51	24.847
286.87	23.259
287.24	22.523
287.61	22.492
287.98	23.433
288.35	24.444
288.72	24.279
289.08	22.673
289.45	24.390
289.82	23.750
290.19	23.572
290.56	22.853
290.93	23.165
291.29	22.238
291.66	22.034
292.03	22.861
292.40	23.442
292.77	20.891
293.13	21.683
293.50	20.378
293.87	20.054
294.24	21.399
294.60	21.400
294.97	22.098
295.34	20.452
295.71	21.682
296.08	21.333
296.44	21.728
296.81	19.231
297.18	18.758
297.55	20.320
297.91	19.458
298.28	19.686
298.65	19.018
299.02	18.938
299.38	19.065
299.75	19.390
300.12	18.807
300.48	20.492
300.85	18.474
301.22	18.488
301.59	17.689
301.95	17.503
302.32	18.393
302.69	19.796
303.05	19.416
303.42	17.489
303.79	19.393
304.15	17.382
304.52	17.125
304.89	18.124
305.25	18.131
305.62	19.723
305.99	16.196
306.35	17.158
306.72	18.314
307.09	17.081
307.45	16.262
307.82	17.593
308.19	17.732
308.55	16.800
308.92	17.959
309.29	19.428
309.65	17.245
310.02	18.256
310.38	17.049
310.75	17.165
311.12	16.092
311.48	19.112
311.85	17.271
312.22	17.192
312.58	16.424
312.95	17.573
313.31	17.603
313.68	16.417
314.05	17.949
314.41	18.343
314.78	17.708
315.14	17.915
315.51	17.881
315.87	17.427
316.24	16.060
316.61	17.368
316.97	16.422
317.34	17.161
317.70	17.471
318.07	17.171
318.43	18.014
318.80	17.075
319.16	17.220
319.53	17.080
319.89	16.667
320.26	17.505
320.62	18.132
320.99	16.587
321.35	17.254
321.72	18.027
322.08	17.082
322.45	17.530
322.81	18.573
323.18	17.140
323.54	17.160
323.91	19.311
324.27	17.065
324.64	15.657
325.00	17.845
325.37	16.610
325.73	16.358
326.10	17.978
326.46	17.093
326.83	16.240
327.19	17.671
327.56	16.933
327.92	17.131
328.29	17.103
328.65	16.610
329.01	16.424
329.38	17.428
329.74	16.055
330.11	17.811
330.47	17.477
330.84	16.048
331.20	16.920
331.56	17.012
331.93	18.477
332.29	15.901
332.66	16.667
333.02	17.268
333.38	16.841
333.75	18.682
334.11	17.450
334.48	16.325
334.84	16.385
335.20	16.168
335.57	16.541
335.93	16.148
336.29	17.993
336.66	17.238
337.02	16.253
337.38	17.455
337.75	16.047
338.11	16.287
338.47	16.850
338.84	16.596
339.20	14.459
339.56	17.241
339.93	17.057
340.29	15.546
340.65	16.429
341.02	17.136
341.38	16.338
341.74	15.282
342.11	15.776
342.47	15.669
342.83	16.899
343.20	16.330
343.56	14.297
343.92	15.442
344.28	16.906
344.65	15.566
345.01	16.667
345.37	15.385
345.73	15.952
346.10	14.821
346.46	15.630
346.82	16.204
347.19	16.615
347.55	15.222
347.91	15.030
348.27	14.407
348.63	15.506
349.00	15.232
349.36	15.486
349.72	15.979
350.08	16.382
350.45	16.451
350.81	15.979
351.17	14.946
351.53	14.858
351.89	15.462
352.26	15.646
352.62	15.460
352.98	15.951
353.34	15.639
353.70	15.520
354.07	15.308
354.43	14.900
354.79	16.249
355.15	15.237
355.51	15.181
355.87	16.039
356.24	15.396
356.60	15.601
356.96	14.556
357.32	15.373
357.68	14.905
358.04	14.818
358.40	15.367
358.77	16.003
359.13	15.616
359.49	14.529
359.85	15.786
360.21	14.785
360.57	14.672
360.93	15.657
361.29	15.584
361.66	15.884
362.02	14.347
362.38	15.729
362.74	15.357
363.10	16.059
363.46	13.536
363.82	15.708
364.18	15.505
364.54	15.021
364.90	15.261
365.26	14.781
365.62	15.470
365.98	15.141
366.35	13.793
366.71	14.781
367.07	15.222
367.43	14.775
367.79	16.157
368.15	14.925
368.51	15.162
368.87	14.402
369.23	14.692
369.59	14.902
369.95	15.944
370.31	14.648
370.67	14.781
371.03	15.546
371.39	15.235
371.75	14.934
372.11	15.024
372.47	15.068
372.83	15.364
373.19	15.422
373.55	14.570
373.91	14.365
374.27	15.146
374.63	15.390
374.99	15.162
375.35	14.046
375.71	14.842
376.07	14.854
376.42	13.619
376.78	15.543
377.14	14.810
377.50	13.608
377.86	13.965
378.22	14.930
378.58	14.891
378.94	15.329
379.30	13.766
379.66	15.473
380.02	14.839
380.38	14.461
380.74	15.225
381.09	14.486
381.45	13.757
381.81	14.243
382.17	14.225
382.53	15.357
382.89	14.134
383.25	14.328
383.61	13.948
383.97	14.277
384.32	14.647
384.68	15.567
385.04	15.123
385.40	14.057
385.76	13.985
386.12	14.904
386.48	14.347
386.83	14.181
387.19	14.782
387.55	14.605
387.91	14.434
388.27	15.289
388.62	14.085
388.98	14.169
389.34	14.039
389.70	13.208
390.06	14.390
390.42	14.929
390.77	14.803
391.13	15.329
391.49	13.975
391.85	15.077
392.20	15.256
392.56	15.054
392.92	14.318
393.28	14.013
393.64	13.819
393.99	13.989
394.35	13.949
394.71	14.174
395.07	13.625
395.42	14.344
395.78	14.250
396.14	14.819
396.50	14.501
396.85	13.963
397.21	14.501
397.57	14.106
397.92	14.211
398.28	14.341
398.64	14.311
399.00	14.164
399.35	13.688
399.71	14.128
400.07	14.098
400.42	14.149
400.78	14.018
401.14	14.386
401.49	14.459
401.85	14.890
402.21	13.591
402.57	14.303
402.92	13.879
403.28	13.007
403.63	14.303
403.99	14.294
404.35	14.478
404.70	14.235
405.06	14.037
405.42	14.183
405.77	13.561
406.13	14.534
406.49	13.928
406.84	14.326
407.20	14.441
407.55	14.215
407.91	14.167
408.27	14.312
408.62	14.429
408.98	13.838
409.34	13.968
409.69	13.503
410.05	13.894
410.40	13.486
410.76	13.681
411.11	13.744
411.47	13.704
411.83	14.001
412.18	13.647
412.54	13.874
412.89	13.923
413.25	13.854
413.60	13.376
413.96	13.106
414.31	13.754
414.67	14.587
415.03	13.538
415.38	14.637
415.74	13.455
416.09	13.429
416.45	14.674
416.80	14.047
417.16	14.322
417.51	14.713
417.87	14.518
418.22	13.183
418.58	14.395
418.93	14.396
419.29	13.247
419.64	13.870
420.00	14.320
420.35	13.066
420.71	14.352
421.06	12.890
421.42	14.450
421.77	14.048
422.12	14.168
422.48	13.867
422.83	14.174
423.19	13.607
423.54	13.110
423.90	13.477
424.25	13.814
424.61	14.277
424.96	13.665
425.31	14.505
425.67	14.198
426.02	13.909
426.38	13.186
426.73	14.286
427.09	14.769
427.44	13.731
427.79	13.836
428.15	14.319
428.50	14.629
428.85	14.286
429.21	13.506
429.56	13.908
429.92	13.774
430.27	14.224
430.62	13.656
430.98	14.072
431.33	13.810
431.68	12.494
432.04	14.175
432.39	14.325
432.74	14.403
433.10	13.898
433.45	14.130
433.80	14.010
434.16	13.925
434.51	13.467
434.86	15.024
435.22	13.938
435.57	14.641
435.92	14.343
436.28	14.113
436.63	14.479
436.98	13.964
437.34	14.384
437.69	13.102
438.04	14.462
438.39	14.302
438.75	14.644
439.10	14.301
439.45	14.076
439.81	14.459
440.16	13.814
440.51	14.302
440.86	15.043
441.22	13.907
441.57	14.016
441.92	14.610
442.27	13.866
442.63	14.024
442.98	13.955
443.33	14.355
443.68	14.789
444.03	14.420
444.39	13.889
444.74	14.130
445.09	13.691
445.44	14.718
445.79	13.986
446.15	14.526
446.50	14.504
446.85	14.293
447.20	14.229
447.55	13.703
447.91	14.704
448.26	14.217
448.61	14.483
448.96	15.087
449.31	15.567
449.66	14.618
450.02	13.182
450.37	14.936
450.72	14.215
451.07	14.776
451.42	14.878
451.77	14.318
452.12	14.804
452.47	14.399
452.83	14.930
453.18	15.075
453.53	14.742
453.88	15.143
454.23	15.747
454.58	15.501
454.93	14.838
455.28	13.953
455.63	14.716
455.98	14.946
456.34	15.441
456.69	15.610
457.04	14.021
457.39	14.514
457.74	15.146
458.09	14.374
458.44	14.513
458.79	14.960
459.14	14.621
459.49	14.892
459.84	15.163
460.19	14.576
460.54	15.100
460.89	14.819
461.24	15.063
461.59	14.966
461.94	14.835
462.29	15.446
462.64	15.515
462.99	14.907
463.34	15.943
463.69	16.092
464.04	15.141
464.39	15.283
464.74	15.240
465.09	14.800
465.44	14.908
465.79	14.371
466.14	14.679
466.49	15.084
466.84	15.385
467.19	16.169
467.54	14.474
467.89	15.141
468.24	15.460
468.59	15.238
468.94	14.976
469.29	15.455
469.64	16.141
469.99	16.517
470.34	15.686
470.68	15.586
471.03	16.344
471.38	15.762
471.73	15.807
472.08	15.851
472.43	16.077
472.78	16.517
473.13	14.643
473.48	15.770
473.83	16.019
474.17	15.198
474.52	16.055
474.87	14.952
475.22	15.820
475.57	15.425
475.92	14.461
476.27	15.343
476.61	15.282
476.96	14.838
477.31	15.630
477.66	15.727
478.01	15.833
478.36	15.705
478.70	14.591
479.05	14.697
479.40	15.625
479.75	15.591
480.10	15.005
480.45	14.799
480.79	14.977
481.14	14.931
481.49	14.684
481.84	14.732
482.19	15.109
482.53	14.800
482.88	14.919
483.23	14.569
483.58	15.395
483.92	15.631
484.27	14.640
484.62	15.492
484.97	15.466
485.31	14.405
485.66	13.917
486.01	13.300
486.36	13.127
486.70	13.332
487.05	13.543
487.40	13.746
487.75	13.667
488.09	14.290
488.44	14.085
488.79	14.856
489.13	15.155
489.48	15.342
489.83	14.262
490.17	14.286
490.52	14.686
490.87	15.129
491.22	15.957
491.56	15.064
491.91	15.412
492.26	15.367
492.60	15.626
492.95	15.043
493.30	14.741
493.64	15.588
493.99	15.206
494.34	14.388
494.68	15.449
495.03	15.626
495.37	15.443
495.72	15.385
496.07	15.229
496.41	15.378
496.76	15.534
497.11	15.724
497.45	15.081
497.80	15.431
498.14	15.950
498.49	15.320
498.84	15.514
499.18	14.808
499.53	15.158
499.87	15.364
500.22	15.615
500.56	15.785
500.91	15.955
501.26	16.031
501.60	15.665
501.95	15.323
502.29	15.556
502.64	14.645
502.98	14.896
503.33	15.590
503.67	15.673
504.02	15.137
504.36	15.792
504.71	15.989
505.06	15.392
505.40	15.302
505.75	15.388
506.09	16.192
506.44	15.930
506.78	15.170
507.13	15.802
507.47	15.138
507.82	16.156
508.16	16.365
508.51	15.845
508.85	16.144
509.19	15.908
509.54	15.771
509.88	16.012
510.23	15.441
510.57	15.010
510.92	15.734
511.26	16.616
511.61	15.510
511.95	15.729
512.30	16.200
512.64	15.369
512.98	15.325
513.33	16.803
513.67	15.950
514.02	15.688
514.36	16.044
514.70	15.947
515.05	15.503
515.39	16.447
515.74	17.004
516.08	16.612
516.42	17.213
516.77	16.800
517.11	15.733
517.46	16.972
517.80	15.620
518.14	16.394
518.49	16.097
518.83	16.154
519.17	15.973
519.52	16.603
519.86	16.948
520.20	16.329
520.55	16.902
520.89	16.264
521.23	17.231
521.58	17.154
521.92	16.035
522.26	16.647
522.61	17.053
522.95	17.237
523.29	16.316
523.64	16.358
523.98	16.960
524.32	17.070
524.66	16.406
525.01	16.331
525.35	16.971
525.69	16.978
526.04	17.549
526.38	17.069
526.72	16.826
527.06	15.967
527.41	17.715
527.75	17.042
528.09	17.158
528.43	16.351
528.78	16.995
529.12	17.640
529.46	15.663
529.80	16.647
530.15	16.264
530.49	16.125
530.83	16.697
531.17	16.728
531.51	17.229
531.86	16.546
532.20	17.244
532.54	16.635
532.88	17.364
533.22	16.880
533.57	17.145
533.91	15.793
534.25	16.042
534.59	16.316
534.93	15.757
535.27	15.993
535.62	15.869
535.96	15.662
536.30	16.758
536.64	16.646
536.98	16.740
537.32	17.188
537.66	15.689
538.01	17.214
538.35	17.093
538.69	16.323
539.03	15.983
539.37	16.080
539.71	15.988
540.05	16.492
540.39	16.541
540.73	16.772
541.07	16.060
541.42	16.418
541.76	16.523
542.10	16.646
542.44	17.145
542.78	17.181
543.12	16.442
543.46	16.416
543.80	16.541
544.14	15.913
544.48	16.484
544.82	17.309
545.16	16.090
545.50	17.025
545.84	17.235
546.18	18.010
546.52	16.721
546.86	17.215
547.20	15.956
547.54	16.023
547.88	16.241
548.22	15.847
548.56	16.087
548.90	16.667
549.24	16.361
549.58	15.851
549.92	17.092
550.26	17.174
550.60	15.902
550.94	17.096
551.28	18.207
551.62	17.103
551.96	17.365
552.30	16.216
552.64	17.217
552.98	16.302
553.32	16.581
553.66	15.570
554.00	16.538
554.34	17.776
554.68	17.675
555.02	16.768
555.36	16.356
555.69	16.230
556.03	16.561
556.37	16.316
556.71	17.405
557.05	15.662
557.39	16.200
557.73	16.846
558.07	17.036
558.41	16.381
558.75	18.057
559.08	16.941
559.42	16.822
559.76	16.679
560.10	16.105
560.44	17.518
560.78	16.560
561.12	16.720
561.45	16.583
561.79	15.855
562.13	16.109
562.47	15.769
562.81	17.241
563.15	16.807
563.48	15.404
563.82	17.717
564.16	16.791
564.50	16.275
564.84	16.109
565.17	16.280
565.51	16.872
565.85	16.656
566.19	15.655
566.52	15.523
566.86	16.988
567.20	17.360
567.54	16.212
567.88	16.536
568.21	15.277
568.55	15.953
568.89	15.420
569.23	15.272
569.56	15.176
569.90	14.948
570.24	14.617
570.57	14.471
570.91	14.103
571.25	13.820
571.59	13.536
571.92	13.617
572.26	13.504
572.60	13.885
572.93	13.887
573.27	13.814
573.61	13.833
573.95	13.596
574.28	13.282
574.62	13.367
574.96	12.862
575.29	13.131
575.63	13.027
575.97	13.218
576.30	13.541
576.64	13.111
576.98	13.141
577.31	13.572
577.65	13.265
577.98	13.142
578.32	12.502
578.66	13.122
578.99	13.426
579.33	13.802
579.67	13.478
580.00	13.047
580.34	13.120
580.67	12.975
581.01	13.386
581.35	13.238
581.68	12.694
582.02	12.804
582.35	12.732
582.69	13.077
583.02	12.712
583.36	13.014
583.70	13.050
584.03	13.522
584.37	13.882
584.70	13.660
585.04	13.229
585.37	13.233
585.71	13.416
586.04	13.158
586.38	13.431
586.72	13.127
587.05	13.845
587.39	13.173
587.72	13.686
588.06	13.186
588.39	13.153
588.73	13.375
589.06	13.831
589.40	13.991
589.73	14.192
590.07	14.276
590.40	14.599
590.73	15.130
591.07	14.421
591.40	14.571
591.74	13.880
592.07	14.809
592.41	14.828
592.74	13.914
593.08	13.379
593.41	13.764
593.75	13.529
594.08	13.767
594.41	13.783
594.75	13.870
595.08	13.717
595.42	14.352
595.75	14.084
596.09	14.390
596.42	14.494
596.75	15.104
597.09	14.816
597.42	14.980
597.75	14.686
598.09	14.403
598.42	14.933
598.76	14.649
599.09	14.233
599.42	13.668
599.76	14.077
600.09	13.424
600.42	14.296
600.76	13.902
601.09	14.049
601.42	13.833
601.76	14.107
602.09	14.202
602.42	14.418
602.76	14.004
603.09	14.404
603.42	14.385
603.76	14.425
604.09	14.187
604.42	14.124
604.76	14.500
605.09	14.571
605.42	14.262
605.75	14.765
606.09	14.575
606.42	14.168
606.75	14.186
607.09	14.133
607.42	14.102
607.75	14.371
608.08	14.257
608.42	14.807
608.75	14.078
609.08	14.166
609.41	14.818
609.75	14.789
610.08	14.973
610.41	14.668
610.74	15.022
611.07	15.371
611.41	14.875
611.74	15.153
612.07	15.511
612.40	15.546
612.73	15.377
613.07	15.459
613.40	15.138
613.73	14.878
614.06	15.250
614.39	14.848
614.72	14.967
615.06	14.491
615.39	15.198
615.72	14.714
616.05	15.319
616.38	15.221
616.71	15.247
617.05	14.333
617.38	15.562
617.71	15.411
618.04	15.648
618.37	15.564
618.70	15.127
619.03	15.324
619.36	16.394
619.69	16.425
620.03	16.634
620.36	15.222
620.69	17.305
621.02	15.965
621.35	15.688
621.68	16.372
622.01	18.303
622.34	16.169
622.67	17.275
623.00	16.882
623.33	16.194
623.66	16.234
623.99	15.616
624.32	16.531
624.65	16.195
624.99	16.836
625.32	16.099
625.65	16.000
625.98	16.179
626.31	17.433
626.64	17.312
626.97	17.215
627.30	17.081
627.63	17.347
627.96	16.745
628.29	17.162
628.62	16.595
628.95	17.996
629.28	17.704
629.61	17.311
629.94	18.323
630.26	18.198
630.59	18.794
630.92	16.861
631.25	18.495
631.58	18.226
631.91	17.888
632.24	17.881
632.57	16.896
632.90	19.358
633.23	19.307
633.56	18.546
633.89	19.185
634.22	19.591
634.55	18.280
634.88	18.729
635.20	19.395
635.53	20.325
635.86	19.799
636.19	18.294
636.52	17.838
636.85	17.907
637.18	19.177
637.51	18.771
637.83	18.764
638.16	20.164
638.49	19.760
638.82	20.188
639.15	17.391
639.48	20.735
639.81	20.147
640.13	18.650
640.46	20.228
640.79	19.766
641.12	19.948
641.45	21.475
641.77	19.022
642.10	20.214
642.43	20.910
642.76	20.739
643.09	20.029
643.41	21.318
643.74	20.576
644.07	20.796
644.40	20.562
644.73	20.721
645.05	22.288
645.38	21.899
645.71	20.334
646.04	21.221
646.36	20.501
646.69	21.440
647.02	22.880
647.35	21.732
647.67	20.583
648.00	21.010
648.33	21.654
648.66	20.758
648.98	18.986
649.31	18.489
649.64	18.672
649.96	20.199
650.29	18.429
650.62	22.975
650.94	22.892
651.27	22.488
651.60	20.970
651.92	21.352
652.25	21.417
652.58	21.986
652.90	21.108
653.23	20.827
653.56	20.178
653.88	19.971
654.21	20.381
654.54	21.376
654.86	19.174
655.19	20.185
655.52	15.077
655.84	11.195
656.17	12.594
656.49	17.948
656.82	21.064
657.15	16.959
657.47	12.793
657.80	9.387
658.13	7.499
658.45	9.980
658.78	12.213
659.10	12.576
659.43	13.317
659.75	14.242
660.08	14.348
660.41	16.969
660.73	19.197
661.06	22.673
661.38	22.487
661.71	21.223
662.03	21.863
662.36	23.429
662.68	19.926
663.01	22.883
663.33	22.642
663.66	22.880
663.98	22.421
664.31	22.388
664.63	23.946
664.96	24.765
665.28	22.976
665.61	23.208
665.93	22.075
666.26	22.243
666.58	24.587
666.91	20.463
667.23	22.691
667.56	21.150
667.88	25.519
668.21	22.131
668.53	26.411
668.86	24.449
669.18	21.589
669.50	22.521
669.83	25.462
670.15	21.414
670.48	21.875
670.80	24.900
671.13	22.709
671.45	23.848
671.77	23.933
672.10	22.262
672.42	20.559
672.75	19.937
673.07	20.032
673.39	21.406
673.72	23.183
674.04	22.581
674.37	21.053
674.69	23.606
675.01	20.336
675.34	20.349
675.66	25.000
675.98	20.316
676.31	22.400
676.63	22.664
676.95	24.603
677.28	21.907
677.60	20.926
677.92	22.222
678.25	22.868
678.57	21.974
678.89	22.061
679.22	20.404
679.54	19.395
679.86	22.513
680.18	20.211
680.51	19.237
680.83	21.284
681.15	21.317
681.48	21.354
681.80	19.615
682.12	21.453
682.44	19.640
682.77	20.996
683.09	23.689
683.41	21.224
683.73	22.244
684.06	21.032
684.38	24.225
684.70	21.583
685.02	18.924
685.34	20.070
685.67	21.061
685.99	21.511
686.31	18.182
686.63	19.350
686.96	20.425
687.28	20.134
687.60	20.137
687.92	20.771
688.24	21.897
688.56	20.463
688.89	20.076
689.21	22.929
689.53	23.518
689.85	21.341
690.17	22.718
690.49	22.581
690.82	21.218
691.14	23.434
691.46	23.203
691.78	23.197
692.10	22.328
692.42	19.056
692.74	22.481
693.06	22.093
693.39	22.332
693.71	19.450
694.03	22.288
694.35	23.293
694.67	21.385
694.99	24.169
695.31	25.000
695.63	22.851
695.95	23.529
696.27	23.230
696.59	23.628
696.91	24.557
697.23	23.529
697.56	19.295
697.88	19.760
698.20	20.943
698.52	19.455
698.84	19.713
699.16	24.094
699.48	23.941
699.80	25.926
700.12	26.559
700.44	24.766
700.76	24.821
701.08	26.110
701.40	22.857
701.72	27.807
702.04	26.558
702.36	25.000
702.68	27.128
703.00	21.053
703.32	25.310
703.64	26.448
703.96	23.698
704.28	23.016
704.60	25.915
704.91	25.210
705.23	23.580
705.55	25.519
705.87	26.032
706.19	26.332
706.51	32.602
706.83	27.434
707.15	27.273
707.47	26.634
707.79	23.908
708.11	21.995
708.43	22.247
708.74	19.683
709.06	22.326
709.38	25.310
709.70	20.436
710.02	22.826
710.34	24.586
710.66	25.000
710.98	26.230
711.29	26.462
711.61	27.298
711.93	27.964
712.25	26.506
712.57	27.331
712.89	27.879
713.20	30.351
713.52	27.103
713.84	26.586
714.16	21.449
714.48	20.461
714.80	24.932
715.11	23.936
715.43	24.860
715.75	23.662
716.07	23.410
716.39	26.286
716.70	22.118
717.02	26.599
717.34	29.496
717.66	30.208
717.97	30.682
718.29	32.746
718.61	22.635
718.93	28.374
719.24	23.826
719.56	25.172
719.88	24.841
720.20	27.419
720.51	23.203
720.83	22.742
721.15	28.231
721.46	29.452
721.78	27.178
722.10	27.431
722.42	29.431
722.73	24.188
723.05	27.719
723.37	26.855
723.68	27.344
724.00	27.273
724.32	25.856
724.63	26.154
724.95	29.020
725.27	31.970
725.58	25.368
725.90	28.873
726.22	25.685
726.53	25.084
726.85	27.362
727.16	25.168
727.48	25.914
727.80	30.216
728.11	27.500
728.43	27.174
728.74	25.175
729.06	23.656
729.38	29.123
729.69	28.667
730.01	28.289
730.32	27.517
730.64	25.914
730.96	23.724
731.27	22.324
731.59	22.414
731.90	22.563
732.22	26.286
732.53	25.071
732.85	23.392
733.16	22.892
733.48	21.003
733.80	28.406
734.11	28.834
734.43	23.099
734.74	20.912
735.06	24.603
735.37	22.938
735.69	22.609
736.00	28.135
736.32	21.212
736.63	23.975
736.95	26.398
737.26	22.256
737.58	23.926
737.89	24.699
738.21	25.497
738.52	27.425
738.83	30.037
739.15	26.481
739.46	23.103
739.78	26.531
740.09	26.531
740.41	24.847
740.72	26.032
741.04	29.720
741.35	28.125
741.66	28.063
741.98	30.901
742.29	29.630
742.61	28.761
742.92	27.119
743.23	25.200
743.55	26.038
743.86	25.882
744.18	27.966
744.49	31.405
744.80	29.493
745.12	31.696
745.43	31.308
745.74	33.333
746.06	25.877
746.37	28.837
746.68	32.301
747.00	30.493
747.31	25.630
747.62	25.000
747.94	30.043
748.25	25.292
748.56	30.932
748.88	30.357
749.19	32.558
749.50	28.311
749.82	32.099
750.13	27.273
750.44	27.000
750.75	27.852
751.07	24.671
751.38	25.083
751.69	23.232
752.01	25.175
752.32	25.249
752.63	27.852
752.94	28.322
753.26	32.422
753.57	27.237
753.88	26.966
754.19	27.798
754.51	27.907
754.82	22.483
755.13	27.703
755.44	28.519
755.75	27.835
756.07	22.945
756.38	20.588
756.69	24.063
757.00	24.926
757.31	25.915
757.63	23.691
757.94	22.606
758.25	23.430
758.56	21.053
758.87	23.058
759.18	23.547
759.50	20.973
759.81	26.409
760.12	22.753
760.43	22.969
760.74	24.304
761.05	21.220
761.36	20.833
761.67	21.024
761.99	23.944
762.30	25.723
762.61	22.222
762.92	26.515
763.23	27.547
763.54	25.000
763.85	26.848
764.16	26.042
764.47	28.716
764.78	26.710
765.10	22.256
765.41	22.727
765.72	20.718
766.03	23.867
766.34	22.997
766.65	25.856
766.96	31.579
767.27	37.850
767.58	35.644
767.89	33.702
768.20	36.585
768.51	27.041
768.82	32.456
769.13	27.059
769.44	24.436
769.75	24.345
770.06	26.471
770.37	29.825
770.68	24.444
770.99	32.627
771.30	28.870
771.61	29.231
771.92	24.427
772.23	25.000
772.54	33.333
772.85	36.634
773.16	35.326
773.47	32.778
773.78	31.188
774.09	34.659
774.39	35.152
774.70	28.824
775.01	34.211
775.32	36.646
775.63	37.671
775.94	41.975
776.25	37.931
776.56	43.511
776.87	32.824
777.18	34.091
777.48	48.819
777.79	48.462
778.10	40.909
778.41	44.776
778.72	42.105
779.03	35.256
779.34	35.811
779.65	31.056
779.95	33.540
780.26	30.357
780.57	46.259
780.88	44.681
781.19	42.500
781.50	32.544
781.80	32.240
782.11	32.275
782.42	29.885
782.73	36.723
783.04	30.323
783.34	25.581
783.65	36.054
783.96	32.903
784.27	35.099
784.57	31.579
784.88	39.855
785.19	41.667
785.50	43.103
785.81	45.736
786.11	32.593
786.42	37.008
786.73	45.045
787.04	42.453
787.34	31.707
787.65	48.485
787.96	39.394
788.26	44.882
788.57	40.876
788.88	39.437
789.19	37.405
789.49	47.973
789.80	35.156
790.11	39.669
790.41	46.296
790.72	46.296
791.03	46.154
791.33	53.535
791.64	44.211
791.95	52.632
792.25	43.750
792.56	54.000
792.87	57.317
793.17	51.136
793.48	55.294
793.79	35.632
794.09	55.682
794.40	50.862
794.70	36.508
795.01	32.308
795.32	37.405
795.62	39.316
795.93	50.420
796.23	43.089
796.54	46.939
796.85	54.545
797.15	57.143
797.46	64.634
797.76	52.500
798.07	65.333
798.37	58.750
798.68	65.000
798.99	64.634
799.29	46.667
799.60	32.558
799.90	50.000
800.21	54.545
800.51	54.930
800.82	48.276
801.12	70.769
801.43	61.333
801.73	65.517
802.04	61.039
802.34	65.753
802.65	72.549
802.95	60.870
803.26	77.419
803.56	85.000
803.87	74.627
804.17	77.778
804.48	52.830
804.78	58.333
805.09	62.121
805.39	74.603
805.70	73.684
806.00	55.714
806.30	75.000
806.61	52.941
806.91	52.222
807.22	40.217
807.52	53.947
807.83	67.105
808.13	66.667
808.43	64.516
808.74	50.685
809.04	83.929
809.35	73.529
809.65	78.788
809.95	82.353
810.26	70.370
810.56	78.125
810.86	73.469
811.17	71.930
811.47	71.739
811.77	67.241
812.08	68.966
812.38	92.857
812.69	78.571
812.99	75.556
813.29	117.143
813.59	112.903
813.90	74.138
814.20	86.885
814.50	72.000
814.81	66.667
815.11	90.741
815.41	89.286
815.72	66.071
816.02	98.000
816.32	97.561
816.62	82.759
816.93	112.121
817.23	90.244
817.53	76.786
817.84	71.111
818.14	109.524
818.44	97.917
818.74	92.453
819.04	120.513
819.35	115.152
819.65	90.385
819.95	88.889
820.25	106.383
820.56	113.514
820.86	115.789
821.16	57.447
821.46	102.632
821.76	83.636
822.07	69.048
822.37	89.474
822.67	102.326
822.97	76.316
823.27	95.652
823.57	96.875
823.88	100.000
824.18	109.091
824.48	143.478
824.78	122.222
825.08	169.565
825.38	131.034
825.69	108.824
825.99	68.085
826.29	94.444
826.59	97.143
826.89	116.667
827.19	134.286
827.49	138.710
827.79	161.538
828.09	88.095
828.39	102.778
828.70	86.486
829.00	153.571
829.30	181.250
829.60	113.889
829.90	106.452
830.20	84.848
830.50	132.432
830.80	187.500
831.10	153.846
831.40	152.381
831.70	150.000
832.00	136.667
832.30	108.696
832.60	162.500
832.90	154.545
833.20	215.000
833.50	142.105
833.80	123.529
834.10	128.947
834.40	121.053
834.70	120.000
835.00	156.000
835.30	118.919
835.60	143.750
835.90	108.108
836.20	130.769
836.50	104.545
836.80	109.756
837.10	143.478
837.40	253.846
837.70	152.632
838.00	156.667
838.30	162.500
838.60	96.000
838.90	360.000
839.19	156.250
839.49	126.667
839.79	137.931
840.09	126.923
840.39	220.000
840.69	168.421
840.99	142.857
841.29	165.217
841.59	165.000
841.88	184.000
842.18	266.667
842.48	150.000
842.78	148.148
843.08	269.231
843.38	150.000
843.68	314.286
843.97	371.429
844.27	126.087
844.57	1800.000
844.87	200.000
845.17	183.333
845.47	195.238
845.76	145.833
846.06	528.571
846.36	235.294
846.66	253.846
846.96	231.250
847.25	169.231
847.55	178.947
847.85	177.778
848.15	720.000
848.44	363.636
848.74	161.905
849.04	191.667
849.34	170.588
849.63	193.750
849.93	212.500
850.23	800.000
850.53	337.500
850.82	372.727
851.12	164.706
851.42	145.833
851.71	243.750
852.01	0.000
852.31	235.294
852.61	320.000
852.90	125.000
853.20	333.333
853.50	-1500.000
853.79	104.000
854.09	128.125
854.39	168.966
854.68	124.138
854.98	204.762
855.28	106.452
855.57	321.429
855.87	188.889
856.17	125.926
856.46	184.211
856.76	141.935
857.05	217.647
857.35	272.727
857.65	207.692
857.94	150.000
858.24	455.556
858.53	271.429
858.83	542.857
859.13	208.696
859.42	311.111
859.72	450.000
860.01	166.667
860.31	800.000
860.60	430.000
860.90	400.000
861.20	300.000
861.49	428.571
861.79	-2600.000
862.08	414.286
862.38	388.889
862.67	192.857
862.97	460.000
863.26	160.000
863.56	950.000
863.85	246.154
864.15	264.706
864.44	211.111
864.74	341.667
865.03	390.909
865.33	412.500
865.62	253.333
865.92	466.667
866.21	1000.000
866.51	440.000
866.80	266.667
867.10	933.333
867.39	2700.000
867.69	640.000
867.98	675.000
868.27	204.762
868.57	286.667
868.86	850.000
869.16	176.190
869.45	2300.000
869.75	-416.667
870.04	700.000
870.33	540.000
870.63	350.000
870.92	252.941
871.22	800.000
871.51	328.571
871.80	275.000
872.10	261.538
>>>>>End Processed Spectral Data<<<<<
