SpectraSuite Data File
++++++++++++++++++++++++++++++++++++
Date: Tue May 12 17:05:46 PDT 2015
User: schluterlab
Dark Spectrum Present: Yes
Reference Spectrum Present: Yes
Number of Sampled Component Spectra: 1
Spectrometers: USB2E3373
Integration Time (usec): 3000 (USB2E3373)
Spectra Averaged: 3 (USB2E3373)
Boxcar Smoothing: 0 (USB2E3373)
Correct for Electrical Dark: No (USB2E3373)
Strobe/Lamp Enabled: No (USB2E3373)
Correct for Detector Non-linearity: No (USB2E3373)
Correct for Stray Light: No (USB2E3373)
Number of Pixels in Processed Spectrum: 2048
>>>>>Begin Processed Spectral Data<<<<<
178.53	0.000
178.91	-216.667
179.29	-575.000
179.67	-4200.000
180.04	-166.667
180.42	950.000
180.80	1700.000
181.18	0.000
181.56	-337.500
181.94	0.000
182.31	1166.667
182.69	-3500.000
183.07	657.143
183.45	-4200.000
183.83	-1600.000
184.20	360.000
184.58	485.714
184.96	-215.385
185.34	-233.333
185.72	1650.000
186.09	-775.000
186.47	-2300.000
186.85	1300.000
187.23	720.000
187.61	1500.000
187.98	487.500
188.36	257.143
188.74	341.667
189.12	391.667
189.49	850.000
189.87	0.000
190.25	525.000
190.63	4500.000
191.00	-208.333
191.38	-2200.000
191.76	-675.000
192.14	637.500
192.51	-3700.000
192.89	1800.000
193.27	1133.333
193.65	-1366.667
194.02	-720.000
194.40	542.857
194.78	-192.857
195.15	286.667
195.53	-3400.000
195.91	-560.000
196.29	4000.000
196.66	293.750
197.04	950.000
197.42	-1450.000
197.79	725.000
198.17	241.667
198.55	0.000
198.92	400.000
199.30	1266.667
199.68	1850.000
200.05	700.000
200.43	-566.667
200.81	238.889
201.18	3300.000
201.56	233.333
201.94	-825.000
202.31	-375.000
202.69	-440.000
203.07	2800.000
203.44	-616.667
203.82	333.333
204.19	780.000
204.57	-1550.000
204.95	-900.000
205.32	-740.000
205.70	566.667
206.08	825.000
206.45	-766.667
206.83	322.222
207.20	205.263
207.58	283.333
207.96	760.000
208.33	0.000
208.71	528.571
209.08	820.000
209.46	-2900.000
209.84	-1000.000
210.21	880.000
210.59	-620.000
210.96	358.333
211.34	-1025.000
211.71	372.727
212.09	975.000
212.46	1800.000
212.84	-383.333
213.22	611.111
213.59	-3400.000
213.97	370.000
214.34	1325.000
214.72	1133.333
215.09	1433.333
215.47	-2900.000
215.84	-380.000
216.22	-437.500
216.59	0.000
216.97	0.000
217.34	2000.000
217.72	-1550.000
218.09	900.000
218.47	512.500
218.84	925.000
219.22	1066.667
219.59	1066.667
219.97	557.143
220.34	444.444
220.72	1550.000
221.09	3400.000
221.47	266.667
221.84	1133.333
222.22	310.000
222.59	238.889
222.97	278.571
223.34	250.000
223.72	-1650.000
224.09	1166.667
224.46	276.923
224.84	-900.000
225.21	400.000
225.59	353.333
225.96	1200.000
226.34	-560.000
226.71	-650.000
227.08	-460.000
227.46	0.000
227.83	-566.667
228.21	-1700.000
228.58	441.667
228.95	1175.000
229.33	333.333
229.70	925.000
230.08	376.923
230.45	3400.000
230.82	-1125.000
231.20	-1033.333
231.57	-1133.333
231.95	540.000
232.32	300.000
232.69	566.667
233.07	291.667
233.44	-1950.000
233.81	280.000
234.19	125.926
234.56	250.000
234.93	205.882
235.31	185.000
235.68	281.250
236.05	146.429
236.43	144.444
236.80	257.143
237.17	189.655
237.55	143.750
237.92	130.000
238.29	124.242
238.67	118.750
239.04	100.000
239.41	97.917
239.79	102.500
240.16	100.000
240.53	77.049
240.91	75.362
241.28	77.966
241.65	65.152
242.02	88.732
242.40	72.857
242.77	63.736
243.14	50.633
243.51	66.667
243.89	50.467
244.26	46.729
244.63	64.356
245.00	49.541
245.38	47.458
245.75	46.212
246.12	61.481
246.49	42.553
246.87	37.705
247.24	46.667
247.61	48.125
247.98	37.415
248.36	35.152
248.73	42.347
249.10	30.357
249.47	41.000
249.84	32.338
250.22	38.919
250.59	38.500
250.96	38.819
251.33	35.349
251.70	33.482
252.08	39.916
252.45	35.458
252.82	33.460
253.19	32.806
253.56	32.308
253.94	35.145
254.31	34.884
254.68	33.449
255.05	35.172
255.42	27.737
255.79	30.945
256.16	37.966
256.54	36.364
256.91	32.353
257.28	29.431
257.65	30.094
258.02	30.088
258.39	31.805
258.76	32.754
259.14	29.143
259.51	31.195
259.88	34.954
260.25	28.297
260.62	29.041
260.99	29.752
261.36	25.348
261.73	29.521
262.10	31.937
262.47	27.750
262.85	27.733
263.22	30.591
263.59	26.343
263.96	31.078
264.33	28.642
264.70	30.467
265.07	27.561
265.44	29.128
265.81	29.717
266.18	29.291
266.55	29.787
266.92	28.412
267.29	28.509
267.66	25.336
268.03	28.251
268.40	28.330
268.77	30.176
269.14	26.898
269.51	28.285
269.88	28.980
270.25	25.054
270.62	26.180
270.99	29.412
271.36	29.268
271.73	26.834
272.10	27.273
272.47	26.389
272.84	28.743
273.21	29.339
273.58	26.113
273.95	24.846
274.32	26.265
274.69	29.134
275.06	26.230
275.43	24.521
275.80	26.226
276.17	24.632
276.54	27.477
276.91	29.291
277.28	24.270
277.65	26.199
278.02	25.000
278.39	24.640
278.76	27.586
279.13	24.733
279.50	24.000
279.87	26.816
280.23	27.072
280.60	27.920
280.97	25.172
281.34	24.752
281.71	26.261
282.08	26.496
282.45	25.169
282.82	23.746
283.19	25.755
283.56	24.793
283.92	27.687
284.29	25.957
284.66	25.546
285.03	24.544
285.40	23.636
285.77	24.846
286.14	25.232
286.51	24.540
286.87	23.101
287.24	21.321
287.61	23.556
287.98	23.881
288.35	23.111
288.72	22.610
289.08	24.324
289.45	23.323
289.82	22.500
290.19	22.548
290.56	23.435
290.93	22.446
291.29	21.409
291.66	20.763
292.03	20.898
292.40	21.680
292.77	19.777
293.13	21.113
293.50	19.838
293.87	21.138
294.24	20.699
294.60	23.284
294.97	22.378
295.34	21.647
295.71	20.762
296.08	21.867
296.44	21.601
296.81	19.975
297.18	20.532
297.55	21.429
297.91	19.828
298.28	19.928
298.65	20.613
299.02	20.265
299.38	21.223
299.75	17.927
300.12	19.266
300.48	20.960
300.85	19.547
301.22	20.349
301.59	17.689
301.95	19.137
302.32	18.161
302.69	19.683
303.05	18.855
303.42	18.498
303.79	19.285
304.15	18.922
304.52	19.027
304.89	18.657
305.25	18.687
305.62	18.763
305.99	19.674
306.35	17.895
306.72	19.563
307.09	17.909
307.45	17.001
307.82	19.547
308.19	19.278
308.55	18.200
308.92	19.235
309.29	18.935
309.65	18.632
310.02	18.256
310.38	18.644
310.75	17.936
311.12	18.966
311.48	19.884
311.85	18.607
312.22	18.434
312.58	19.534
312.95	19.126
313.31	19.101
313.68	18.668
314.05	21.337
314.41	19.274
314.78	20.928
315.14	20.000
315.51	20.151
315.87	19.982
316.24	21.382
316.61	20.859
316.97	20.092
317.34	21.653
317.70	22.300
318.07	22.865
318.43	23.814
318.80	22.067
319.16	22.902
319.53	23.009
319.89	23.387
320.26	25.047
320.62	25.824
320.99	24.690
321.35	25.881
321.72	26.281
322.08	26.408
322.45	26.885
322.81	26.715
323.18	28.064
323.54	27.265
323.91	29.918
324.27	29.443
324.64	28.633
325.00	28.966
325.37	31.029
325.73	31.113
326.10	31.980
326.46	31.214
326.83	31.840
327.19	32.610
327.56	32.588
327.92	33.197
328.29	35.761
328.65	35.017
329.01	35.244
329.38	35.787
329.74	33.476
330.11	35.795
330.47	35.550
330.84	35.548
331.20	36.379
331.56	38.687
331.93	36.270
332.29	35.204
332.66	35.799
333.02	35.997
333.38	36.911
333.75	36.947
334.11	36.577
334.48	37.179
334.84	36.233
335.20	37.896
335.57	36.860
335.93	37.174
336.29	36.401
336.66	37.307
337.02	38.580
337.38	37.661
337.75	36.486
338.11	38.397
338.47	38.273
338.84	37.849
339.20	37.403
339.56	37.174
339.93	38.545
340.29	36.639
340.65	37.888
341.02	38.455
341.38	37.356
341.74	36.711
342.11	38.564
342.47	37.654
342.83	38.474
343.20	38.480
343.56	34.472
343.92	38.233
344.28	38.357
344.65	37.897
345.01	36.984
345.37	37.260
345.73	37.302
346.10	37.450
346.46	37.480
346.82	36.034
347.19	38.794
347.55	37.627
347.91	36.631
348.27	35.864
348.63	37.263
349.00	37.014
349.36	37.510
349.72	37.691
350.08	37.500
350.45	38.157
350.81	38.379
351.17	36.980
351.53	36.336
351.89	37.995
352.26	37.491
352.62	36.878
352.98	37.653
353.34	38.675
353.70	36.315
354.07	38.308
354.43	36.636
354.79	37.965
355.15	37.749
355.51	37.991
355.87	37.952
356.24	38.491
356.60	36.454
356.96	37.453
357.32	38.960
357.68	38.473
358.04	38.070
358.40	37.406
358.77	38.693
359.13	38.363
359.49	38.028
359.85	38.124
360.21	38.484
360.57	37.299
360.93	38.889
361.29	38.745
361.66	39.224
362.02	37.642
362.38	38.167
362.74	39.278
363.10	38.640
363.46	37.293
363.82	38.780
364.18	38.051
364.54	39.485
364.90	39.357
365.26	39.001
365.62	39.365
365.98	38.266
366.35	38.138
366.71	38.446
367.07	38.703
367.43	39.221
367.79	39.894
368.15	38.874
368.51	39.008
368.87	38.247
369.23	38.739
369.59	39.042
369.95	38.951
370.31	38.125
370.67	39.417
371.03	40.056
371.39	38.712
371.75	39.218
372.11	39.769
372.47	39.247
372.83	39.837
373.19	40.027
373.55	39.450
373.91	39.503
374.27	39.087
374.63	40.203
374.99	40.633
375.35	40.860
375.71	40.172
376.07	40.385
376.42	39.066
376.78	39.756
377.14	40.170
377.50	39.014
377.86	39.910
378.22	40.463
378.58	41.828
378.94	40.435
379.30	40.024
379.66	40.819
380.02	40.000
380.38	40.222
380.74	41.522
381.09	40.946
381.45	40.000
381.81	40.544
382.17	40.781
382.53	40.012
382.89	40.982
383.25	40.379
383.61	40.865
383.97	40.372
384.32	41.290
384.68	42.127
385.04	40.563
385.40	40.095
385.76	40.609
386.12	40.940
386.48	40.912
386.83	41.198
387.19	41.873
387.55	40.636
387.91	41.455
388.27	41.642
388.62	41.725
388.98	41.283
389.34	40.452
389.70	40.330
390.06	40.305
390.42	41.209
390.77	39.988
391.13	42.667
391.49	40.290
391.85	41.785
392.20	41.597
392.56	42.772
392.92	40.539
393.28	40.751
393.64	40.711
393.99	41.020
394.35	41.613
394.71	41.194
395.07	41.241
395.42	40.808
395.78	42.134
396.14	42.410
396.50	41.637
396.85	41.341
397.21	41.637
397.57	41.363
397.92	40.208
398.28	40.871
398.64	41.536
399.00	40.192
399.35	39.452
399.71	42.439
400.07	40.126
400.42	40.358
400.78	40.938
401.14	42.513
401.49	41.187
401.85	41.715
402.21	41.066
402.57	40.993
402.92	41.030
403.28	40.334
403.63	40.789
403.99	41.255
404.35	40.739
404.70	40.638
405.06	39.921
405.42	41.113
405.77	39.746
406.13	39.642
406.49	39.568
406.84	40.835
407.20	41.096
407.55	40.554
407.91	40.970
408.27	41.358
408.62	40.095
408.98	40.568
409.34	40.444
409.69	41.755
410.05	40.966
410.40	40.636
410.76	39.439
411.11	40.521
411.47	40.494
411.83	39.250
412.18	40.519
412.54	39.760
412.89	40.177
413.25	41.163
413.60	40.946
413.96	41.173
414.31	41.145
414.67	41.775
415.03	41.699
415.38	41.325
415.74	41.883
416.09	41.849
416.45	40.853
416.80	43.040
417.16	41.184
417.51	40.955
417.87	40.676
418.22	41.495
418.58	41.529
418.93	41.999
419.29	41.158
419.64	42.520
420.00	42.601
420.35	42.683
420.71	41.540
421.06	42.201
421.42	42.890
421.77	41.977
422.12	42.999
422.48	41.551
422.83	43.304
423.19	42.171
423.54	43.116
423.90	43.941
424.25	43.203
424.61	43.587
424.96	42.744
425.31	43.678
425.67	43.042
426.02	44.532
426.38	43.407
426.73	46.038
427.09	44.484
427.44	43.782
427.79	44.540
428.15	44.903
428.50	45.714
428.85	44.033
429.21	44.246
429.56	44.766
429.92	44.455
430.27	44.074
430.62	43.710
430.98	44.960
431.33	44.304
431.68	44.346
432.04	45.215
432.39	45.884
432.74	46.136
433.10	46.290
433.45	45.836
433.80	48.263
434.16	45.770
434.51	45.769
434.86	46.815
435.22	46.407
435.57	48.311
435.92	46.614
436.28	47.177
436.63	47.434
436.98	46.622
437.34	46.975
437.69	46.865
438.04	48.280
438.39	47.461
438.75	46.993
439.10	47.545
439.45	47.371
439.81	47.311
440.16	47.936
440.51	47.804
440.86	49.345
441.22	47.998
441.57	47.822
441.92	47.581
442.27	47.371
442.63	48.069
442.98	47.629
443.33	48.259
443.68	47.586
444.03	47.974
444.39	48.964
444.74	48.292
445.09	47.183
445.44	47.503
445.79	49.903
446.15	48.842
446.50	49.209
446.85	48.954
447.20	48.756
447.55	49.864
447.91	48.908
448.26	49.414
448.61	49.198
448.96	50.980
449.31	48.680
449.66	49.723
450.02	49.271
450.37	50.583
450.72	50.909
451.07	49.680
451.42	49.970
451.77	50.974
452.12	50.993
452.47	51.154
452.83	51.437
453.18	50.450
453.53	51.332
453.88	50.857
454.23	51.075
454.58	51.457
454.93	50.031
455.28	51.897
455.63	51.418
455.98	50.197
456.34	52.462
456.69	52.927
457.04	50.716
457.39	51.314
457.74	52.477
458.09	51.207
458.44	51.150
458.79	50.716
459.14	50.791
459.49	51.699
459.84	52.337
460.19	50.000
460.54	51.738
460.89	51.119
461.24	52.062
461.59	52.041
461.94	50.887
462.29	52.517
462.64	53.580
462.99	52.271
463.34	52.754
463.69	52.934
464.04	52.735
464.39	52.204
464.74	51.231
465.09	52.525
465.44	50.925
465.79	51.551
466.14	51.298
466.49	51.492
466.84	51.394
467.19	51.670
467.54	51.892
467.89	52.758
468.24	52.635
468.59	52.738
468.94	52.657
469.29	52.352
469.64	53.698
469.99	53.470
470.34	53.131
470.68	54.276
471.03	54.303
471.38	54.702
471.73	54.474
472.08	55.121
472.43	53.818
472.78	53.073
473.13	52.566
473.48	53.056
473.83	53.887
474.17	53.495
474.52	54.384
474.87	53.269
475.22	53.969
475.57	53.358
475.92	53.347
476.27	52.612
476.61	52.708
476.96	52.612
477.31	53.008
477.66	54.321
478.01	52.243
478.36	53.296
478.70	52.556
479.05	53.818
479.40	53.968
479.75	53.923
480.10	53.195
480.45	52.568
480.79	53.226
481.14	52.734
481.49	52.928
481.84	52.243
482.19	52.751
482.53	53.228
482.88	52.867
483.23	53.451
483.58	53.636
483.92	53.976
484.27	53.253
484.62	52.886
484.97	51.578
485.31	50.366
485.66	48.524
486.01	46.838
486.36	45.906
486.70	46.227
487.05	46.904
487.40	48.338
487.75	49.015
488.09	49.176
488.44	50.478
488.79	50.503
489.13	51.437
489.48	53.935
489.83	52.669
490.17	53.633
490.52	53.747
490.87	53.534
491.22	54.566
491.56	53.579
491.91	55.063
492.26	54.521
492.60	54.533
492.95	53.376
493.30	54.777
493.64	53.459
493.99	52.594
494.34	55.043
494.68	53.918
495.03	53.974
495.37	54.345
495.72	54.033
496.07	54.897
496.41	53.519
496.76	53.694
497.11	54.199
497.45	54.494
497.80	54.680
498.14	54.600
498.49	54.132
498.84	55.000
499.18	53.291
499.53	55.214
499.87	53.908
500.22	55.136
500.56	55.246
500.91	55.844
501.26	54.295
501.60	54.827
501.95	53.674
502.29	53.733
502.64	53.463
502.98	53.802
503.33	53.764
503.67	53.687
504.02	53.874
504.36	53.846
504.71	54.588
505.06	54.059
505.40	53.954
505.75	54.022
506.09	54.643
506.44	54.370
506.78	54.348
507.13	55.356
507.47	55.216
507.82	54.745
508.16	55.463
508.51	55.169
508.85	54.843
509.19	55.017
509.54	54.687
509.88	55.047
510.23	55.000
510.57	54.199
510.92	57.443
511.26	56.376
511.61	54.407
511.95	55.202
512.30	54.900
512.64	55.607
512.98	55.920
513.33	55.943
513.67	56.603
514.02	56.156
514.36	56.490
514.70	56.960
515.05	56.420
515.39	57.730
515.74	57.463
516.08	56.972
516.42	57.978
516.77	56.640
517.11	56.053
517.46	57.381
517.80	56.690
518.14	58.423
518.49	58.214
518.83	55.495
519.17	58.070
519.52	58.820
519.86	57.057
520.20	57.863
520.55	58.225
520.89	58.218
521.23	58.995
521.58	57.544
521.92	57.493
522.26	59.538
522.61	58.289
522.95	58.258
523.29	58.363
523.64	57.803
523.98	58.685
524.32	57.612
524.66	58.551
525.01	58.757
525.35	57.219
525.69	59.422
526.04	59.250
526.38	58.564
526.72	59.666
527.06	57.008
527.41	59.311
527.75	58.734
528.09	57.857
528.43	58.755
528.78	59.213
529.12	59.482
529.46	57.919
529.80	57.068
530.15	58.515
530.49	57.882
530.83	57.892
531.17	58.118
531.51	59.044
531.86	57.488
532.20	57.973
532.54	59.322
532.88	58.838
533.22	57.831
533.57	59.060
533.91	57.051
534.25	56.838
534.59	56.784
534.93	55.973
535.27	55.094
535.62	55.134
535.96	55.615
536.30	57.282
536.64	58.323
536.98	57.269
537.32	57.938
537.66	57.207
538.01	57.399
538.35	56.519
538.69	56.311
539.03	56.343
539.37	55.218
539.71	55.802
540.05	56.615
540.39	57.170
540.73	56.013
541.07	55.521
541.42	56.032
541.76	56.535
542.10	55.240
542.44	55.237
542.78	57.206
543.12	56.442
543.46	56.140
543.80	55.576
544.14	57.461
544.48	55.900
544.82	55.046
545.16	53.005
545.50	54.886
545.84	55.871
546.18	57.672
546.52	56.393
546.86	57.124
547.20	56.266
547.54	55.288
547.88	55.292
548.22	55.556
548.56	53.683
548.90	54.093
549.24	56.286
549.58	56.057
549.92	56.647
550.26	57.742
550.60	55.888
550.94	57.191
551.28	56.690
551.62	58.690
551.96	56.014
552.30	55.570
552.64	55.793
552.98	54.575
553.32	54.738
553.66	56.873
554.00	55.212
554.34	57.257
554.68	56.317
555.02	56.280
555.36	55.851
555.69	54.843
556.03	55.924
556.37	56.597
556.71	56.975
557.05	54.260
557.39	55.667
557.73	55.795
558.07	55.198
558.41	55.929
558.75	55.540
559.08	56.540
559.42	58.554
559.76	58.446
560.10	56.641
560.44	54.678
560.78	55.435
561.12	55.118
561.45	54.881
561.79	53.933
562.13	53.632
562.47	55.678
562.81	54.977
563.15	54.880
563.48	52.422
563.82	54.959
564.16	53.918
564.50	52.743
564.84	53.860
565.17	53.179
565.51	55.419
565.85	54.596
566.19	53.214
566.52	53.610
566.86	53.065
567.20	53.371
567.54	52.293
567.88	52.061
568.21	49.176
568.55	50.389
568.89	48.495
569.23	48.188
569.56	48.003
569.90	45.526
570.24	45.417
570.57	44.906
570.91	44.119
571.25	43.921
571.59	42.922
571.92	42.008
572.26	42.480
572.60	41.988
572.93	43.416
573.27	43.682
573.61	42.231
573.95	41.783
574.28	42.172
574.62	41.267
574.96	40.552
575.29	41.001
575.63	41.084
575.97	41.237
576.30	40.977
576.64	41.815
576.98	40.933
577.31	41.053
577.65	40.733
577.98	39.446
578.32	39.666
578.66	39.833
578.99	39.899
579.33	39.964
579.67	40.665
580.00	40.128
580.34	40.434
580.67	40.089
581.01	39.982
581.35	39.376
581.68	38.662
582.02	38.563
582.35	38.698
582.69	39.457
583.02	39.416
583.36	40.076
583.70	39.912
584.03	41.114
584.37	41.217
584.70	40.906
585.04	39.829
585.37	40.149
585.71	40.966
586.04	40.086
586.38	40.675
586.72	40.386
587.05	40.968
587.39	40.531
587.72	41.059
588.06	40.278
588.39	40.839
588.73	40.834
589.06	41.436
589.40	42.473
589.73	43.068
590.07	43.548
590.40	43.624
590.73	44.914
591.07	44.288
591.40	43.992
591.74	44.034
592.07	43.344
592.41	43.925
592.74	42.146
593.08	41.927
593.41	41.173
593.75	40.322
594.08	41.330
594.41	41.968
594.75	41.952
595.08	42.695
595.42	41.837
595.75	41.724
596.09	43.413
596.42	42.462
596.75	42.989
597.09	43.500
597.42	43.959
597.75	43.286
598.09	42.593
598.42	43.248
598.76	42.598
599.09	42.038
599.42	41.176
599.76	41.214
600.09	40.949
600.42	40.746
600.76	41.230
601.09	42.043
601.42	41.535
601.76	41.640
602.09	42.568
602.42	41.516
602.76	42.163
603.09	42.873
603.42	41.725
603.76	41.540
604.09	40.825
604.42	41.921
604.76	42.947
605.09	42.612
605.42	42.706
605.75	41.453
606.09	41.966
606.42	41.338
606.75	41.741
607.09	41.413
607.42	42.266
607.75	41.561
608.08	42.364
608.42	42.995
608.75	43.004
609.08	42.895
609.41	42.909
609.75	43.407
610.08	44.290
610.41	43.215
610.74	43.247
611.07	43.247
611.41	43.652
611.74	44.073
612.07	43.593
612.40	43.470
612.73	44.533
613.07	44.450
613.40	44.561
613.73	44.683
614.06	43.800
614.39	44.141
614.72	43.697
615.06	43.571
615.39	43.911
615.72	42.885
616.05	44.400
616.38	43.125
616.71	44.004
617.05	44.261
617.38	44.719
617.71	46.063
618.04	45.317
618.37	45.025
618.70	45.208
619.03	45.177
619.36	47.487
619.69	46.636
620.03	47.684
620.36	47.527
620.69	47.765
621.02	47.418
621.35	47.851
621.68	49.336
622.01	50.701
622.34	47.924
622.67	48.736
623.00	47.924
623.33	48.246
623.66	45.243
623.99	49.384
624.32	46.816
624.65	47.597
624.99	47.600
625.32	48.096
625.65	47.586
625.98	48.047
626.31	48.665
626.64	48.519
626.97	48.661
627.30	49.379
627.63	51.177
627.96	49.922
628.29	50.743
628.62	51.155
628.95	51.507
629.28	51.358
629.61	50.879
629.94	49.870
630.26	50.173
630.59	52.660
630.92	52.735
631.25	51.768
631.58	53.520
631.91	53.473
632.24	51.798
632.57	52.947
632.90	56.211
633.23	54.460
633.56	54.900
633.89	55.841
634.22	54.575
634.55	55.376
634.88	55.203
635.20	56.502
635.53	57.491
635.86	56.711
636.19	54.882
636.52	52.973
636.85	53.290
637.18	53.521
637.51	54.972
637.83	54.348
638.16	56.624
638.49	57.605
638.82	56.103
639.15	54.877
639.48	54.976
639.81	55.189
640.13	56.810
640.46	55.879
640.79	57.087
641.12	55.249
641.45	57.439
641.77	57.199
642.10	56.493
642.43	59.886
642.76	58.523
643.09	60.231
643.41	58.205
643.74	60.432
644.07	61.062
644.40	59.763
644.73	62.312
645.05	60.921
645.38	60.643
645.71	60.850
646.04	62.748
646.36	61.189
646.69	61.120
647.02	60.160
647.35	59.843
647.67	60.454
648.00	61.401
648.33	57.143
648.66	57.727
648.98	57.391
649.31	53.036
649.64	56.985
649.96	58.464
650.29	55.714
650.62	57.732
650.94	59.488
651.27	61.244
651.60	58.998
651.92	57.143
652.25	57.953
652.58	55.745
652.90	56.437
653.23	57.903
653.56	58.012
653.88	53.744
654.21	56.891
654.54	54.612
654.86	55.605
655.19	53.562
655.52	42.504
655.84	29.777
656.17	33.633
656.49	47.403
656.82	53.730
657.15	42.929
657.47	32.652
657.80	24.996
658.13	19.620
658.45	27.104
658.78	32.660
659.10	33.741
659.43	35.185
659.75	37.204
660.08	41.165
660.41	45.281
660.73	52.321
661.06	56.156
661.38	58.944
661.71	60.252
662.03	63.118
662.36	60.571
662.68	59.218
663.01	59.459
663.33	60.943
663.66	62.327
663.98	59.325
664.31	60.634
664.63	59.195
664.96	60.976
665.28	58.380
665.61	59.434
665.93	60.377
666.26	62.056
666.58	61.835
666.91	60.039
667.23	60.241
667.56	62.834
667.88	64.315
668.21	61.066
668.53	60.484
668.86	61.723
669.18	64.155
669.50	58.884
669.83	62.834
670.15	60.499
670.48	57.227
670.80	60.558
671.13	62.550
671.45	59.920
671.77	60.482
672.10	57.271
672.42	54.441
672.75	53.481
673.07	51.828
673.39	53.674
673.72	53.114
674.04	53.226
674.37	57.895
674.69	57.621
675.01	55.970
675.34	56.783
675.66	58.398
675.98	59.961
676.31	56.800
676.63	55.070
676.95	56.944
677.28	58.215
677.60	58.149
677.92	59.127
678.25	58.527
678.57	55.121
678.89	57.324
679.22	54.779
679.54	53.737
679.86	54.625
680.18	55.536
680.51	51.907
680.83	51.520
681.15	52.860
681.48	54.688
681.80	52.014
682.12	52.422
682.44	54.054
682.77	50.712
683.09	57.282
683.41	57.959
683.73	54.134
684.06	54.762
684.38	53.876
684.70	53.597
685.02	51.736
685.34	53.345
685.67	52.090
685.99	51.724
686.31	49.307
686.63	48.455
686.96	51.471
687.28	50.671
687.60	50.000
687.92	49.581
688.24	51.207
688.56	52.135
688.89	49.331
689.21	54.913
689.53	56.917
689.85	53.455
690.17	53.398
690.49	54.032
690.82	56.303
691.14	53.939
691.46	57.290
691.78	53.411
692.10	54.198
692.42	51.180
692.74	53.101
693.06	51.550
693.39	53.162
693.71	53.242
694.03	54.635
694.35	52.811
694.67	51.324
694.99	55.432
695.31	56.757
695.63	56.109
695.95	54.977
696.27	54.425
696.59	58.950
696.91	59.241
697.23	55.656
697.56	51.660
697.88	48.303
698.20	49.245
698.52	47.665
698.84	50.719
699.16	53.731
699.48	54.449
699.80	55.556
700.12	57.737
700.44	54.439
700.76	57.518
701.08	58.486
701.40	56.104
701.72	61.230
702.04	62.060
702.36	58.871
702.68	57.713
703.00	54.135
703.32	57.320
703.64	59.698
703.96	54.427
704.28	55.820
704.60	57.183
704.91	61.625
705.23	57.670
705.55	58.754
705.87	59.048
706.19	64.263
706.51	64.263
706.83	59.882
707.15	56.417
707.47	54.479
707.79	52.184
708.11	48.753
708.43	49.888
708.74	47.738
709.06	50.698
709.38	53.846
709.70	54.496
710.02	54.620
710.34	56.354
710.66	59.722
710.98	53.279
711.29	57.939
711.61	56.546
711.93	60.486
712.25	54.819
712.57	56.592
712.89	54.848
713.20	61.661
713.52	59.502
713.84	59.215
714.16	55.652
714.48	51.297
714.80	54.472
715.11	51.064
715.43	53.911
715.75	49.296
716.07	54.913
716.39	55.143
716.70	54.206
717.02	59.933
717.34	62.950
717.66	58.333
717.97	67.803
718.29	66.549
718.61	56.419
718.93	55.017
719.24	59.396
719.56	55.172
719.88	57.643
720.20	55.806
720.51	57.516
720.83	57.860
721.15	56.803
721.46	59.932
721.78	58.885
722.10	61.111
722.42	54.849
722.73	51.986
723.05	58.596
723.37	55.477
723.68	59.375
724.00	59.848
724.32	60.456
724.63	55.000
724.95	59.608
725.27	55.019
725.58	58.456
725.90	56.690
726.22	56.849
726.53	54.849
726.85	54.397
727.16	55.034
727.48	54.153
727.80	60.072
728.11	53.214
728.43	55.435
728.74	54.895
729.06	55.556
729.38	60.000
729.69	57.667
730.01	55.263
730.32	51.007
730.64	54.153
730.96	51.952
731.27	44.037
731.59	45.690
731.90	47.632
732.22	48.857
732.53	45.299
732.85	54.094
733.16	48.193
733.48	50.470
733.80	53.623
734.11	55.215
734.43	46.199
734.74	46.917
735.06	50.000
735.37	47.423
735.69	50.725
736.00	51.376
736.32	46.364
736.63	48.896
736.95	49.068
737.26	46.951
737.58	50.307
737.89	49.699
738.21	51.325
738.52	49.498
738.83	54.945
739.15	51.916
739.46	46.552
739.78	51.701
740.09	45.773
740.41	53.067
740.72	50.476
741.04	52.797
741.35	57.031
741.66	51.779
741.98	58.369
742.29	58.796
742.61	58.407
742.92	60.169
743.23	56.400
743.55	51.698
743.86	56.078
744.18	54.237
744.49	56.612
744.80	62.212
745.12	58.036
745.43	52.804
745.74	64.889
746.06	54.825
746.37	55.814
746.68	62.832
747.00	57.399
747.31	56.723
747.62	55.738
747.94	56.223
748.25	52.140
748.56	58.051
748.88	61.607
749.19	60.465
749.50	57.991
749.82	54.733
750.13	52.569
750.44	50.333
750.75	46.980
751.07	52.961
751.38	48.515
751.69	49.832
752.01	51.748
752.32	53.156
752.63	51.678
752.94	52.797
753.26	57.812
753.57	53.696
753.88	50.936
754.19	57.401
754.51	51.827
754.82	46.980
755.13	45.270
755.44	51.111
755.75	51.203
756.07	47.945
756.38	44.771
756.69	45.938
757.00	46.588
757.31	46.479
757.63	45.730
757.94	42.021
758.25	43.478
758.56	40.046
758.87	41.855
759.18	48.547
759.50	47.416
759.81	47.181
760.12	46.067
760.43	43.697
760.74	45.063
761.05	44.562
761.36	41.667
761.67	42.318
761.99	43.944
762.30	42.765
762.61	44.792
762.92	44.318
763.23	51.698
763.54	47.308
763.85	42.412
764.16	48.611
764.47	47.297
764.78	48.534
765.10	41.768
765.41	43.182
765.72	41.160
766.03	41.390
766.34	45.993
766.65	48.669
766.96	54.251
767.27	52.336
767.58	55.941
767.89	64.088
768.20	64.634
768.51	56.122
768.82	54.825
769.13	49.020
769.44	47.368
769.75	47.566
770.06	50.840
770.37	50.000
770.68	45.778
770.99	53.814
771.30	51.883
771.61	53.077
771.92	45.802
772.23	46.371
772.54	53.333
772.85	55.941
773.16	58.696
773.47	51.667
773.78	53.960
774.09	63.636
774.39	55.758
774.70	48.824
775.01	56.579
775.32	60.248
775.63	63.014
775.94	70.370
776.25	62.759
776.56	60.305
776.87	67.176
777.18	61.364
777.48	74.803
777.79	61.538
778.10	68.182
778.41	73.134
778.72	66.917
779.03	60.897
779.34	64.865
779.65	59.627
779.95	63.975
780.26	57.143
780.57	63.265
780.88	65.248
781.19	65.833
781.50	60.947
781.80	56.831
782.11	51.852
782.42	49.425
782.73	54.802
783.04	58.065
783.34	62.791
783.65	61.905
783.96	56.774
784.27	56.954
784.57	52.632
784.88	62.319
785.19	67.500
785.50	61.207
785.81	65.116
786.11	55.556
786.42	60.630
786.73	63.063
787.04	67.925
787.34	61.789
787.65	62.879
787.96	59.091
788.26	61.417
788.57	60.584
788.88	57.042
789.19	59.542
789.49	57.432
789.80	56.250
790.11	59.504
790.41	76.852
790.72	58.333
791.03	65.385
791.33	73.737
791.64	74.737
791.95	61.053
792.25	54.167
792.56	65.000
792.87	82.927
793.17	64.773
793.48	90.588
793.79	77.011
794.09	76.136
794.40	73.276
794.70	57.143
795.01	58.462
795.32	61.069
795.62	55.556
795.93	63.866
796.23	63.415
796.54	78.571
796.85	69.318
797.15	90.909
797.46	79.268
797.76	80.000
798.07	82.667
798.37	86.250
798.68	87.500
798.99	90.244
799.29	85.333
799.60	67.442
799.90	86.842
800.21	86.364
800.51	94.366
800.82	98.276
801.12	96.923
801.43	89.333
801.73	103.448
802.04	84.416
802.34	89.041
802.65	121.569
802.95	104.348
803.26	127.419
803.56	101.667
803.87	85.075
804.17	96.825
804.48	100.000
804.78	87.500
805.09	89.394
805.39	95.238
805.70	101.754
806.00	82.857
806.30	82.812
806.61	85.882
806.91	72.222
807.22	61.957
807.52	75.000
807.83	77.632
808.13	97.101
808.43	104.839
808.74	90.411
809.04	108.929
809.35	105.882
809.65	86.364
809.95	125.490
810.26	103.704
810.56	101.563
810.86	112.245
811.17	107.018
811.47	115.217
811.77	103.448
812.08	79.310
812.38	104.762
812.69	126.190
812.99	102.222
813.29	122.857
813.59	161.290
813.90	82.759
814.20	106.557
814.50	108.000
814.81	84.211
815.11	109.259
815.41	108.929
815.72	108.929
816.02	104.000
816.32	119.512
816.62	93.103
816.93	136.364
817.23	121.951
817.53	123.214
817.84	115.556
818.14	114.286
818.44	100.000
818.74	94.340
819.04	117.949
819.35	139.394
819.65	113.462
819.95	120.370
820.25	110.638
820.56	129.730
820.86	128.947
821.16	97.872
821.46	134.211
821.76	116.364
822.07	114.286
822.37	123.684
822.67	144.186
822.97	131.579
823.27	139.130
823.57	153.125
823.88	125.641
824.18	142.424
824.48	165.217
824.78	136.111
825.08	200.000
825.38	182.759
825.69	150.000
825.99	91.489
826.29	91.667
826.59	125.714
826.89	140.000
827.19	105.714
827.49	183.871
827.79	153.846
828.09	135.714
828.39	102.778
828.70	83.784
829.00	196.429
829.30	250.000
829.60	133.333
829.90	151.613
830.20	124.242
830.50	178.378
830.80	200.000
831.10	146.154
831.40	190.476
831.70	170.833
832.00	166.667
832.30	182.609
832.60	195.833
832.90	184.848
833.20	235.000
833.50	121.053
833.80	105.882
834.10	105.263
834.40	200.000
834.70	113.333
835.00	196.000
835.30	143.243
835.60	178.125
835.90	132.432
836.20	169.231
836.50	177.273
836.80	124.390
837.10	173.913
837.40	323.077
837.70	210.526
838.00	150.000
838.30	233.333
838.60	184.000
838.90	400.000
839.19	193.750
839.49	106.667
839.79	151.724
840.09	184.615
840.39	306.667
840.69	231.579
840.99	166.667
841.29	191.304
841.59	210.000
841.88	164.000
842.18	400.000
842.48	185.714
842.78	159.259
843.08	192.308
843.38	168.182
843.68	292.857
843.97	471.429
844.27	169.565
844.57	1850.000
844.87	257.143
845.17	294.444
845.47	133.333
845.76	166.667
846.06	671.429
846.36	258.824
846.66	338.462
846.96	237.500
847.25	200.000
847.55	273.684
847.85	194.444
848.15	660.000
848.44	300.000
848.74	195.238
849.04	204.167
849.34	182.353
849.63	218.750
849.93	281.250
850.23	1533.333
850.53	525.000
850.82	354.545
851.12	241.176
851.42	179.167
851.71	243.750
852.01	0.000
852.31	211.765
852.61	440.000
852.90	166.667
853.20	477.778
853.50	-2900.000
853.79	164.000
854.09	165.625
854.39	93.103
854.68	168.966
854.98	185.714
855.28	106.452
855.57	321.429
855.87	222.222
856.17	137.037
856.46	226.316
856.76	122.581
857.05	229.412
857.35	281.818
857.65	292.308
857.94	185.000
858.24	333.333
858.53	257.143
858.83	571.429
859.13	217.391
859.42	355.556
859.72	450.000
860.01	300.000
860.31	975.000
860.60	390.000
860.90	475.000
861.20	253.846
861.49	457.143
861.79	-3300.000
862.08	600.000
862.38	388.889
862.67	221.429
862.97	390.000
863.26	160.000
863.56	775.000
863.85	292.308
864.15	305.882
864.44	183.333
864.74	400.000
865.03	318.182
865.33	450.000
865.62	220.000
865.92	533.333
866.21	1000.000
866.51	640.000
866.80	216.667
867.10	1033.333
867.39	3300.000
867.69	600.000
867.98	1000.000
868.27	195.238
868.57	340.000
868.86	1225.000
869.16	128.571
869.45	4600.000
869.75	-550.000
870.04	625.000
870.33	700.000
870.63	462.500
870.92	247.059
871.22	900.000
871.51	500.000
871.80	333.333
872.10	392.308
>>>>>End Processed Spectral Data<<<<<
