SpectraSuite Data File
++++++++++++++++++++++++++++++++++++
Date: Tue May 12 17:03:50 PDT 2015
User: schluterlab
Dark Spectrum Present: Yes
Reference Spectrum Present: Yes
Number of Sampled Component Spectra: 1
Spectrometers: USB2E3373
Integration Time (usec): 3000 (USB2E3373)
Spectra Averaged: 3 (USB2E3373)
Boxcar Smoothing: 0 (USB2E3373)
Correct for Electrical Dark: No (USB2E3373)
Strobe/Lamp Enabled: No (USB2E3373)
Correct for Detector Non-linearity: No (USB2E3373)
Correct for Stray Light: No (USB2E3373)
Number of Pixels in Processed Spectrum: 2048
>>>>>Begin Processed Spectral Data<<<<<
178.53	0.000
178.91	-233.333
179.29	-875.000
179.67	-4000.000
180.04	-80.000
180.42	675.000
180.80	1700.000
181.18	0.000
181.56	-325.000
181.94	0.000
182.31	900.000
182.69	-3800.000
183.07	614.286
183.45	-3400.000
183.83	-1150.000
184.20	450.000
184.58	628.571
184.96	-269.231
185.34	-208.333
185.72	1650.000
186.09	-875.000
186.47	-2600.000
186.85	1000.000
187.23	560.000
187.61	2450.000
187.98	525.000
188.36	207.143
188.74	275.000
189.12	300.000
189.49	1075.000
189.87	0.000
190.25	500.000
190.63	2600.000
191.00	-200.000
191.38	-3300.000
191.76	-825.000
192.14	537.500
192.51	-3300.000
192.89	1650.000
193.27	933.333
193.65	-900.000
194.02	-780.000
194.40	528.571
194.78	-214.286
195.15	193.333
195.53	-3400.000
195.91	-480.000
196.29	4100.000
196.66	256.250
197.04	875.000
197.42	-2000.000
197.79	1025.000
198.17	358.333
198.55	0.000
198.92	614.286
199.30	1100.000
199.68	2050.000
200.05	666.667
200.43	-733.333
200.81	227.778
201.18	3500.000
201.56	325.000
201.94	-650.000
202.31	-200.000
202.69	-460.000
203.07	3300.000
203.44	-383.333
203.82	316.667
204.19	580.000
204.57	-1400.000
204.95	-775.000
205.32	-660.000
205.70	633.333
206.08	675.000
206.45	-866.667
206.83	422.222
207.20	147.368
207.58	400.000
207.96	680.000
208.33	0.000
208.71	600.000
209.08	600.000
209.46	-3000.000
209.84	-800.000
210.21	1020.000
210.59	-600.000
210.96	375.000
211.34	-775.000
211.71	363.636
212.09	975.000
212.46	1450.000
212.84	-450.000
213.22	511.111
213.59	-2600.000
213.97	350.000
214.34	1125.000
214.72	1333.333
215.09	866.667
215.47	-3300.000
215.84	-310.000
216.22	-437.500
216.59	0.000
216.97	0.000
217.34	1650.000
217.72	-1500.000
218.09	1400.000
218.47	487.500
218.84	950.000
219.22	1233.333
219.59	1166.667
219.97	542.857
220.34	311.111
220.72	1850.000
221.09	3400.000
221.47	233.333
221.84	966.667
222.22	320.000
222.59	272.222
222.97	171.429
223.34	256.250
223.72	-1550.000
224.09	1133.333
224.46	276.923
224.84	-975.000
225.21	355.556
225.59	266.667
225.96	1100.000
226.34	-780.000
226.71	-600.000
227.08	-560.000
227.46	0.000
227.83	-516.667
228.21	-1850.000
228.58	300.000
228.95	900.000
229.33	388.889
229.70	1000.000
230.08	361.538
230.45	4500.000
230.82	-900.000
231.20	-900.000
231.57	-1133.333
231.95	340.000
232.32	266.667
232.69	450.000
233.07	350.000
233.44	-1600.000
233.81	240.000
234.19	170.370
234.56	206.250
234.93	200.000
235.31	175.000
235.68	275.000
236.05	128.571
236.43	133.333
236.80	264.286
237.17	141.379
237.55	143.750
237.92	117.500
238.29	130.303
238.67	134.375
239.04	68.293
239.41	66.667
239.79	102.500
240.16	89.583
240.53	59.016
240.91	60.870
241.28	83.051
241.65	62.121
242.02	81.690
242.40	68.571
242.77	58.242
243.14	50.633
243.51	62.626
243.89	44.860
244.26	49.533
244.63	48.515
245.00	43.119
245.38	42.373
245.75	40.909
246.12	42.222
246.49	40.426
246.87	36.066
247.24	36.667
247.61	33.125
247.98	39.456
248.36	30.909
248.73	36.224
249.10	26.786
249.47	35.000
249.84	32.836
250.22	31.351
250.59	27.500
250.96	30.380
251.33	29.767
251.70	30.804
252.08	27.311
252.45	26.693
252.82	23.194
253.19	22.925
253.56	23.462
253.94	26.812
254.31	24.806
254.68	25.784
255.05	24.138
255.42	23.723
255.79	25.407
256.16	25.763
256.54	25.974
256.91	25.490
257.28	22.408
257.65	22.571
258.02	22.714
258.39	21.203
258.76	24.058
259.14	20.571
259.51	24.198
259.88	22.492
260.25	19.231
260.62	21.370
260.99	18.733
261.36	22.284
261.73	20.479
262.10	23.298
262.47	19.750
262.85	16.267
263.22	20.566
263.59	23.018
263.96	18.296
264.33	21.235
264.70	25.061
265.07	20.244
265.44	21.330
265.81	20.047
266.18	19.908
266.55	20.804
266.92	19.687
267.29	19.737
267.66	21.300
268.03	18.610
268.40	19.873
268.77	21.145
269.14	19.523
269.51	18.040
269.88	21.633
270.25	17.279
270.62	20.172
270.99	21.704
271.36	20.325
271.73	19.078
272.10	18.990
272.47	18.651
272.84	17.764
273.21	17.769
273.58	18.421
273.95	17.248
274.32	20.233
274.69	22.047
275.06	19.308
275.43	17.433
275.80	16.981
276.17	19.669
276.54	19.252
276.91	19.590
277.28	19.161
277.65	17.528
278.02	19.118
278.39	18.705
278.76	17.931
279.13	18.149
279.50	18.545
279.87	17.877
280.23	17.680
280.60	19.343
280.97	19.828
281.34	17.822
281.71	19.652
282.08	18.291
282.45	18.412
282.82	17.224
283.19	17.170
283.56	16.694
283.92	17.427
284.29	17.970
284.66	17.311
285.03	17.745
285.40	17.025
285.77	15.432
286.14	18.421
286.51	17.485
286.87	16.297
287.24	16.517
287.61	16.109
287.98	17.164
288.35	16.148
288.72	18.816
289.08	18.318
289.45	17.226
289.82	17.656
290.19	15.666
290.56	18.341
290.93	16.835
291.29	16.851
291.66	17.090
292.03	16.971
292.40	17.480
292.77	15.738
293.13	16.690
293.50	15.385
293.87	16.125
294.24	16.364
294.60	17.227
294.97	17.063
295.34	18.194
295.71	18.003
296.08	17.200
296.44	16.773
296.81	16.005
297.18	15.209
297.55	16.133
297.91	16.010
298.28	17.150
298.65	16.319
299.02	17.853
299.38	15.827
299.75	16.098
300.12	17.087
300.48	18.384
300.85	17.640
301.22	17.209
301.59	16.392
301.95	16.803
302.32	18.626
302.69	17.308
303.05	18.631
303.42	17.152
303.79	17.876
304.15	18.152
304.52	16.913
304.89	16.738
305.25	18.465
305.62	18.337
305.99	17.609
306.35	17.895
306.72	18.314
307.09	18.219
307.45	18.268
307.82	18.827
308.19	20.206
308.55	19.000
308.92	18.744
309.29	19.625
309.65	19.722
310.02	20.994
310.38	19.442
310.75	19.479
311.12	19.923
311.48	22.201
311.85	20.706
312.22	21.108
312.58	20.505
312.95	22.330
313.31	22.846
313.68	22.139
314.05	23.535
314.41	22.719
314.78	22.443
315.14	23.791
315.51	23.652
315.87	23.449
316.24	24.650
316.61	25.157
316.97	24.495
317.34	25.157
317.70	25.549
318.07	27.313
318.43	26.801
318.80	28.196
319.16	26.836
319.53	28.584
319.89	29.659
320.26	31.192
320.62	29.579
320.99	30.124
321.35	31.911
321.72	32.258
322.08	31.948
322.45	31.789
322.81	33.120
323.18	33.837
323.54	32.753
323.91	35.086
324.27	35.897
324.64	34.862
325.00	37.586
325.37	35.835
325.73	39.039
326.10	38.774
326.46	38.398
326.83	38.720
327.19	40.562
327.56	39.936
327.92	42.131
328.29	42.308
328.65	41.267
329.01	42.601
329.38	43.401
329.74	43.126
330.11	44.396
330.47	44.928
330.84	43.141
331.20	43.909
331.56	44.387
331.93	44.654
332.29	43.707
332.66	46.088
333.02	45.361
333.38	46.597
333.75	45.288
334.11	45.805
334.48	46.838
334.84	45.186
335.20	45.167
335.57	46.096
335.93	46.257
336.29	45.191
336.66	46.655
337.02	44.568
337.38	46.002
337.75	45.186
338.11	46.498
338.47	46.909
338.84	45.639
339.20	45.628
339.56	45.248
339.93	46.237
340.29	44.370
340.65	46.354
341.02	46.742
341.38	46.880
341.74	47.010
342.11	45.159
342.47	46.267
342.83	46.596
343.20	45.352
343.56	45.909
343.92	45.169
344.28	47.289
344.65	47.025
345.01	46.032
345.37	45.593
345.73	45.873
346.10	46.056
346.46	47.209
346.82	46.142
347.19	45.595
347.55	46.136
347.91	46.601
348.27	46.553
348.63	46.440
349.00	45.621
349.36	47.237
349.72	46.636
350.08	48.758
350.45	47.829
350.81	47.554
351.17	47.997
351.53	46.497
351.89	47.630
352.26	46.636
352.62	47.436
352.98	48.466
353.34	47.304
353.70	47.018
354.07	48.077
354.43	48.003
354.79	47.532
355.15	47.243
355.51	47.659
355.87	47.139
356.24	48.884
356.60	47.945
356.96	47.839
357.32	47.551
357.68	48.678
358.04	49.088
358.40	47.751
358.77	47.708
359.13	48.123
359.49	47.813
359.85	50.112
360.21	47.623
360.57	48.467
360.93	48.557
361.29	49.134
361.66	49.441
362.02	47.940
362.38	49.495
362.74	49.965
363.10	50.701
363.46	48.343
363.82	49.158
364.18	49.289
364.54	50.715
364.90	49.799
365.26	51.353
365.62	49.793
365.98	49.209
366.35	50.414
366.71	49.757
367.07	49.215
367.43	49.899
367.79	50.133
368.15	49.322
368.51	51.206
368.87	48.777
369.23	49.134
369.59	50.236
369.95	50.839
370.31	49.076
370.67	50.590
371.03	49.230
371.39	50.346
371.75	49.756
372.11	50.714
372.47	50.616
372.83	51.801
373.19	50.925
373.55	51.890
373.91	50.483
374.27	50.595
374.63	50.644
374.99	51.146
375.35	52.419
375.71	53.166
376.07	51.658
376.42	50.895
376.78	51.830
377.14	53.014
377.50	51.498
377.86	51.121
378.22	52.468
378.58	53.814
378.94	52.142
379.30	52.032
379.66	52.920
380.02	52.962
380.38	51.991
380.74	52.826
381.09	53.563
381.45	51.445
381.81	52.009
382.17	51.526
382.53	51.890
382.89	52.809
383.25	53.404
383.61	52.219
383.97	52.010
384.32	52.080
384.68	53.417
385.04	53.283
385.40	52.076
385.76	52.896
386.12	54.113
386.48	54.772
386.83	54.584
387.19	52.827
387.55	52.591
387.91	54.099
388.27	53.183
388.62	51.702
388.98	52.653
389.34	51.695
389.70	52.476
390.06	54.207
390.42	52.190
390.77	53.870
391.13	52.746
391.49	53.600
391.85	55.015
392.20	53.278
392.56	53.405
392.92	53.397
393.28	52.186
393.64	52.236
393.99	52.223
394.35	52.796
394.71	51.508
395.07	52.798
395.42	52.869
395.78	53.856
396.14	53.675
396.50	53.610
396.85	52.439
397.21	53.008
397.57	52.002
397.92	52.340
398.28	52.068
398.64	53.694
399.00	52.378
399.35	52.228
399.71	51.269
400.07	53.253
400.42	53.313
400.78	52.141
401.14	52.613
401.49	52.765
401.85	52.317
402.21	52.138
402.57	53.561
402.92	52.182
403.28	51.850
403.63	52.207
403.99	51.809
404.35	52.989
404.70	52.747
405.06	51.825
405.42	52.484
405.77	52.260
406.13	50.976
406.49	50.938
406.84	50.592
407.20	51.484
407.55	51.138
407.91	52.138
408.27	52.032
408.62	51.390
408.98	51.153
409.34	50.380
409.69	50.342
410.05	51.222
410.40	50.883
410.76	51.460
411.11	51.066
411.47	52.160
411.83	51.025
412.18	51.027
412.54	51.351
412.89	51.032
413.25	50.570
413.60	50.292
413.96	51.047
414.31	50.767
414.67	50.466
415.03	52.107
415.38	51.041
415.74	52.748
416.09	50.968
416.45	50.226
416.80	51.315
417.16	51.432
417.51	51.783
417.87	50.939
418.22	50.304
418.58	51.911
418.93	51.398
419.29	50.709
419.64	52.150
420.00	51.850
420.35	51.858
420.71	51.342
421.06	51.148
421.42	51.871
421.77	51.527
422.12	52.095
422.48	51.669
422.83	53.181
423.19	52.862
423.54	52.606
423.90	52.492
424.25	52.614
424.61	52.467
424.96	52.795
425.31	53.749
425.67	53.535
426.02	52.664
426.38	53.092
426.73	53.673
427.09	53.559
427.44	52.392
427.79	53.402
428.15	54.803
428.50	53.943
428.85	53.263
429.21	54.025
429.56	52.642
429.92	54.500
430.27	53.943
430.62	52.717
430.98	53.593
431.33	52.974
431.68	52.296
432.04	53.492
432.39	55.379
432.74	54.859
433.10	54.762
433.45	55.830
433.80	56.205
434.16	54.388
434.51	55.315
434.86	54.164
435.22	55.213
435.57	55.068
435.92	55.322
436.28	56.797
436.63	54.781
436.98	55.856
437.34	56.050
437.69	55.207
438.04	55.968
438.39	56.100
438.75	56.013
439.10	55.801
439.45	54.438
439.81	55.755
440.16	55.476
440.51	55.800
440.86	56.410
441.22	55.411
441.57	55.958
441.92	56.713
442.27	55.258
442.63	56.199
442.98	56.466
443.33	56.347
443.68	56.439
444.03	56.221
444.39	56.921
444.74	55.694
445.09	56.398
445.44	56.908
445.79	56.579
446.15	56.842
446.50	56.698
446.85	56.125
447.20	55.821
447.55	57.042
447.91	57.858
448.26	55.804
448.61	57.214
448.96	57.952
449.31	58.801
449.66	57.309
450.02	56.672
450.37	57.912
450.72	57.741
451.07	57.475
451.42	57.261
451.77	58.190
452.12	56.381
452.47	58.262
452.83	58.085
453.18	58.078
453.53	57.786
453.88	56.857
454.23	56.711
454.58	56.469
454.93	57.572
455.28	57.589
455.63	58.215
455.98	56.402
456.34	58.480
456.69	58.720
457.04	58.115
457.39	57.486
457.74	57.714
458.09	56.766
458.44	56.079
458.79	56.286
459.14	57.992
459.49	57.135
459.84	58.315
460.19	55.311
460.54	56.524
460.89	58.422
461.24	55.956
461.59	58.107
461.94	57.683
462.29	57.838
462.64	59.862
462.99	57.326
463.34	56.254
463.69	57.532
464.04	57.455
464.39	57.298
464.74	56.858
465.09	56.645
465.44	58.107
465.79	55.580
466.14	56.651
466.49	56.321
466.84	55.964
467.19	57.235
467.54	56.517
467.89	56.866
468.24	56.283
468.59	57.560
468.94	57.246
469.29	57.056
469.64	57.749
469.99	56.684
470.34	57.495
470.68	56.828
471.03	57.105
471.38	57.417
471.73	56.826
472.08	58.252
472.43	57.232
472.78	56.658
473.13	55.069
473.48	57.335
473.83	56.007
474.17	56.535
474.52	55.332
474.87	55.941
475.22	57.167
475.57	55.876
475.92	56.515
476.27	55.495
476.61	56.461
476.96	54.336
477.31	57.275
477.66	56.897
478.01	56.369
478.36	56.849
478.70	55.236
479.05	56.851
479.40	56.002
479.75	55.511
480.10	57.164
480.45	55.509
480.79	55.945
481.14	55.112
481.49	53.843
481.84	54.002
482.19	55.677
482.53	54.941
482.88	55.197
483.23	55.074
483.58	55.566
483.92	56.947
484.27	54.837
484.62	56.027
484.97	53.526
485.31	54.029
485.66	53.875
486.01	53.757
486.36	52.680
486.70	52.162
487.05	52.508
487.40	52.493
487.75	53.190
488.09	52.614
488.44	53.633
488.79	54.599
489.13	54.834
489.48	54.535
489.83	54.462
490.17	54.377
490.52	54.393
490.87	54.267
491.22	54.654
491.56	54.765
491.91	54.167
492.26	53.719
492.60	55.535
492.95	54.282
493.30	54.095
493.64	53.504
493.99	52.996
494.34	53.160
494.68	54.139
495.03	53.615
495.37	53.985
495.72	53.473
496.07	53.549
496.41	53.649
496.76	54.580
497.11	53.770
497.45	53.573
497.80	53.614
498.14	53.306
498.49	53.853
498.84	53.925
499.18	52.514
499.53	53.560
499.87	53.279
500.22	53.386
500.56	53.760
500.91	54.453
501.26	54.525
501.60	53.233
501.95	53.719
502.29	53.511
502.64	52.889
502.98	53.446
503.33	54.031
503.67	53.907
504.02	52.082
504.36	53.032
504.71	55.203
505.06	53.355
505.40	53.533
505.75	53.882
506.09	53.710
506.44	53.383
506.78	55.293
507.13	54.193
507.47	53.712
507.82	54.258
508.16	54.336
508.51	54.879
508.85	53.846
509.19	54.870
509.54	53.613
509.88	54.053
510.23	53.235
510.57	52.751
510.92	53.846
511.26	53.163
511.61	51.649
511.95	53.758
512.30	53.250
512.64	54.050
512.98	53.921
513.33	53.484
513.67	54.117
514.02	54.390
514.36	53.634
514.70	54.507
515.05	53.490
515.39	55.044
515.74	55.878
516.08	54.847
516.42	55.847
516.77	55.253
517.11	54.293
517.46	53.718
517.80	53.687
518.14	54.873
518.49	54.410
518.83	53.187
519.17	54.853
519.52	55.106
519.86	55.313
520.20	54.466
520.55	54.890
520.89	55.115
521.23	55.783
521.58	54.332
521.92	54.752
522.26	53.732
522.61	55.080
522.95	56.156
523.29	56.140
523.64	52.890
523.98	54.988
524.32	54.383
524.66	54.435
525.01	55.503
525.35	54.272
525.69	55.027
526.04	54.967
526.38	55.209
526.72	54.296
527.06	53.637
527.41	55.441
527.75	55.265
528.09	54.184
528.43	54.973
528.78	55.397
529.12	54.606
529.46	54.763
529.80	54.147
530.15	54.567
530.49	53.309
530.83	54.723
531.17	54.982
531.51	55.303
531.86	52.597
532.20	54.141
532.54	54.865
532.88	55.215
533.22	55.332
533.57	55.522
533.91	53.846
534.25	52.683
534.59	53.801
534.93	53.641
535.27	53.330
535.62	54.201
535.96	52.660
536.30	54.845
536.64	53.665
536.98	54.185
537.32	54.625
537.66	53.061
538.01	53.498
538.35	54.648
538.69	52.367
539.03	52.488
539.37	51.881
539.71	53.704
540.05	52.615
540.39	53.585
540.73	53.418
541.07	52.698
541.42	52.488
541.76	53.206
542.10	52.836
542.44	53.491
542.78	52.675
543.12	52.270
543.46	52.444
543.80	54.386
544.14	53.313
544.48	54.440
544.82	52.416
545.16	53.188
545.50	54.087
545.84	52.841
546.18	54.811
546.52	53.705
546.86	53.772
547.20	52.649
547.54	52.375
547.88	52.251
548.22	53.613
548.56	51.621
548.90	51.839
549.24	52.685
549.58	52.964
549.92	53.635
550.26	54.023
550.60	53.027
550.94	54.003
551.28	53.310
551.62	54.207
551.96	52.770
552.30	52.538
552.64	53.592
552.98	52.513
553.32	51.985
553.66	53.485
554.00	52.767
554.34	54.727
554.68	53.629
555.02	53.089
555.36	52.194
555.69	53.403
556.03	53.439
556.37	52.645
556.71	53.716
557.05	51.114
557.39	52.533
557.73	54.111
558.07	52.180
558.41	54.489
558.75	53.557
559.08	54.182
559.42	53.758
559.76	53.528
560.10	52.237
560.44	53.218
560.78	53.325
561.12	52.765
561.45	52.253
561.79	52.497
562.13	52.937
562.47	53.537
562.81	53.741
563.15	51.390
563.48	50.311
563.82	53.587
564.16	51.990
564.50	52.803
564.84	52.158
565.17	52.050
565.51	53.695
565.85	53.239
566.19	51.607
566.52	50.722
566.86	53.532
567.20	51.798
567.54	52.347
567.88	51.800
568.21	50.374
568.55	51.216
568.89	50.867
569.23	50.518
569.56	50.599
569.90	49.120
570.24	49.676
570.57	49.643
570.91	47.988
571.25	48.369
571.59	48.562
571.92	47.901
572.26	47.844
572.60	47.792
572.93	48.591
573.27	48.248
573.61	47.834
573.95	48.655
574.28	48.061
574.62	49.045
574.96	47.197
575.29	46.842
575.63	47.185
575.97	47.201
576.30	47.507
576.64	47.604
576.98	47.759
577.31	47.861
577.65	47.522
577.98	47.200
578.32	46.837
578.66	47.317
578.99	47.283
579.33	46.865
579.67	46.573
580.00	47.260
580.34	47.295
580.67	46.823
581.01	47.926
581.35	47.605
581.68	47.595
582.02	46.666
582.35	46.997
582.69	47.258
583.02	47.261
583.36	47.648
583.70	47.913
584.03	48.794
584.37	48.359
584.70	48.196
585.04	47.323
585.37	48.084
585.71	49.258
586.04	47.004
586.38	48.264
586.72	48.211
587.05	48.353
587.39	48.799
587.72	48.548
588.06	48.274
588.39	48.439
588.73	48.325
589.06	48.993
589.40	49.515
589.73	49.099
590.07	50.000
590.40	50.314
590.73	50.716
591.07	50.095
591.40	49.701
591.74	50.649
592.07	49.459
592.41	50.639
592.74	49.359
593.08	49.121
593.41	48.594
593.75	48.433
594.08	49.030
594.41	49.202
594.75	48.390
595.08	49.143
595.42	49.342
595.75	48.667
596.09	50.191
596.42	49.454
596.75	50.962
597.09	49.608
597.42	49.551
597.75	49.371
598.09	50.021
598.42	49.531
598.76	49.692
599.09	49.614
599.42	48.927
599.76	49.254
600.09	48.610
600.42	49.551
600.76	49.286
601.09	49.154
601.42	49.067
601.76	49.660
602.09	49.742
602.42	48.799
602.76	49.639
603.09	49.359
603.42	51.046
603.76	49.458
604.09	49.367
604.42	49.454
604.76	50.494
605.09	49.714
605.42	50.183
605.75	49.507
606.09	49.809
606.42	49.756
606.75	49.903
607.09	49.388
607.42	49.538
607.75	49.323
608.08	49.716
608.42	49.748
608.75	50.107
609.08	50.550
609.41	50.182
609.75	51.145
610.08	50.764
610.41	50.988
610.74	50.216
611.07	49.977
611.41	51.158
611.74	50.574
612.07	50.626
612.40	50.731
612.73	50.574
613.07	49.823
613.40	51.429
613.73	50.424
614.06	50.700
614.39	51.566
614.72	51.733
615.06	50.198
615.39	50.297
615.72	50.339
616.05	51.833
616.38	49.467
616.71	51.058
617.05	50.027
617.38	51.236
617.71	52.362
618.04	52.776
618.37	50.862
618.70	52.194
619.03	51.770
619.36	52.136
619.69	52.375
620.03	54.142
620.36	52.537
620.69	53.704
621.02	53.601
621.35	51.433
621.68	52.950
622.01	53.875
622.34	52.877
622.67	53.020
623.00	53.165
623.33	51.889
623.66	51.098
623.99	53.356
624.32	52.371
624.65	52.600
624.99	52.468
625.32	52.305
625.65	50.690
625.98	52.371
626.31	53.858
626.64	52.771
626.97	51.875
627.30	54.969
627.63	53.218
627.96	53.365
628.29	54.785
628.62	54.405
628.95	54.344
629.28	55.039
629.61	54.745
629.94	55.661
630.26	53.206
630.59	56.206
630.92	55.426
631.25	55.032
631.58	55.545
631.91	55.090
632.24	55.491
632.57	54.912
632.90	56.625
633.23	56.453
633.56	55.954
633.89	56.806
634.22	56.620
634.55	56.452
634.88	57.284
635.20	55.717
635.53	57.027
635.86	58.501
636.19	56.229
636.52	58.486
636.85	54.585
637.18	55.363
637.51	55.084
637.83	55.835
638.16	58.499
638.49	56.287
638.82	58.685
639.15	55.464
639.48	57.464
639.81	57.631
640.13	58.160
640.46	58.786
640.79	60.208
641.12	58.924
641.45	60.155
641.77	58.388
642.10	57.296
642.43	58.606
642.76	59.233
643.09	59.654
643.41	60.309
643.74	58.993
644.07	59.292
644.40	61.095
644.73	60.511
645.05	60.773
645.38	59.571
645.71	59.788
646.04	61.832
646.36	61.033
646.69	60.640
647.02	61.760
647.35	59.843
647.67	62.237
648.00	59.283
648.33	56.391
648.66	60.152
648.98	57.826
649.31	56.950
649.64	55.048
649.96	57.752
650.29	56.429
650.62	58.910
650.94	60.090
651.27	60.766
651.60	59.937
651.92	60.061
652.25	61.890
652.58	57.447
652.90	61.078
653.23	60.857
653.56	59.199
653.88	55.947
654.21	57.038
654.54	57.540
654.86	58.850
655.19	57.256
655.52	52.555
655.84	45.394
656.17	52.593
656.49	74.915
656.82	84.749
657.15	67.973
657.47	51.196
657.80	37.803
658.13	29.621
658.45	40.243
658.78	48.990
659.10	49.278
659.43	50.268
659.75	52.980
660.08	53.759
660.41	55.172
660.73	59.348
661.06	59.760
661.38	62.862
661.71	60.612
662.03	63.118
662.36	63.238
662.68	62.756
663.01	62.523
663.33	62.453
663.66	62.130
663.98	62.500
664.31	61.940
664.63	64.176
664.96	60.788
665.28	61.205
665.61	62.075
665.93	61.321
666.26	62.056
666.58	60.367
666.91	62.355
667.23	61.446
667.56	62.012
667.88	63.693
668.21	62.705
668.53	62.298
668.86	63.727
669.18	59.470
669.50	62.397
669.83	62.423
670.15	63.410
670.48	59.375
670.80	62.151
671.13	61.355
671.45	64.329
671.77	59.555
672.10	60.503
672.42	58.224
672.75	59.335
673.07	58.983
673.39	58.307
673.72	61.419
674.04	61.111
674.37	59.528
674.69	59.294
675.01	59.142
675.34	60.078
675.66	59.180
675.98	62.327
676.31	60.200
676.63	61.034
676.95	58.333
677.28	59.838
677.60	60.966
677.92	60.516
678.25	60.271
678.57	59.963
678.89	61.483
679.22	60.662
679.54	58.541
679.86	60.558
680.18	57.118
680.51	57.214
680.83	58.108
681.15	60.139
681.48	59.722
681.80	57.443
682.12	58.997
682.44	59.820
682.77	56.050
683.09	60.777
683.41	62.041
683.73	59.252
684.06	61.508
684.38	61.628
684.70	60.072
685.02	56.944
685.34	59.683
685.67	59.325
685.99	61.084
686.31	59.630
686.63	58.862
686.96	59.641
687.28	58.221
687.60	59.386
687.92	58.794
688.24	59.483
688.56	59.964
688.89	59.273
689.21	57.611
689.53	59.881
689.85	60.163
690.17	61.165
690.49	62.097
690.82	60.504
691.14	61.414
691.46	61.602
691.78	60.429
692.10	62.023
692.42	56.987
692.74	59.496
693.06	61.047
693.39	60.474
693.71	60.118
694.03	65.680
694.35	62.651
694.67	60.692
694.99	62.528
695.31	61.261
695.63	62.443
695.95	62.217
696.27	64.823
696.59	61.337
696.91	59.494
697.23	64.480
697.56	55.602
697.88	58.683
698.20	58.491
698.52	56.226
698.84	60.370
699.16	60.341
699.48	62.288
699.80	61.656
700.12	63.972
700.44	60.280
700.76	61.814
701.08	63.969
701.40	63.636
701.72	66.845
702.04	63.957
702.36	65.860
702.68	67.287
703.00	60.401
703.32	65.012
703.64	64.484
703.96	63.802
704.28	63.757
704.60	66.479
704.91	62.745
705.23	63.636
705.55	66.469
705.87	66.667
706.19	70.219
706.51	68.025
706.83	66.962
707.15	63.102
707.47	58.596
707.79	63.908
708.11	63.946
708.43	60.225
708.74	58.597
709.06	61.628
709.38	65.012
709.70	62.670
710.02	63.315
710.34	61.326
710.66	65.833
710.98	62.842
711.29	61.003
711.61	65.181
711.93	66.869
712.25	62.048
712.57	63.987
712.89	63.636
713.20	64.217
713.52	65.421
713.84	65.257
714.16	64.058
714.48	61.095
714.80	60.705
715.11	58.777
715.43	61.453
715.75	60.845
716.07	67.052
716.39	61.429
716.70	67.601
717.02	68.687
717.34	71.942
717.66	65.278
717.97	74.242
718.29	68.662
718.61	60.473
718.93	65.398
719.24	65.101
719.56	66.552
719.88	58.917
720.20	64.516
720.51	67.974
720.83	63.880
721.15	66.667
721.46	64.726
721.78	66.551
722.10	68.750
722.42	65.552
722.73	63.538
723.05	63.860
723.37	64.664
723.68	66.406
724.00	66.667
724.32	65.779
724.63	65.385
724.95	68.627
725.27	64.684
725.58	64.338
725.90	65.493
726.22	63.699
726.53	65.217
726.85	64.821
727.16	65.772
727.48	64.452
727.80	66.906
728.11	67.500
728.43	65.942
728.74	64.336
729.06	62.724
729.38	66.316
729.69	64.333
730.01	68.092
730.32	67.785
730.64	65.449
730.96	61.261
731.27	57.798
731.59	60.920
731.90	66.295
732.22	64.286
732.53	54.701
732.85	65.205
733.16	62.952
733.48	62.382
733.80	60.870
734.11	65.644
734.43	59.649
734.74	59.517
735.06	59.788
735.37	56.959
735.69	60.290
736.00	62.385
736.32	65.758
736.63	59.621
736.95	62.733
737.26	61.585
737.58	63.804
737.89	61.747
738.21	66.556
738.52	57.860
738.83	71.795
739.15	61.324
739.46	62.759
739.78	62.585
740.09	59.767
740.41	59.202
740.72	62.540
741.04	66.783
741.35	67.188
741.66	67.194
741.98	69.528
742.29	73.148
742.61	62.832
742.92	65.254
743.23	68.800
743.55	61.509
743.86	63.137
744.18	66.525
744.49	66.942
744.80	73.272
745.12	66.518
745.43	73.364
745.74	75.556
746.06	67.105
746.37	73.488
746.68	70.354
747.00	70.404
747.31	69.328
747.62	65.164
747.94	68.240
748.25	64.981
748.56	71.186
748.88	67.411
749.19	72.558
749.50	63.927
749.82	71.193
750.13	62.846
750.44	59.000
750.75	66.443
751.07	63.487
751.38	61.716
751.69	65.993
752.01	64.336
752.32	60.133
752.63	62.416
752.94	63.986
753.26	67.578
753.57	72.374
753.88	64.045
754.19	64.621
754.51	63.455
754.82	60.738
755.13	60.811
755.44	70.000
755.75	65.292
756.07	66.096
756.38	61.765
756.69	61.250
757.00	64.985
757.31	58.028
757.63	59.229
757.94	62.766
758.25	58.696
758.56	60.412
758.87	55.890
759.18	61.919
759.50	59.271
759.81	63.798
760.12	56.742
760.43	59.384
760.74	58.987
761.05	60.212
761.36	58.594
761.67	59.030
761.99	61.127
762.30	60.450
762.61	61.111
762.92	65.530
763.23	66.038
763.54	61.923
763.85	63.035
764.16	64.236
764.47	62.500
764.78	55.700
765.10	58.232
765.41	57.955
765.72	58.564
766.03	58.610
766.34	62.021
766.65	66.540
766.96	66.802
767.27	69.626
767.58	75.743
767.89	70.718
768.20	79.878
768.51	66.837
768.82	70.175
769.13	63.137
769.44	59.774
769.75	58.801
770.06	66.807
770.37	64.035
770.68	64.000
770.99	69.492
771.30	68.619
771.61	68.077
771.92	68.702
772.23	60.484
772.54	62.667
772.85	72.772
773.16	67.391
773.47	71.667
773.78	70.792
774.09	78.409
774.39	73.939
774.70	70.588
775.01	68.421
775.32	66.460
775.63	76.712
775.94	75.309
776.25	74.483
776.56	86.260
776.87	83.206
777.18	81.818
777.48	85.827
777.79	80.000
778.10	75.000
778.41	76.119
778.72	75.940
779.03	74.359
779.34	79.054
779.65	74.534
779.95	75.776
780.26	72.619
780.57	70.068
780.88	78.014
781.19	86.667
781.50	72.781
781.80	67.213
782.11	65.608
782.42	74.713
782.73	75.141
783.04	72.258
783.34	77.519
783.65	72.789
783.96	72.903
784.27	70.199
784.57	71.711
784.88	76.087
785.19	80.000
785.50	72.414
785.81	82.171
786.11	74.074
786.42	85.039
786.73	90.090
787.04	98.113
787.34	72.358
787.65	73.485
787.96	75.758
788.26	84.252
788.57	75.182
788.88	68.310
789.19	70.992
789.49	77.027
789.80	67.969
790.11	71.074
790.41	80.556
790.72	67.593
791.03	79.808
791.33	86.869
791.64	82.105
791.95	87.368
792.25	76.042
792.56	98.000
792.87	98.780
793.17	78.409
793.48	87.059
793.79	95.402
794.09	100.000
794.40	87.931
794.70	77.778
795.01	68.462
795.32	77.863
795.62	72.650
795.93	87.395
796.23	77.236
796.54	85.714
796.85	76.136
797.15	106.494
797.46	101.220
797.76	81.250
798.07	102.667
798.37	100.000
798.68	92.500
798.99	98.780
799.29	97.333
799.60	84.884
799.90	106.579
800.21	95.455
800.51	81.690
800.82	112.069
801.12	113.846
801.43	96.000
801.73	120.690
802.04	94.805
802.34	90.411
802.65	125.490
802.95	126.087
803.26	116.129
803.56	110.000
803.87	95.522
804.17	101.587
804.48	118.868
804.78	90.278
805.09	115.152
805.39	115.873
805.70	124.561
806.00	84.286
806.30	104.688
806.61	96.471
806.91	92.222
807.22	77.174
807.52	85.526
807.83	106.579
808.13	98.551
808.43	106.452
808.74	90.411
809.04	110.714
809.35	108.824
809.65	103.030
809.95	137.255
810.26	135.185
810.56	128.125
810.86	120.408
811.17	122.807
811.47	108.696
811.77	101.724
812.08	91.379
812.38	126.190
812.69	123.810
812.99	133.333
813.29	140.000
813.59	190.323
813.90	108.621
814.20	104.918
814.50	120.000
814.81	101.754
815.11	140.741
815.41	103.571
815.72	108.929
816.02	116.000
816.32	136.585
816.62	105.172
816.93	175.758
817.23	165.854
817.53	110.714
817.84	120.000
818.14	130.952
818.44	110.417
818.74	124.528
819.04	94.872
819.35	142.424
819.65	132.692
819.95	138.889
820.25	117.021
820.56	156.757
820.86	142.105
821.16	100.000
821.46	152.632
821.76	109.091
822.07	102.381
822.37	121.053
822.67	151.163
822.97	102.632
823.27	139.130
823.57	153.125
823.88	151.282
824.18	151.515
824.48	186.957
824.78	163.889
825.08	204.348
825.38	182.759
825.69	144.118
825.99	100.000
826.29	125.000
826.59	125.714
826.89	136.667
827.19	128.571
827.49	151.613
827.79	165.385
828.09	140.476
828.39	141.667
828.70	137.838
829.00	200.000
829.30	256.250
829.60	141.667
829.90	180.645
830.20	127.273
830.50	156.757
830.80	183.333
831.10	176.923
831.40	219.048
831.70	170.833
832.00	140.000
832.30	195.652
832.60	212.500
832.90	157.576
833.20	275.000
833.50	173.684
833.80	135.294
834.10	136.842
834.40	236.842
834.70	133.333
835.00	196.000
835.30	132.432
835.60	178.125
835.90	159.459
836.20	169.231
836.50	186.364
836.80	124.390
837.10	186.957
837.40	384.615
837.70	210.526
838.00	126.667
838.30	183.333
838.60	168.000
838.90	410.000
839.19	181.250
839.49	183.333
839.79	137.931
840.09	203.846
840.39	253.333
840.69	236.842
840.99	171.429
841.29	208.696
841.59	205.000
841.88	188.000
842.18	366.667
842.48	146.429
842.78	155.556
843.08	192.308
843.38	204.545
843.68	285.714
843.97	485.714
844.27	195.652
844.57	1500.000
844.87	300.000
845.17	205.556
845.47	171.429
845.76	204.167
846.06	528.571
846.36	211.765
846.66	338.462
846.96	318.750
847.25	276.923
847.55	210.526
847.85	205.556
848.15	780.000
848.44	281.818
848.74	228.571
849.04	208.333
849.34	200.000
849.63	250.000
849.93	250.000
850.23	1033.333
850.53	362.500
850.82	400.000
851.12	229.412
851.42	208.333
851.71	281.250
852.01	0.000
852.31	223.529
852.61	350.000
852.90	191.667
853.20	455.556
853.50	-3200.000
853.79	156.000
854.09	175.000
854.39	144.828
854.68	131.034
854.98	228.571
855.28	174.194
855.57	307.143
855.87	250.000
856.17	137.037
856.46	205.263
856.76	154.839
857.05	282.353
857.35	336.364
857.65	323.077
857.94	195.000
858.24	455.556
858.53	335.714
858.83	642.857
859.13	182.609
859.42	366.667
859.72	400.000
860.01	275.000
860.31	1050.000
860.60	440.000
860.90	412.500
861.20	307.692
861.49	442.857
861.79	-3400.000
862.08	528.571
862.38	444.444
862.67	314.286
862.97	450.000
863.26	146.667
863.56	575.000
863.85	376.923
864.15	264.706
864.44	266.667
864.74	383.333
865.03	300.000
865.33	587.500
865.62	320.000
865.92	716.667
866.21	1175.000
866.51	840.000
866.80	205.556
867.10	1000.000
867.39	3700.000
867.69	700.000
867.98	775.000
868.27	209.524
868.57	333.333
868.86	950.000
869.16	195.238
869.45	3700.000
869.75	-550.000
870.04	800.000
870.33	720.000
870.63	362.500
870.92	235.294
871.22	825.000
871.51	457.143
871.80	366.667
872.10	315.385
>>>>>End Processed Spectral Data<<<<<
