SpectraSuite Data File
++++++++++++++++++++++++++++++++++++
Date: Tue May 12 17:07:50 PDT 2015
User: schluterlab
Dark Spectrum Present: Yes
Reference Spectrum Present: Yes
Number of Sampled Component Spectra: 1
Spectrometers: USB2E3373
Integration Time (usec): 3000 (USB2E3373)
Spectra Averaged: 3 (USB2E3373)
Boxcar Smoothing: 0 (USB2E3373)
Correct for Electrical Dark: No (USB2E3373)
Strobe/Lamp Enabled: No (USB2E3373)
Correct for Detector Non-linearity: No (USB2E3373)
Correct for Stray Light: No (USB2E3373)
Number of Pixels in Processed Spectrum: 2048
>>>>>Begin Processed Spectral Data<<<<<
178.53	0.000
178.91	-216.667
179.29	-725.000
179.67	-2700.000
180.04	-120.000
180.42	875.000
180.80	1700.000
181.18	0.000
181.56	-425.000
181.94	0.000
182.31	1266.667
182.69	-2600.000
183.07	657.143
183.45	-4300.000
183.83	-1850.000
184.20	350.000
184.58	528.571
184.96	-246.154
185.34	-250.000
185.72	1600.000
186.09	-775.000
186.47	-2800.000
186.85	1033.333
187.23	560.000
187.61	1700.000
187.98	525.000
188.36	207.143
188.74	341.667
189.12	416.667
189.49	1125.000
189.87	0.000
190.25	437.500
190.63	2500.000
191.00	-291.667
191.38	-3200.000
191.76	-750.000
192.14	512.500
192.51	-2900.000
192.89	1650.000
193.27	1000.000
193.65	-933.333
194.02	-740.000
194.40	600.000
194.78	-228.571
195.15	226.667
195.53	-2500.000
195.91	-740.000
196.29	3200.000
196.66	262.500
197.04	675.000
197.42	-1200.000
197.79	800.000
198.17	366.667
198.55	0.000
198.92	600.000
199.30	1133.333
199.68	1900.000
200.05	566.667
200.43	-433.333
200.81	216.667
201.18	2000.000
201.56	266.667
201.94	-450.000
202.31	-375.000
202.69	-580.000
203.07	2500.000
203.44	-533.333
203.82	275.000
204.19	700.000
204.57	-1600.000
204.95	-675.000
205.32	-680.000
205.70	566.667
206.08	800.000
206.45	-833.333
206.83	400.000
207.20	210.526
207.58	216.667
207.96	660.000
208.33	0.000
208.71	528.571
209.08	880.000
209.46	-3100.000
209.84	-700.000
210.21	720.000
210.59	-440.000
210.96	300.000
211.34	-875.000
211.71	400.000
212.09	925.000
212.46	1800.000
212.84	-533.333
213.22	522.222
213.59	-3600.000
213.97	230.000
214.34	1000.000
214.72	1033.333
215.09	633.333
215.47	-3500.000
215.84	-250.000
216.22	-325.000
216.59	0.000
216.97	0.000
217.34	1300.000
217.72	-1900.000
218.09	1433.333
218.47	550.000
218.84	775.000
219.22	1266.667
219.59	1200.000
219.97	442.857
220.34	422.222
220.72	1800.000
221.09	4600.000
221.47	283.333
221.84	1100.000
222.22	250.000
222.59	288.889
222.97	214.286
223.34	206.250
223.72	-1850.000
224.09	1266.667
224.46	246.154
224.84	-800.000
225.21	400.000
225.59	293.333
225.96	1000.000
226.34	-560.000
226.71	-600.000
227.08	-460.000
227.46	0.000
227.83	-633.333
228.21	-1900.000
228.58	383.333
228.95	800.000
229.33	388.889
229.70	1100.000
230.08	276.923
230.45	3500.000
230.82	-1075.000
231.20	-866.667
231.57	-966.667
231.95	500.000
232.32	250.000
232.69	583.333
233.07	333.333
233.44	-1850.000
233.81	180.000
234.19	140.741
234.56	200.000
234.93	170.588
235.31	190.000
235.68	225.000
236.05	171.429
236.43	159.259
236.80	250.000
237.17	172.414
237.55	115.625
237.92	120.000
238.29	115.152
238.67	131.250
239.04	95.122
239.41	68.750
239.79	82.500
240.16	91.667
240.53	72.131
240.91	78.261
241.28	79.661
241.65	63.636
242.02	81.690
242.40	82.857
242.77	67.033
243.14	67.089
243.51	74.747
243.89	59.813
244.26	57.009
244.63	57.426
245.00	64.220
245.38	50.847
245.75	50.758
246.12	65.926
246.49	44.681
246.87	60.656
247.24	54.667
247.61	50.000
247.98	53.741
248.36	49.091
248.73	48.980
249.10	44.048
249.47	52.500
249.84	46.766
250.22	51.892
250.59	44.500
250.96	48.101
251.33	46.047
251.70	45.089
252.08	43.697
252.45	41.434
252.82	39.544
253.19	43.478
253.56	43.846
253.94	38.768
254.31	41.085
254.68	43.554
255.05	40.000
255.42	45.620
255.79	41.042
256.16	40.339
256.54	43.182
256.91	37.908
257.28	40.803
257.65	37.618
258.02	36.283
258.39	38.109
258.76	41.449
259.14	33.143
259.51	39.650
259.88	36.474
260.25	34.341
260.62	38.630
260.99	35.537
261.36	34.262
261.73	38.032
262.10	36.649
262.47	35.250
262.85	37.333
263.22	38.560
263.59	38.875
263.96	39.599
264.33	34.815
264.70	35.627
265.07	35.122
265.44	36.009
265.81	37.264
266.18	36.156
266.55	33.806
266.92	33.781
267.29	33.553
267.66	36.323
268.03	34.081
268.40	33.192
268.77	35.242
269.14	32.755
269.51	32.517
269.88	33.878
270.25	29.590
270.62	31.545
270.99	35.497
271.36	32.114
271.73	33.333
272.10	31.717
272.47	29.563
272.84	29.142
273.21	31.612
273.58	33.198
273.95	30.801
274.32	32.490
274.69	34.449
275.06	31.876
275.43	28.927
275.80	32.642
276.17	30.147
276.54	31.776
276.91	31.343
277.28	28.467
277.65	28.598
278.02	31.434
278.39	26.978
278.76	30.690
279.13	29.181
279.50	28.909
279.87	29.981
280.23	27.993
280.60	29.197
280.97	28.448
281.34	29.868
281.71	29.391
282.08	30.085
282.45	29.730
282.82	29.264
283.19	27.663
283.56	29.421
283.92	30.945
284.29	29.950
284.66	26.555
285.03	30.182
285.40	27.603
285.77	26.543
286.14	29.257
286.51	27.914
286.87	28.165
287.24	26.877
287.61	26.596
287.98	29.552
288.35	27.259
288.72	27.921
289.08	26.877
289.45	27.591
289.82	28.281
290.19	27.526
290.56	27.948
290.93	28.201
291.29	26.243
291.66	25.424
292.03	27.209
292.40	26.558
292.77	24.930
293.13	27.817
293.50	26.316
293.87	25.068
294.24	26.014
294.60	25.303
294.97	27.832
295.34	25.498
295.71	25.887
296.08	26.000
296.44	25.921
296.81	24.318
297.18	22.687
297.55	25.246
297.91	22.906
298.28	24.275
298.65	23.681
299.02	23.522
299.38	24.101
299.75	23.293
300.12	23.280
300.48	25.059
300.85	23.719
301.22	24.070
301.59	21.934
301.95	23.337
302.32	23.865
302.69	23.643
303.05	23.906
303.42	22.534
303.79	23.077
304.15	22.222
304.52	22.939
304.89	23.241
305.25	22.803
305.62	21.748
305.99	21.739
306.35	20.316
306.72	22.893
307.09	22.257
307.45	21.542
307.82	22.119
308.19	21.959
308.55	20.400
308.92	22.866
309.29	22.189
309.65	22.993
310.02	21.704
310.38	20.937
310.75	22.083
311.12	20.402
311.48	22.876
311.85	22.042
312.22	21.203
312.58	21.769
312.95	21.456
313.31	22.097
313.68	21.201
314.05	20.971
314.41	20.298
314.78	20.076
315.14	21.896
315.51	21.949
315.87	19.891
316.24	20.448
316.61	21.486
316.97	21.560
317.34	20.126
317.70	20.018
318.07	21.708
318.43	19.859
318.80	21.016
319.16	20.105
319.53	20.000
319.89	20.520
320.26	22.812
320.62	20.879
320.99	19.924
321.35	20.315
321.72	20.209
322.08	20.499
322.45	19.709
322.81	20.494
323.18	19.982
323.54	20.645
323.91	20.762
324.27	18.921
324.64	18.945
325.00	19.741
325.37	20.573
325.73	18.971
326.10	20.050
326.46	20.231
326.83	19.120
327.19	21.606
327.56	19.569
327.92	20.902
328.29	20.376
328.65	20.548
329.01	19.504
329.38	19.628
329.74	19.129
330.11	19.027
330.47	19.523
330.84	18.896
331.20	19.712
331.56	19.775
331.93	19.504
332.29	18.878
332.66	20.068
333.02	19.416
333.38	19.284
333.75	20.934
334.11	18.372
334.48	19.573
334.84	19.088
335.20	19.247
335.57	19.312
335.93	19.344
336.29	19.071
336.66	19.897
337.02	18.050
337.38	18.659
337.75	19.088
338.11	19.241
338.47	18.628
338.84	18.205
339.20	17.662
339.56	17.746
339.93	18.478
340.29	17.647
340.65	18.609
341.02	18.665
341.38	18.637
341.74	18.272
342.11	17.863
342.47	17.473
342.83	18.130
343.20	18.836
343.56	16.759
343.92	17.919
344.28	18.341
344.65	18.582
345.01	17.381
345.37	16.987
345.73	17.937
346.10	17.450
346.46	17.624
346.82	16.358
347.19	17.697
347.55	17.955
347.91	17.221
348.27	17.119
348.63	16.851
349.00	16.603
349.36	17.899
349.72	17.813
350.08	17.624
350.45	18.812
350.81	17.355
351.17	15.871
351.53	17.783
351.89	16.939
352.26	17.385
352.62	17.195
352.98	17.178
353.34	18.105
353.70	15.826
354.07	17.154
354.43	17.204
354.79	16.781
355.15	16.539
355.51	16.767
355.87	17.093
356.24	17.860
356.60	16.743
356.96	16.452
357.32	17.558
357.68	17.107
358.04	16.793
358.40	16.267
358.77	16.379
359.13	18.243
359.49	16.308
359.85	17.200
360.21	15.602
360.57	17.007
360.93	17.388
361.29	16.450
361.66	17.002
362.02	16.264
362.38	17.244
362.74	16.207
363.10	16.620
363.46	16.851
363.82	17.041
364.18	15.789
364.54	16.023
364.90	16.600
365.26	16.586
365.62	16.644
365.98	14.728
366.35	15.241
366.71	16.239
367.07	17.270
367.43	16.185
367.79	17.088
368.15	15.265
368.51	15.231
368.87	15.761
369.23	16.286
369.59	15.846
369.95	15.804
370.31	16.222
370.67	15.961
371.03	15.896
371.39	15.928
371.75	15.980
372.11	16.655
372.47	16.233
372.83	15.704
373.19	15.490
373.55	16.151
373.91	14.296
374.27	15.542
374.63	16.000
374.99	16.105
375.35	15.188
375.71	16.161
376.07	14.987
376.42	15.345
376.78	15.414
377.14	15.465
377.50	15.918
377.86	15.183
378.22	15.722
378.58	16.344
378.94	14.967
379.30	15.343
379.66	15.954
380.02	15.894
380.38	15.222
380.74	16.090
381.09	15.304
381.45	14.855
381.81	14.539
382.17	15.568
382.53	15.297
382.89	15.730
383.25	15.157
383.61	14.928
383.97	14.757
384.32	15.732
384.68	15.092
385.04	16.178
385.40	15.125
385.76	15.097
386.12	14.780
386.48	15.258
386.83	15.465
387.19	15.194
387.55	14.782
387.91	15.185
388.27	14.813
388.62	15.023
388.98	14.869
389.34	14.753
389.70	14.858
390.06	16.220
390.42	15.299
390.77	15.356
391.13	15.450
391.49	14.761
391.85	15.631
392.20	15.971
392.56	15.173
392.92	15.385
393.28	15.191
393.64	14.851
393.99	15.175
394.35	14.832
394.71	14.355
395.07	14.842
395.42	14.988
395.78	15.423
396.14	15.482
396.50	15.403
396.85	14.024
397.21	15.042
397.57	14.704
397.92	14.327
398.28	14.231
398.64	15.881
399.00	14.912
399.35	14.171
399.71	14.790
400.07	15.240
400.42	14.567
400.78	15.015
401.14	14.915
401.49	14.747
401.85	14.774
402.21	13.825
402.57	15.560
402.92	14.485
403.28	14.260
403.63	14.832
403.99	14.415
404.35	15.416
404.70	14.885
405.06	14.206
405.42	13.884
405.77	14.884
406.13	15.293
406.49	13.928
406.84	14.777
407.20	15.297
407.55	14.892
407.91	15.061
408.27	15.767
408.62	14.725
408.98	14.666
409.34	14.728
409.69	14.561
410.05	13.894
410.40	14.429
410.76	13.910
411.11	13.448
411.47	14.383
411.83	14.411
412.18	13.829
412.54	13.694
412.89	14.513
413.25	15.051
413.60	14.544
413.96	14.423
414.31	15.171
414.67	15.270
415.03	14.049
415.38	15.205
415.74	14.277
416.09	15.053
416.45	15.191
416.80	15.459
417.16	15.341
417.51	15.732
417.87	14.768
418.22	14.216
418.58	14.968
418.93	14.515
419.29	13.678
419.64	14.900
420.00	15.215
420.35	14.460
420.71	14.644
421.06	13.891
421.42	14.796
421.77	14.603
422.12	14.443
422.48	13.867
422.83	13.895
423.19	14.255
423.54	13.823
423.90	14.383
424.25	14.144
424.61	14.916
424.96	14.116
425.31	14.450
425.67	14.703
426.02	14.133
426.38	13.711
426.73	14.517
427.09	15.125
427.44	13.337
427.79	13.722
428.15	14.260
428.50	14.743
428.85	14.991
429.21	14.100
429.56	13.858
429.92	14.023
430.27	13.740
430.62	13.363
430.98	14.072
431.33	13.508
431.68	13.333
432.04	13.864
432.39	14.435
432.74	13.934
433.10	14.673
433.45	14.417
433.80	14.562
434.16	13.978
434.51	14.345
434.86	14.970
435.22	13.452
435.57	14.345
435.92	14.684
436.28	15.035
436.63	14.857
436.98	14.527
437.34	13.984
437.69	14.726
438.04	13.978
438.39	14.419
438.75	14.866
439.10	13.222
439.45	14.132
439.81	14.170
440.16	14.309
440.51	14.245
440.86	14.872
441.22	14.448
441.57	13.701
441.92	13.820
442.27	14.175
442.63	13.872
442.98	14.009
443.33	13.551
443.68	14.990
444.03	13.713
444.39	14.124
444.74	14.079
445.09	14.218
445.44	14.878
445.79	13.938
446.15	14.263
446.50	13.924
446.85	14.293
447.20	13.383
447.55	13.703
447.91	14.065
448.26	15.016
448.61	15.423
448.96	14.924
449.31	13.696
449.66	14.950
450.02	14.209
450.37	14.048
450.72	14.270
451.07	15.300
451.42	14.286
451.77	14.605
452.12	14.634
452.47	15.128
452.83	14.930
453.18	14.354
453.53	15.571
453.88	15.314
454.23	15.049
454.58	14.627
454.93	14.654
455.28	14.994
455.63	14.953
455.98	14.213
456.34	13.982
456.69	14.512
457.04	14.320
457.39	14.971
457.74	16.104
458.09	14.037
458.44	15.225
458.79	14.589
459.14	14.403
459.49	15.062
459.84	14.837
460.19	14.915
460.54	14.701
460.89	14.765
461.24	14.891
461.59	15.533
461.94	14.835
462.29	15.103
462.64	15.766
462.99	14.715
463.34	16.397
463.69	15.487
464.04	15.371
464.39	14.310
464.74	14.596
465.09	14.510
465.44	14.472
465.79	14.262
466.14	13.672
466.49	14.216
466.84	14.381
467.19	15.290
467.54	14.535
467.89	15.082
468.24	14.302
468.59	14.405
468.94	15.036
469.29	15.455
469.64	15.113
469.99	15.039
470.34	15.560
470.68	15.103
471.03	15.210
471.38	14.371
471.73	15.153
472.08	14.938
472.43	14.711
472.78	15.941
473.13	14.330
473.48	15.037
473.83	14.664
474.17	15.380
474.52	14.810
474.87	13.644
475.22	14.449
475.57	14.218
475.92	14.257
476.27	13.983
476.61	14.316
476.96	14.577
477.31	14.961
477.66	14.815
478.01	14.131
478.36	14.264
478.70	14.094
479.05	13.651
479.40	14.881
479.75	15.243
480.10	15.731
480.45	14.753
480.79	14.516
481.14	14.123
481.49	13.632
481.84	13.720
482.19	14.323
482.53	14.405
482.88	14.292
483.23	13.757
483.58	14.183
483.92	14.899
484.27	14.726
484.62	14.304
484.97	13.985
485.31	13.533
485.66	13.073
486.01	12.965
486.36	12.615
486.70	12.806
487.05	12.670
487.40	12.773
487.75	13.071
488.09	13.409
488.44	13.225
488.79	13.502
489.13	14.259
489.48	14.662
489.83	13.928
490.17	13.708
490.52	14.858
490.87	14.138
491.22	14.938
491.56	14.317
491.91	13.934
492.26	14.165
492.60	15.125
492.95	13.865
493.30	14.559
493.64	14.780
493.99	14.401
494.34	14.074
494.68	14.210
495.03	14.818
495.37	14.408
495.72	14.779
496.07	13.702
496.41	14.509
496.76	14.183
497.11	14.653
497.45	14.555
497.80	14.365
498.14	14.147
498.49	14.020
498.84	14.579
499.18	14.717
499.53	14.102
499.87	14.151
500.22	14.325
500.56	14.299
500.91	15.213
501.26	15.021
501.60	14.481
501.95	14.516
502.29	14.489
502.64	14.424
502.98	14.051
503.33	14.878
503.67	14.834
504.02	13.748
504.36	13.846
504.71	14.806
505.06	14.078
505.40	14.319
505.75	14.593
506.09	14.419
506.44	14.568
506.78	14.556
507.13	14.397
507.47	14.605
507.82	14.939
508.16	14.797
508.51	15.024
508.85	14.625
509.19	14.488
509.54	14.990
509.88	15.714
510.23	15.147
510.57	15.010
510.92	14.236
511.26	14.207
511.61	14.476
511.95	15.082
512.30	14.250
512.64	13.811
512.98	15.530
513.33	15.164
513.67	14.915
514.02	13.818
514.36	14.434
514.70	15.147
515.05	14.651
515.39	14.638
515.74	14.981
516.08	14.488
516.42	15.738
516.77	15.147
517.11	14.880
517.46	15.032
517.80	15.183
518.14	15.155
518.49	15.215
518.83	14.945
519.17	14.531
519.52	15.838
519.86	14.714
520.20	14.904
520.55	15.546
520.89	15.575
521.23	15.070
521.58	15.605
521.92	14.752
522.26	14.633
522.61	15.449
522.95	15.135
523.29	15.380
523.64	14.740
523.98	15.669
524.32	16.032
524.66	14.899
525.01	14.734
525.35	14.909
525.69	15.713
526.04	15.764
526.38	15.597
526.72	14.916
527.06	15.021
527.41	15.901
527.75	15.338
528.09	15.292
528.43	15.741
528.78	15.325
529.12	14.991
529.46	15.137
529.80	15.245
530.15	14.555
530.49	15.102
530.83	14.930
531.17	14.945
531.51	15.205
531.86	15.459
532.20	15.080
532.54	15.505
532.88	15.865
533.22	15.417
533.57	15.436
533.91	14.918
534.25	14.830
534.59	14.971
534.93	15.074
535.27	14.513
535.62	15.053
535.96	14.953
536.30	15.539
536.64	14.472
536.98	14.663
537.32	15.625
537.66	14.094
538.01	15.480
538.35	15.284
538.69	14.442
539.03	14.925
539.37	14.138
539.71	15.247
540.05	15.631
540.39	16.038
540.73	15.380
541.07	14.492
541.42	15.858
541.76	14.550
542.10	14.550
542.44	14.589
542.78	15.041
543.12	14.601
543.46	14.286
543.80	15.476
544.14	15.666
544.48	14.659
544.82	15.474
545.16	15.118
545.50	14.321
545.84	14.899
546.18	16.450
546.52	15.344
546.86	14.507
547.20	14.212
547.54	15.009
547.88	14.842
548.22	14.633
548.56	15.144
548.90	14.828
549.24	15.098
549.58	14.369
549.92	14.866
550.26	15.348
550.60	14.438
550.94	16.011
551.28	16.483
551.62	15.586
551.96	15.068
552.30	14.107
552.64	15.793
552.98	14.497
553.32	15.109
553.66	14.137
554.00	14.672
554.34	15.712
554.68	15.054
555.02	14.868
555.36	15.293
555.69	15.772
556.03	14.650
556.37	15.233
556.71	15.841
557.05	14.613
557.39	15.267
557.73	15.768
558.07	15.560
558.41	15.010
558.75	15.185
559.08	15.154
559.42	15.319
559.76	15.823
560.10	14.246
560.44	15.395
560.78	15.153
561.12	15.003
561.45	14.268
561.79	14.794
562.13	13.898
562.47	14.147
562.81	15.615
563.15	15.191
563.48	14.099
563.82	15.596
564.16	15.734
564.50	14.406
564.84	14.650
565.17	14.439
565.51	15.887
565.85	15.916
566.19	15.417
566.52	13.839
566.86	14.945
567.20	15.000
567.54	14.629
567.88	14.345
568.21	13.829
568.55	13.765
568.89	14.416
569.23	13.762
569.56	13.818
569.90	13.403
570.24	13.390
570.57	13.920
570.91	13.354
571.25	13.138
571.59	12.972
571.92	12.621
572.26	12.318
572.60	12.996
572.93	13.226
573.27	12.723
573.61	12.723
573.95	12.176
574.28	12.748
574.62	12.529
574.96	12.794
575.29	12.316
575.63	12.297
575.97	12.317
576.30	12.048
576.64	12.333
576.98	12.097
577.31	12.609
577.65	12.849
577.98	12.411
578.32	12.089
578.66	12.383
578.99	12.880
579.33	12.720
579.67	12.416
580.00	11.993
580.34	12.249
580.67	12.170
581.01	12.377
581.35	12.343
581.68	12.080
582.02	12.454
582.35	12.464
582.69	12.380
583.02	12.063
583.36	12.740
583.70	12.474
584.03	13.199
584.37	12.519
584.70	12.590
585.04	12.110
585.37	12.196
585.71	12.899
586.04	12.684
586.38	12.641
586.72	12.587
587.05	12.995
587.39	12.440
587.72	12.369
588.06	12.615
588.39	13.127
588.73	12.640
589.06	12.722
589.40	12.739
589.73	13.143
590.07	13.349
590.40	13.624
590.73	14.249
591.07	13.776
591.40	12.655
591.74	13.231
592.07	13.020
592.41	14.309
592.74	13.255
593.08	12.435
593.41	12.268
593.75	13.060
594.08	13.120
594.41	12.773
594.75	13.459
595.08	12.723
595.42	12.772
595.75	13.031
596.09	13.208
596.42	13.292
596.75	13.261
597.09	13.537
597.42	13.347
597.75	12.819
598.09	13.254
598.42	13.097
598.76	13.223
599.09	13.130
599.42	13.287
599.76	13.399
600.09	12.915
600.42	13.018
600.76	12.644
601.09	12.392
601.42	13.059
601.76	13.534
602.09	13.098
602.42	12.680
602.76	13.055
603.09	13.650
603.42	13.358
603.76	13.051
604.09	12.921
604.42	13.070
604.76	13.591
605.09	13.224
605.42	12.840
605.75	13.383
606.09	13.351
606.42	13.153
606.75	13.370
607.09	13.186
607.42	13.178
607.75	13.177
608.08	13.038
608.42	13.255
608.75	13.393
609.08	13.638
609.41	13.636
609.75	14.057
610.08	13.759
610.41	13.790
610.74	13.030
611.07	13.734
611.41	13.485
611.74	13.910
612.07	13.873
612.40	14.084
612.73	14.029
613.07	13.533
613.40	14.286
613.73	13.879
614.06	13.000
614.39	13.737
614.72	13.913
615.06	13.353
615.39	14.257
615.72	12.875
616.05	13.862
616.38	13.242
616.71	13.890
617.05	13.839
617.38	14.270
617.71	14.398
618.04	14.190
618.37	14.175
618.70	13.972
619.03	13.736
619.36	14.698
619.69	14.644
620.03	14.938
620.36	14.965
620.69	15.006
621.02	15.217
621.35	14.613
621.68	15.855
622.01	15.867
622.34	14.348
622.67	16.433
623.00	14.908
623.33	14.642
623.66	13.972
623.99	15.479
624.32	14.770
624.65	14.878
624.99	14.672
625.32	14.162
625.65	13.448
625.98	14.156
626.31	15.059
626.64	14.123
626.97	14.461
627.30	15.606
627.63	16.170
627.96	14.789
628.29	14.851
628.62	14.713
628.95	15.248
629.28	16.389
629.61	14.587
629.94	15.125
630.26	15.511
630.59	16.401
630.92	15.516
631.25	16.591
631.58	15.718
631.91	16.365
632.24	16.229
632.57	15.521
632.90	16.356
633.23	16.474
633.56	17.176
633.89	15.863
634.22	16.685
634.55	16.022
634.88	17.634
635.20	16.704
635.53	18.467
635.86	17.002
636.19	16.498
636.52	14.595
636.85	14.995
637.18	17.010
637.51	15.866
637.83	15.561
638.16	18.171
638.49	16.886
638.82	15.845
639.15	15.041
639.48	18.128
639.81	18.437
640.13	16.319
640.46	17.573
640.79	16.385
641.12	16.010
641.45	17.982
641.77	17.834
642.10	18.072
642.43	18.350
642.76	17.756
643.09	17.723
643.41	18.934
643.74	17.986
644.07	18.584
644.40	17.012
644.73	18.769
645.05	20.059
645.38	17.611
645.71	18.361
646.04	20.611
646.36	17.371
646.69	19.520
647.02	17.760
647.35	17.008
647.67	17.990
648.00	17.264
648.33	19.098
648.66	19.242
648.98	17.101
649.31	16.734
649.64	16.183
649.96	15.789
650.29	17.000
650.62	19.735
650.94	19.428
651.27	18.182
651.60	17.840
651.92	18.894
652.25	18.425
652.58	20.284
652.90	18.862
653.23	19.055
653.56	18.101
653.88	18.502
654.21	17.155
654.54	18.741
654.86	19.322
655.19	16.887
655.52	14.821
655.84	10.686
656.17	12.238
656.49	17.812
656.82	20.767
657.15	16.815
657.47	12.538
657.80	9.022
658.13	7.134
658.45	9.407
658.78	11.500
659.10	11.989
659.43	12.528
659.75	13.146
660.08	13.221
660.41	15.245
660.73	16.813
661.06	18.619
661.38	19.080
661.71	19.784
662.03	17.681
662.36	19.810
662.68	18.250
663.01	19.640
663.33	19.245
663.66	18.540
663.98	18.452
664.31	19.590
664.63	21.073
664.96	20.450
665.28	19.397
665.61	19.057
665.93	19.811
666.26	20.187
666.58	20.917
666.91	18.533
667.23	20.080
667.56	20.329
667.88	18.880
668.21	20.287
668.53	19.153
668.86	21.443
669.18	19.756
669.50	19.835
669.83	20.123
670.15	20.582
670.48	18.750
670.80	18.924
671.13	18.924
671.45	20.240
671.77	20.408
672.10	20.826
672.42	17.928
672.75	19.937
673.07	19.237
673.39	17.572
673.72	19.896
674.04	19.713
674.37	18.693
674.69	18.587
675.01	16.791
675.34	17.248
675.66	20.313
675.98	20.118
676.31	19.800
676.63	18.290
676.95	21.429
677.28	17.444
677.60	19.718
677.92	18.651
678.25	19.767
678.57	19.181
678.89	21.338
679.22	20.588
679.54	17.260
679.86	18.848
680.18	18.278
680.51	16.750
680.83	17.399
681.15	18.891
681.48	18.750
681.80	17.338
682.12	19.031
682.44	16.757
682.77	20.996
683.09	19.417
683.41	21.020
683.73	20.669
684.06	18.849
684.38	20.736
684.70	19.424
685.02	17.014
685.34	19.542
685.67	18.650
685.99	19.048
686.31	17.720
686.63	17.561
686.96	18.137
687.28	18.960
687.60	19.283
687.92	18.425
688.24	17.586
688.56	18.861
688.89	17.591
689.21	18.690
689.53	21.937
689.85	18.293
690.17	17.864
690.49	20.766
690.82	19.328
691.14	20.202
691.46	18.686
691.78	19.298
692.10	17.176
692.42	18.149
692.74	21.318
693.06	19.186
693.39	18.577
693.71	19.843
694.03	21.893
694.35	22.088
694.67	19.348
694.99	21.286
695.31	22.072
695.63	19.910
695.95	22.851
696.27	20.796
696.59	21.241
696.91	19.747
697.23	17.421
697.56	18.050
697.88	17.166
698.20	19.623
698.52	15.759
698.84	20.739
699.16	23.667
699.48	21.610
699.80	21.786
700.12	20.785
700.44	21.495
700.76	22.434
701.08	21.410
701.40	21.039
701.72	23.797
702.04	23.035
702.36	21.774
702.68	23.936
703.00	20.050
703.32	24.318
703.64	21.411
703.96	17.187
704.28	22.487
704.60	20.845
704.91	24.090
705.23	21.023
705.55	23.145
705.87	23.175
706.19	22.571
706.51	24.138
706.83	20.944
707.15	24.599
707.47	17.191
707.79	21.839
708.11	19.728
708.43	20.899
708.74	19.005
709.06	21.628
709.38	21.836
709.70	20.981
710.02	18.478
710.34	22.376
710.66	25.556
710.98	21.038
711.29	24.234
711.61	22.006
711.93	18.845
712.25	21.386
712.57	21.543
712.89	22.727
713.20	24.920
713.52	22.118
713.84	22.659
714.16	22.029
714.48	17.579
714.80	18.428
715.11	17.287
715.43	20.670
715.75	20.563
716.07	21.387
716.39	23.143
716.70	18.380
717.02	23.232
717.34	24.460
717.66	24.306
717.97	30.303
718.29	25.704
718.61	24.324
718.93	25.952
719.24	23.154
719.56	20.345
719.88	20.064
720.20	21.613
720.51	24.510
720.83	22.074
721.15	25.170
721.46	25.685
721.78	26.481
722.10	25.694
722.42	25.753
722.73	19.495
723.05	28.421
723.37	27.208
723.68	22.266
724.00	26.136
724.32	25.095
724.63	26.154
724.95	21.961
725.27	27.138
725.58	25.000
725.90	20.423
726.22	21.575
726.53	20.736
726.85	28.013
727.16	24.832
727.48	24.252
727.80	24.820
728.11	20.357
728.43	24.275
728.74	26.923
729.06	23.297
729.38	22.105
729.69	24.667
730.01	25.329
730.32	23.826
730.64	26.246
730.96	24.324
731.27	20.183
731.59	21.264
731.90	19.777
732.22	18.857
732.53	21.368
732.85	24.561
733.16	21.988
733.48	24.138
733.80	22.899
734.11	25.767
734.43	19.591
734.74	21.984
735.06	23.810
735.37	18.557
735.69	21.449
736.00	22.936
736.32	18.788
736.63	21.767
736.95	22.981
737.26	22.256
737.58	20.859
737.89	24.096
738.21	26.490
738.52	23.077
738.83	28.571
739.15	22.997
739.46	21.724
739.78	22.789
740.09	23.907
740.41	22.086
740.72	22.540
741.04	26.573
741.35	24.609
741.66	26.087
741.98	29.185
742.29	28.241
742.61	24.336
742.92	27.542
743.23	22.800
743.55	24.151
743.86	25.490
744.18	27.542
744.49	26.446
744.80	25.806
745.12	29.464
745.43	25.701
745.74	28.444
746.06	27.193
746.37	30.233
746.68	31.416
747.00	28.251
747.31	28.992
747.62	25.820
747.94	26.609
748.25	24.125
748.56	27.542
748.88	31.696
749.19	24.651
749.50	26.941
749.82	29.630
750.13	23.320
750.44	26.667
750.75	23.490
751.07	23.355
751.38	19.472
751.69	22.896
752.01	22.727
752.32	22.259
752.63	27.517
752.94	24.476
753.26	25.000
753.57	22.957
753.88	21.348
754.19	25.632
754.51	25.249
754.82	20.134
755.13	20.608
755.44	24.074
755.75	29.210
756.07	24.315
756.38	21.569
756.69	20.000
757.00	25.816
757.31	25.915
757.63	21.212
757.94	20.213
758.25	20.290
758.56	22.883
758.87	24.812
759.18	22.965
759.50	21.581
759.81	24.036
760.12	22.753
760.43	24.090
760.74	21.772
761.05	19.629
761.36	18.490
761.67	21.563
761.99	23.099
762.30	19.293
762.61	22.917
762.92	25.758
763.23	25.660
763.54	25.000
763.85	20.623
764.16	26.389
764.47	22.973
764.78	22.801
765.10	24.695
765.41	19.602
765.72	20.718
766.03	20.242
766.34	21.951
766.65	26.236
766.96	27.126
767.27	31.308
767.58	26.733
767.89	30.387
768.20	32.317
768.51	22.959
768.82	27.193
769.13	21.176
769.44	21.805
769.75	25.843
770.06	29.412
770.37	25.000
770.68	27.111
770.99	28.814
771.30	30.126
771.61	29.231
771.92	25.573
772.23	25.806
772.54	32.000
772.85	28.218
773.16	35.326
773.47	32.778
773.78	30.198
774.09	36.364
774.39	33.939
774.70	32.941
775.01	32.237
775.32	31.677
775.63	37.671
775.94	42.593
776.25	34.483
776.56	32.824
776.87	38.168
777.18	43.182
777.48	42.520
777.79	42.308
778.10	37.121
778.41	41.045
778.72	32.331
779.03	37.821
779.34	33.108
779.65	33.540
779.95	35.404
780.26	35.119
780.57	48.299
780.88	40.426
781.19	40.833
781.50	34.320
781.80	39.891
782.11	34.392
782.42	29.885
782.73	33.333
783.04	34.839
783.34	34.109
783.65	35.374
783.96	31.613
784.27	27.815
784.57	35.526
784.88	33.333
785.19	35.000
785.50	36.207
785.81	49.612
786.11	31.852
786.42	40.945
786.73	41.441
787.04	35.849
787.34	34.959
787.65	43.939
787.96	37.879
788.26	37.795
788.57	38.686
788.88	34.507
789.19	38.168
789.49	43.919
789.80	34.375
790.11	37.190
790.41	41.667
790.72	34.259
791.03	47.115
791.33	55.556
791.64	43.158
791.95	46.316
792.25	44.792
792.56	49.000
792.87	54.878
793.17	55.682
793.48	51.765
793.79	51.724
794.09	45.455
794.40	56.034
794.70	40.476
795.01	36.154
795.32	34.351
795.62	31.624
795.93	39.496
796.23	39.837
796.54	51.020
796.85	53.409
797.15	64.935
797.46	68.293
797.76	46.250
798.07	56.000
798.37	48.750
798.68	56.250
798.99	59.756
799.29	50.667
799.60	44.186
799.90	38.158
800.21	65.152
800.51	63.380
800.82	74.138
801.12	81.538
801.43	66.667
801.73	68.966
802.04	59.740
802.34	53.425
802.65	84.314
802.95	86.957
803.26	64.516
803.56	81.667
803.87	53.731
804.17	65.079
804.48	64.151
804.78	54.167
805.09	74.242
805.39	68.254
805.70	85.965
806.00	60.000
806.30	64.062
806.61	65.882
806.91	46.667
807.22	43.478
807.52	52.632
807.83	59.211
808.13	69.565
808.43	69.355
808.74	56.164
809.04	71.429
809.35	63.235
809.65	69.697
809.95	70.588
810.26	101.852
810.56	75.000
810.86	73.469
811.17	71.930
811.47	86.957
811.77	67.241
812.08	53.448
812.38	78.571
812.69	80.952
812.99	77.778
813.29	108.571
813.59	132.258
813.90	63.793
814.20	72.131
814.50	70.000
814.81	70.175
815.11	59.259
815.41	76.786
815.72	71.429
816.02	88.000
816.32	100.000
816.62	96.552
816.93	109.091
817.23	121.951
817.53	80.357
817.84	84.444
818.14	104.762
818.44	87.500
818.74	75.472
819.04	87.179
819.35	127.273
819.65	84.615
819.95	109.259
820.25	100.000
820.56	151.351
820.86	123.684
821.16	59.574
821.46	121.053
821.76	89.091
822.07	71.429
822.37	107.895
822.67	83.721
822.97	63.158
823.27	100.000
823.57	103.125
823.88	94.872
824.18	109.091
824.48	143.478
824.78	130.556
825.08	147.826
825.38	137.931
825.69	97.059
825.99	74.468
826.29	94.444
826.59	114.286
826.89	130.000
827.19	80.000
827.49	132.258
827.79	119.231
828.09	85.714
828.39	111.111
828.70	94.595
829.00	132.143
829.30	187.500
829.60	100.000
829.90	106.452
830.20	118.182
830.50	151.351
830.80	158.333
831.10	150.000
831.40	142.857
831.70	170.833
832.00	116.667
832.30	165.217
832.60	183.333
832.90	133.333
833.20	165.000
833.50	110.526
833.80	97.059
834.10	94.737
834.40	115.789
834.70	103.333
835.00	144.000
835.30	89.189
835.60	146.875
835.90	124.324
836.20	153.846
836.50	131.818
836.80	100.000
837.10	152.174
837.40	300.000
837.70	126.316
838.00	180.000
838.30	175.000
838.60	172.000
838.90	270.000
839.19	137.500
839.49	153.333
839.79	96.552
840.09	142.308
840.39	220.000
840.69	189.474
840.99	138.095
841.29	186.957
841.59	160.000
841.88	204.000
842.18	333.333
842.48	146.429
842.78	174.074
843.08	223.077
843.38	140.909
843.68	300.000
843.97	357.143
844.27	239.130
844.57	1150.000
844.87	292.857
845.17	222.222
845.47	128.571
845.76	137.500
846.06	471.429
846.36	205.882
846.66	307.692
846.96	218.750
847.25	207.692
847.55	126.316
847.85	183.333
848.15	540.000
848.44	254.545
848.74	176.190
849.04	145.833
849.34	182.353
849.63	218.750
849.93	256.250
850.23	833.333
850.53	400.000
850.82	281.818
851.12	200.000
851.42	170.833
851.71	218.750
852.01	0.000
852.31	223.529
852.61	350.000
852.90	125.000
853.20	333.333
853.50	-2300.000
853.79	172.000
854.09	140.625
854.39	137.931
854.68	162.069
854.98	209.524
855.28	129.032
855.57	207.143
855.87	200.000
856.17	81.481
856.46	168.421
856.76	96.774
857.05	194.118
857.35	181.818
857.65	238.462
857.94	155.000
858.24	400.000
858.53	278.571
858.83	614.286
859.13	156.522
859.42	300.000
859.72	412.500
860.01	233.333
860.31	750.000
860.60	300.000
860.90	337.500
861.20	176.923
861.49	385.714
861.79	-3500.000
862.08	585.714
862.38	288.889
862.67	314.286
862.97	300.000
863.26	126.667
863.56	900.000
863.85	315.385
864.15	252.941
864.44	177.778
864.74	316.667
865.03	263.636
865.33	412.500
865.62	240.000
865.92	500.000
866.21	675.000
866.51	660.000
866.80	183.333
867.10	966.667
867.39	3900.000
867.69	560.000
867.98	775.000
868.27	190.476
868.57	266.667
868.86	950.000
869.16	109.524
869.45	2800.000
869.75	-450.000
870.04	725.000
870.33	720.000
870.63	412.500
870.92	205.882
871.22	1125.000
871.51	442.857
871.80	300.000
872.10	269.231
>>>>>End Processed Spectral Data<<<<<
