SpectraSuite Data File
++++++++++++++++++++++++++++++++++++
Date: Tue May 12 17:15:41 PDT 2015
User: schluterlab
Dark Spectrum Present: Yes
Reference Spectrum Present: Yes
Number of Sampled Component Spectra: 1
Spectrometers: USB2E3373
Integration Time (usec): 3000 (USB2E3373)
Spectra Averaged: 3 (USB2E3373)
Boxcar Smoothing: 0 (USB2E3373)
Correct for Electrical Dark: No (USB2E3373)
Strobe/Lamp Enabled: No (USB2E3373)
Correct for Detector Non-linearity: No (USB2E3373)
Correct for Stray Light: No (USB2E3373)
Number of Pixels in Processed Spectrum: 2048
>>>>>Begin Processed Spectral Data<<<<<
178.53	0.000
178.91	-233.333
179.29	-675.000
179.67	-4500.000
180.04	-93.333
180.42	600.000
180.80	1400.000
181.18	0.000
181.56	-300.000
181.94	0.000
182.31	1033.333
182.69	-2500.000
183.07	600.000
183.45	-3700.000
183.83	-1750.000
184.20	330.000
184.58	371.429
184.96	-230.769
185.34	-233.333
185.72	1450.000
186.09	-925.000
186.47	-3500.000
186.85	1066.667
187.23	760.000
187.61	1900.000
187.98	550.000
188.36	300.000
188.74	333.333
189.12	391.667
189.49	950.000
189.87	0.000
190.25	512.500
190.63	2200.000
191.00	-291.667
191.38	-3500.000
191.76	-700.000
192.14	500.000
192.51	-2700.000
192.89	1800.000
193.27	1033.333
193.65	-933.333
194.02	-660.000
194.40	685.714
194.78	-107.143
195.15	226.667
195.53	-2900.000
195.91	-620.000
196.29	3400.000
196.66	250.000
197.04	875.000
197.42	-1650.000
197.79	550.000
198.17	408.333
198.55	0.000
198.92	485.714
199.30	1233.333
199.68	1700.000
200.05	633.333
200.43	-566.667
200.81	227.778
201.18	4300.000
201.56	358.333
201.94	-850.000
202.31	-300.000
202.69	-600.000
203.07	2900.000
203.44	-533.333
203.82	275.000
204.19	600.000
204.57	-1600.000
204.95	-650.000
205.32	-820.000
205.70	600.000
206.08	750.000
206.45	-1166.667
206.83	344.444
207.20	226.316
207.58	283.333
207.96	760.000
208.33	0.000
208.71	657.143
209.08	700.000
209.46	-3200.000
209.84	-725.000
210.21	760.000
210.59	-760.000
210.96	333.333
211.34	-1025.000
211.71	354.545
212.09	900.000
212.46	1650.000
212.84	-366.667
213.22	422.222
213.59	-3200.000
213.97	280.000
214.34	925.000
214.72	966.667
215.09	1133.333
215.47	-2300.000
215.84	-270.000
216.22	-287.500
216.59	0.000
216.97	0.000
217.34	1150.000
217.72	-1000.000
218.09	966.667
218.47	475.000
218.84	825.000
219.22	1000.000
219.59	1033.333
219.97	542.857
220.34	444.444
220.72	1350.000
221.09	3300.000
221.47	258.333
221.84	1166.667
222.22	430.000
222.59	216.667
222.97	221.429
223.34	256.250
223.72	-1950.000
224.09	1233.333
224.46	230.769
224.84	-725.000
225.21	400.000
225.59	286.667
225.96	1066.667
226.34	-520.000
226.71	-725.000
227.08	-540.000
227.46	0.000
227.83	-583.333
228.21	-1850.000
228.58	300.000
228.95	875.000
229.33	444.444
229.70	1000.000
230.08	330.769
230.45	3500.000
230.82	-1125.000
231.20	-966.667
231.57	-1000.000
231.95	680.000
232.32	375.000
232.69	450.000
233.07	241.667
233.44	-1650.000
233.81	280.000
234.19	207.407
234.56	281.250
234.93	241.176
235.31	205.000
235.68	300.000
236.05	164.286
236.43	170.370
236.80	328.571
237.17	148.276
237.55	143.750
237.92	140.000
238.29	166.667
238.67	171.875
239.04	146.341
239.41	110.417
239.79	110.000
240.16	137.500
240.53	101.639
240.91	92.754
241.28	108.475
241.65	95.455
242.02	112.676
242.40	104.286
242.77	94.505
243.14	86.076
243.51	104.040
243.89	77.570
244.26	83.178
244.63	98.020
245.00	89.908
245.38	83.898
245.75	81.061
246.12	86.667
246.49	76.596
246.87	85.246
247.24	83.333
247.61	82.500
247.98	86.395
248.36	75.152
248.73	71.939
249.10	67.857
249.47	74.000
249.84	71.642
250.22	74.595
250.59	72.500
250.96	72.152
251.33	75.349
251.70	72.768
252.08	68.067
252.45	62.550
252.82	61.977
253.19	66.008
253.56	67.308
253.94	70.652
254.31	67.054
254.68	66.202
255.05	68.276
255.42	70.803
255.79	67.101
256.16	67.119
256.54	68.506
256.91	66.013
257.28	67.893
257.65	61.129
258.02	65.782
258.39	65.330
258.76	64.348
259.14	65.429
259.51	66.764
259.88	65.350
260.25	60.440
260.62	64.658
260.99	63.085
261.36	67.131
261.73	63.830
262.10	67.539
262.47	62.500
262.85	64.800
263.22	61.183
263.59	61.893
263.96	65.915
264.33	61.975
264.70	64.865
265.07	61.951
265.44	63.073
265.81	64.387
266.18	62.243
266.55	66.194
266.92	63.087
267.29	62.939
267.66	61.211
268.03	62.556
268.40	60.042
268.77	62.996
269.14	60.738
269.51	64.143
269.88	60.408
270.25	60.475
270.62	61.588
270.99	62.069
271.36	61.585
271.73	60.797
272.10	59.596
272.47	59.325
272.84	58.483
273.21	56.818
273.58	59.514
273.95	59.343
274.32	59.144
274.69	62.205
275.06	58.470
275.43	56.513
275.80	59.245
276.17	58.456
276.54	58.505
276.91	60.821
277.28	56.387
277.65	57.934
278.02	56.801
278.39	58.633
278.76	57.414
279.13	55.694
279.50	57.636
279.87	56.611
280.23	56.906
280.60	57.299
280.97	58.966
281.34	56.436
281.71	57.217
282.08	57.436
282.45	55.068
282.82	54.181
283.19	55.644
283.56	55.372
283.92	57.980
284.29	53.411
284.66	53.277
285.03	55.058
285.40	55.041
285.77	54.167
286.14	55.263
286.51	54.294
286.87	53.323
287.24	51.802
287.61	53.951
287.98	52.985
288.35	51.407
288.72	50.986
289.08	54.204
289.45	53.049
289.82	53.594
290.19	51.391
290.56	51.674
290.93	52.086
291.29	52.624
291.66	52.260
292.03	51.613
292.40	51.355
292.77	48.329
293.13	51.783
293.50	49.393
293.87	49.322
294.24	50.070
294.60	51.817
294.97	51.329
295.34	50.863
295.71	49.146
296.08	51.600
296.44	51.461
296.81	48.883
297.18	47.782
297.55	49.877
297.91	48.276
298.28	49.155
298.65	47.975
299.02	48.975
299.38	50.000
299.75	49.634
300.12	50.573
300.48	50.585
300.85	50.656
301.22	49.302
301.59	48.113
301.95	48.891
302.32	50.640
302.69	49.208
303.05	51.403
303.42	49.327
303.79	50.704
304.15	48.735
304.52	48.626
304.89	49.360
305.25	51.835
305.62	49.680
305.99	50.761
306.35	50.632
306.72	51.509
307.09	51.035
307.45	50.475
307.82	48.971
308.19	51.753
308.55	49.700
308.92	50.834
309.29	49.704
309.65	50.248
310.02	51.420
310.38	50.847
310.75	49.277
311.12	50.479
311.48	52.413
311.85	52.099
312.22	52.531
312.58	52.187
312.95	52.621
313.31	52.622
313.68	50.938
314.05	51.648
314.41	50.838
314.78	51.799
315.14	54.692
315.51	54.021
315.87	53.467
316.24	54.622
316.61	52.551
316.97	53.028
317.34	55.526
317.70	55.312
318.07	55.249
318.43	53.954
318.80	55.342
319.16	56.906
319.53	55.664
319.89	55.735
320.26	58.845
320.62	56.868
320.99	59.104
321.35	57.885
321.72	58.539
322.08	59.095
322.45	59.582
322.81	61.940
323.18	58.881
323.54	62.718
323.91	64.823
324.27	63.307
324.64	63.062
325.00	65.603
325.37	66.020
325.73	66.020
326.10	67.191
326.46	67.465
326.83	66.960
327.19	68.916
327.56	67.492
327.92	69.672
328.29	68.903
328.65	70.548
329.01	71.600
329.38	69.797
329.74	70.538
330.11	71.503
330.47	70.418
330.84	71.096
331.20	71.235
331.56	74.352
331.93	74.166
332.29	71.514
332.66	74.320
333.02	71.907
333.38	73.909
333.75	72.977
334.11	74.161
334.48	74.444
334.84	71.622
335.20	71.343
335.57	71.872
335.93	71.909
336.29	69.569
336.66	74.614
337.02	71.771
337.38	72.485
337.75	73.142
338.11	73.249
338.47	71.296
338.84	71.719
339.20	72.727
339.56	71.657
339.93	72.241
340.29	71.092
340.65	72.003
341.02	71.923
341.38	71.346
341.74	73.007
342.11	73.289
342.47	71.534
342.83	73.831
343.20	71.302
343.56	68.944
343.92	71.263
344.28	71.372
344.65	73.024
345.01	70.238
345.37	69.551
345.73	71.667
346.10	69.960
346.46	71.770
346.82	68.596
347.19	69.861
347.55	70.726
347.91	68.505
348.27	70.178
348.63	69.066
349.00	70.449
349.36	72.218
349.72	70.872
350.08	72.127
350.45	69.612
350.81	71.024
351.17	68.336
351.53	70.285
351.89	68.998
352.26	71.126
352.62	69.608
352.98	69.555
353.34	71.803
353.70	70.948
354.07	70.769
354.43	69.432
354.79	68.109
355.15	70.214
355.51	71.073
355.87	69.578
356.24	70.208
356.60	69.559
356.96	69.522
357.32	69.179
357.68	68.135
358.04	70.137
358.40	70.615
358.77	69.572
359.13	69.219
359.49	69.830
359.85	69.993
360.21	68.722
360.57	68.394
360.93	69.625
361.29	69.625
361.66	70.022
362.02	69.602
362.38	69.841
362.74	68.507
363.10	69.355
363.46	68.301
363.82	69.565
364.18	69.915
364.54	70.100
364.90	66.801
365.26	69.813
365.62	68.232
365.98	67.928
366.35	69.517
366.71	69.674
367.07	68.259
367.43	69.510
367.79	67.553
368.15	67.978
368.51	68.573
368.87	68.342
369.23	68.607
369.59	67.363
369.95	68.601
370.31	67.214
370.67	68.008
371.03	68.978
371.39	68.421
371.75	68.039
372.11	67.301
372.47	68.219
372.83	67.777
373.19	67.032
373.55	68.797
373.91	67.749
374.27	66.270
374.63	67.051
374.99	68.127
375.35	69.288
375.71	66.689
376.07	67.905
376.42	65.409
376.78	68.915
377.14	68.349
377.50	67.478
377.86	67.265
378.22	67.520
378.58	68.402
378.94	67.471
379.30	68.344
379.66	66.948
380.02	65.982
380.38	66.920
380.74	67.993
381.09	68.107
381.45	66.243
381.81	66.430
382.17	67.155
382.53	65.687
382.89	66.943
383.25	66.607
383.61	66.052
383.97	67.247
384.32	67.330
384.68	66.072
385.04	67.057
385.40	66.667
385.76	66.062
386.12	67.100
386.48	66.201
386.83	68.337
387.19	65.194
387.55	65.783
387.91	66.282
388.27	66.270
388.62	66.725
388.98	66.472
389.34	64.426
389.70	66.215
390.06	66.646
390.42	64.960
390.77	65.479
391.13	66.687
391.49	64.731
391.85	66.646
392.20	65.614
392.56	65.771
392.92	66.030
393.28	65.527
393.64	65.539
393.99	65.679
394.35	64.509
394.71	65.501
395.07	65.511
395.42	64.637
395.78	66.564
396.14	66.145
396.50	64.922
396.85	65.122
397.21	65.102
397.57	63.897
397.92	63.605
398.28	65.416
398.64	64.863
399.00	64.190
399.35	63.553
399.71	63.742
400.07	64.212
400.42	64.537
400.78	65.513
401.14	64.533
401.49	65.380
401.85	64.311
402.21	64.558
402.57	65.410
402.92	64.424
403.28	63.783
403.63	63.449
403.99	63.631
404.35	63.189
404.70	65.859
405.06	63.560
405.42	64.333
405.77	62.900
406.13	61.876
406.49	62.990
406.84	61.760
407.20	62.842
407.55	63.508
407.91	63.944
408.27	65.130
408.62	64.459
408.98	63.217
409.34	62.595
409.69	62.352
410.05	64.281
410.40	62.250
410.76	62.164
411.11	62.441
411.47	62.346
411.83	61.687
412.18	63.043
412.54	63.183
412.89	61.003
413.25	62.543
413.60	62.617
413.96	62.717
414.31	62.574
414.67	63.191
415.03	62.516
415.38	62.650
415.74	62.666
416.09	63.460
416.45	64.383
416.80	63.887
417.16	61.489
417.51	61.656
417.87	63.392
418.22	61.847
418.58	63.248
418.93	62.165
419.29	62.046
419.64	62.810
420.00	63.663
420.35	63.995
420.71	62.719
421.06	62.743
421.42	62.464
421.77	62.410
422.12	63.120
422.48	60.709
422.83	62.333
423.19	61.825
423.54	61.547
423.90	62.684
424.25	64.007
424.61	64.016
424.96	62.112
425.31	63.547
425.67	63.075
426.02	63.040
426.38	63.302
426.73	63.100
427.09	63.582
427.44	62.465
427.79	62.722
428.15	63.465
428.50	63.886
428.85	63.727
429.21	63.587
429.56	61.017
429.92	62.904
430.27	62.119
430.62	61.919
430.98	61.876
431.33	61.794
431.68	61.728
432.04	62.287
432.39	63.557
432.74	62.354
433.10	64.341
433.45	64.273
433.80	64.368
434.16	63.006
434.51	62.745
434.86	63.146
435.22	63.317
435.57	62.893
435.92	63.631
436.28	64.516
436.63	62.129
436.98	63.795
437.34	63.014
437.69	62.878
438.04	61.935
438.39	62.931
438.75	63.586
439.10	63.627
439.45	61.956
439.81	63.736
440.16	63.071
440.51	62.613
440.86	63.875
441.22	61.905
441.57	63.045
441.92	62.389
442.27	62.526
442.63	62.043
442.98	61.153
443.33	63.685
443.68	62.978
444.03	62.158
444.39	62.994
444.74	63.147
445.09	62.875
445.44	62.646
445.79	63.255
446.15	61.947
446.50	62.975
446.85	63.396
447.20	62.687
447.55	63.948
447.91	63.292
448.26	63.152
448.61	63.295
448.96	62.908
449.31	63.091
449.66	62.569
450.02	61.967
450.37	64.298
450.72	64.187
451.07	63.525
451.42	62.893
451.77	62.944
452.12	63.528
452.47	63.913
452.83	63.493
453.18	62.883
453.53	64.950
453.88	63.829
454.23	64.091
454.58	63.345
454.93	63.151
455.28	63.525
455.63	63.652
455.98	63.057
456.34	64.498
456.69	64.573
457.04	62.470
457.39	62.686
457.74	63.457
458.09	62.493
458.44	62.924
458.79	62.812
459.14	62.520
459.49	62.967
459.84	64.293
460.19	62.599
460.54	62.336
460.89	62.687
461.24	64.147
461.59	63.152
461.94	62.470
462.29	63.158
462.64	65.075
462.99	64.363
463.34	63.318
463.69	63.823
464.04	63.788
464.39	63.423
464.74	62.837
465.09	62.797
465.44	63.003
465.79	62.874
466.14	61.579
466.49	62.724
466.84	62.486
467.19	63.503
467.54	62.462
467.89	62.559
468.24	62.768
468.59	62.083
468.94	62.440
469.29	62.309
469.64	64.309
469.99	63.753
470.34	62.492
470.68	63.034
471.03	66.578
471.38	64.106
471.73	62.443
472.08	63.405
472.43	63.687
472.78	63.380
473.13	61.827
473.48	62.836
473.83	62.073
474.17	62.796
474.52	61.493
474.87	62.990
475.22	63.221
475.57	61.700
475.92	61.267
476.27	61.371
476.61	62.413
476.96	61.599
477.31	62.468
477.66	63.446
478.01	60.598
478.36	63.182
478.70	61.340
479.05	62.448
479.40	61.706
479.75	62.512
480.10	62.827
480.45	60.644
480.79	60.737
481.14	62.244
481.49	61.665
481.84	60.466
482.19	61.834
482.53	60.913
482.88	61.111
483.23	61.254
483.58	62.253
483.92	62.660
484.27	60.916
484.62	61.630
484.97	60.577
485.31	59.191
485.66	58.013
486.01	57.738
486.36	57.340
486.70	56.831
487.05	58.193
487.40	59.330
487.75	58.843
488.09	59.062
488.44	59.911
488.79	60.361
489.13	60.844
489.48	61.207
489.83	60.050
490.17	60.116
490.52	61.671
490.87	60.431
491.22	60.594
491.56	60.826
491.91	61.066
492.26	60.713
492.60	61.640
492.95	61.214
493.30	60.510
493.64	60.557
493.99	61.494
494.34	60.959
494.68	61.355
495.03	61.922
495.37	60.738
495.72	60.793
496.07	60.647
496.41	60.426
496.76	60.194
497.11	60.154
497.45	59.842
497.80	61.585
498.14	60.564
498.49	60.539
498.84	60.607
499.18	58.867
499.53	60.358
499.87	59.614
500.22	60.940
500.56	60.306
500.91	61.410
501.26	60.450
501.60	60.747
501.95	60.081
502.29	59.956
502.64	59.021
502.98	59.493
503.33	60.089
503.67	59.294
504.02	59.651
504.36	60.498
504.71	59.745
505.06	59.972
505.40	59.710
505.75	59.682
506.09	59.589
506.44	59.774
506.78	61.673
507.13	60.882
507.47	59.631
507.82	60.292
508.16	61.049
508.51	59.710
508.85	60.541
509.19	60.744
509.54	59.424
509.88	61.064
510.23	59.412
510.57	59.122
510.92	60.290
511.26	60.392
511.61	59.724
511.95	60.030
512.30	60.200
512.64	60.228
512.98	59.969
513.33	60.502
513.67	60.280
514.02	60.208
514.36	58.515
514.70	60.960
515.05	60.469
515.39	60.143
515.74	61.236
516.08	60.512
516.42	62.131
516.77	60.640
517.11	59.307
517.46	59.644
517.80	59.421
518.14	61.746
518.49	59.537
518.83	59.066
519.17	60.510
519.52	60.131
519.86	60.436
520.20	61.096
520.55	59.808
520.89	59.885
521.23	60.280
521.58	60.528
521.92	59.942
522.26	61.434
522.61	60.547
522.95	62.042
523.29	59.415
523.64	60.289
523.98	61.678
524.32	59.804
524.66	59.652
525.01	59.704
525.35	59.753
525.69	60.024
526.04	60.381
526.38	61.154
526.72	59.069
527.06	59.787
527.41	60.883
527.75	61.047
528.09	59.241
528.43	60.403
528.78	60.346
529.12	61.469
529.46	60.082
529.80	58.762
530.15	59.811
530.49	59.567
530.83	59.415
531.17	59.717
531.51	58.798
531.86	58.031
532.20	58.900
532.54	59.824
532.88	60.150
533.22	59.171
533.57	60.647
533.91	57.984
534.25	58.280
534.59	58.947
534.93	57.736
535.27	56.801
535.62	57.935
535.96	58.511
536.30	60.146
536.64	58.261
536.98	58.842
537.32	59.000
537.66	59.375
538.01	58.204
538.35	57.829
538.69	58.859
539.03	58.333
539.37	57.342
539.71	58.086
540.05	57.169
540.39	58.553
540.73	58.671
541.07	57.591
541.42	59.142
541.76	57.275
542.10	56.412
542.44	57.668
542.78	58.024
543.12	56.748
543.46	57.331
543.80	56.830
544.14	56.966
544.48	56.752
544.82	58.043
545.16	57.316
545.50	57.222
545.84	58.081
546.18	59.038
546.52	56.984
546.86	58.478
547.20	57.300
547.54	56.555
547.88	56.691
548.22	55.677
548.56	54.920
548.90	56.050
549.24	56.349
549.58	56.314
549.92	58.153
550.26	57.336
550.60	56.953
550.94	58.141
551.28	57.310
551.62	59.172
551.96	56.351
552.30	55.570
552.64	57.346
552.98	56.508
553.32	55.570
553.66	55.375
554.00	55.856
554.34	57.257
554.68	58.065
555.02	56.959
555.36	56.848
555.69	56.937
556.03	55.350
556.37	57.234
556.71	56.323
557.05	55.046
557.39	55.933
557.73	55.795
558.07	56.673
558.41	56.546
558.75	56.635
559.08	58.184
559.42	58.482
559.76	56.949
560.10	56.710
560.44	55.275
560.78	55.946
561.12	55.626
561.45	55.382
561.79	54.182
562.13	54.264
562.47	56.197
562.81	56.278
563.15	55.591
563.48	53.727
563.82	56.457
564.16	54.975
564.50	53.647
564.84	53.556
565.17	54.902
565.51	55.234
565.85	55.891
566.19	53.631
566.52	54.272
566.86	55.342
567.20	55.281
567.54	54.421
567.88	53.886
568.21	52.721
568.55	53.016
568.89	52.099
569.23	51.639
569.56	52.037
569.90	50.377
570.24	50.085
570.57	50.130
570.91	50.172
571.25	49.822
571.59	48.505
571.92	48.520
572.26	48.194
572.60	49.181
572.93	50.316
573.27	48.937
573.61	48.917
573.95	49.477
574.28	49.321
574.62	47.997
574.96	47.807
575.29	47.974
575.63	47.562
575.97	47.955
576.30	48.595
576.64	48.115
576.98	48.154
577.31	48.242
577.65	48.084
577.98	48.278
578.32	47.043
578.66	47.648
578.99	47.367
579.33	48.106
579.67	47.357
580.00	47.902
580.34	48.167
580.67	47.740
581.01	47.246
581.35	47.048
581.68	46.618
582.02	46.932
582.35	46.913
582.69	47.118
583.02	47.414
583.36	48.028
583.70	47.637
584.03	48.620
584.37	48.258
584.70	47.474
585.04	47.490
585.37	47.317
585.71	48.000
586.04	46.891
586.38	47.426
586.72	47.181
587.05	47.761
587.39	47.307
587.72	48.207
588.06	47.604
588.39	47.825
588.73	47.262
589.06	47.884
589.40	48.138
589.73	48.443
590.07	49.314
590.40	49.477
590.73	49.908
591.07	49.639
591.40	48.064
591.74	48.985
592.07	48.295
592.41	48.801
592.74	48.261
593.08	46.908
593.41	46.918
593.75	46.501
594.08	46.689
594.41	47.312
594.75	47.637
595.08	47.325
595.42	47.334
595.75	47.516
596.09	48.140
596.42	47.269
596.75	49.079
597.09	48.205
597.42	48.816
597.75	47.383
598.09	47.394
598.42	47.817
598.76	47.301
599.09	47.554
599.42	46.609
599.76	46.065
600.09	46.847
600.42	47.514
600.76	46.057
601.09	47.187
601.42	46.779
601.76	46.187
602.09	47.351
602.42	45.989
602.76	46.945
603.09	46.606
603.42	46.862
603.76	46.963
604.09	45.965
604.42	46.290
604.76	47.886
605.09	46.653
605.42	47.095
605.75	47.019
606.09	46.901
606.42	46.110
606.75	47.338
607.09	46.427
607.42	46.485
607.75	46.457
608.08	46.710
608.42	47.399
608.75	45.657
609.08	47.206
609.41	47.591
609.75	47.207
610.08	47.122
610.41	47.167
610.74	47.229
611.07	47.840
611.41	47.173
611.74	47.275
612.07	47.447
612.40	47.466
612.73	47.828
613.07	47.390
613.40	47.769
613.73	47.129
614.06	46.700
614.39	46.566
614.72	46.660
615.06	46.835
615.39	46.188
615.72	46.176
616.05	46.560
616.38	46.017
616.71	48.128
617.05	47.172
617.38	46.685
617.71	47.919
618.04	48.345
618.37	47.526
618.70	47.055
619.03	47.558
619.36	48.995
619.69	48.219
620.03	49.576
620.36	47.592
620.69	48.851
621.02	48.234
621.35	47.923
621.68	48.525
622.01	50.701
622.34	48.507
622.67	48.736
623.00	48.060
623.33	47.233
623.66	46.973
623.99	49.932
624.32	46.951
624.65	48.782
624.99	49.358
625.32	48.631
625.65	47.586
625.98	47.978
626.31	50.371
626.64	48.064
626.97	49.197
627.30	50.078
627.63	50.157
627.96	48.435
628.29	50.495
628.62	49.444
628.95	49.291
629.28	51.709
629.61	49.385
629.94	49.870
630.26	49.133
630.59	51.064
630.92	48.789
631.25	49.955
631.58	52.073
631.91	50.333
632.24	50.826
632.57	49.411
632.90	53.106
633.23	52.151
633.56	51.739
633.89	49.411
634.22	51.238
634.55	51.720
634.88	51.588
635.20	50.897
635.53	52.729
635.86	51.566
636.19	52.862
636.52	48.324
636.85	48.975
637.18	50.921
637.51	49.050
637.83	50.915
638.16	52.403
638.49	50.180
638.82	53.521
639.15	49.941
639.48	49.882
639.81	52.259
640.13	52.270
640.46	51.201
640.79	53.836
641.12	52.493
641.45	52.652
641.77	52.576
642.10	52.343
642.43	55.050
642.76	52.699
643.09	52.161
643.41	52.454
643.74	52.230
644.07	53.097
644.40	54.438
644.73	53.604
645.05	52.749
645.38	53.599
645.71	55.083
646.04	53.740
646.36	53.834
646.69	51.520
647.02	52.320
647.35	50.709
647.67	54.943
648.00	53.420
648.33	51.278
648.66	51.212
648.98	49.565
649.31	49.528
649.64	49.654
649.96	49.075
650.29	49.714
650.62	48.601
650.94	51.054
651.27	54.386
651.60	54.773
651.92	52.842
652.25	54.173
652.58	50.355
652.90	51.796
653.23	50.369
653.56	51.484
653.88	50.220
654.21	50.440
654.54	50.512
654.86	49.263
655.19	49.077
655.52	43.271
655.84	37.112
656.17	43.707
656.49	62.305
656.82	69.829
657.15	54.772
657.47	41.491
657.80	31.930
658.13	25.821
658.45	35.043
658.78	42.122
659.10	42.598
659.43	42.853
659.75	43.252
660.08	44.799
660.41	46.733
660.73	50.314
661.06	50.901
661.38	52.470
661.71	51.259
662.03	52.662
662.36	52.762
662.68	50.093
663.01	51.712
663.33	52.453
663.66	54.438
663.98	52.381
664.31	51.866
664.63	51.916
664.96	54.034
665.28	51.789
665.61	54.528
665.93	52.642
666.26	51.028
666.58	51.376
666.91	50.965
667.23	52.209
667.56	52.772
667.88	55.602
668.21	52.459
668.53	49.597
668.86	50.902
669.18	51.527
669.50	51.860
669.83	54.825
670.15	53.222
670.48	48.437
670.80	51.394
671.13	52.590
671.45	50.902
671.77	51.948
672.10	49.192
672.42	46.382
672.75	49.525
673.07	49.126
673.39	49.840
673.72	49.827
674.04	48.925
674.37	52.087
674.69	51.859
675.01	48.321
675.34	50.000
675.66	50.781
675.98	49.310
676.31	51.800
676.63	49.702
676.95	51.587
677.28	49.087
677.60	50.101
677.92	47.619
678.25	47.868
678.57	49.534
678.89	47.920
679.22	50.919
679.54	48.221
679.86	50.611
680.18	49.209
680.51	47.264
680.83	44.764
681.15	46.794
681.48	50.347
681.80	45.534
682.12	47.059
682.44	47.748
682.77	50.178
683.09	49.320
683.41	52.041
683.73	50.394
684.06	49.405
684.38	49.612
684.70	45.504
685.02	47.222
685.34	47.887
685.67	48.392
685.99	48.933
686.31	46.687
686.63	45.691
686.96	47.222
687.28	46.309
687.60	47.611
687.92	45.561
688.24	46.724
688.56	48.221
688.89	45.315
689.21	49.711
689.53	51.383
689.85	47.764
690.17	47.379
690.49	50.202
690.82	48.109
691.14	51.313
691.46	51.540
691.78	48.928
692.10	46.947
692.42	44.283
692.74	49.419
693.06	48.062
693.39	46.640
693.71	46.955
694.03	45.957
694.35	49.398
694.67	45.010
694.99	48.559
695.31	51.577
695.63	49.321
695.95	47.738
696.27	51.991
696.59	51.790
696.91	50.633
697.23	48.643
697.56	46.888
697.88	44.511
698.20	46.792
698.52	44.163
698.84	47.433
699.16	50.533
699.48	49.153
699.80	49.020
700.12	51.501
700.44	45.794
700.76	47.255
701.08	49.086
701.40	51.948
701.72	52.139
702.04	55.556
702.36	50.000
702.68	50.000
703.00	48.872
703.32	48.635
703.64	51.134
703.96	49.479
704.28	51.852
704.60	49.859
704.91	49.860
705.23	51.989
705.55	54.599
705.87	51.746
706.19	54.545
706.51	54.232
706.83	48.968
707.15	51.337
707.47	51.574
707.79	48.966
708.11	48.299
708.43	46.966
708.74	46.606
709.06	48.372
709.38	50.372
709.70	52.044
710.02	49.457
710.34	50.276
710.66	51.389
710.98	51.913
711.29	49.861
711.61	50.418
711.93	51.672
712.25	49.398
712.57	54.984
712.89	50.303
713.20	54.952
713.52	50.156
713.84	50.755
714.16	49.565
714.48	45.533
714.80	45.799
715.11	48.404
715.43	49.162
715.75	49.014
716.07	47.977
716.39	48.857
716.70	47.975
717.02	55.556
717.34	52.878
717.66	51.389
717.97	59.848
718.29	51.056
718.61	46.622
718.93	54.671
719.24	52.013
719.56	53.448
719.88	47.134
720.20	52.903
720.51	48.039
720.83	50.502
721.15	53.741
721.46	51.712
721.78	49.826
722.10	50.694
722.42	53.177
722.73	46.209
723.05	50.877
723.37	55.830
723.68	53.516
724.00	53.030
724.32	56.274
724.63	49.231
724.95	52.549
725.27	55.762
725.58	50.368
725.90	48.592
726.22	47.945
726.53	52.843
726.85	49.511
727.16	51.678
727.48	51.827
727.80	53.597
728.11	50.000
728.43	50.000
728.74	47.552
729.06	45.161
729.38	49.123
729.69	54.667
730.01	52.303
730.32	47.987
730.64	50.498
730.96	46.847
731.27	44.954
731.59	44.828
731.90	45.682
732.22	46.000
732.53	42.450
732.85	50.585
733.16	47.289
733.48	45.141
733.80	50.435
734.11	49.693
734.43	43.275
734.74	46.649
735.06	43.122
735.37	45.361
735.69	44.638
736.00	50.153
736.32	43.939
736.63	45.741
736.95	45.963
737.26	46.646
737.58	50.613
737.89	45.482
738.21	48.013
738.52	46.823
738.83	54.945
739.15	45.296
739.46	47.586
739.78	49.320
740.09	47.813
740.41	47.853
740.72	46.984
741.04	50.350
741.35	52.344
741.66	49.012
741.98	54.506
742.29	53.241
742.61	46.903
742.92	50.847
743.23	52.800
743.55	47.170
743.86	49.020
744.18	47.458
744.49	53.719
744.80	56.221
745.12	54.464
745.43	60.280
745.74	51.111
746.06	52.632
746.37	54.419
746.68	57.965
747.00	55.605
747.31	50.000
747.62	49.590
747.94	50.644
748.25	46.693
748.56	55.508
748.88	52.679
749.19	47.907
749.50	51.142
749.82	51.852
750.13	50.988
750.44	48.333
750.75	52.013
751.07	49.013
751.38	47.525
751.69	46.465
752.01	47.902
752.32	45.847
752.63	47.987
752.94	50.699
753.26	51.172
753.57	52.140
753.88	49.064
754.19	45.848
754.51	48.837
754.82	46.309
755.13	46.284
755.44	51.852
755.75	47.079
756.07	48.288
756.38	47.386
756.69	46.563
757.00	45.994
757.31	41.690
757.63	44.077
757.94	44.415
758.25	43.961
758.56	43.021
758.87	45.614
759.18	45.640
759.50	43.769
759.81	44.807
760.12	44.944
760.43	44.258
760.74	43.038
761.05	45.889
761.36	41.927
761.67	43.935
761.99	43.944
762.30	42.765
762.61	44.097
762.92	49.621
763.23	46.415
763.54	45.385
763.85	49.416
764.16	45.486
764.47	45.270
764.78	41.694
765.10	44.207
765.41	43.182
765.72	42.265
766.03	41.994
766.34	47.387
766.65	52.471
766.96	49.798
767.27	50.000
767.58	55.446
767.89	53.039
768.20	62.195
768.51	52.041
768.82	53.947
769.13	48.235
769.44	48.120
769.75	47.566
770.06	45.378
770.37	46.491
770.68	51.111
770.99	50.000
771.30	53.556
771.61	47.692
771.92	47.328
772.23	42.742
772.54	45.333
772.85	54.455
773.16	52.717
773.47	60.556
773.78	53.960
774.09	55.682
774.39	62.424
774.70	52.353
775.01	52.632
775.32	57.764
775.63	63.699
775.94	61.111
776.25	59.310
776.56	67.939
776.87	71.756
777.18	56.061
777.48	68.504
777.79	65.385
778.10	68.182
778.41	70.149
778.72	62.406
779.03	49.359
779.34	59.459
779.65	60.870
779.95	54.658
780.26	52.976
780.57	70.068
780.88	56.738
781.19	65.000
781.50	55.621
781.80	54.645
782.11	48.677
782.42	55.172
782.73	52.542
783.04	50.323
783.34	53.488
783.65	57.823
783.96	58.710
784.27	59.603
784.57	63.816
784.88	62.319
785.19	49.167
785.50	68.103
785.81	72.868
786.11	57.037
786.42	57.480
786.73	68.468
787.04	66.981
787.34	57.724
787.65	66.667
787.96	60.606
788.26	66.929
788.57	59.854
788.88	64.085
789.19	54.198
789.49	66.216
789.80	59.375
790.11	53.719
790.41	65.741
790.72	64.815
791.03	68.269
791.33	69.697
791.64	72.632
791.95	61.053
792.25	68.750
792.56	63.000
792.87	71.951
793.17	75.000
793.48	62.353
793.79	72.414
794.09	70.455
794.40	68.103
794.70	53.968
795.01	58.462
795.32	61.069
795.62	60.684
795.93	66.387
796.23	56.098
796.54	75.510
796.85	78.409
797.15	90.909
797.46	92.683
797.76	83.750
798.07	82.667
798.37	81.250
798.68	73.750
798.99	84.146
799.29	70.667
799.60	62.791
799.90	73.684
800.21	92.424
800.51	76.056
800.82	100.000
801.12	95.385
801.43	80.000
801.73	79.310
802.04	89.610
802.34	78.082
802.65	94.118
802.95	106.522
803.26	83.871
803.56	108.333
803.87	85.075
804.17	88.889
804.48	107.547
804.78	72.222
805.09	90.909
805.39	85.714
805.70	94.737
806.00	70.000
806.30	85.938
806.61	78.824
806.91	75.556
807.22	73.913
807.52	75.000
807.83	85.526
808.13	81.159
808.43	95.161
808.74	79.452
809.04	92.857
809.35	80.882
809.65	95.455
809.95	103.922
810.26	118.519
810.56	100.000
810.86	95.918
811.17	105.263
811.47	91.304
811.77	81.034
812.08	84.483
812.38	116.667
812.69	123.810
812.99	88.889
813.29	137.143
813.59	132.258
813.90	81.034
814.20	83.607
814.50	108.000
814.81	89.474
815.11	105.556
815.41	98.214
815.72	96.429
816.02	110.000
816.32	119.512
816.62	91.379
816.93	160.606
817.23	124.390
817.53	92.857
817.84	117.778
818.14	109.524
818.44	102.083
818.74	101.887
819.04	100.000
819.35	139.394
819.65	105.769
819.95	109.259
820.25	117.021
820.56	140.541
820.86	131.579
821.16	68.085
821.46	157.895
821.76	110.909
822.07	107.143
822.37	123.684
822.67	111.628
822.97	94.737
823.27	115.217
823.57	112.500
823.88	130.769
824.18	121.212
824.48	165.217
824.78	127.778
825.08	139.130
825.38	144.828
825.69	144.118
825.99	106.383
826.29	80.556
826.59	145.714
826.89	150.000
827.19	122.857
827.49	132.258
827.79	192.308
828.09	90.476
828.39	108.333
828.70	121.622
829.00	171.429
829.30	206.250
829.60	133.333
829.90	170.968
830.20	109.091
830.50	154.054
830.80	200.000
831.10	176.923
831.40	157.143
831.70	187.500
832.00	150.000
832.30	186.957
832.60	204.167
832.90	154.545
833.20	215.000
833.50	123.684
833.80	97.059
834.10	102.632
834.40	168.421
834.70	130.000
835.00	208.000
835.30	108.108
835.60	134.375
835.90	137.838
836.20	142.308
836.50	195.455
836.80	114.634
837.10	182.609
837.40	330.769
837.70	184.211
838.00	166.667
838.30	191.667
838.60	204.000
838.90	370.000
839.19	200.000
839.49	103.333
839.79	103.448
840.09	142.308
840.39	233.333
840.69	247.368
840.99	133.333
841.29	169.565
841.59	220.000
841.88	176.000
842.18	266.667
842.48	171.429
842.78	177.778
843.08	230.769
843.38	150.000
843.68	285.714
843.97	471.429
844.27	186.957
844.57	1950.000
844.87	307.143
845.17	188.889
845.47	128.571
845.76	191.667
846.06	671.429
846.36	158.824
846.66	207.692
846.96	218.750
847.25	284.615
847.55	147.368
847.85	183.333
848.15	520.000
848.44	281.818
848.74	195.238
849.04	170.833
849.34	235.294
849.63	281.250
849.93	275.000
850.23	700.000
850.53	412.500
850.82	390.909
851.12	294.118
851.42	229.167
851.71	243.750
852.01	0.000
852.31	217.647
852.61	530.000
852.90	158.333
853.20	400.000
853.50	-2300.000
853.79	168.000
854.09	156.250
854.39	144.828
854.68	193.103
854.98	185.714
855.28	109.677
855.57	228.571
855.87	205.556
856.17	166.667
856.46	200.000
856.76	109.677
857.05	217.647
857.35	336.364
857.65	230.769
857.94	220.000
858.24	455.556
858.53	314.286
858.83	585.714
859.13	221.739
859.42	322.222
859.72	475.000
860.01	275.000
860.31	800.000
860.60	400.000
860.90	400.000
861.20	284.615
861.49	385.714
861.79	-3700.000
862.08	628.571
862.38	444.444
862.67	185.714
862.97	410.000
863.26	150.000
863.56	900.000
863.85	284.615
864.15	288.235
864.44	133.333
864.74	283.333
865.03	372.727
865.33	362.500
865.62	280.000
865.92	500.000
866.21	700.000
866.51	700.000
866.80	194.444
867.10	933.333
867.39	3200.000
867.69	600.000
867.98	1250.000
868.27	176.190
868.57	326.667
868.86	925.000
869.16	147.619
869.45	4100.000
869.75	-533.333
870.04	950.000
870.33	540.000
870.63	450.000
870.92	223.529
871.22	625.000
871.51	400.000
871.80	366.667
872.10	284.615
>>>>>End Processed Spectral Data<<<<<
