SpectraSuite Data File
++++++++++++++++++++++++++++++++++++
Date: Tue May 12 17:19:08 PDT 2015
User: schluterlab
Dark Spectrum Present: Yes
Reference Spectrum Present: Yes
Number of Sampled Component Spectra: 1
Spectrometers: USB2E3373
Integration Time (usec): 3000 (USB2E3373)
Spectra Averaged: 3 (USB2E3373)
Boxcar Smoothing: 0 (USB2E3373)
Correct for Electrical Dark: No (USB2E3373)
Strobe/Lamp Enabled: No (USB2E3373)
Correct for Detector Non-linearity: No (USB2E3373)
Correct for Stray Light: No (USB2E3373)
Number of Pixels in Processed Spectrum: 2048
>>>>>Begin Processed Spectral Data<<<<<
178.53	0.000
178.91	-266.667
179.29	-900.000
179.67	-2800.000
180.04	-133.333
180.42	775.000
180.80	1700.000
181.18	0.000
181.56	-225.000
181.94	0.000
182.31	766.667
182.69	-3300.000
183.07	614.286
183.45	-2900.000
183.83	-1650.000
184.20	420.000
184.58	528.571
184.96	-184.615
185.34	-333.333
185.72	1700.000
186.09	-725.000
186.47	-3700.000
186.85	1033.333
187.23	820.000
187.61	2000.000
187.98	500.000
188.36	257.143
188.74	341.667
189.12	391.667
189.49	1025.000
189.87	0.000
190.25	662.500
190.63	3300.000
191.00	-166.667
191.38	-3600.000
191.76	-550.000
192.14	512.500
192.51	-2700.000
192.89	1700.000
193.27	1033.333
193.65	-1200.000
194.02	-740.000
194.40	571.429
194.78	-164.286
195.15	293.333
195.53	-3400.000
195.91	-720.000
196.29	4200.000
196.66	231.250
197.04	800.000
197.42	-1650.000
197.79	650.000
198.17	383.333
198.55	0.000
198.92	557.143
199.30	1133.333
199.68	1850.000
200.05	716.667
200.43	-400.000
200.81	250.000
201.18	3400.000
201.56	341.667
201.94	-625.000
202.31	-362.500
202.69	-540.000
203.07	2900.000
203.44	-383.333
203.82	358.333
204.19	780.000
204.57	-1500.000
204.95	-775.000
205.32	-820.000
205.70	583.333
206.08	650.000
206.45	-600.000
206.83	422.222
207.20	205.263
207.58	308.333
207.96	740.000
208.33	0.000
208.71	528.571
209.08	440.000
209.46	-2800.000
209.84	-975.000
210.21	720.000
210.59	-560.000
210.96	366.667
211.34	-1000.000
211.71	372.727
212.09	975.000
212.46	1850.000
212.84	-550.000
213.22	366.667
213.59	-3100.000
213.97	300.000
214.34	800.000
214.72	1266.667
215.09	1233.333
215.47	-3400.000
215.84	-320.000
216.22	-337.500
216.59	0.000
216.97	0.000
217.34	1400.000
217.72	-1350.000
218.09	1233.333
218.47	512.500
218.84	725.000
219.22	1133.333
219.59	866.667
219.97	557.143
220.34	377.778
220.72	1250.000
221.09	3900.000
221.47	333.333
221.84	1300.000
222.22	430.000
222.59	283.333
222.97	264.286
223.34	231.250
223.72	-1200.000
224.09	1166.667
224.46	315.385
224.84	-850.000
225.21	400.000
225.59	246.667
225.96	1833.333
226.34	-880.000
226.71	-675.000
227.08	-680.000
227.46	0.000
227.83	-500.000
228.21	-2150.000
228.58	383.333
228.95	900.000
229.33	277.778
229.70	1050.000
230.08	338.462
230.45	4200.000
230.82	-950.000
231.20	-566.667
231.57	-1233.333
231.95	520.000
232.32	291.667
232.69	583.333
233.07	216.667
233.44	-1300.000
233.81	273.333
234.19	159.259
234.56	200.000
234.93	147.059
235.31	200.000
235.68	268.750
236.05	203.571
236.43	140.741
236.80	257.143
237.17	158.621
237.55	131.250
237.92	120.000
238.29	115.152
238.67	140.625
239.04	117.073
239.41	77.083
239.79	70.000
240.16	66.667
240.53	68.852
240.91	66.667
241.28	64.407
241.65	77.273
242.02	73.239
242.40	57.143
242.77	63.736
243.14	41.772
243.51	62.626
243.89	57.944
244.26	46.729
244.63	53.465
245.00	54.128
245.38	40.678
245.75	46.970
246.12	45.185
246.49	51.064
246.87	36.885
247.24	35.333
247.61	43.125
247.98	43.537
248.36	40.000
248.73	34.184
249.10	37.500
249.47	37.000
249.84	35.821
250.22	42.162
250.59	35.000
250.96	34.599
251.33	35.349
251.70	36.607
252.08	32.773
252.45	31.474
252.82	31.939
253.19	29.644
253.56	27.692
253.94	32.971
254.31	32.946
254.68	32.056
255.05	33.793
255.42	28.102
255.79	32.573
256.16	32.203
256.54	30.844
256.91	28.105
257.28	29.431
257.65	27.586
258.02	25.074
258.39	29.513
258.76	29.855
259.14	24.000
259.51	27.988
259.88	27.052
260.25	27.473
260.62	28.493
260.99	25.620
261.36	24.791
261.73	26.862
262.10	25.393
262.47	21.250
262.85	26.933
263.22	29.049
263.59	25.320
263.96	30.827
264.33	26.914
264.70	27.764
265.07	28.780
265.44	27.752
265.81	26.651
266.18	25.629
266.55	27.660
266.92	24.161
267.29	28.509
267.66	26.457
268.03	26.682
268.40	26.427
268.77	25.110
269.14	24.295
269.51	25.390
269.88	27.959
270.25	23.110
270.62	26.609
270.99	26.572
271.36	26.423
271.73	25.786
272.10	25.657
272.47	22.817
272.84	22.355
273.21	26.033
273.58	26.316
273.95	25.051
274.32	26.459
274.69	25.591
275.06	25.865
275.43	25.479
275.80	24.906
276.17	24.265
276.54	25.047
276.91	24.254
277.28	23.905
277.65	23.801
278.02	23.897
278.39	24.820
278.76	24.310
279.13	23.488
279.50	24.182
279.87	22.160
280.23	21.547
280.60	24.453
280.97	23.276
281.34	23.927
281.71	24.000
282.08	24.274
282.45	23.986
282.82	24.749
283.19	24.642
283.56	23.140
283.92	24.593
284.29	24.958
284.66	22.017
285.03	23.383
285.40	21.488
285.77	20.370
286.14	23.994
286.51	22.086
286.87	20.095
287.24	20.721
287.61	22.644
287.98	22.537
288.35	22.519
288.72	21.244
289.08	20.871
289.45	21.799
289.82	23.281
290.19	21.816
290.56	23.144
290.93	20.576
291.29	20.856
291.66	20.763
292.03	22.721
292.40	20.867
292.77	20.613
293.13	20.257
293.50	19.028
293.87	20.054
294.24	19.301
294.60	20.727
294.97	19.860
295.34	18.592
295.71	19.448
296.08	19.733
296.44	20.330
296.81	18.734
297.18	18.631
297.55	20.567
297.91	18.103
298.28	18.961
298.65	17.423
299.02	18.818
299.38	19.424
299.75	19.390
300.12	18.922
300.48	20.375
300.85	20.739
301.22	18.372
301.59	19.340
301.95	17.620
302.32	18.859
302.69	18.778
303.05	19.865
303.42	17.489
303.79	19.393
304.15	17.822
304.52	18.393
304.89	20.362
305.25	20.133
305.62	20.469
305.99	18.696
306.35	20.000
306.72	19.563
307.09	19.048
307.45	18.902
307.82	20.473
308.19	20.619
308.55	18.800
308.92	20.216
309.29	21.499
309.65	21.407
310.02	21.095
310.38	20.339
310.75	21.311
311.12	19.732
311.48	21.525
311.85	21.660
312.22	23.018
312.58	21.477
312.95	22.233
313.31	23.315
313.68	22.045
314.05	24.542
314.41	23.184
314.78	24.148
315.14	24.645
315.51	25.166
315.87	24.635
316.24	25.117
316.61	25.246
316.97	25.596
317.34	27.134
317.70	26.251
318.07	28.470
318.43	28.120
318.80	27.145
319.16	28.147
319.53	29.912
319.89	29.032
320.26	30.726
320.62	29.762
320.99	30.791
321.35	29.221
321.72	33.302
322.08	32.964
322.45	32.516
322.81	32.296
323.18	33.837
323.54	34.669
323.91	35.539
324.27	34.748
324.64	35.727
325.00	35.603
325.37	35.666
325.73	36.594
326.10	37.117
326.46	36.334
326.83	36.880
327.19	39.116
327.56	38.419
327.92	39.180
328.29	38.543
328.65	38.356
329.01	40.633
329.38	38.409
329.74	39.795
330.11	41.008
330.47	39.727
330.84	39.517
331.20	41.455
331.56	42.573
331.93	41.146
332.29	40.391
332.66	41.156
333.02	41.495
333.38	41.885
333.75	40.534
334.11	41.107
334.48	41.111
334.84	41.723
335.20	42.087
335.57	41.394
335.93	41.548
336.29	41.459
336.66	42.882
337.02	41.061
337.38	41.359
337.75	41.301
338.11	41.941
338.47	42.422
338.84	43.353
339.20	41.212
339.56	42.809
339.93	41.806
340.29	41.008
340.65	42.582
341.02	42.558
341.38	42.036
341.74	42.774
342.11	42.905
342.47	42.822
342.83	42.904
343.20	41.795
343.56	41.144
343.92	43.353
344.28	42.424
344.65	43.602
345.01	42.222
345.37	41.346
345.73	41.270
346.10	41.673
346.46	44.179
346.82	42.052
347.19	42.581
347.55	43.247
347.91	41.314
348.27	42.603
348.63	43.750
349.00	41.584
349.36	43.268
349.72	42.508
350.08	42.624
350.45	44.402
350.81	42.049
351.17	42.065
351.53	43.033
351.89	41.958
352.26	43.008
352.62	43.288
352.98	42.485
353.34	43.914
353.70	42.890
354.07	43.308
354.43	44.931
354.79	42.901
355.15	42.879
355.51	43.882
355.87	43.373
356.24	44.034
356.60	42.922
356.96	43.290
357.32	42.577
357.68	43.319
358.04	43.465
358.40	44.753
358.77	45.079
359.13	44.595
359.49	44.255
359.85	43.261
360.21	43.314
360.57	43.723
360.93	44.517
361.29	43.074
361.66	44.519
362.02	42.827
362.38	44.517
362.74	44.657
363.10	44.390
363.46	43.025
363.82	44.600
364.18	45.448
364.54	45.279
364.90	44.980
365.26	44.830
365.62	44.544
365.98	44.391
366.35	44.276
366.71	44.969
367.07	44.915
367.43	44.325
367.79	43.949
368.15	43.555
368.51	44.935
368.87	44.022
369.23	45.669
369.59	45.381
369.95	45.035
370.31	44.901
370.67	43.234
371.03	45.938
371.39	46.607
371.75	45.010
372.11	44.663
372.47	44.726
372.83	45.683
373.19	46.196
373.55	44.192
373.91	45.649
374.27	44.841
374.63	44.678
374.99	44.677
375.35	45.094
375.71	45.251
376.07	44.761
376.42	44.373
376.78	44.380
377.14	46.986
377.50	44.507
377.86	44.266
378.22	44.912
378.58	46.186
378.94	44.719
379.30	45.482
379.66	45.816
380.02	46.334
380.38	44.906
380.74	45.963
381.09	45.035
381.45	44.971
381.81	45.449
382.17	44.567
382.53	45.771
382.89	44.116
383.25	44.997
383.61	44.784
383.97	45.171
384.32	45.630
384.68	45.930
385.04	44.900
385.40	44.840
385.76	44.119
386.12	44.836
386.48	45.957
386.83	45.232
387.19	45.053
387.55	44.464
387.91	44.861
388.27	45.330
388.62	44.308
388.98	44.840
389.34	44.378
389.70	43.514
390.06	45.000
390.42	44.417
390.77	44.840
391.13	45.745
391.49	45.009
391.85	44.862
392.20	43.921
392.56	43.728
392.92	43.066
393.28	44.170
393.64	42.947
393.99	44.576
394.35	43.732
394.71	43.788
395.07	44.465
395.42	43.618
395.78	45.157
396.14	44.940
396.50	44.224
396.85	43.476
397.21	43.321
397.57	42.738
397.92	41.826
398.28	43.243
398.64	43.514
399.00	42.277
399.35	42.834
399.71	43.267
400.07	42.523
400.42	42.388
400.78	43.226
401.14	43.100
401.49	42.569
401.85	43.105
402.21	43.468
402.57	43.387
402.92	42.424
403.28	41.468
403.63	41.730
403.99	42.220
404.35	42.497
404.70	43.768
405.06	41.887
405.42	42.071
405.77	41.125
406.13	41.757
406.49	41.217
406.84	41.230
407.20	41.724
407.55	42.831
407.91	41.481
408.27	42.147
408.62	42.283
408.98	41.573
409.34	41.262
409.69	40.946
410.05	42.159
410.40	41.814
410.76	40.412
411.11	41.410
411.47	40.988
411.83	40.598
412.18	40.519
412.54	41.081
412.89	39.705
413.25	42.132
413.60	41.414
413.96	41.532
414.31	40.968
414.67	41.341
415.03	41.379
415.38	41.325
415.74	40.745
416.09	40.600
416.45	40.789
416.80	41.886
417.16	40.420
417.51	41.083
417.87	39.549
418.22	40.887
418.58	41.083
418.93	40.214
419.29	39.741
419.64	40.279
420.00	41.408
420.35	40.883
420.71	39.848
421.06	39.906
421.42	39.724
421.77	39.756
422.12	40.849
422.48	39.753
422.83	40.402
423.19	39.795
423.54	39.331
423.90	40.204
424.25	40.561
424.61	40.221
424.96	39.356
425.31	39.683
425.67	39.955
426.02	40.045
426.38	39.965
426.73	40.544
427.09	39.502
427.44	41.193
427.79	40.423
428.15	41.131
428.50	40.571
428.85	39.976
429.21	39.600
429.56	39.880
429.92	38.836
430.27	38.897
430.62	38.179
430.98	39.271
431.33	38.710
431.68	38.568
432.04	40.248
432.39	39.901
432.74	39.988
433.10	40.476
433.45	39.747
433.80	40.210
434.16	38.833
434.51	39.267
434.86	39.358
435.22	39.816
435.57	40.308
435.92	41.264
436.28	40.956
436.63	40.194
436.98	39.471
437.34	39.269
437.69	38.858
438.04	39.301
438.39	39.463
438.75	39.588
439.10	39.180
439.45	38.949
439.81	39.907
440.16	39.516
440.51	38.682
440.86	40.228
441.22	39.394
441.57	40.210
441.92	38.697
442.27	39.381
442.63	38.720
442.98	38.039
443.33	39.689
443.68	39.185
444.03	38.454
444.39	39.595
444.74	38.975
445.09	40.021
445.44	38.629
445.79	39.035
446.15	38.895
446.50	38.291
446.85	38.297
447.20	38.856
447.55	39.532
447.91	40.064
448.26	38.978
448.61	39.746
448.96	39.869
449.31	39.329
449.66	40.033
450.02	39.438
450.37	39.089
450.72	39.835
451.07	38.976
451.42	39.775
451.77	39.404
452.12	38.627
452.47	40.036
452.83	39.042
453.18	39.640
453.53	39.313
453.88	39.429
454.23	40.093
454.58	38.695
454.93	40.159
455.28	40.086
455.63	38.712
455.98	38.184
456.34	39.088
456.69	38.780
457.04	39.618
457.39	38.343
457.74	39.865
458.09	38.405
458.44	39.321
458.79	38.355
459.14	38.953
459.49	38.958
459.84	39.130
460.19	37.966
460.54	39.316
460.89	38.326
461.24	38.488
461.59	38.719
461.94	38.593
462.29	39.016
462.64	39.950
462.99	38.708
463.34	38.885
463.69	39.685
464.04	38.687
464.39	38.580
464.74	37.632
465.09	38.712
465.44	37.323
465.79	37.289
466.14	37.626
466.49	38.524
466.84	37.625
467.19	38.430
467.54	38.198
467.89	38.732
468.24	38.274
468.59	37.857
468.94	39.130
469.29	38.607
469.64	39.293
469.99	38.368
470.34	37.445
470.68	38.759
471.03	38.426
471.38	38.609
471.73	38.994
472.08	38.943
472.43	37.865
472.78	39.117
473.13	38.486
473.48	39.120
473.83	38.457
474.17	37.994
474.52	38.389
474.87	38.147
475.22	37.978
475.57	37.880
475.92	37.455
476.27	36.834
476.61	36.568
476.96	37.043
477.31	38.201
477.66	39.077
478.01	37.545
478.36	36.869
478.70	36.873
479.05	37.186
479.40	37.252
479.75	38.332
480.10	37.270
480.45	36.975
480.79	35.806
481.14	37.042
481.49	36.917
481.84	35.840
482.19	35.939
482.53	35.573
482.88	37.410
483.23	36.626
483.58	36.715
483.92	36.472
484.27	36.515
484.62	36.927
484.97	36.580
485.31	35.228
485.66	34.054
486.01	33.054
486.36	32.888
486.70	32.484
487.05	33.462
487.40	33.167
487.75	33.013
488.09	33.722
488.44	34.066
488.79	34.051
489.13	35.050
489.48	35.957
489.83	35.571
490.17	35.508
490.52	36.090
490.87	35.690
491.22	36.082
491.56	35.881
491.91	34.722
492.26	35.902
492.60	35.626
492.95	34.980
493.30	35.669
493.64	35.535
493.99	35.286
494.34	35.948
494.68	35.857
495.03	34.890
495.37	36.290
495.72	35.571
496.07	35.894
496.41	34.926
496.76	35.416
497.11	35.476
497.45	35.160
497.80	35.867
498.14	35.460
498.49	35.144
498.84	35.654
499.18	34.598
499.53	35.875
499.87	34.726
500.22	35.974
500.56	35.190
500.91	35.946
501.26	35.691
501.60	35.200
501.95	35.081
502.29	35.289
502.64	34.230
502.98	33.837
503.33	34.744
503.67	33.996
504.02	34.483
504.36	34.434
504.71	35.904
505.06	34.819
505.40	34.347
505.75	34.518
506.09	34.671
506.44	35.009
506.78	35.491
507.13	35.240
507.47	35.323
507.82	35.864
508.16	35.473
508.51	35.169
508.85	34.853
509.19	35.536
509.54	35.693
509.88	35.704
510.23	35.735
510.57	33.880
510.92	35.764
511.26	35.944
511.61	34.318
511.95	35.291
512.30	35.000
512.64	35.047
512.98	34.956
513.33	35.400
513.67	35.318
514.02	34.545
514.36	35.306
514.70	35.307
515.05	35.109
515.39	35.691
515.74	36.905
516.08	35.458
516.42	35.847
516.77	35.947
517.11	36.107
517.46	35.614
517.80	35.117
518.14	36.394
518.49	36.273
518.83	35.549
519.17	35.940
519.52	35.882
519.86	36.785
520.20	36.493
520.55	35.953
520.89	36.034
521.23	36.507
521.58	35.227
521.92	34.985
522.26	35.900
522.61	35.591
522.95	36.757
523.29	35.673
523.64	35.780
523.98	36.561
524.32	35.813
524.66	35.942
525.01	35.503
525.35	35.592
525.69	35.762
526.04	36.169
526.38	36.139
526.72	36.516
527.06	35.896
527.41	36.094
527.75	36.519
528.09	35.099
528.43	36.120
528.78	36.076
529.12	37.327
529.46	35.944
529.80	35.631
530.15	35.298
530.49	34.477
530.83	34.918
531.17	35.732
531.51	35.193
531.86	34.903
532.20	35.476
532.54	34.589
532.88	35.103
533.22	35.344
533.57	35.143
533.91	34.266
534.25	34.737
534.59	34.327
534.93	34.585
535.27	33.523
535.62	33.956
535.96	34.338
536.30	36.076
536.64	35.776
536.98	34.235
537.32	34.250
537.66	33.865
538.01	33.994
538.35	33.936
538.69	33.556
539.03	33.706
539.37	33.981
539.71	34.568
540.05	33.538
540.39	34.088
540.73	34.177
541.07	33.563
541.42	33.955
541.76	35.018
542.10	33.724
542.44	34.476
542.78	34.802
543.12	32.822
543.46	34.023
543.80	33.647
544.14	33.932
544.48	33.273
544.82	32.905
545.16	31.815
545.50	33.866
545.84	34.028
546.18	34.265
546.52	34.492
546.86	33.849
547.20	32.558
547.54	32.616
547.88	33.273
548.22	33.090
548.56	32.940
548.90	32.681
549.24	33.102
549.58	33.376
549.92	33.792
550.26	33.198
550.60	33.666
550.94	33.582
551.28	34.345
551.62	34.690
551.96	34.257
552.30	32.498
552.64	32.557
552.98	32.410
553.32	33.099
553.66	32.313
554.00	33.076
554.34	32.956
554.68	33.333
555.02	32.994
555.36	32.513
555.69	33.770
556.03	31.592
556.37	32.887
556.71	33.768
557.05	31.389
557.39	32.333
557.73	33.827
558.07	33.535
558.41	34.202
558.75	33.037
559.08	33.024
559.42	33.930
559.76	34.070
560.10	32.416
560.44	32.714
560.78	33.120
561.12	32.994
561.45	31.915
561.79	32.210
562.13	31.965
562.47	31.927
562.81	32.466
563.15	32.321
563.48	30.497
563.82	33.063
564.16	32.525
564.50	31.826
564.84	32.462
565.17	30.719
565.51	32.328
565.85	32.202
566.19	30.952
566.52	30.746
566.86	31.057
567.20	31.798
567.54	30.731
567.88	30.934
568.21	29.606
568.55	29.572
568.89	28.786
569.23	29.379
569.56	28.834
569.90	28.063
570.24	27.530
570.57	27.515
570.91	26.927
571.25	27.135
571.59	26.706
571.92	26.534
572.26	26.092
572.60	26.187
572.93	26.711
573.27	26.134
573.61	25.934
573.95	26.270
574.28	26.103
574.62	26.176
574.96	24.932
575.29	25.153
575.63	25.371
575.97	25.195
576.30	24.779
576.64	25.541
576.98	25.401
577.31	25.465
577.65	25.344
577.98	24.610
578.32	24.573
578.66	24.844
578.99	25.320
579.33	24.650
579.67	24.556
580.00	25.109
580.34	25.101
580.67	24.430
581.01	24.885
581.35	24.389
581.68	24.195
582.02	24.508
582.35	24.159
582.69	24.778
583.02	24.127
583.36	24.341
583.70	25.271
584.03	25.429
584.37	25.265
584.70	25.330
585.04	24.506
585.37	24.414
585.71	25.056
586.04	24.147
586.38	25.233
586.72	25.251
587.05	24.575
587.39	24.855
587.72	24.933
588.06	24.758
588.39	25.000
588.73	24.925
589.06	25.007
589.40	25.728
589.73	25.139
590.07	26.081
590.40	25.540
590.73	26.441
591.07	26.490
591.40	26.347
591.74	25.893
592.07	25.166
592.41	26.459
592.74	25.888
593.08	24.805
593.41	24.835
593.75	24.275
594.08	25.254
594.41	25.383
594.75	25.240
595.08	26.132
595.42	25.016
595.75	25.008
596.09	25.443
596.42	25.346
596.75	26.122
597.09	26.248
597.42	25.551
597.75	25.477
598.09	25.236
598.42	25.541
598.76	24.634
599.09	25.634
599.42	24.464
599.76	25.407
600.09	25.356
600.42	25.483
600.76	25.085
601.09	24.888
601.42	24.146
601.76	25.170
602.09	25.681
602.42	24.917
602.76	25.085
603.09	25.377
603.42	25.761
603.76	24.548
604.09	24.720
604.42	24.444
604.76	25.089
605.09	25.429
605.42	25.071
605.75	24.674
606.09	24.560
606.42	24.164
606.75	24.913
607.09	24.635
607.42	25.070
607.75	25.358
608.08	25.345
608.42	25.294
608.75	25.203
609.08	24.549
609.41	25.591
609.75	25.229
610.08	25.585
610.41	25.340
610.74	25.238
611.07	25.784
611.41	25.533
611.74	25.956
612.07	25.048
612.40	25.780
612.73	25.711
613.07	26.102
613.40	25.965
613.73	25.911
614.06	26.050
614.39	25.455
614.72	25.866
615.06	25.272
615.39	25.693
615.72	25.218
616.05	25.917
616.38	25.469
616.71	25.176
617.05	26.689
617.38	25.787
617.71	25.984
618.04	25.294
618.37	26.404
618.70	25.462
619.03	25.458
619.36	27.136
619.69	26.121
620.03	27.593
620.36	26.590
620.69	27.011
621.02	26.698
621.35	27.292
621.68	27.360
622.01	28.044
622.34	27.531
622.67	27.247
623.00	27.093
623.33	27.800
623.66	26.347
623.99	27.945
624.32	28.049
624.65	27.584
624.99	27.519
625.32	26.587
625.65	26.621
625.98	27.057
626.31	27.448
626.64	26.803
626.97	28.845
627.30	28.649
627.63	28.885
627.96	27.778
628.29	29.703
628.62	27.802
628.95	28.280
629.28	29.273
629.61	28.998
629.94	28.176
630.26	29.116
630.59	30.674
630.92	27.982
631.25	30.553
631.58	30.183
631.91	28.639
632.24	29.640
632.57	28.585
632.90	30.745
633.23	30.115
633.56	30.664
633.89	30.975
634.22	30.248
634.55	29.462
634.88	31.216
635.20	31.278
635.53	30.894
635.86	30.201
636.19	30.976
636.52	28.216
636.85	29.558
637.18	30.878
637.51	29.050
637.83	29.863
638.16	32.005
638.49	29.222
638.82	31.925
639.15	29.495
639.48	32.701
639.81	31.746
640.13	31.534
640.46	31.985
640.79	31.079
641.12	30.446
641.45	32.988
641.77	32.365
642.10	31.325
642.43	34.424
642.76	33.097
643.09	33.573
643.41	31.136
643.74	31.799
644.07	34.661
644.40	31.805
644.73	32.132
645.05	32.838
645.38	35.069
645.71	33.232
646.04	33.740
646.36	33.177
646.69	31.360
647.02	33.920
647.35	31.024
647.67	33.387
648.00	34.039
648.33	33.383
648.66	32.273
648.98	31.159
649.31	28.610
649.64	29.599
649.96	30.014
650.29	31.000
650.62	31.370
650.94	32.229
651.27	33.333
651.60	34.272
651.92	33.487
652.25	34.331
652.58	31.206
652.90	30.689
653.23	30.428
653.56	31.306
653.88	30.396
654.21	34.164
654.54	29.136
654.86	33.186
655.19	28.628
655.52	25.383
655.84	18.091
656.17	20.182
656.49	28.878
656.82	33.735
657.15	27.259
657.47	20.249
657.80	14.997
658.13	11.723
658.45	16.145
658.78	19.438
659.10	19.672
659.43	20.511
659.75	22.568
660.08	23.559
660.41	26.588
660.73	29.611
661.06	32.583
661.38	33.390
661.71	32.194
662.03	33.840
662.36	33.905
662.68	33.333
663.01	37.477
663.33	30.943
663.66	32.347
663.98	34.722
664.31	32.649
664.63	35.824
664.96	34.522
665.28	31.262
665.61	31.509
665.93	33.585
666.26	34.019
666.58	35.963
666.91	34.363
667.23	34.337
667.56	32.444
667.88	36.100
668.21	34.426
668.53	35.081
668.86	32.064
669.18	37.678
669.50	33.264
669.83	35.934
670.15	34.304
670.48	30.469
670.80	34.861
671.13	34.064
671.45	35.271
671.77	31.540
672.10	31.957
672.42	30.428
672.75	30.063
673.07	30.684
673.39	30.671
673.72	29.931
674.04	30.824
674.37	31.216
674.69	31.227
675.01	32.090
675.34	30.814
675.66	33.203
675.98	34.320
676.31	32.200
676.63	32.604
676.95	33.135
677.28	32.049
677.60	35.211
677.92	30.952
678.25	31.202
678.57	31.657
678.89	35.081
679.22	29.596
679.54	29.181
679.86	30.017
680.18	29.701
680.51	27.695
680.83	27.365
681.15	32.756
681.48	31.424
681.80	31.524
682.12	33.218
682.44	28.108
682.77	29.893
683.09	31.068
683.41	32.449
683.73	29.528
684.06	31.548
684.38	33.140
684.70	31.835
685.02	29.688
685.34	31.514
685.67	31.190
685.99	29.228
686.31	28.351
686.63	30.244
686.96	31.209
687.28	29.866
687.60	27.474
687.92	30.653
688.24	30.690
688.56	31.317
688.89	30.210
689.21	30.636
689.53	31.818
689.85	29.268
690.17	31.262
690.49	31.048
690.82	32.353
691.14	32.323
691.46	30.185
691.78	29.240
692.10	30.916
692.42	29.583
692.74	30.814
693.06	30.039
693.39	29.051
693.71	31.041
694.03	32.150
694.35	34.538
694.67	31.568
694.99	30.820
695.31	32.658
695.63	31.900
695.95	30.995
696.27	32.522
696.59	32.697
696.91	29.873
697.23	32.353
697.56	27.178
697.88	28.942
698.20	28.113
698.52	28.794
698.84	32.033
699.16	31.983
699.48	30.297
699.80	34.205
700.12	35.566
700.44	34.346
700.76	32.220
701.08	32.637
701.40	33.766
701.72	33.957
702.04	35.230
702.36	34.140
702.68	33.245
703.00	32.832
703.32	35.484
703.64	32.242
703.96	36.458
704.28	33.598
704.60	37.465
704.91	33.613
705.23	34.943
705.55	38.279
705.87	35.873
706.19	37.931
706.51	37.931
706.83	36.873
707.15	34.759
707.47	34.867
707.79	30.805
708.11	29.478
708.43	28.539
708.74	28.281
709.06	30.698
709.38	32.010
709.70	31.335
710.02	31.522
710.34	36.464
710.66	35.556
710.98	33.607
711.29	34.540
711.61	35.097
711.93	33.739
712.25	32.530
712.57	37.942
712.89	37.273
713.20	34.505
713.52	36.760
713.84	36.254
714.16	32.464
714.48	29.971
714.80	32.791
715.11	30.585
715.43	31.564
715.75	29.859
716.07	34.682
716.39	36.286
716.70	34.891
717.02	37.374
717.34	39.209
717.66	35.764
717.97	42.803
718.29	37.676
718.61	33.784
718.93	35.294
719.24	34.564
719.56	33.448
719.88	32.803
720.20	34.516
720.51	35.294
720.83	31.104
721.15	34.354
721.46	35.959
721.78	34.146
722.10	34.722
722.42	34.783
722.73	31.769
723.05	38.246
723.37	40.283
723.68	33.594
724.00	39.394
724.32	34.601
724.63	38.462
724.95	37.255
725.27	38.662
725.58	36.029
725.90	36.620
726.22	34.247
726.53	35.786
726.85	33.876
727.16	36.242
727.48	33.223
727.80	39.209
728.11	37.857
728.43	33.696
728.74	36.713
729.06	33.692
729.38	35.439
729.69	37.000
730.01	39.145
730.32	37.248
730.64	31.894
730.96	34.234
731.27	27.829
731.59	29.310
731.90	27.577
732.22	29.714
732.53	29.915
732.85	31.287
733.16	28.614
733.48	28.527
733.80	34.783
734.11	33.742
734.43	31.287
734.74	28.418
735.06	29.894
735.37	30.155
735.69	29.275
736.00	34.251
736.32	30.606
736.63	29.653
736.95	31.056
737.26	32.622
737.58	29.755
737.89	29.518
738.21	29.801
738.52	36.455
738.83	35.897
739.15	31.359
739.46	32.069
739.78	31.973
740.09	31.487
740.41	33.742
740.72	33.333
741.04	37.762
741.35	35.156
741.66	34.387
741.98	37.339
742.29	37.500
742.61	31.858
742.92	33.051
743.23	35.600
743.55	31.698
743.86	39.216
744.18	33.898
744.49	36.364
744.80	39.631
745.12	39.286
745.43	37.383
745.74	38.667
746.06	36.404
746.37	40.465
746.68	35.841
747.00	37.220
747.31	37.815
747.62	33.197
747.94	34.764
748.25	33.852
748.56	36.017
748.88	38.393
749.19	39.535
749.50	37.900
749.82	39.918
750.13	35.178
750.44	33.000
750.75	30.872
751.07	31.908
751.38	31.353
751.69	31.650
752.01	32.867
752.32	32.558
752.63	36.242
752.94	31.469
753.26	39.844
753.57	36.965
753.88	31.461
754.19	31.047
754.51	33.223
754.82	31.208
755.13	32.432
755.44	32.593
755.75	36.082
756.07	29.795
756.38	27.451
756.69	27.188
757.00	33.234
757.31	31.549
757.63	29.477
757.94	26.862
758.25	27.536
758.56	29.748
758.87	28.070
759.18	29.070
759.50	29.483
759.81	32.047
760.12	29.213
760.43	28.291
760.74	29.367
761.05	29.708
761.36	26.042
761.67	24.259
761.99	30.141
762.30	30.225
762.61	28.819
762.92	31.818
763.23	34.717
763.54	32.692
763.85	29.183
764.16	34.375
764.47	31.081
764.78	31.922
765.10	28.354
765.41	28.693
765.72	28.453
766.03	29.909
766.34	28.571
766.65	31.179
766.96	33.603
767.27	42.056
767.58	38.119
767.89	46.409
768.20	45.732
768.51	37.755
768.82	38.596
769.13	34.510
769.44	34.211
769.75	35.206
770.06	33.193
770.37	33.333
770.68	36.889
770.99	36.017
771.30	34.310
771.61	32.692
771.92	34.733
772.23	34.677
772.54	38.222
772.85	42.574
773.16	39.674
773.47	40.000
773.78	40.099
774.09	36.364
774.39	41.212
774.70	37.647
775.01	42.763
775.32	44.720
775.63	41.781
775.94	50.617
776.25	49.655
776.56	46.565
776.87	43.511
777.18	48.485
777.48	48.031
777.79	49.231
778.10	45.455
778.41	49.254
778.72	42.105
779.03	39.103
779.34	44.595
779.65	39.130
779.95	45.342
780.26	40.476
780.57	49.660
780.88	38.298
781.19	45.000
781.50	43.195
781.80	45.355
782.11	35.979
782.42	37.356
782.73	38.418
783.04	38.065
783.34	35.659
783.65	40.136
783.96	45.161
784.27	46.358
784.57	44.079
784.88	51.449
785.19	45.833
785.50	56.034
785.81	51.938
786.11	46.667
786.42	51.969
786.73	53.153
787.04	50.000
787.34	39.837
787.65	47.727
787.96	51.515
788.26	47.244
788.57	47.445
788.88	42.958
789.19	35.878
789.49	43.243
789.80	35.938
790.11	48.760
790.41	52.778
790.72	53.704
791.03	50.000
791.33	55.556
791.64	55.789
791.95	68.421
792.25	55.208
792.56	65.000
792.87	67.073
793.17	65.909
793.48	64.706
793.79	58.621
794.09	56.818
794.40	62.069
794.70	37.302
795.01	45.385
795.32	49.618
795.62	37.607
795.93	48.739
796.23	52.033
796.54	51.020
796.85	55.682
797.15	70.130
797.46	71.951
797.76	66.250
798.07	73.333
798.37	62.500
798.68	66.250
798.99	68.293
799.29	56.000
799.60	65.116
799.90	65.789
800.21	62.121
800.51	64.789
800.82	74.138
801.12	67.692
801.43	69.333
801.73	72.414
802.04	68.831
802.34	56.164
802.65	84.314
802.95	84.783
803.26	77.419
803.56	88.333
803.87	80.597
804.17	77.778
804.48	94.340
804.78	65.278
805.09	75.758
805.39	84.127
805.70	84.211
806.00	68.571
806.30	65.625
806.61	60.000
806.91	65.556
807.22	52.174
807.52	75.000
807.83	61.842
808.13	82.609
808.43	80.645
808.74	69.863
809.04	85.714
809.35	80.882
809.65	69.697
809.95	82.353
810.26	103.704
810.56	79.688
810.86	73.469
811.17	71.930
811.47	84.783
811.77	82.759
812.08	60.345
812.38	88.095
812.69	102.381
812.99	102.222
813.29	88.571
813.59	116.129
813.90	93.103
814.20	78.689
814.50	74.000
814.81	71.930
815.11	92.593
815.41	71.429
815.72	73.214
816.02	76.000
816.32	82.927
816.62	93.103
816.93	118.182
817.23	119.512
817.53	110.714
817.84	102.222
818.14	104.762
818.44	108.333
818.74	81.132
819.04	94.872
819.35	127.273
819.65	105.769
819.95	114.815
820.25	87.234
820.56	124.324
820.86	126.316
821.16	82.979
821.46	121.053
821.76	96.364
822.07	95.238
822.37	110.526
822.67	111.628
822.97	97.368
823.27	119.565
823.57	134.375
823.88	141.026
824.18	130.303
824.48	143.478
824.78	119.444
825.08	186.957
825.38	155.172
825.69	120.588
825.99	91.489
826.29	116.667
826.59	122.857
826.89	133.333
827.19	100.000
827.49	132.258
827.79	130.769
828.09	123.810
828.39	116.667
828.70	91.892
829.00	178.571
829.30	162.500
829.60	113.889
829.90	119.355
830.20	100.000
830.50	145.946
830.80	191.667
831.10	142.308
831.40	157.143
831.70	179.167
832.00	116.667
832.30	213.043
832.60	170.833
832.90	145.455
833.20	220.000
833.50	131.579
833.80	126.471
834.10	105.263
834.40	126.316
834.70	110.000
835.00	180.000
835.30	86.486
835.60	118.750
835.90	116.216
836.20	134.615
836.50	159.091
836.80	114.634
837.10	186.957
837.40	284.615
837.70	178.947
838.00	140.000
838.30	187.500
838.60	176.000
838.90	370.000
839.19	187.500
839.49	153.333
839.79	141.379
840.09	161.538
840.39	160.000
840.69	226.316
840.99	138.095
841.29	191.304
841.59	255.000
841.88	176.000
842.18	311.111
842.48	167.857
842.78	170.370
843.08	269.231
843.38	168.182
843.68	300.000
843.97	442.857
844.27	143.478
844.57	1400.000
844.87	278.571
845.17	200.000
845.47	152.381
845.76	183.333
846.06	471.429
846.36	182.353
846.66	261.538
846.96	225.000
847.25	200.000
847.55	205.263
847.85	150.000
848.15	640.000
848.44	300.000
848.74	228.571
849.04	179.167
849.34	205.882
849.63	268.750
849.93	231.250
850.23	1066.667
850.53	475.000
850.82	345.455
851.12	188.235
851.42	179.167
851.71	287.500
852.01	0.000
852.31	235.294
852.61	420.000
852.90	200.000
853.20	422.222
853.50	-2600.000
853.79	140.000
854.09	140.625
854.39	141.379
854.68	165.517
854.98	204.762
855.28	122.581
855.57	250.000
855.87	188.889
856.17	155.556
856.46	210.526
856.76	132.258
857.05	294.118
857.35	254.545
857.65	223.077
857.94	160.000
858.24	433.333
858.53	342.857
858.83	600.000
859.13	213.043
859.42	333.333
859.72	412.500
860.01	275.000
860.31	850.000
860.60	400.000
860.90	500.000
861.20	253.846
861.49	371.429
861.79	-2400.000
862.08	557.143
862.38	366.667
862.67	271.429
862.97	420.000
863.26	193.333
863.56	825.000
863.85	276.923
864.15	288.235
864.44	200.000
864.74	341.667
865.03	354.545
865.33	425.000
865.62	273.333
865.92	600.000
866.21	900.000
866.51	660.000
866.80	261.111
867.10	1266.667
867.39	3400.000
867.69	640.000
867.98	725.000
868.27	171.429
868.57	233.333
868.86	1025.000
869.16	123.810
869.45	3300.000
869.75	-716.667
870.04	825.000
870.33	580.000
870.63	512.500
870.92	200.000
871.22	800.000
871.51	485.714
871.80	350.000
872.10	338.462
>>>>>End Processed Spectral Data<<<<<
