SpectraSuite Data File
++++++++++++++++++++++++++++++++++++
Date: Tue May 12 17:11:40 PDT 2015
User: schluterlab
Dark Spectrum Present: Yes
Reference Spectrum Present: Yes
Number of Sampled Component Spectra: 1
Spectrometers: USB2E3373
Integration Time (usec): 3000 (USB2E3373)
Spectra Averaged: 3 (USB2E3373)
Boxcar Smoothing: 0 (USB2E3373)
Correct for Electrical Dark: No (USB2E3373)
Strobe/Lamp Enabled: No (USB2E3373)
Correct for Detector Non-linearity: No (USB2E3373)
Correct for Stray Light: No (USB2E3373)
Number of Pixels in Processed Spectrum: 2048
>>>>>Begin Processed Spectral Data<<<<<
178.53	0.000
178.91	-275.000
179.29	-625.000
179.67	-3700.000
180.04	-166.667
180.42	600.000
180.80	1800.000
181.18	0.000
181.56	-250.000
181.94	0.000
182.31	1100.000
182.69	-3700.000
183.07	485.714
183.45	-3100.000
183.83	-1500.000
184.20	310.000
184.58	357.143
184.96	-200.000
185.34	-166.667
185.72	1750.000
186.09	-700.000
186.47	-3300.000
186.85	1066.667
187.23	500.000
187.61	2350.000
187.98	400.000
188.36	228.571
188.74	300.000
189.12	416.667
189.49	825.000
189.87	0.000
190.25	500.000
190.63	2100.000
191.00	-208.333
191.38	-3800.000
191.76	-675.000
192.14	662.500
192.51	-2800.000
192.89	2000.000
193.27	1000.000
193.65	-1266.667
194.02	-740.000
194.40	485.714
194.78	-157.143
195.15	260.000
195.53	-3400.000
195.91	-600.000
196.29	4400.000
196.66	250.000
197.04	800.000
197.42	-1250.000
197.79	425.000
198.17	300.000
198.55	0.000
198.92	400.000
199.30	1233.333
199.68	2300.000
200.05	666.667
200.43	-383.333
200.81	216.667
201.18	2700.000
201.56	208.333
201.94	-725.000
202.31	-325.000
202.69	-380.000
203.07	3000.000
203.44	-533.333
203.82	416.667
204.19	780.000
204.57	-1550.000
204.95	-600.000
205.32	-580.000
205.70	350.000
206.08	875.000
206.45	-566.667
206.83	333.333
207.20	205.263
207.58	283.333
207.96	800.000
208.33	0.000
208.71	485.714
209.08	760.000
209.46	-3400.000
209.84	-800.000
210.21	1080.000
210.59	-620.000
210.96	266.667
211.34	-1050.000
211.71	336.364
212.09	1100.000
212.46	1450.000
212.84	-316.667
213.22	388.889
213.59	-2800.000
213.97	390.000
214.34	700.000
214.72	1233.333
215.09	866.667
215.47	-2200.000
215.84	-330.000
216.22	-300.000
216.59	0.000
216.97	0.000
217.34	1550.000
217.72	-1250.000
218.09	1033.333
218.47	437.500
218.84	925.000
219.22	966.667
219.59	1000.000
219.97	571.429
220.34	477.778
220.72	1550.000
221.09	2200.000
221.47	291.667
221.84	1100.000
222.22	270.000
222.59	233.333
222.97	178.571
223.34	225.000
223.72	-1550.000
224.09	1166.667
224.46	284.615
224.84	-950.000
225.21	444.444
225.59	333.333
225.96	1066.667
226.34	-660.000
226.71	-775.000
227.08	-660.000
227.46	0.000
227.83	-500.000
228.21	-1650.000
228.58	300.000
228.95	1000.000
229.33	355.556
229.70	1050.000
230.08	300.000
230.45	3400.000
230.82	-850.000
231.20	-800.000
231.57	-1300.000
231.95	660.000
232.32	325.000
232.69	516.667
233.07	266.667
233.44	-1450.000
233.81	220.000
234.19	155.556
234.56	237.500
234.93	217.647
235.31	210.000
235.68	231.250
236.05	175.000
236.43	118.519
236.80	307.143
237.17	175.862
237.55	137.500
237.92	142.500
238.29	142.424
238.67	140.625
239.04	134.146
239.41	100.000
239.79	87.500
240.16	89.583
240.53	88.525
240.91	81.159
241.28	98.305
241.65	95.455
242.02	97.183
242.40	102.857
242.77	83.516
243.14	72.152
243.51	87.879
243.89	78.505
244.26	72.897
244.63	78.218
245.00	68.807
245.38	72.881
245.75	79.545
246.12	74.815
246.49	73.759
246.87	71.311
247.24	64.667
247.61	68.750
247.98	70.068
248.36	65.455
248.73	63.776
249.10	63.690
249.47	68.000
249.84	64.677
250.22	67.568
250.59	63.000
250.96	59.494
251.33	63.721
251.70	60.268
252.08	62.185
252.45	52.590
252.82	56.274
253.19	56.522
253.56	61.538
253.94	56.159
254.31	60.465
254.68	56.446
255.05	62.759
255.42	60.584
255.79	58.632
256.16	56.949
256.54	58.117
256.91	56.863
257.28	57.860
257.65	52.665
258.02	54.572
258.39	53.868
258.76	55.362
259.14	51.429
259.51	57.143
259.88	57.447
260.25	53.571
260.62	56.986
260.99	53.994
261.36	56.267
261.73	54.521
262.10	53.665
262.47	53.500
262.85	52.533
263.22	56.555
263.59	52.685
263.96	53.133
264.33	53.827
264.70	54.054
265.07	55.366
265.44	52.752
265.81	54.953
266.18	54.691
266.55	51.300
266.92	49.888
267.29	52.851
267.66	51.794
268.03	50.224
268.40	49.260
268.77	52.203
269.14	51.410
269.51	53.452
269.88	52.041
270.25	49.460
270.62	53.648
270.99	52.738
271.36	52.642
271.73	51.153
272.10	49.899
272.47	50.992
272.84	50.499
273.21	50.207
273.58	53.441
273.95	52.361
274.32	50.973
274.69	53.937
275.06	49.545
275.43	52.107
275.80	51.321
276.17	47.243
276.54	51.589
276.91	51.866
277.28	50.000
277.65	49.815
278.02	48.713
278.39	50.180
278.76	48.621
279.13	50.712
279.50	49.636
279.87	49.907
280.23	51.013
280.60	49.818
280.97	50.517
281.34	47.360
281.71	48.870
282.08	49.402
282.45	48.986
282.82	47.826
283.19	47.854
283.56	48.595
283.92	49.023
284.29	47.754
284.66	49.076
285.03	50.249
285.40	45.620
285.77	45.216
286.14	47.988
286.51	46.933
286.87	46.677
287.24	48.198
287.61	47.416
287.98	47.015
288.35	47.111
288.72	46.434
289.08	46.096
289.45	45.579
289.82	44.844
290.19	45.534
290.56	45.560
290.93	45.612
291.29	44.475
291.66	44.774
292.03	45.442
292.40	46.341
292.77	44.708
293.13	46.362
293.50	44.265
293.87	44.851
294.24	45.874
294.60	45.357
294.97	46.014
295.34	44.223
295.71	42.838
296.08	46.800
296.44	43.456
296.81	44.789
297.18	43.980
297.55	44.335
297.91	41.995
298.28	43.237
298.65	42.822
299.02	43.667
299.38	42.926
299.75	43.171
300.12	43.693
300.48	43.911
300.85	44.219
301.22	44.186
301.59	41.981
301.95	43.407
302.32	44.587
302.69	43.552
303.05	45.230
303.42	43.834
303.79	43.770
304.15	44.004
304.52	44.397
304.89	43.070
305.25	44.049
305.62	43.603
305.99	44.674
306.35	43.263
306.72	43.704
307.09	44.617
307.45	43.083
307.82	44.239
308.19	44.639
308.55	44.900
308.92	43.768
309.29	45.661
309.65	43.806
310.02	46.450
310.38	44.068
310.75	43.491
311.12	43.870
311.48	46.525
311.85	46.756
312.22	46.705
312.58	45.481
312.95	46.214
313.31	47.659
313.68	47.655
314.05	46.978
314.41	47.858
314.78	46.591
315.14	48.531
315.51	48.628
315.87	48.905
316.24	47.619
316.61	47.538
316.97	49.174
317.34	49.506
317.70	50.044
318.07	49.377
318.43	49.473
318.80	51.226
319.16	48.951
319.53	51.150
319.89	49.731
320.26	51.490
320.62	52.289
320.99	52.526
321.35	52.041
321.72	53.131
322.08	53.832
322.45	52.770
322.81	52.699
323.18	54.618
323.54	55.401
323.91	56.392
324.27	57.471
324.64	56.401
325.00	57.328
325.37	57.167
325.73	58.094
326.10	58.409
326.46	58.629
326.83	57.760
327.19	57.831
327.56	57.188
327.92	58.033
328.29	57.774
328.65	59.760
329.01	60.137
329.38	59.814
329.74	57.558
330.11	59.340
330.47	59.591
330.84	58.067
331.20	59.983
331.56	59.845
331.93	60.222
332.29	58.588
332.66	59.354
333.02	61.082
333.38	59.773
333.75	59.550
334.11	60.067
334.48	60.940
334.84	58.193
335.20	60.308
335.57	57.011
335.93	60.471
336.29	58.126
336.66	60.720
337.02	57.913
337.38	60.017
337.75	59.797
338.11	60.000
338.47	58.764
338.84	59.780
339.20	59.827
339.56	58.789
339.93	57.776
340.29	57.815
340.65	57.502
341.02	60.177
341.38	59.113
341.74	59.136
342.11	59.265
342.47	58.080
342.83	60.541
343.20	58.205
343.56	57.665
343.92	59.703
344.28	59.729
344.65	59.658
345.01	57.540
345.37	59.696
345.73	58.651
346.10	57.610
346.46	58.692
346.82	57.330
347.19	59.737
347.55	59.563
347.91	57.251
348.27	58.327
348.63	60.443
349.00	57.883
349.36	58.833
349.72	59.633
350.08	59.860
350.45	60.548
350.81	59.633
351.17	59.168
351.53	60.123
351.89	59.751
352.26	58.579
352.62	58.069
352.98	59.279
353.34	60.324
353.70	59.480
354.07	60.385
354.43	60.061
354.79	59.605
355.15	60.413
355.51	60.876
355.87	60.919
356.24	59.969
356.60	59.741
356.96	62.092
357.32	59.759
357.68	60.866
358.04	61.778
358.40	60.870
358.77	61.458
359.13	60.661
359.49	60.267
359.85	61.206
360.21	60.847
360.57	60.438
360.93	61.833
361.29	61.111
361.66	63.013
362.02	62.145
362.38	62.193
362.74	61.500
363.10	61.851
363.46	60.014
363.82	62.132
364.18	60.740
364.54	63.305
364.90	62.383
365.26	62.665
365.62	62.983
365.98	61.666
366.35	62.483
366.71	62.595
367.07	61.843
367.43	62.525
367.79	61.769
368.15	59.905
368.51	62.233
368.87	62.432
369.23	62.578
369.59	61.497
369.95	63.357
370.31	61.465
370.67	62.318
371.03	63.585
371.39	62.812
371.75	62.177
372.11	62.746
372.47	62.466
372.83	63.426
373.19	62.920
373.55	62.612
373.91	62.500
374.27	63.426
374.63	63.797
374.99	64.690
375.35	64.382
375.71	63.325
376.07	63.130
376.42	60.870
376.78	63.841
377.14	65.138
377.50	64.295
377.86	63.485
378.22	63.559
378.58	65.617
378.94	64.937
379.30	65.312
379.66	65.081
380.02	64.457
380.38	63.642
380.74	65.398
381.09	64.252
381.45	63.353
381.81	63.475
382.17	64.225
382.53	64.547
382.89	63.868
383.25	64.062
383.61	62.478
383.97	64.547
384.32	64.436
384.68	65.062
385.04	64.830
385.40	64.176
385.76	63.956
386.12	64.935
386.48	64.620
386.83	64.487
387.19	64.782
387.55	64.488
387.91	64.607
388.27	65.854
388.62	65.610
388.98	64.781
389.34	62.939
389.70	65.212
390.06	64.207
390.42	64.096
390.77	65.541
391.13	65.721
391.49	63.944
391.85	65.169
392.20	64.660
392.56	63.740
392.92	63.616
393.28	63.565
393.64	63.475
393.99	64.730
394.35	62.272
394.71	62.183
395.07	62.713
395.42	64.110
395.78	64.096
396.14	64.036
396.50	63.478
396.85	63.476
397.21	63.418
397.57	63.001
397.92	63.374
398.28	63.762
398.64	63.467
399.00	63.121
399.35	62.963
399.71	63.521
400.07	62.557
400.42	63.045
400.78	63.519
401.14	63.476
401.49	62.212
401.85	62.630
402.21	62.273
402.57	63.375
402.92	62.848
403.28	63.067
403.63	61.271
403.99	63.691
404.35	62.309
404.70	64.442
405.06	61.651
405.42	62.956
405.77	61.025
406.13	60.954
406.49	61.910
406.84	61.139
407.20	61.530
407.55	61.908
407.91	62.923
408.27	62.038
408.62	61.975
408.98	62.980
409.34	60.257
409.69	62.788
410.05	61.300
410.40	61.249
410.76	61.477
411.11	61.137
411.47	61.667
411.83	60.398
412.18	61.232
412.54	62.462
412.89	61.003
413.25	61.117
413.60	60.748
413.96	61.460
414.31	61.511
414.67	61.887
415.03	62.197
415.38	62.208
415.74	60.897
416.09	61.711
416.45	62.120
416.80	62.604
417.16	60.662
417.51	60.191
417.87	59.262
418.22	60.085
418.58	61.975
418.93	60.738
419.29	59.951
419.64	61.114
420.00	60.382
420.35	60.859
420.71	60.852
421.06	60.271
421.42	60.449
421.77	60.966
422.12	59.757
422.48	60.144
422.83	61.384
423.19	58.963
423.54	59.298
423.90	60.476
424.25	60.319
424.61	59.721
424.96	60.870
425.31	60.591
425.67	60.831
426.02	60.011
426.38	59.510
426.73	61.249
427.09	61.269
427.44	59.651
427.79	60.377
428.15	61.226
428.50	60.286
428.85	60.200
429.21	58.995
429.56	59.821
429.92	60.617
430.27	59.119
430.62	58.443
430.98	58.583
431.33	59.073
431.68	58.222
432.04	58.251
432.39	61.087
432.74	59.660
433.10	59.856
433.45	60.138
433.80	60.838
434.16	58.907
434.51	59.082
434.86	60.533
435.22	59.860
435.57	60.047
435.92	59.533
436.28	59.447
436.63	59.643
436.98	60.417
437.34	59.703
437.69	58.903
438.04	58.710
438.39	59.953
438.75	58.853
439.10	58.985
439.45	57.942
439.81	59.225
440.16	60.319
440.51	58.221
440.86	59.202
441.22	57.846
441.57	60.210
441.92	58.736
442.27	58.557
442.63	59.705
442.98	59.213
443.33	58.115
443.68	58.551
444.03	58.435
444.39	57.863
444.74	58.023
445.09	58.610
445.44	59.405
445.79	58.723
446.15	58.316
446.50	57.911
446.85	58.367
447.20	57.562
447.55	59.652
447.91	58.178
448.26	58.626
448.61	59.315
448.96	59.477
449.31	58.801
449.66	58.970
450.02	57.861
450.37	59.911
450.72	59.559
451.07	59.162
451.42	58.388
451.77	58.419
452.12	59.898
452.47	58.141
452.83	59.211
453.18	58.979
453.53	58.378
453.88	59.143
454.23	58.977
454.58	58.275
454.93	57.817
455.28	58.813
455.63	59.279
455.98	57.360
456.34	59.088
456.69	58.476
457.04	57.995
457.39	58.971
457.74	58.333
458.09	57.889
458.44	58.927
458.79	57.029
459.14	57.992
459.49	58.607
459.84	57.717
460.19	56.780
460.54	57.322
460.89	58.102
461.24	56.701
461.59	58.900
461.94	57.447
462.29	57.609
462.64	56.847
462.99	57.965
463.34	58.069
463.69	57.834
464.04	57.686
464.39	57.871
464.74	56.155
465.09	56.181
465.44	56.420
465.79	56.668
466.14	55.220
466.49	56.864
466.84	56.187
467.19	56.298
467.54	55.375
467.89	57.512
468.24	56.977
468.59	56.726
468.94	57.065
469.29	56.628
469.64	56.913
469.99	56.620
470.34	56.673
470.68	57.241
471.03	58.506
471.38	57.616
471.73	57.740
472.08	57.991
472.43	57.790
472.78	56.402
473.13	56.258
473.48	56.418
473.83	56.302
474.17	56.839
474.52	55.509
474.87	54.520
475.22	55.797
475.57	55.194
475.92	56.106
476.27	55.005
476.61	55.550
476.96	54.859
477.31	56.915
477.66	56.736
478.01	55.080
478.36	55.922
478.70	54.094
479.05	55.073
479.40	55.804
479.75	55.263
480.10	54.647
480.45	54.015
480.79	54.147
481.14	54.494
481.49	53.888
481.84	54.705
482.19	54.454
482.53	53.667
482.88	54.032
483.23	53.451
483.58	54.399
483.92	55.256
484.27	53.211
484.62	53.905
484.97	52.006
485.31	51.936
485.66	49.921
486.01	49.423
486.36	49.309
486.70	49.071
487.05	49.848
487.40	50.451
487.75	51.763
488.09	50.881
488.44	52.103
488.79	51.336
489.13	52.520
489.48	51.778
489.83	52.377
490.17	51.858
490.52	52.584
490.87	52.845
491.22	53.103
491.56	53.184
491.91	51.434
492.26	52.561
492.60	53.394
492.95	53.194
493.30	52.502
493.64	52.471
493.99	52.370
494.34	52.219
494.68	51.660
495.03	51.953
495.37	53.174
495.72	53.287
496.07	52.291
496.41	50.695
496.76	51.372
497.11	51.028
497.45	51.688
497.80	52.827
498.14	51.826
498.49	51.346
498.84	53.084
499.18	50.960
499.53	52.320
499.87	51.482
500.22	53.155
500.56	50.836
500.91	52.365
501.26	51.952
501.60	52.322
501.95	51.389
502.29	51.822
502.64	50.287
502.98	50.734
503.33	51.225
503.67	51.126
504.02	51.232
504.36	50.814
504.71	51.466
505.06	51.103
505.40	51.053
505.75	50.234
506.09	51.563
506.44	51.692
506.78	50.992
507.13	52.545
507.47	51.092
507.82	51.192
508.16	51.739
508.51	51.111
508.85	50.760
509.19	51.836
509.54	52.051
509.88	51.666
510.23	50.882
510.57	50.772
510.92	51.399
511.26	52.610
511.61	50.025
511.95	52.215
512.30	50.650
512.64	51.402
512.98	51.820
513.33	50.871
513.67	50.906
514.02	51.532
514.36	50.779
514.70	51.627
515.05	50.773
515.39	52.632
515.74	52.378
516.08	51.198
516.42	53.388
516.77	51.307
517.11	51.733
517.46	51.562
517.80	51.283
518.14	52.620
518.49	51.103
518.83	50.824
519.17	51.525
519.52	51.283
519.86	51.063
520.20	51.890
520.55	50.989
520.89	50.402
521.23	51.636
521.58	51.004
521.92	51.895
522.26	50.533
522.61	52.288
522.95	52.072
523.29	51.579
523.64	51.156
523.98	51.878
524.32	51.153
524.66	51.072
525.01	51.302
525.35	50.737
525.69	51.595
526.04	53.004
526.38	51.207
526.72	51.253
527.06	50.384
527.41	52.116
527.75	51.187
528.09	51.355
528.43	51.312
528.78	52.177
529.12	52.077
529.46	50.029
529.80	50.584
530.15	51.267
530.49	49.759
530.83	50.518
531.17	50.984
531.51	50.828
531.86	49.819
532.20	48.949
532.54	50.534
532.88	50.843
533.22	51.371
533.57	50.275
533.91	49.009
534.25	48.471
534.59	49.357
534.93	48.976
535.27	47.980
535.62	49.067
535.96	48.818
536.30	50.518
536.64	50.559
536.98	49.843
537.32	48.687
537.66	48.406
538.01	49.350
538.35	49.719
538.69	49.029
539.03	48.445
539.37	47.451
539.71	48.210
540.05	48.985
540.39	49.371
540.73	50.443
541.07	47.302
541.42	48.943
541.76	48.520
542.10	48.705
542.44	48.067
542.78	49.465
543.12	46.810
543.46	47.682
543.80	47.306
544.14	47.616
544.48	46.411
544.82	48.624
545.16	47.662
545.50	48.064
545.84	47.790
546.18	49.480
546.52	47.541
546.86	47.969
547.20	48.320
547.54	47.245
547.88	47.019
548.22	47.602
548.56	46.317
548.90	47.687
549.24	46.684
549.58	47.552
549.92	47.937
550.26	48.411
550.60	47.305
550.94	47.626
551.28	47.724
551.62	48.138
551.96	47.500
552.30	46.276
552.64	47.638
552.98	46.521
553.32	46.863
553.66	46.319
554.00	46.654
554.34	48.003
554.68	47.446
555.02	47.183
555.36	47.340
555.69	45.812
556.03	46.115
556.37	46.335
556.71	48.175
557.05	45.020
557.39	45.200
557.73	46.226
558.07	47.753
558.41	46.676
558.75	46.922
559.08	47.534
559.42	48.246
559.76	46.971
560.10	46.249
560.44	46.251
560.78	46.355
561.12	46.726
561.45	44.869
561.79	45.755
562.13	44.915
562.47	45.879
562.81	44.632
563.15	45.895
563.48	45.280
563.82	45.602
564.16	45.896
564.50	43.520
564.84	44.924
565.17	44.920
565.51	46.305
565.85	45.342
566.19	45.119
566.52	43.923
566.86	44.133
567.20	43.989
567.54	44.596
567.88	44.444
568.21	42.536
568.55	42.753
568.89	42.427
569.23	41.286
569.56	41.853
569.90	40.891
570.24	40.579
570.57	40.655
570.91	39.688
571.25	39.650
571.59	39.312
571.92	38.913
572.26	38.518
572.60	39.378
572.93	40.052
573.27	39.431
573.61	38.982
573.95	39.094
574.28	38.342
574.62	38.379
574.96	38.246
575.29	38.374
575.63	38.163
575.97	38.242
576.30	38.142
576.64	38.166
576.98	38.078
577.31	38.186
577.65	37.713
577.98	37.849
578.32	38.070
578.66	37.675
578.99	37.948
579.33	38.408
579.67	37.734
580.00	37.881
580.34	37.707
580.67	37.248
581.01	38.051
581.35	37.468
581.68	37.161
582.02	37.296
582.35	37.343
582.69	37.681
583.02	37.297
583.36	37.861
583.70	37.906
584.03	38.553
584.37	37.759
584.70	37.945
585.04	37.568
585.37	37.444
585.71	37.888
586.04	37.147
586.38	37.587
586.72	37.761
587.05	37.751
587.39	37.977
587.72	37.131
588.06	37.348
588.39	37.359
588.73	37.292
589.06	37.671
589.40	38.560
589.73	38.315
590.07	38.607
590.40	39.059
590.73	40.103
591.07	39.089
591.40	38.683
591.74	40.179
592.07	38.769
592.41	38.649
592.74	38.045
593.08	36.914
593.41	37.283
593.75	36.896
594.08	37.604
594.41	37.146
594.75	37.705
595.08	38.203
595.42	37.591
595.75	37.545
596.09	37.400
596.42	38.529
596.75	38.622
597.09	38.960
597.42	37.959
597.75	38.012
598.09	38.285
598.42	37.536
598.76	37.818
599.09	37.403
599.42	37.405
599.76	37.008
600.09	36.678
600.42	37.051
600.76	37.050
601.09	37.349
601.42	36.748
601.76	37.379
602.09	37.601
602.42	36.451
602.76	38.368
603.09	38.198
603.42	38.165
603.76	36.840
604.09	36.374
604.42	36.911
604.76	37.930
605.09	37.143
605.42	38.074
605.75	37.071
606.09	37.720
606.42	36.866
606.75	37.660
607.09	37.229
607.42	37.605
607.75	36.943
608.08	37.652
608.42	37.081
608.75	37.142
609.08	37.308
609.41	37.045
609.75	39.011
610.08	38.129
610.41	37.154
610.74	37.922
611.07	38.427
611.41	38.879
611.74	37.763
612.07	37.813
612.40	37.524
612.73	38.143
613.07	38.317
613.40	39.499
613.73	38.592
614.06	37.450
614.39	37.778
614.72	38.423
615.06	36.845
615.39	37.723
615.72	37.222
616.05	38.724
616.38	37.392
616.71	37.927
617.05	38.166
617.38	38.146
617.71	38.020
618.04	38.026
618.37	38.966
618.70	37.125
619.03	39.499
619.36	39.447
619.69	39.314
620.03	39.791
620.36	38.536
620.69	39.847
621.02	40.149
621.35	39.255
621.68	40.192
622.01	41.255
622.34	39.184
622.67	39.677
623.00	38.530
623.33	39.204
623.66	39.787
623.99	40.274
624.32	39.024
624.65	38.446
624.99	38.945
625.32	38.477
625.65	38.690
625.98	38.494
626.31	40.504
626.64	38.876
626.97	40.857
627.30	39.596
627.63	41.523
627.96	39.750
628.29	41.254
628.62	39.521
628.95	40.514
629.28	41.718
629.61	41.213
629.94	39.844
630.26	38.995
630.59	41.046
630.92	40.628
631.25	41.523
631.58	42.816
631.91	41.865
632.24	39.845
632.57	41.552
632.90	43.271
633.23	42.078
633.56	42.044
633.89	43.408
634.22	42.949
634.55	41.183
634.88	42.826
635.20	44.170
635.53	43.322
635.86	42.953
636.19	40.853
636.52	40.649
636.85	40.129
637.18	42.795
637.51	40.112
637.83	40.046
638.16	44.900
638.49	43.353
638.82	43.427
639.15	41.716
639.48	43.246
639.81	41.148
640.13	41.472
640.46	42.478
640.79	44.083
641.12	41.339
641.45	43.208
641.77	43.461
642.10	43.507
642.43	44.523
642.76	42.330
643.09	43.372
643.41	43.899
643.74	43.741
644.07	44.100
644.40	44.083
644.73	45.495
645.05	45.765
645.38	43.951
645.71	41.882
646.04	46.565
646.36	44.131
646.69	44.640
647.02	44.960
647.35	42.520
647.67	44.733
648.00	43.322
648.33	43.910
648.66	45.455
648.98	43.043
649.31	42.915
649.64	39.696
649.96	43.528
650.29	41.714
650.62	43.152
650.94	42.922
651.27	45.295
651.60	44.288
651.92	42.857
652.25	45.984
652.58	41.560
652.90	42.964
653.23	42.097
653.56	41.543
653.88	42.291
654.21	41.789
654.54	39.678
654.86	43.510
655.19	40.633
655.52	35.264
655.84	28.935
656.17	34.346
656.49	48.540
656.82	55.215
657.15	44.133
657.47	33.178
657.80	25.157
658.13	19.934
658.45	27.132
658.78	32.344
659.10	32.518
659.43	33.291
659.75	34.750
660.08	35.652
660.41	38.929
660.73	42.284
661.06	44.294
661.38	43.101
661.71	43.525
662.03	43.156
662.36	44.571
662.68	41.527
663.01	43.063
663.33	41.132
663.66	44.773
663.98	44.048
664.31	44.030
664.63	48.276
664.96	45.591
665.28	43.315
665.61	42.830
665.93	43.962
666.26	42.804
666.58	44.220
666.91	42.085
667.23	42.369
667.56	46.407
667.88	46.058
668.21	44.877
668.53	43.548
668.86	44.088
669.18	41.752
669.50	44.215
669.83	44.559
670.15	45.322
670.48	40.625
670.80	43.028
671.13	42.430
671.45	44.489
671.77	43.970
672.10	44.524
672.42	41.776
672.75	40.665
673.07	41.176
673.39	41.054
673.72	42.215
674.04	42.652
674.37	41.016
674.69	38.290
675.01	43.843
675.34	43.992
675.66	43.359
675.98	45.168
676.31	43.400
676.63	42.744
676.95	45.040
677.28	38.742
677.60	42.656
677.92	42.063
678.25	45.543
678.57	43.389
678.89	42.495
679.22	41.176
679.54	43.238
679.86	40.663
680.18	39.016
680.51	36.982
680.83	39.358
681.15	41.768
681.48	40.104
681.80	41.156
682.12	41.003
682.44	39.820
682.77	40.569
683.09	41.748
683.41	40.816
683.73	41.929
684.06	41.667
684.38	40.891
684.70	39.568
685.02	39.236
685.34	40.141
685.67	38.746
685.99	41.215
686.31	38.059
686.63	37.886
686.96	39.216
687.28	39.597
687.60	39.590
687.92	40.704
688.24	40.000
688.56	40.391
688.89	41.109
689.21	40.655
689.53	41.897
689.85	38.618
690.17	42.524
690.49	42.742
690.82	40.126
691.14	42.626
691.46	43.737
691.78	43.470
692.10	40.840
692.42	39.564
692.74	43.411
693.06	39.341
693.39	40.909
693.71	40.472
694.03	40.237
694.35	42.169
694.67	40.937
694.99	43.237
695.31	44.144
695.63	45.249
695.95	41.629
696.27	43.805
696.59	41.289
696.91	41.266
697.23	43.439
697.56	38.382
697.88	36.327
698.20	39.623
698.52	37.549
698.84	41.273
699.16	41.791
699.48	40.890
699.80	42.048
700.12	43.187
700.44	43.925
700.76	43.437
701.08	43.081
701.40	39.740
701.72	48.128
702.04	46.341
702.36	42.473
702.68	42.819
703.00	41.353
703.32	44.169
703.64	40.302
703.96	45.052
704.28	42.593
704.60	43.380
704.91	41.737
705.23	46.307
705.55	44.214
705.87	48.254
706.19	46.708
706.51	48.589
706.83	44.248
707.15	46.791
707.47	38.741
707.79	40.230
708.11	39.683
708.43	42.247
708.74	37.783
709.06	40.233
709.38	41.191
709.70	41.417
710.02	41.304
710.34	43.094
710.66	38.333
710.98	42.623
711.29	41.783
711.61	40.390
711.93	41.641
712.25	43.373
712.57	46.945
712.89	45.152
713.20	45.687
713.52	40.187
713.84	45.619
714.16	42.899
714.48	39.769
714.80	45.257
715.11	40.160
715.43	40.223
715.75	44.225
716.07	42.775
716.39	43.429
716.70	39.564
717.02	44.108
717.34	44.964
717.66	48.264
717.97	47.348
718.29	46.127
718.61	42.230
718.93	45.329
719.24	46.644
719.56	44.138
719.88	39.172
720.20	44.839
720.51	43.791
720.83	43.144
721.15	50.000
721.46	41.438
721.78	43.206
722.10	42.361
722.42	43.813
722.73	41.155
723.05	47.719
723.37	42.756
723.68	44.531
724.00	47.727
724.32	46.388
724.63	44.615
724.95	44.706
725.27	45.725
725.58	44.485
725.90	38.732
726.22	39.726
726.53	43.813
726.85	44.300
727.16	43.960
727.48	41.528
727.80	43.885
728.11	43.571
728.43	41.667
728.74	45.804
729.06	42.294
729.38	46.667
729.69	46.333
730.01	46.053
730.32	40.940
730.64	43.522
730.96	39.039
731.27	36.391
731.59	37.069
731.90	42.897
732.22	40.000
732.53	37.607
732.85	45.029
733.16	40.361
733.48	40.125
733.80	38.551
734.11	46.626
734.43	40.351
734.74	38.338
735.06	38.360
735.37	37.371
735.69	39.420
736.00	40.979
736.32	39.697
736.63	39.748
736.95	38.820
737.26	39.329
737.58	41.411
737.89	42.470
738.21	40.397
738.52	41.472
738.83	47.253
739.15	41.463
739.46	42.414
739.78	41.837
740.09	40.816
740.41	40.184
740.72	42.540
741.04	46.154
741.35	45.703
741.66	43.083
741.98	48.069
742.29	45.370
742.61	38.496
742.92	41.949
743.23	43.200
743.55	38.868
743.86	40.392
744.18	43.644
744.49	47.934
744.80	47.465
745.12	51.339
745.43	50.935
745.74	50.667
746.06	44.737
746.37	50.233
746.68	52.655
747.00	41.256
747.31	43.277
747.62	40.164
747.94	43.777
748.25	39.689
748.56	43.220
748.88	44.196
749.19	50.233
749.50	47.489
749.82	43.210
750.13	39.921
750.44	41.333
750.75	43.289
751.07	38.816
751.38	39.274
751.69	40.067
752.01	38.811
752.32	42.193
752.63	41.611
752.94	36.364
753.26	48.828
753.57	41.245
753.88	44.195
754.19	40.794
754.51	40.199
754.82	35.235
755.13	37.500
755.44	44.815
755.75	40.550
756.07	38.356
756.38	38.889
756.69	37.500
757.00	40.356
757.31	38.873
757.63	36.364
757.94	36.968
758.25	37.923
758.56	34.096
758.87	36.090
759.18	41.570
759.50	36.170
759.81	38.279
760.12	37.921
760.43	37.255
760.74	37.975
761.05	39.257
761.36	35.156
761.67	37.736
761.99	39.155
762.30	39.228
762.61	39.931
762.92	42.424
763.23	42.642
763.54	41.154
763.85	40.856
764.16	42.708
764.47	41.554
764.78	39.088
765.10	36.585
765.41	36.364
765.72	36.188
766.03	33.233
766.34	39.373
766.65	43.726
766.96	41.700
767.27	43.458
767.58	41.089
767.89	42.541
768.20	46.951
768.51	42.347
768.82	43.421
769.13	41.961
769.44	43.233
769.75	37.079
770.06	39.916
770.37	37.719
770.68	38.667
770.99	45.339
771.30	46.862
771.61	40.385
771.92	40.458
772.23	38.710
772.54	46.222
772.85	50.990
773.16	57.065
773.47	53.889
773.78	48.515
774.09	50.000
774.39	49.091
774.70	40.588
775.01	48.026
775.32	46.584
775.63	47.945
775.94	50.617
776.25	55.172
776.56	55.725
776.87	58.779
777.18	53.030
777.48	62.205
777.79	50.000
778.10	61.364
778.41	55.970
778.72	48.872
779.03	42.949
779.34	58.108
779.65	54.037
779.95	47.826
780.26	45.833
780.57	56.463
780.88	58.156
781.19	56.667
781.50	47.337
781.80	57.377
782.11	42.328
782.42	41.954
782.73	46.893
783.04	45.161
783.34	53.488
783.65	46.939
783.96	57.419
784.27	47.020
784.57	53.289
784.88	56.522
785.19	50.000
785.50	55.172
785.81	53.488
786.11	48.889
786.42	48.819
786.73	63.964
787.04	64.151
787.34	49.593
787.65	56.061
787.96	50.758
788.26	56.693
788.57	51.095
788.88	51.408
789.19	43.511
789.49	50.000
789.80	48.437
790.11	43.802
790.41	65.741
790.72	56.481
791.03	57.692
791.33	66.667
791.64	66.316
791.95	58.947
792.25	54.167
792.56	61.000
792.87	57.317
793.17	63.636
793.48	71.765
793.79	73.563
794.09	54.545
794.40	60.345
794.70	53.175
795.01	52.308
795.32	46.565
795.62	51.282
795.93	59.664
796.23	48.780
796.54	59.184
796.85	60.227
797.15	83.117
797.46	68.293
797.76	51.250
798.07	74.667
798.37	73.750
798.68	62.500
798.99	71.951
799.29	57.333
799.60	55.814
799.90	68.421
800.21	66.667
800.51	66.197
800.82	86.207
801.12	80.000
801.43	88.000
801.73	81.034
802.04	64.935
802.34	87.671
802.65	74.510
802.95	93.478
803.26	87.097
803.56	81.667
803.87	88.060
804.17	69.841
804.48	88.679
804.78	58.333
805.09	80.303
805.39	74.603
805.70	91.228
806.00	57.143
806.30	73.437
806.61	80.000
806.91	70.000
807.22	46.739
807.52	64.474
807.83	68.421
808.13	78.261
808.43	72.581
808.74	67.123
809.04	76.786
809.35	72.059
809.65	66.667
809.95	76.471
810.26	116.667
810.56	87.500
810.86	104.082
811.17	80.702
811.47	95.652
811.77	86.207
812.08	70.690
812.38	102.381
812.69	102.381
812.99	82.222
813.29	120.000
813.59	129.032
813.90	94.828
814.20	96.721
814.50	104.000
814.81	75.439
815.11	105.556
815.41	91.071
815.72	101.786
816.02	124.000
816.32	90.244
816.62	84.483
816.93	121.212
817.23	97.561
817.53	108.929
817.84	102.222
818.14	85.714
818.44	108.333
818.74	90.566
819.04	79.487
819.35	133.333
819.65	109.615
819.95	100.000
820.25	127.660
820.56	127.027
820.86	100.000
821.16	85.106
821.46	107.895
821.76	80.000
822.07	78.571
822.37	102.632
822.67	113.953
822.97	92.105
823.27	128.261
823.57	125.000
823.88	107.692
824.18	121.212
824.48	117.391
824.78	108.333
825.08	147.826
825.38	141.379
825.69	138.235
825.99	91.489
826.29	88.889
826.59	128.571
826.89	156.667
827.19	134.286
827.49	125.806
827.79	153.846
828.09	71.429
828.39	83.333
828.70	81.081
829.00	132.143
829.30	187.500
829.60	102.778
829.90	125.806
830.20	93.939
830.50	135.135
830.80	204.167
831.10	150.000
831.40	133.333
831.70	145.833
832.00	143.333
832.30	143.478
832.60	208.333
832.90	151.515
833.20	155.000
833.50	102.632
833.80	85.294
834.10	102.632
834.40	105.263
834.70	116.667
835.00	168.000
835.30	89.189
835.60	125.000
835.90	110.811
836.20	123.077
836.50	177.273
836.80	95.122
837.10	113.043
837.40	207.692
837.70	136.842
838.00	133.333
838.30	137.500
838.60	132.000
838.90	340.000
839.19	181.250
839.49	133.333
839.79	110.345
840.09	134.615
840.39	213.333
840.69	184.211
840.99	123.810
841.29	200.000
841.59	220.000
841.88	140.000
842.18	344.444
842.48	203.571
842.78	137.037
843.08	223.077
843.38	172.727
843.68	278.571
843.97	371.429
844.27	130.435
844.57	1450.000
844.87	235.714
845.17	194.444
845.47	180.952
845.76	170.833
846.06	500.000
846.36	217.647
846.66	253.846
846.96	237.500
847.25	169.231
847.55	152.632
847.85	166.667
848.15	760.000
848.44	263.636
848.74	166.667
849.04	162.500
849.34	176.471
849.63	150.000
849.93	181.250
850.23	666.667
850.53	375.000
850.82	236.364
851.12	229.412
851.42	200.000
851.71	250.000
852.01	0.000
852.31	176.471
852.61	400.000
852.90	150.000
853.20	311.111
853.50	-1900.000
853.79	128.000
854.09	165.625
854.39	141.379
854.68	155.172
854.98	247.619
855.28	125.806
855.57	292.857
855.87	166.667
856.17	125.926
856.46	163.158
856.76	109.677
857.05	211.765
857.35	227.273
857.65	246.154
857.94	175.000
858.24	488.889
858.53	221.429
858.83	657.143
859.13	186.957
859.42	200.000
859.72	250.000
860.01	150.000
860.31	700.000
860.60	320.000
860.90	375.000
861.20	284.615
861.49	485.714
861.79	-2900.000
862.08	585.714
862.38	355.556
862.67	192.857
862.97	390.000
863.26	170.000
863.56	925.000
863.85	300.000
864.15	247.059
864.44	177.778
864.74	300.000
865.03	345.455
865.33	400.000
865.62	160.000
865.92	550.000
866.21	725.000
866.51	680.000
866.80	227.778
867.10	800.000
867.39	1900.000
867.69	440.000
867.98	775.000
868.27	200.000
868.57	240.000
868.86	1075.000
869.16	142.857
869.45	3900.000
869.75	-416.667
870.04	650.000
870.33	600.000
870.63	462.500
870.92	211.765
871.22	950.000
871.51	357.143
871.80	350.000
872.10	284.615
>>>>>End Processed Spectral Data<<<<<
