SpectraSuite Data File
++++++++++++++++++++++++++++++++++++
Date: Tue May 12 16:52:28 PDT 2015
User: schluterlab
Dark Spectrum Present: Yes
Reference Spectrum Present: Yes
Number of Sampled Component Spectra: 1
Spectrometers: USB2E3373
Integration Time (usec): 3000 (USB2E3373)
Spectra Averaged: 3 (USB2E3373)
Boxcar Smoothing: 0 (USB2E3373)
Correct for Electrical Dark: No (USB2E3373)
Strobe/Lamp Enabled: No (USB2E3373)
Correct for Detector Non-linearity: No (USB2E3373)
Correct for Stray Light: No (USB2E3373)
Number of Pixels in Processed Spectrum: 2048
>>>>>Begin Processed Spectral Data<<<<<
178.53	0.000
178.91	-216.667
179.29	-725.000
179.67	-3300.000
180.04	-133.333
180.42	775.000
180.80	1700.000
181.18	0.000
181.56	-337.500
181.94	0.000
182.31	1166.667
182.69	-3000.000
183.07	500.000
183.45	-3400.000
183.83	-1600.000
184.20	310.000
184.58	400.000
184.96	-223.077
185.34	-200.000
185.72	1550.000
186.09	-650.000
186.47	-2800.000
186.85	1166.667
187.23	540.000
187.61	2000.000
187.98	412.500
188.36	271.429
188.74	308.333
189.12	350.000
189.49	1100.000
189.87	0.000
190.25	525.000
190.63	3700.000
191.00	-233.333
191.38	-3200.000
191.76	-1000.000
192.14	462.500
192.51	-3500.000
192.89	2000.000
193.27	1233.333
193.65	-1000.000
194.02	-680.000
194.40	685.714
194.78	-221.429
195.15	266.667
195.53	-3300.000
195.91	-520.000
196.29	3600.000
196.66	268.750
197.04	675.000
197.42	-1950.000
197.79	550.000
198.17	316.667
198.55	0.000
198.92	528.571
199.30	1066.667
199.68	1850.000
200.05	716.667
200.43	-400.000
200.81	216.667
201.18	3700.000
201.56	325.000
201.94	-950.000
202.31	-275.000
202.69	-540.000
203.07	2800.000
203.44	-483.333
203.82	383.333
204.19	780.000
204.57	-1250.000
204.95	-575.000
205.32	-720.000
205.70	433.333
206.08	750.000
206.45	-833.333
206.83	488.889
207.20	173.684
207.58	316.667
207.96	700.000
208.33	0.000
208.71	542.857
209.08	620.000
209.46	-2800.000
209.84	-650.000
210.21	980.000
210.59	-560.000
210.96	308.333
211.34	-875.000
211.71	390.909
212.09	775.000
212.46	1400.000
212.84	-516.667
213.22	400.000
213.59	-2800.000
213.97	370.000
214.34	825.000
214.72	1300.000
215.09	1000.000
215.47	-2600.000
215.84	-330.000
216.22	-275.000
216.59	0.000
216.97	0.000
217.34	1300.000
217.72	-1400.000
218.09	1166.667
218.47	525.000
218.84	750.000
219.22	900.000
219.59	1100.000
219.97	457.143
220.34	422.222
220.72	1600.000
221.09	3700.000
221.47	316.667
221.84	1133.333
222.22	370.000
222.59	200.000
222.97	235.714
223.34	262.500
223.72	-1700.000
224.09	1066.667
224.46	284.615
224.84	-900.000
225.21	466.667
225.59	306.667
225.96	1200.000
226.34	-640.000
226.71	-700.000
227.08	-680.000
227.46	0.000
227.83	-650.000
228.21	-1850.000
228.58	408.333
228.95	1100.000
229.33	377.778
229.70	1100.000
230.08	353.846
230.45	4200.000
230.82	-1125.000
231.20	-766.667
231.57	-1066.667
231.95	620.000
232.32	358.333
232.69	633.333
233.07	341.667
233.44	-1850.000
233.81	313.333
234.19	133.333
234.56	312.500
234.93	229.412
235.31	260.000
235.68	268.750
236.05	178.571
236.43	229.630
236.80	364.286
237.17	213.793
237.55	193.750
237.92	157.500
238.29	142.424
238.67	150.000
239.04	148.780
239.41	110.417
239.79	137.500
240.16	120.833
240.53	109.836
240.91	98.551
241.28	94.915
241.65	100.000
242.02	112.676
242.40	98.571
242.77	86.813
243.14	88.608
243.51	93.939
243.89	81.308
244.26	70.093
244.63	91.089
245.00	82.569
245.38	74.576
245.75	83.333
246.12	86.667
246.49	76.596
246.87	77.869
247.24	70.000
247.61	74.375
247.98	80.952
248.36	69.091
248.73	71.939
249.10	72.024
249.47	74.000
249.84	73.134
250.22	77.297
250.59	67.500
250.96	67.089
251.33	65.116
251.70	71.429
252.08	74.790
252.45	63.745
252.82	58.935
253.19	66.008
253.56	63.846
253.94	63.768
254.31	68.992
254.68	67.247
255.05	62.414
255.42	67.153
255.79	62.541
256.16	63.729
256.54	67.208
256.91	65.033
257.28	66.221
257.65	62.696
258.02	60.767
258.39	62.751
258.76	63.188
259.14	59.429
259.51	66.764
259.88	66.565
260.25	62.912
260.62	61.370
260.99	58.953
261.36	62.953
261.73	61.170
262.10	63.351
262.47	61.000
262.85	60.800
263.22	59.640
263.59	63.427
263.96	61.153
264.33	58.765
264.70	62.408
265.07	62.683
265.44	57.798
265.81	59.434
266.18	64.989
266.55	61.466
266.92	61.298
267.29	58.772
267.66	60.762
268.03	60.090
268.40	57.928
268.77	58.590
269.14	57.050
269.51	59.911
269.88	57.347
270.25	57.235
270.62	60.944
270.99	56.187
271.36	58.740
271.73	57.862
272.10	59.798
272.47	58.135
272.84	59.880
273.21	58.471
273.58	59.109
273.95	57.290
274.32	58.560
274.69	61.220
275.06	54.645
275.43	57.471
275.80	56.226
276.17	55.882
276.54	55.327
276.91	58.582
277.28	57.664
277.65	57.011
278.02	58.640
278.39	58.993
278.76	55.690
279.13	55.694
279.50	56.364
279.87	54.935
280.23	52.486
280.60	55.292
280.97	55.690
281.34	56.436
281.71	54.087
282.08	55.556
282.45	55.743
282.82	54.013
283.19	53.577
283.56	54.215
283.92	57.003
284.29	55.241
284.66	53.109
285.03	56.882
285.40	54.050
285.77	50.463
286.14	54.334
286.51	53.374
286.87	51.108
287.24	51.652
287.61	54.103
287.98	52.239
288.35	52.889
288.72	51.745
289.08	51.351
289.45	53.354
289.82	52.188
290.19	52.123
290.56	51.092
290.93	50.791
291.29	51.381
291.66	50.282
292.03	50.912
292.40	48.509
292.77	48.329
293.13	47.504
293.50	46.829
293.87	46.070
294.24	48.112
294.60	49.260
294.97	50.490
295.34	48.074
295.71	49.014
296.08	45.333
296.44	44.600
296.81	43.548
297.18	44.867
297.55	46.798
297.91	43.350
298.28	45.290
298.65	45.153
299.02	46.321
299.38	46.523
299.75	44.634
300.12	44.725
300.48	45.316
300.85	46.603
301.22	43.837
301.59	44.340
301.95	43.757
302.32	45.867
302.69	44.570
303.05	44.220
303.42	42.713
303.79	43.662
304.15	43.784
304.52	43.975
304.89	44.030
305.25	44.049
305.62	43.284
305.99	44.891
306.35	44.526
306.72	44.433
307.09	44.617
307.45	44.456
307.82	42.284
308.19	42.680
308.55	42.900
308.92	45.437
309.29	44.379
309.65	44.400
310.02	45.740
310.38	43.370
310.75	45.130
311.12	44.157
311.48	44.788
311.85	45.802
312.22	43.553
312.58	44.218
312.95	44.951
313.31	46.442
313.68	45.685
314.05	45.147
314.41	45.251
314.78	46.780
315.14	46.540
315.51	46.358
315.87	45.803
316.24	47.152
316.61	46.464
316.97	46.239
317.34	47.529
317.70	47.059
318.07	49.199
318.43	48.946
318.80	47.986
319.16	49.213
319.53	48.230
319.89	47.760
320.26	48.883
320.62	49.725
320.99	49.762
321.35	48.423
321.72	50.664
322.08	50.970
322.45	50.681
322.81	50.961
323.18	50.977
323.54	52.265
323.91	51.043
324.27	50.309
324.64	49.913
325.00	49.828
325.37	49.157
325.73	48.988
326.10	50.621
326.46	50.784
326.83	50.880
327.19	51.647
327.56	51.597
327.92	52.787
328.29	51.064
328.65	52.654
329.01	52.866
329.38	50.592
329.74	51.153
330.11	52.389
330.47	52.344
330.84	51.424
331.20	51.777
331.56	52.936
331.93	53.464
332.29	51.446
332.66	52.976
333.02	50.945
333.38	51.745
333.75	50.959
334.11	51.091
334.48	52.735
334.84	50.760
335.20	50.727
335.57	50.714
335.93	49.537
336.29	48.507
336.66	52.058
337.02	51.155
337.38	51.075
337.75	51.943
338.11	52.152
338.47	51.312
338.84	50.212
339.20	51.429
339.56	50.463
339.93	48.997
340.29	49.412
340.65	50.126
341.02	50.523
341.38	50.082
341.74	50.000
342.11	48.998
342.47	48.893
342.83	50.697
343.20	48.747
343.56	48.213
343.92	48.720
344.28	49.043
344.65	48.574
345.01	48.333
345.37	47.917
345.73	48.968
346.10	47.729
346.46	48.804
346.82	48.148
347.19	47.604
347.55	47.307
347.91	47.734
348.27	47.018
348.63	47.547
349.00	47.601
349.36	47.393
349.72	47.859
350.08	48.758
350.45	47.906
350.81	47.936
351.17	46.302
351.53	47.652
351.89	46.698
352.26	46.334
352.62	45.928
352.98	48.390
353.34	46.148
353.70	45.719
354.07	45.846
354.43	47.465
354.79	46.849
355.15	47.320
355.51	47.205
355.87	46.310
356.24	45.420
356.60	45.662
356.96	46.171
357.32	46.270
357.68	46.035
358.04	45.441
358.40	46.777
358.77	45.680
359.13	46.321
359.49	43.291
359.85	45.867
360.21	44.577
360.57	44.964
360.93	46.176
361.29	44.805
361.66	46.085
362.02	44.815
362.38	44.517
362.74	45.081
363.10	44.811
363.46	44.268
363.82	44.951
364.18	44.737
364.54	45.207
364.90	45.114
365.26	45.038
365.62	45.580
365.98	44.253
366.35	43.586
366.71	44.205
367.07	43.823
367.43	43.989
367.79	43.484
368.15	42.402
368.51	44.659
368.87	44.226
369.23	44.491
369.59	43.425
369.95	44.615
370.31	44.079
370.67	43.303
371.03	44.538
371.39	43.213
371.75	43.336
372.11	43.780
372.47	44.315
372.83	43.984
373.19	43.866
373.55	43.299
373.91	41.160
374.27	43.056
374.63	43.525
374.99	42.857
375.35	43.884
375.71	43.470
376.07	42.772
376.42	42.327
376.78	41.811
377.14	44.626
377.50	42.322
377.86	41.896
378.22	43.144
378.58	43.281
378.94	44.418
379.30	41.662
379.66	43.227
380.02	43.343
380.38	40.984
380.74	42.849
381.09	42.056
381.45	41.734
381.81	41.312
382.17	41.575
382.53	40.972
382.89	41.632
383.25	41.326
383.61	41.441
383.97	40.972
384.32	42.194
384.68	43.137
385.04	42.087
385.40	41.518
385.76	40.492
386.12	42.239
386.48	41.337
386.83	41.137
387.19	42.285
387.55	40.754
387.91	42.090
388.27	41.761
388.62	40.904
388.98	40.350
389.34	40.631
389.70	41.745
390.06	40.915
390.42	40.469
390.77	40.909
391.13	41.702
391.49	40.230
391.85	41.723
392.20	40.405
392.56	40.741
392.92	39.416
393.28	40.415
393.64	39.622
393.99	40.249
394.35	39.553
394.71	40.290
395.07	39.355
395.42	39.520
395.78	39.605
396.14	41.024
396.50	39.531
396.85	38.963
397.21	39.591
397.57	40.048
397.92	38.706
398.28	39.934
398.64	39.907
399.00	38.749
399.35	39.560
399.71	40.121
400.07	39.441
400.42	40.060
400.78	38.768
401.14	38.755
401.49	38.537
401.85	39.629
402.21	38.547
402.57	38.839
402.92	38.303
403.28	38.246
403.63	39.258
403.99	39.566
404.35	39.390
404.70	39.220
405.06	37.788
405.42	38.061
405.77	37.596
406.13	38.449
406.49	37.010
406.84	37.394
407.20	38.642
407.55	38.338
407.91	38.736
408.27	37.962
408.62	38.261
408.98	38.025
409.34	38.106
409.69	38.395
410.05	37.746
410.40	37.456
410.76	37.665
411.11	36.967
411.47	37.963
411.83	36.380
412.18	36.655
412.54	38.258
412.89	36.519
413.25	37.685
413.60	37.850
413.96	37.403
414.31	36.954
414.67	38.051
415.03	37.803
415.38	38.297
415.74	37.208
416.09	37.914
416.45	38.203
416.80	39.641
417.16	37.874
417.51	37.580
417.87	37.109
418.22	37.485
418.58	38.153
418.93	36.764
419.29	37.092
419.64	37.614
420.00	39.081
420.35	38.328
420.71	37.048
421.06	37.022
421.42	37.306
421.77	37.424
422.12	37.486
422.48	36.364
422.83	37.667
423.19	37.203
423.54	35.820
423.90	37.769
424.25	37.479
424.61	38.537
424.96	36.759
425.31	37.876
425.67	38.159
426.02	36.848
426.38	37.923
426.73	37.767
427.09	37.070
427.44	37.029
427.79	36.478
428.15	38.067
428.50	39.714
428.85	38.801
429.21	38.520
429.56	37.637
429.92	37.245
430.27	38.462
430.62	37.200
430.98	37.675
431.33	37.399
431.68	36.198
432.04	38.076
432.39	38.035
432.74	37.998
433.10	38.206
433.45	39.001
433.80	38.996
434.16	37.099
434.51	38.493
434.86	38.432
435.22	38.736
435.57	37.582
435.92	38.475
436.28	38.825
436.63	38.520
436.98	38.401
437.34	38.813
437.69	37.514
438.04	38.871
438.39	38.471
438.75	38.697
439.10	38.262
439.45	38.270
439.81	39.156
440.16	38.140
440.51	38.964
440.86	39.601
441.22	38.853
441.57	39.580
441.92	38.796
442.27	38.969
442.63	38.872
442.98	38.793
443.33	39.689
443.68	40.040
444.03	38.737
444.39	39.878
444.74	39.234
445.09	39.179
445.44	39.426
445.79	39.230
446.15	39.263
446.50	40.084
446.85	40.388
447.20	39.552
447.55	40.402
447.91	40.384
448.26	39.457
448.61	40.796
448.96	39.760
449.31	40.539
449.66	40.476
450.02	39.816
450.37	40.422
450.72	40.661
451.07	41.129
451.42	40.664
451.77	40.550
452.12	40.442
452.47	40.826
452.83	40.451
453.18	41.021
453.53	39.905
453.88	40.457
454.23	40.500
454.58	39.802
454.93	39.546
455.28	39.902
455.63	41.135
455.98	40.045
456.34	40.912
456.69	40.915
457.04	40.513
457.39	40.400
457.74	41.554
458.09	40.539
458.44	40.361
458.79	40.371
459.14	39.880
459.49	40.657
459.84	41.467
460.19	40.113
460.54	41.197
460.89	40.458
461.24	38.946
461.59	40.420
461.94	40.366
462.29	40.103
462.64	40.452
462.99	41.331
463.34	41.218
463.69	41.258
464.04	41.105
464.39	40.126
464.74	40.094
465.09	40.975
465.44	41.132
465.79	40.936
466.14	39.428
466.49	41.129
466.84	40.412
467.19	40.305
467.54	40.060
467.89	40.845
468.24	38.911
468.59	39.643
468.94	39.130
469.29	39.462
469.64	40.643
469.99	40.360
470.34	40.228
470.68	39.931
471.03	39.960
471.38	39.470
471.73	39.190
472.08	41.096
472.43	39.417
472.78	40.525
473.13	38.673
473.48	39.487
473.83	40.872
474.17	40.061
474.52	40.047
474.87	38.431
475.22	40.377
475.57	38.720
475.92	39.039
476.27	38.411
476.61	38.981
476.96	39.133
477.31	39.075
477.66	40.204
478.01	39.350
478.36	39.650
478.70	38.710
479.05	39.017
479.40	39.633
479.75	40.318
480.10	38.674
480.45	39.169
480.79	39.217
481.14	39.610
481.49	38.426
481.84	39.534
482.19	39.563
482.53	37.901
482.88	39.337
483.23	39.332
483.58	38.196
483.92	39.214
484.27	38.057
484.62	39.389
484.97	39.112
485.31	38.333
485.66	39.457
486.01	39.528
486.36	39.164
486.70	38.879
487.05	38.538
487.40	38.058
487.75	37.863
488.09	37.841
488.44	38.305
488.79	37.626
489.13	38.074
489.48	38.274
489.83	37.865
490.17	37.283
490.52	38.975
490.87	37.845
491.22	38.387
491.56	38.735
491.91	37.007
492.26	37.906
492.60	38.269
492.95	38.559
493.30	37.716
493.64	38.005
493.99	37.657
494.34	37.248
494.68	38.336
495.03	38.348
495.37	38.811
495.72	38.275
496.07	37.421
496.41	38.141
496.76	38.455
497.11	39.289
497.45	37.308
497.80	37.396
498.14	37.679
498.49	37.419
498.84	37.617
499.18	37.614
499.53	38.172
499.87	37.511
500.22	38.646
500.56	38.208
500.91	38.451
501.26	38.631
501.60	37.887
501.95	37.858
502.29	37.244
502.64	37.097
502.98	36.505
503.33	37.639
503.67	37.130
504.02	37.797
504.36	37.059
504.71	37.701
505.06	36.743
505.40	37.248
505.75	37.044
506.09	37.051
506.44	36.043
506.78	38.280
507.13	37.761
507.47	36.778
507.82	37.567
508.16	37.482
508.51	37.585
508.85	36.467
509.19	37.641
509.54	37.207
509.88	38.240
510.23	37.206
510.57	36.631
510.92	37.463
511.26	37.249
511.61	36.632
511.95	36.934
512.30	35.950
512.64	36.501
512.98	36.494
513.33	36.629
513.67	36.510
514.02	36.831
514.36	36.293
514.70	37.067
515.05	35.908
515.39	36.732
515.74	37.835
516.08	36.220
516.42	38.033
516.77	36.747
517.11	36.800
517.46	36.261
517.80	36.865
518.14	36.282
518.49	35.281
518.83	35.659
519.17	36.162
519.52	36.647
519.86	37.384
520.20	36.932
520.55	35.048
520.89	35.287
521.23	36.682
521.58	35.858
521.92	36.676
522.26	34.242
522.61	36.185
522.95	36.156
523.29	35.556
523.64	34.971
523.98	34.683
524.32	35.467
524.66	36.696
525.01	34.970
525.35	35.828
525.69	36.725
526.04	36.169
526.38	35.962
526.72	35.143
527.06	34.418
527.41	36.276
527.75	35.545
528.09	35.521
528.43	34.777
528.78	35.480
529.12	36.183
529.46	35.418
529.80	34.579
530.15	35.946
530.49	36.282
530.83	35.588
531.17	34.932
531.51	34.519
531.86	34.420
532.20	35.476
532.54	35.342
532.88	35.415
533.22	35.771
533.57	35.815
533.91	34.965
534.25	34.449
534.59	35.556
534.93	34.812
535.27	34.548
535.62	34.947
535.96	34.811
536.30	36.137
536.64	34.534
536.98	34.739
537.32	34.625
537.66	33.929
538.01	34.118
538.35	35.434
538.69	35.255
539.03	34.826
539.37	34.648
539.71	34.691
540.05	35.262
540.39	35.786
540.73	34.747
541.07	34.755
541.42	35.075
541.76	35.080
542.10	35.265
542.44	35.162
542.78	34.361
543.12	34.294
543.46	33.772
543.80	35.025
544.14	34.923
544.48	35.036
544.82	34.862
545.16	33.576
545.50	34.788
545.84	35.480
546.18	35.176
546.52	36.066
546.86	35.977
547.20	33.463
547.54	34.959
547.88	33.820
548.22	34.366
548.56	34.119
548.90	34.460
549.24	35.629
549.58	34.923
549.92	34.578
550.26	36.038
550.60	33.866
550.94	34.735
551.28	34.483
551.62	34.276
551.96	34.730
552.30	34.344
552.64	35.340
552.98	34.923
553.32	33.611
553.66	34.137
554.00	33.719
554.34	34.354
554.68	35.954
555.02	34.759
555.36	33.378
555.69	34.490
556.03	33.376
556.37	34.672
556.71	35.332
557.05	32.634
557.39	34.467
557.73	34.367
558.07	34.205
558.41	33.859
558.75	34.268
559.08	34.453
559.42	34.359
559.76	34.426
560.10	33.655
560.44	34.107
560.78	35.038
561.12	34.584
561.45	34.168
561.79	33.958
562.13	34.428
562.47	33.615
562.81	34.027
563.15	34.066
563.48	33.354
563.82	35.309
564.16	35.448
564.50	34.237
564.84	34.164
565.17	33.214
565.51	35.160
565.85	35.287
566.19	34.524
566.52	32.972
566.86	34.618
567.20	33.820
567.54	34.552
567.88	35.785
568.21	34.498
568.55	34.290
568.89	35.447
569.23	34.901
569.56	35.583
569.90	35.393
570.24	35.434
570.57	35.529
570.91	34.977
571.25	35.261
571.59	35.054
571.92	34.688
572.26	34.394
572.60	34.768
572.93	34.876
573.27	34.520
573.61	35.057
573.95	34.910
574.28	35.288
574.62	34.769
574.96	34.607
575.29	34.028
575.63	34.535
575.97	33.982
576.30	34.017
576.64	34.152
576.98	34.781
577.31	35.207
577.65	35.214
577.98	35.270
578.32	35.142
578.66	35.226
578.99	34.970
579.33	35.205
579.67	34.456
580.00	34.327
580.34	35.002
580.67	34.474
581.01	35.133
581.35	34.904
581.68	35.335
582.02	36.095
582.35	35.553
582.69	35.800
583.02	35.198
583.36	34.972
583.70	34.724
584.03	35.496
584.37	35.235
584.70	35.083
585.04	35.070
585.37	35.054
585.71	35.888
586.04	35.202
586.38	35.193
586.72	35.367
587.05	35.280
587.39	35.044
587.72	35.423
588.06	35.535
588.39	35.312
588.73	35.304
589.06	35.366
589.40	35.430
589.73	34.448
590.07	35.724
590.40	35.784
590.73	36.467
591.07	35.294
591.40	35.050
591.74	34.862
592.07	34.567
592.41	35.492
592.74	35.591
593.08	34.798
593.41	35.338
593.75	34.876
594.08	35.387
594.41	35.093
594.75	35.068
595.08	34.739
595.42	35.155
595.75	35.143
596.09	35.176
596.42	34.741
596.75	36.579
597.09	34.998
597.42	34.735
597.75	33.834
598.09	35.371
598.42	35.292
598.76	34.464
599.09	35.748
599.42	35.121
599.76	35.312
600.09	34.780
600.42	34.841
600.76	34.364
601.09	34.967
601.42	35.199
601.76	35.374
602.09	35.210
602.42	34.344
602.76	34.991
603.09	35.256
603.42	36.037
603.76	35.286
604.09	34.600
604.42	34.501
604.76	34.374
605.09	35.224
605.42	35.351
605.75	35.057
606.09	36.151
606.42	35.475
606.75	34.707
607.09	33.754
607.42	34.753
607.75	34.475
608.08	33.834
608.42	34.899
608.75	33.761
609.08	34.888
609.41	34.636
609.75	35.073
610.08	34.982
610.41	35.002
610.74	34.675
611.07	35.152
611.41	34.986
611.74	35.038
612.07	34.923
612.40	34.016
612.73	35.946
613.07	34.212
613.40	34.787
613.73	35.047
614.06	34.250
614.39	34.242
614.72	35.309
615.06	33.828
615.39	34.653
615.72	34.076
616.05	35.409
616.38	34.348
616.71	33.858
617.05	34.487
617.38	33.315
617.71	34.533
618.04	34.717
618.37	34.908
618.70	33.834
619.03	33.578
619.36	34.359
619.69	33.245
620.03	35.225
620.36	34.618
620.69	34.483
621.02	33.967
621.35	33.954
621.68	32.670
622.01	33.284
622.34	32.775
622.67	34.129
623.00	34.173
623.33	33.873
623.66	34.398
623.99	35.137
624.32	33.604
624.65	34.299
624.99	35.565
625.32	34.135
625.65	32.897
625.98	33.124
626.31	33.383
626.64	34.017
626.97	32.747
627.30	34.006
627.63	34.301
627.96	33.568
628.29	33.993
628.62	32.934
628.95	34.043
629.28	32.515
629.61	33.568
629.94	32.844
630.26	34.662
630.59	33.599
630.92	33.632
631.25	33.273
631.58	34.233
631.91	32.826
632.24	32.459
632.57	32.809
632.90	34.886
633.23	33.473
633.56	31.718
633.89	34.084
634.22	33.369
634.55	31.935
634.88	33.187
635.20	31.951
635.53	32.753
635.86	32.438
636.19	32.099
636.52	31.892
636.85	31.715
637.18	32.611
637.51	32.291
637.83	31.808
638.16	32.239
638.49	32.695
638.82	32.981
639.15	31.727
639.48	32.820
639.81	34.310
640.13	32.883
640.46	32.617
640.79	34.720
641.12	32.283
641.45	33.376
641.77	32.893
642.10	33.199
642.43	32.859
642.76	31.392
643.09	32.133
643.41	30.856
643.74	32.806
644.07	33.481
644.40	34.024
644.73	33.784
645.05	32.541
645.38	32.312
645.71	33.232
646.04	33.588
646.36	32.864
646.69	31.360
647.02	33.280
647.35	31.654
647.67	32.901
648.00	30.456
648.33	30.977
648.66	34.091
648.98	32.319
649.31	32.794
649.64	31.259
649.96	32.006
650.29	32.429
650.62	34.021
650.94	31.024
651.27	34.450
651.60	31.299
651.92	33.487
652.25	35.906
652.58	32.340
652.90	33.084
653.23	32.792
653.56	33.531
653.88	33.921
654.21	31.672
654.54	32.943
654.86	33.333
655.19	33.773
655.52	32.538
655.84	31.725
656.17	37.639
656.49	54.854
656.82	63.583
657.15	50.759
657.47	37.835
657.80	26.642
658.13	20.638
658.45	27.453
658.78	33.254
659.10	33.741
659.43	34.112
659.75	35.451
660.08	34.712
660.41	34.664
660.73	36.261
661.06	34.084
661.38	36.457
661.71	31.475
662.03	33.650
662.36	32.571
662.68	31.285
663.01	32.613
663.33	31.887
663.66	35.503
663.98	32.143
664.31	31.530
664.63	33.525
664.96	33.583
665.28	31.262
665.61	31.132
665.93	34.906
666.26	32.710
666.58	35.963
666.91	34.749
667.23	32.731
667.56	33.265
667.88	34.647
668.21	32.992
668.53	31.855
668.86	33.066
669.18	33.401
669.50	30.165
669.83	33.060
670.15	34.096
670.48	30.859
670.80	33.068
671.13	33.466
671.45	32.866
671.77	35.065
672.10	32.496
672.42	33.059
672.75	33.228
673.07	32.750
673.39	33.546
673.72	34.775
674.04	32.258
674.37	33.212
674.69	32.528
675.01	30.037
675.34	31.589
675.66	34.375
675.98	31.755
676.31	31.000
676.63	32.406
676.95	34.127
677.28	31.237
677.60	32.998
677.92	31.151
678.25	32.752
678.57	34.637
678.89	37.432
679.22	32.169
679.54	33.986
679.86	34.729
680.18	36.204
680.51	31.509
680.83	31.588
681.15	32.409
681.48	32.292
681.80	34.501
682.12	32.180
682.44	31.892
682.77	33.808
683.09	33.786
683.41	33.061
683.73	31.693
684.06	33.730
684.38	34.884
684.70	33.633
685.02	32.292
685.34	34.155
685.67	34.887
685.99	35.140
686.31	32.820
686.63	33.659
686.96	34.967
687.28	31.544
687.60	32.594
687.92	32.496
688.24	34.828
688.56	34.698
688.89	30.975
689.21	31.985
689.53	34.783
689.85	33.333
690.17	32.233
690.49	34.879
690.82	34.244
691.14	33.737
691.46	33.881
691.78	32.943
692.10	33.397
692.42	32.486
692.74	34.690
693.06	34.884
693.39	31.818
693.71	36.149
694.03	34.320
694.35	36.546
694.67	33.198
694.99	35.477
695.31	33.108
695.63	32.805
695.95	34.163
696.27	34.513
696.59	31.742
696.91	33.418
697.23	33.937
697.56	32.158
697.88	31.537
698.20	33.396
698.52	32.296
698.84	33.676
699.16	35.394
699.48	37.076
699.80	32.244
700.12	36.259
700.44	35.514
700.76	33.413
701.08	31.854
701.40	32.727
701.72	38.503
702.04	36.314
702.36	32.258
702.68	33.777
703.00	33.083
703.32	33.995
703.64	35.013
703.96	35.677
704.28	36.243
704.60	36.901
704.91	34.454
705.23	37.784
705.55	36.202
705.87	34.603
706.19	38.871
706.51	38.245
706.83	38.643
707.15	37.166
707.47	31.961
707.79	34.483
708.11	31.973
708.43	34.607
708.74	30.769
709.06	37.209
709.38	35.732
709.70	35.967
710.02	32.880
710.34	33.702
710.66	36.389
710.98	35.519
711.29	35.097
711.61	36.490
711.93	37.994
712.25	34.036
712.57	36.334
712.89	36.667
713.20	40.575
713.52	37.383
713.84	32.628
714.16	33.623
714.48	34.006
714.80	34.146
715.11	33.777
715.43	34.078
715.75	35.493
716.07	35.838
716.39	35.714
716.70	31.153
717.02	35.690
717.34	36.331
717.66	39.583
717.97	40.909
718.29	35.563
718.61	36.824
718.93	35.640
719.24	39.933
719.56	34.138
719.88	39.172
720.20	39.677
720.51	37.908
720.83	34.448
721.15	40.476
721.46	41.438
721.78	36.237
722.10	37.153
722.42	38.796
722.73	36.823
723.05	37.544
723.37	39.223
723.68	35.938
724.00	37.121
724.32	36.502
724.63	37.692
724.95	41.176
725.27	37.918
725.58	38.971
725.90	36.620
726.22	37.671
726.53	35.786
726.85	42.345
727.16	39.597
727.48	34.884
727.80	39.568
728.11	37.857
728.43	37.681
728.74	36.014
729.06	38.351
729.38	39.649
729.69	41.667
730.01	40.461
730.32	35.906
730.64	36.545
730.96	35.435
731.27	30.581
731.59	31.609
731.90	35.655
732.22	34.571
732.53	35.897
732.85	38.889
733.16	34.940
733.48	35.110
733.80	40.870
734.11	38.344
734.43	37.427
734.74	34.584
735.06	36.772
735.37	32.474
735.69	36.522
736.00	40.061
736.32	34.545
736.63	32.492
736.95	37.267
737.26	38.720
737.58	34.356
737.89	32.530
738.21	37.748
738.52	39.130
738.83	39.560
739.15	36.934
739.46	41.724
739.78	38.776
740.09	36.735
740.41	38.344
740.72	41.270
741.04	41.259
741.35	39.063
741.66	36.364
741.98	43.777
742.29	42.130
742.61	35.398
742.92	37.288
743.23	39.200
743.55	36.604
743.86	37.255
744.18	38.559
744.49	37.190
744.80	39.631
745.12	41.518
745.43	39.720
745.74	41.333
746.06	35.965
746.37	42.791
746.68	44.248
747.00	39.013
747.31	39.496
747.62	37.705
747.94	40.773
748.25	42.412
748.56	39.407
748.88	40.625
749.19	39.070
749.50	42.922
749.82	41.564
750.13	37.549
750.44	35.000
750.75	37.584
751.07	37.500
751.38	35.974
751.69	37.037
752.01	33.217
752.32	38.870
752.63	40.604
752.94	38.462
753.26	39.453
753.57	41.634
753.88	38.577
754.19	36.101
754.51	36.545
754.82	36.913
755.13	36.824
755.44	37.037
755.75	38.144
756.07	36.986
756.38	36.601
756.69	37.188
757.00	35.608
757.31	41.972
757.63	36.088
757.94	35.106
758.25	34.541
758.56	34.783
758.87	36.591
759.18	36.047
759.50	35.562
759.81	39.169
760.12	36.236
760.43	33.613
760.74	37.975
761.05	41.645
761.36	33.854
761.67	40.431
761.99	35.211
762.30	37.942
762.61	36.806
762.92	39.394
763.23	39.623
763.54	37.692
763.85	38.911
764.16	39.583
764.47	39.865
764.78	32.899
765.10	36.280
765.41	34.375
765.72	36.740
766.03	37.462
766.34	40.070
766.65	39.544
766.96	41.700
767.27	42.523
767.58	38.614
767.89	45.856
768.20	54.878
768.51	42.347
768.82	40.789
769.13	38.824
769.44	37.218
769.75	37.079
770.06	39.496
770.37	37.281
770.68	36.444
770.99	47.881
771.30	40.586
771.61	44.231
771.92	39.313
772.23	37.500
772.54	43.556
772.85	41.584
773.16	44.565
773.47	44.444
773.78	44.059
774.09	46.591
774.39	53.333
774.70	38.235
775.01	38.816
775.32	45.342
775.63	42.466
775.94	53.086
776.25	53.103
776.56	41.221
776.87	51.908
777.18	44.697
777.48	54.331
777.79	60.000
778.10	48.485
778.41	54.478
778.72	45.865
779.03	48.077
779.34	46.622
779.65	51.553
779.95	50.311
780.26	39.881
780.57	56.463
780.88	51.064
781.19	60.000
781.50	45.562
781.80	48.087
782.11	45.503
782.42	41.379
782.73	44.068
783.04	47.742
783.34	51.938
783.65	48.299
783.96	46.452
784.27	49.669
784.57	45.395
784.88	48.551
785.19	53.333
785.50	45.690
785.81	59.690
786.11	56.296
786.42	55.118
786.73	59.459
787.04	56.604
787.34	54.472
787.65	56.818
787.96	50.000
788.26	54.331
788.57	51.095
788.88	52.113
789.19	53.435
789.49	53.378
789.80	48.437
790.11	57.025
790.41	66.667
790.72	50.926
791.03	61.538
791.33	67.677
791.64	63.158
791.95	63.158
792.25	48.958
792.56	63.000
792.87	60.976
793.17	64.773
793.48	64.706
793.79	58.621
794.09	54.545
794.40	62.069
794.70	55.556
795.01	52.308
795.32	47.328
795.62	37.607
795.93	56.303
796.23	54.472
796.54	65.306
796.85	63.636
797.15	72.727
797.46	71.951
797.76	52.500
798.07	85.333
798.37	73.750
798.68	67.500
798.99	71.951
799.29	72.000
799.60	54.651
799.90	67.105
800.21	71.212
800.51	71.831
800.82	65.517
801.12	78.462
801.43	69.333
801.73	68.966
802.04	71.429
802.34	72.603
802.65	80.392
802.95	63.043
803.26	93.548
803.56	76.667
803.87	79.104
804.17	73.016
804.48	64.151
804.78	61.111
805.09	86.364
805.39	77.778
805.70	85.965
806.00	45.714
806.30	60.937
806.61	62.353
806.91	55.556
807.22	44.565
807.52	69.737
807.83	78.947
808.13	78.261
808.43	91.935
808.74	65.753
809.04	69.643
809.35	75.000
809.65	75.758
809.95	86.275
810.26	100.000
810.56	82.813
810.86	71.429
811.17	94.737
811.47	84.783
811.77	82.759
812.08	75.862
812.38	107.143
812.69	119.048
812.99	75.556
813.29	102.857
813.59	116.129
813.90	79.310
814.20	91.803
814.50	94.000
814.81	82.456
815.11	101.852
815.41	85.714
815.72	103.571
816.02	76.000
816.32	102.439
816.62	96.552
816.93	121.212
817.23	100.000
817.53	82.143
817.84	95.556
818.14	100.000
818.44	97.917
818.74	105.660
819.04	107.692
819.35	118.182
819.65	84.615
819.95	111.111
820.25	112.766
820.56	129.730
820.86	115.789
821.16	57.447
821.46	126.316
821.76	114.545
822.07	100.000
822.37	123.684
822.67	127.907
822.97	89.474
823.27	97.826
823.57	140.625
823.88	125.641
824.18	124.242
824.48	169.565
824.78	105.556
825.08	182.609
825.38	172.414
825.69	120.588
825.99	91.489
826.29	83.333
826.59	122.857
826.89	110.000
827.19	100.000
827.49	141.935
827.79	146.154
828.09	90.476
828.39	116.667
828.70	113.514
829.00	146.429
829.30	200.000
829.60	102.778
829.90	129.032
830.20	109.091
830.50	137.838
830.80	166.667
831.10	146.154
831.40	185.714
831.70	204.167
832.00	123.333
832.30	160.870
832.60	129.167
832.90	160.606
833.20	165.000
833.50	123.684
833.80	135.294
834.10	131.579
834.40	136.842
834.70	100.000
835.00	192.000
835.30	124.324
835.60	140.625
835.90	113.514
836.20	176.923
836.50	159.091
836.80	121.951
837.10	152.174
837.40	361.538
837.70	157.895
838.00	183.333
838.30	150.000
838.60	144.000
838.90	290.000
839.19	243.750
839.49	140.000
839.79	113.793
840.09	180.769
840.39	146.667
840.69	152.632
840.99	166.667
841.29	147.826
841.59	150.000
841.88	156.000
842.18	266.667
842.48	153.571
842.78	148.148
843.08	246.154
843.38	200.000
843.68	300.000
843.97	528.571
844.27	147.826
844.57	1500.000
844.87	335.714
845.17	205.556
845.47	161.905
845.76	154.167
846.06	328.571
846.36	182.353
846.66	253.846
846.96	225.000
847.25	176.923
847.55	163.158
847.85	177.778
848.15	560.000
848.44	336.364
848.74	161.905
849.04	170.833
849.34	135.294
849.63	250.000
849.93	293.750
850.23	966.667
850.53	437.500
850.82	272.727
851.12	170.588
851.42	170.833
851.71	268.750
852.01	0.000
852.31	229.412
852.61	350.000
852.90	133.333
853.20	344.444
853.50	-2200.000
853.79	144.000
854.09	137.500
854.39	96.552
854.68	168.966
854.98	219.048
855.28	122.581
855.57	250.000
855.87	183.333
856.17	170.370
856.46	215.789
856.76	119.355
857.05	235.294
857.35	272.727
857.65	230.769
857.94	155.000
858.24	366.667
858.53	314.286
858.83	628.571
859.13	195.652
859.42	255.556
859.72	350.000
860.01	275.000
860.31	950.000
860.60	360.000
860.90	425.000
861.20	261.538
861.49	542.857
861.79	-2600.000
862.08	414.286
862.38	388.889
862.67	214.286
862.97	360.000
863.26	156.667
863.56	750.000
863.85	323.077
864.15	270.588
864.44	183.333
864.74	408.333
865.03	272.727
865.33	412.500
865.62	246.667
865.92	633.333
866.21	975.000
866.51	540.000
866.80	305.556
867.10	833.333
867.39	2900.000
867.69	740.000
867.98	700.000
868.27	171.429
868.57	226.667
868.86	600.000
869.16	157.143
869.45	3700.000
869.75	-383.333
870.04	775.000
870.33	840.000
870.63	400.000
870.92	229.412
871.22	825.000
871.51	528.571
871.80	325.000
872.10	276.923
>>>>>End Processed Spectral Data<<<<<
