SpectraSuite Data File
++++++++++++++++++++++++++++++++++++
Date: Tue May 12 17:13:25 PDT 2015
User: schluterlab
Dark Spectrum Present: Yes
Reference Spectrum Present: Yes
Number of Sampled Component Spectra: 1
Spectrometers: USB2E3373
Integration Time (usec): 3000 (USB2E3373)
Spectra Averaged: 3 (USB2E3373)
Boxcar Smoothing: 0 (USB2E3373)
Correct for Electrical Dark: No (USB2E3373)
Strobe/Lamp Enabled: No (USB2E3373)
Correct for Detector Non-linearity: No (USB2E3373)
Correct for Stray Light: No (USB2E3373)
Number of Pixels in Processed Spectrum: 2048
>>>>>Begin Processed Spectral Data<<<<<
178.53	0.000
178.91	-200.000
179.29	-775.000
179.67	-3200.000
180.04	-160.000
180.42	725.000
180.80	1400.000
181.18	0.000
181.56	-337.500
181.94	0.000
182.31	1066.667
182.69	-2800.000
183.07	628.571
183.45	-2800.000
183.83	-1200.000
184.20	280.000
184.58	357.143
184.96	-215.385
185.34	-141.667
185.72	1300.000
186.09	-800.000
186.47	-3900.000
186.85	1100.000
187.23	640.000
187.61	1400.000
187.98	437.500
188.36	221.429
188.74	375.000
189.12	341.667
189.49	900.000
189.87	0.000
190.25	375.000
190.63	2400.000
191.00	-208.333
191.38	-2800.000
191.76	-925.000
192.14	512.500
192.51	-3100.000
192.89	1600.000
193.27	900.000
193.65	-966.667
194.02	-780.000
194.40	542.857
194.78	-250.000
195.15	233.333
195.53	-3000.000
195.91	-600.000
196.29	2900.000
196.66	287.500
197.04	900.000
197.42	-1400.000
197.79	625.000
198.17	300.000
198.55	0.000
198.92	542.857
199.30	900.000
199.68	1900.000
200.05	616.667
200.43	-516.667
200.81	227.778
201.18	3400.000
201.56	341.667
201.94	-800.000
202.31	-312.500
202.69	-500.000
203.07	3100.000
203.44	-433.333
203.82	300.000
204.19	600.000
204.57	-1150.000
204.95	-625.000
205.32	-680.000
205.70	566.667
206.08	525.000
206.45	-733.333
206.83	311.111
207.20	189.474
207.58	275.000
207.96	740.000
208.33	0.000
208.71	628.571
209.08	660.000
209.46	-2600.000
209.84	-650.000
210.21	660.000
210.59	-400.000
210.96	350.000
211.34	-1000.000
211.71	354.545
212.09	875.000
212.46	1750.000
212.84	-350.000
213.22	388.889
213.59	-2100.000
213.97	330.000
214.34	900.000
214.72	1000.000
215.09	1166.667
215.47	-2800.000
215.84	-250.000
216.22	-337.500
216.59	0.000
216.97	0.000
217.34	1500.000
217.72	-1650.000
218.09	1100.000
218.47	525.000
218.84	950.000
219.22	1166.667
219.59	1300.000
219.97	557.143
220.34	400.000
220.72	1850.000
221.09	3200.000
221.47	225.000
221.84	1100.000
222.22	330.000
222.59	238.889
222.97	271.429
223.34	206.250
223.72	-1600.000
224.09	833.333
224.46	300.000
224.84	-675.000
225.21	333.333
225.59	313.333
225.96	1200.000
226.34	-560.000
226.71	-675.000
227.08	-360.000
227.46	0.000
227.83	-516.667
228.21	-1750.000
228.58	283.333
228.95	975.000
229.33	422.222
229.70	800.000
230.08	323.077
230.45	2900.000
230.82	-775.000
231.20	-866.667
231.57	-1233.333
231.95	540.000
232.32	316.667
232.69	450.000
233.07	175.000
233.44	-1650.000
233.81	226.667
234.19	137.037
234.56	250.000
234.93	217.647
235.31	265.000
235.68	293.750
236.05	167.857
236.43	155.556
236.80	292.857
237.17	155.172
237.55	134.375
237.92	105.000
238.29	136.364
238.67	165.625
239.04	117.073
239.41	91.667
239.79	105.000
240.16	108.333
240.53	88.525
240.91	85.507
241.28	93.220
241.65	77.273
242.02	81.690
242.40	91.429
242.77	69.231
243.14	69.620
243.51	80.808
243.89	63.551
244.26	67.290
244.63	61.386
245.00	73.394
245.38	56.780
245.75	65.152
246.12	66.667
246.49	56.028
246.87	59.016
247.24	56.000
247.61	56.250
247.98	58.503
248.36	61.818
248.73	52.551
249.10	50.595
249.47	52.000
249.84	54.229
250.22	60.541
250.59	50.500
250.96	50.633
251.33	48.372
251.70	49.107
252.08	45.798
252.45	46.614
252.82	44.867
253.19	49.407
253.56	53.846
253.94	43.841
254.31	44.961
254.68	52.613
255.05	48.621
255.42	54.380
255.79	43.322
256.16	50.508
256.54	48.052
256.91	44.771
257.28	48.495
257.65	44.201
258.02	46.903
258.39	46.132
258.76	46.087
259.14	43.143
259.51	45.481
259.88	49.544
260.25	45.330
260.62	44.384
260.99	45.179
261.36	46.518
261.73	47.074
262.10	44.503
262.47	44.000
262.85	41.067
263.22	43.188
263.59	42.711
263.96	43.108
264.33	43.704
264.70	42.752
265.07	45.610
265.44	44.954
265.81	42.453
266.18	41.419
266.55	44.917
266.92	41.834
267.29	42.982
267.66	42.825
268.03	46.413
268.40	43.975
268.77	42.731
269.14	42.733
269.51	42.984
269.88	42.041
270.25	40.173
270.62	41.631
270.99	43.205
271.36	43.293
271.73	40.042
272.10	41.212
272.47	43.452
272.84	38.323
273.21	39.876
273.58	43.320
273.95	42.710
274.32	41.829
274.69	42.323
275.06	41.348
275.43	40.038
275.80	39.811
276.17	40.441
276.54	41.308
276.91	40.299
277.28	40.876
277.65	39.668
278.02	38.787
278.39	38.849
278.76	38.103
279.13	40.391
279.50	38.727
279.87	39.106
280.23	39.595
280.60	41.788
280.97	40.690
281.34	36.964
281.71	39.130
282.08	39.316
282.45	38.851
282.82	38.127
283.19	38.951
283.56	39.504
283.92	38.436
284.29	36.606
284.66	35.126
285.03	38.308
285.40	37.025
285.77	35.802
286.14	37.461
286.51	39.877
286.87	34.968
287.24	36.336
287.61	36.474
287.98	35.821
288.35	36.296
288.72	34.143
289.08	34.234
289.45	35.976
289.82	36.094
290.19	35.139
290.56	35.808
290.93	33.957
291.29	34.116
291.66	33.616
292.03	33.380
292.40	33.333
292.77	33.008
293.13	34.094
293.50	32.928
293.87	31.436
294.24	33.147
294.60	33.647
294.97	34.545
295.34	32.005
295.71	32.457
296.08	32.133
296.44	32.402
296.81	29.280
297.18	30.545
297.55	30.049
297.91	30.049
298.28	30.918
298.65	30.920
299.02	28.951
299.38	31.295
299.75	29.634
300.12	29.587
300.48	30.094
300.85	30.989
301.22	31.395
301.59	31.604
301.95	30.338
302.32	30.268
302.69	28.959
303.05	29.854
303.42	28.812
303.79	29.252
304.15	28.823
304.52	27.801
304.89	28.998
305.25	28.142
305.62	29.318
305.99	29.239
306.35	28.316
306.72	27.888
307.09	27.950
307.45	27.666
307.82	28.807
308.19	25.773
308.55	27.400
308.92	28.950
309.29	29.191
309.65	29.534
310.02	28.905
310.38	28.116
310.75	27.290
311.12	28.544
311.48	29.537
311.85	27.290
312.22	27.794
312.58	28.280
312.95	29.709
313.31	28.464
313.68	28.518
314.05	29.029
314.41	27.747
314.78	29.072
315.14	29.384
315.51	28.477
315.87	27.555
316.24	27.824
316.61	28.021
316.97	28.349
317.34	29.021
317.70	28.885
318.07	28.648
318.43	29.174
318.80	29.335
319.16	29.458
319.53	28.850
319.89	27.778
320.26	30.726
320.62	29.304
320.99	29.552
321.35	29.035
321.72	28.748
322.08	27.978
322.45	26.703
322.81	27.996
323.18	28.242
323.54	29.617
323.91	29.374
324.27	29.178
324.64	28.806
325.00	30.086
325.37	30.017
325.73	29.174
326.10	30.323
326.46	29.315
326.83	27.440
327.19	29.880
327.56	27.955
327.92	28.607
328.29	30.524
328.65	29.966
329.01	29.855
329.38	28.934
329.74	29.291
330.11	29.887
330.47	29.668
330.84	27.783
331.20	28.511
331.56	28.584
331.93	30.539
332.29	27.211
332.66	29.252
333.02	27.320
333.38	29.058
333.75	28.691
334.11	28.607
334.48	28.632
334.84	27.703
335.20	28.400
335.57	28.128
335.93	29.016
336.29	28.109
336.66	29.588
337.02	27.288
337.38	27.601
337.75	27.534
338.11	28.017
338.47	29.128
338.84	26.842
339.20	27.013
339.56	27.418
339.93	28.094
340.29	26.639
340.65	27.578
341.02	28.158
341.38	27.833
341.74	27.741
342.11	28.715
342.47	27.400
342.83	28.220
343.20	27.486
343.56	26.291
343.92	27.333
344.28	26.954
344.65	27.628
345.01	26.270
345.37	27.885
345.73	26.905
346.10	26.454
346.46	27.911
346.82	25.772
347.19	27.821
347.55	26.073
347.91	26.133
348.27	26.801
348.63	27.532
349.00	27.266
349.36	27.082
349.72	27.446
350.08	27.019
350.45	26.657
350.81	26.911
351.17	26.502
351.53	25.943
351.89	26.651
352.26	26.153
352.62	25.943
352.98	26.227
353.34	26.965
353.70	26.682
354.07	27.154
354.43	26.498
354.79	25.588
355.15	26.953
355.51	26.284
355.87	26.958
356.24	26.405
356.60	26.560
356.96	24.792
357.32	25.019
357.68	25.918
358.04	25.988
358.40	25.937
358.77	26.071
359.13	25.826
359.49	24.833
359.85	25.987
360.21	24.220
360.57	25.620
360.93	26.046
361.29	25.325
361.66	26.398
362.02	24.716
362.38	26.335
362.74	26.610
363.10	25.666
363.46	25.138
363.82	25.806
364.18	25.960
364.54	25.465
364.90	26.104
365.26	24.983
365.62	25.345
365.98	24.363
366.35	24.759
366.71	25.538
367.07	25.119
367.43	25.588
367.79	25.199
368.15	23.541
368.51	25.775
368.87	24.728
369.23	25.641
369.59	25.152
369.95	24.545
370.31	25.325
370.67	25.746
371.03	26.120
371.39	24.931
371.75	25.541
372.11	24.609
372.47	25.959
372.83	25.425
373.19	24.812
373.55	24.880
373.91	24.931
374.27	24.339
374.63	24.000
374.99	24.394
375.35	23.925
375.71	25.792
376.07	24.602
376.42	23.657
376.78	25.305
377.14	24.509
377.50	24.345
377.86	24.151
378.22	24.558
378.58	24.879
378.94	24.442
379.30	24.318
379.66	24.684
380.02	25.103
380.38	24.063
380.74	25.548
381.09	25.350
381.45	24.451
381.81	24.113
382.17	23.321
382.53	24.115
382.89	24.246
383.25	23.742
383.61	22.997
383.97	23.875
384.32	24.714
384.68	24.718
385.04	23.974
385.40	22.954
385.76	23.054
386.12	23.871
386.48	23.708
386.83	24.022
387.19	24.323
387.55	23.616
387.91	23.499
388.27	24.688
388.62	24.413
388.98	24.023
389.34	24.033
389.70	23.703
390.06	23.415
390.42	24.244
390.77	24.386
391.13	23.537
391.49	24.077
391.85	24.123
392.20	24.374
392.56	23.716
392.92	22.852
393.28	23.318
393.64	22.592
393.99	23.770
394.35	24.485
394.71	22.738
395.07	23.297
395.42	23.946
395.78	23.689
396.14	24.518
396.50	23.406
396.85	23.171
397.21	23.345
397.57	22.953
397.92	23.455
398.28	23.221
398.64	22.513
399.00	22.929
399.35	22.598
399.71	22.958
400.07	22.660
400.42	22.507
400.78	22.874
401.14	22.959
401.49	22.984
401.85	23.523
402.21	22.906
402.57	23.579
402.92	22.242
403.28	22.554
403.63	23.367
403.99	23.160
404.35	23.740
404.70	23.745
405.06	21.898
405.42	22.322
405.77	22.712
406.13	22.831
406.49	22.854
406.84	22.109
407.20	23.231
407.55	23.015
407.91	23.165
408.27	22.862
408.62	22.472
408.98	23.004
409.34	22.852
409.69	22.526
410.05	22.242
410.40	22.438
410.76	22.667
411.11	22.690
411.47	22.407
411.83	21.793
412.18	21.558
412.54	22.162
412.89	22.242
413.25	22.748
413.60	22.780
413.96	22.023
414.31	22.491
414.67	23.402
415.03	23.691
415.38	22.776
415.74	23.437
416.09	22.673
416.45	23.400
416.80	24.118
417.16	22.215
417.51	23.057
417.87	22.653
418.22	22.175
418.58	23.312
418.93	21.773
419.29	22.304
419.64	23.137
420.00	22.733
420.35	22.300
420.71	22.404
421.06	21.954
421.42	22.337
421.77	22.543
422.12	22.492
422.48	22.085
422.83	22.098
423.19	21.652
423.54	21.832
423.90	22.424
424.25	22.289
424.61	22.345
424.96	21.739
425.31	21.894
425.67	22.503
426.02	22.210
426.38	21.587
426.73	21.689
427.09	22.123
427.44	22.060
427.79	22.241
428.15	22.392
428.50	22.514
428.85	22.810
429.21	21.988
429.56	22.283
429.92	22.824
430.27	21.964
430.62	21.635
430.98	22.106
431.33	21.321
431.68	20.938
432.04	22.142
432.39	22.997
432.74	22.834
433.10	22.204
433.45	23.492
433.80	23.662
434.16	22.648
434.51	22.446
434.86	22.591
435.22	23.393
435.57	23.059
435.92	22.311
436.28	23.272
436.63	22.312
436.98	23.649
437.34	23.402
437.69	22.452
438.04	22.742
438.39	22.884
438.75	22.996
439.10	23.475
439.45	23.177
439.81	23.250
440.16	22.620
440.51	22.973
440.86	23.305
441.22	22.835
441.57	23.202
441.92	22.557
442.27	22.165
442.63	22.307
442.98	22.737
443.33	22.657
443.68	22.787
444.03	22.196
444.39	22.458
444.74	22.930
445.09	22.433
445.44	22.317
445.79	22.710
446.15	23.737
446.50	23.049
446.85	22.510
447.20	22.338
447.55	22.784
447.91	23.548
448.26	23.429
448.61	22.388
448.96	23.148
449.31	22.937
449.66	23.034
450.02	22.907
450.37	23.542
450.72	23.471
451.07	23.560
451.42	22.347
451.77	24.112
452.12	23.653
452.47	23.633
452.83	23.437
453.18	23.544
453.53	24.275
453.88	24.457
454.23	23.881
454.58	23.543
454.93	23.789
455.28	23.133
455.63	23.818
455.98	23.858
456.34	24.498
456.69	23.659
457.04	24.224
457.39	22.857
457.74	24.550
458.09	23.863
458.44	25.301
458.79	23.448
459.14	23.186
459.49	22.933
459.84	23.859
460.19	24.011
460.54	24.786
460.89	23.881
461.24	23.253
461.59	23.356
461.94	23.936
462.29	25.000
462.64	24.246
462.99	24.888
463.34	24.498
463.69	24.622
464.04	24.583
464.39	24.957
464.74	24.033
465.09	23.506
465.44	23.885
465.79	24.007
466.14	23.211
466.49	23.114
466.84	23.690
467.19	23.902
467.54	24.565
467.89	24.707
468.24	24.725
468.59	23.929
468.94	25.725
469.29	24.863
469.64	25.466
469.99	25.450
470.34	24.858
470.68	24.552
471.03	24.950
471.38	24.967
471.73	23.906
472.08	25.440
472.43	25.078
472.78	25.480
473.13	24.593
473.48	24.572
473.83	24.735
474.17	25.532
474.52	24.941
474.87	23.707
475.22	24.329
475.57	23.767
475.92	24.067
476.27	23.613
476.61	24.129
476.96	24.765
477.31	24.987
477.66	24.638
478.01	24.549
478.36	24.253
478.70	23.921
479.05	24.163
479.40	23.909
479.75	24.677
480.10	24.492
480.45	23.810
480.79	24.194
481.14	24.156
481.49	24.062
481.84	23.659
482.19	23.843
482.53	24.067
482.88	24.149
483.23	23.951
483.58	24.192
483.92	25.411
484.27	23.630
484.62	24.066
484.97	22.828
485.31	23.125
485.66	20.638
486.01	20.610
486.36	20.289
486.70	20.516
487.05	21.381
487.40	22.365
487.75	22.796
488.09	22.585
488.44	23.391
488.79	23.256
489.13	23.218
489.48	23.692
489.83	24.437
490.17	24.112
490.52	24.117
490.87	24.052
491.22	24.867
491.56	24.594
491.91	24.283
492.26	24.499
492.60	24.920
492.95	24.150
493.30	24.932
493.64	24.753
493.99	24.955
494.34	24.429
494.68	23.860
495.03	25.146
495.37	25.709
495.72	24.848
496.07	24.394
496.41	24.891
496.76	24.483
497.11	25.150
497.45	24.726
497.80	25.162
498.14	24.965
498.49	24.930
498.84	24.907
499.18	24.634
499.53	24.897
499.87	24.394
500.22	24.321
500.56	24.513
500.91	25.046
501.26	25.172
501.60	24.772
501.95	23.073
502.29	24.889
502.64	24.658
502.98	24.055
503.33	24.633
503.67	25.298
504.02	24.541
504.36	24.344
504.71	25.024
505.06	24.683
505.40	24.848
505.75	24.649
506.09	25.152
506.44	25.329
506.78	25.756
507.13	25.109
507.47	25.328
507.82	25.012
508.16	26.311
508.51	25.604
508.85	26.068
509.19	25.844
509.54	26.270
509.88	26.057
510.23	25.147
510.57	24.710
510.92	25.674
511.26	25.452
511.61	25.357
511.95	25.784
512.30	25.300
512.64	26.012
512.98	25.935
513.33	25.410
513.67	26.204
514.02	25.922
514.36	26.064
514.70	25.813
515.05	26.372
515.39	26.371
515.74	26.517
516.08	26.743
516.42	27.705
516.77	26.080
517.11	26.347
517.46	26.562
517.80	25.778
518.14	27.211
518.49	26.681
518.83	26.703
519.17	25.402
519.52	26.707
519.86	26.649
520.20	27.288
520.55	26.060
520.89	27.356
521.23	27.220
521.58	25.990
521.92	26.822
522.26	26.718
522.61	27.392
522.95	27.087
523.29	26.901
523.64	26.532
523.98	26.408
524.32	26.874
524.66	27.072
525.01	26.923
525.35	27.225
525.69	27.694
526.04	27.781
526.38	26.722
526.72	26.492
527.06	26.552
527.41	27.449
527.75	26.719
528.09	26.490
528.43	27.639
528.78	26.893
529.12	27.032
529.46	26.008
529.80	27.103
530.15	27.637
530.49	26.715
530.83	26.996
531.17	27.675
531.51	27.529
531.86	26.389
532.20	26.329
532.54	27.746
532.88	27.295
533.22	27.544
533.57	26.968
533.91	25.991
534.25	26.313
534.59	27.135
534.93	26.792
535.27	25.612
535.62	27.013
535.96	25.887
536.30	27.239
536.64	26.335
536.98	26.117
537.32	27.375
537.66	26.403
538.01	26.563
538.35	27.012
538.69	25.850
539.03	26.057
539.37	25.789
539.71	26.790
540.05	25.231
540.39	26.541
540.73	26.582
541.07	25.471
541.42	25.124
541.76	26.757
542.10	25.709
542.44	25.998
542.78	26.054
543.12	25.767
543.46	26.190
543.80	26.504
544.14	25.511
544.48	25.608
544.82	25.627
545.16	25.440
545.50	26.245
545.84	26.136
546.18	27.308
546.52	26.623
546.86	26.112
547.20	26.486
547.54	27.296
547.88	26.460
548.22	25.562
548.56	24.867
548.90	25.741
549.24	26.342
549.58	26.418
549.92	26.392
550.26	26.166
550.60	25.749
550.94	26.934
551.28	27.379
551.62	28.138
551.96	27.027
552.30	26.697
552.64	26.019
552.98	25.451
553.32	26.120
553.66	26.580
554.00	25.483
554.34	27.497
554.68	27.554
555.02	27.155
555.36	26.064
555.69	26.374
556.03	25.987
556.37	26.641
556.71	27.249
557.05	26.409
557.39	26.800
557.73	27.022
558.07	26.559
558.41	27.690
558.75	27.770
559.08	27.663
559.42	28.275
559.76	27.798
560.10	26.084
560.44	26.941
560.78	26.854
561.12	26.446
561.45	25.031
561.79	25.780
562.13	26.153
562.47	25.762
562.81	26.155
563.15	26.761
563.48	24.472
563.82	26.076
564.16	26.493
564.50	26.100
564.84	25.471
565.17	24.658
565.51	26.847
565.85	26.033
566.19	25.774
566.52	25.331
566.86	25.452
567.20	25.899
567.54	24.727
567.88	24.674
568.21	23.864
568.55	23.930
568.89	23.905
569.23	23.339
569.56	22.564
569.90	22.386
570.24	22.249
570.57	22.161
570.91	21.092
571.25	21.263
571.59	20.981
571.92	20.614
572.26	20.404
572.60	20.439
572.93	21.737
573.27	20.764
573.61	20.763
573.95	20.393
574.28	20.359
574.62	20.331
574.96	19.778
575.29	19.968
575.63	20.165
575.97	19.596
576.30	19.742
576.64	20.409
576.98	20.014
577.31	19.955
577.65	19.721
577.98	19.627
578.32	19.279
578.66	19.654
578.99	19.740
579.33	20.072
579.67	19.894
580.00	19.972
580.34	19.937
580.67	19.664
581.01	20.408
581.35	19.479
581.68	19.060
582.02	18.656
582.35	18.973
582.69	19.206
583.02	19.412
583.36	19.764
583.70	20.706
584.03	20.706
584.37	20.318
584.70	20.503
585.04	19.629
585.37	19.612
585.71	20.270
586.04	19.964
586.38	20.517
586.72	20.129
587.05	20.690
587.39	19.924
587.72	20.127
588.06	19.965
588.39	19.985
588.73	20.349
589.06	21.010
589.40	21.158
589.73	21.304
590.07	22.100
590.40	21.777
590.73	22.181
591.07	21.973
591.40	22.036
591.74	22.037
592.07	21.298
592.41	22.062
592.74	21.897
593.08	20.931
593.41	20.108
593.75	20.703
594.08	21.250
594.41	21.180
594.75	21.404
595.08	21.468
595.42	22.449
595.75	21.422
596.09	21.446
596.42	21.559
596.75	22.796
597.09	22.782
597.42	22.367
597.75	22.069
598.09	21.625
598.42	21.134
598.76	21.742
599.09	21.993
599.42	20.623
599.76	21.336
600.09	20.983
600.42	20.994
600.76	21.142
601.09	21.125
601.42	21.401
601.76	21.053
602.09	21.560
602.42	21.294
602.76	21.518
603.09	21.531
603.42	21.431
603.76	21.150
604.09	20.992
604.42	21.092
604.76	21.414
605.09	21.673
605.42	21.942
605.75	21.753
606.09	21.959
606.42	21.007
606.75	21.609
607.09	21.477
607.42	21.937
607.75	21.736
608.08	21.243
608.42	21.938
608.75	21.609
609.08	21.205
609.41	22.136
609.75	22.390
610.08	22.482
610.41	21.827
610.74	22.208
611.07	22.192
611.41	22.660
611.74	23.709
612.07	22.254
612.40	22.515
612.73	23.365
613.07	23.213
613.40	23.058
613.73	22.716
614.06	22.200
614.39	22.828
614.72	23.054
615.06	22.750
615.39	22.822
615.72	21.926
616.05	22.551
616.38	22.070
616.71	22.409
617.05	22.405
617.38	23.202
617.71	23.735
618.04	23.892
618.37	22.568
618.70	22.921
619.03	23.565
619.36	25.126
619.69	24.802
620.03	25.636
620.36	24.727
620.69	25.160
621.02	26.291
621.35	25.358
621.68	25.590
622.01	26.421
622.34	25.200
622.67	25.421
623.00	25.187
623.33	25.371
623.66	24.617
623.99	24.932
624.32	24.322
624.65	25.280
624.99	24.070
625.32	24.516
625.65	24.276
625.98	25.662
626.31	25.964
626.64	25.209
626.97	24.790
627.30	25.776
627.63	25.903
627.96	25.509
628.29	27.145
628.62	25.834
628.95	27.571
629.28	27.520
629.61	26.362
629.94	26.880
630.26	26.430
630.59	26.862
630.92	27.175
631.25	27.108
631.58	27.965
631.91	28.259
632.24	28.669
632.57	27.898
632.90	27.329
633.23	31.060
633.56	28.978
633.89	28.296
634.22	29.602
634.55	27.527
634.88	30.449
635.20	28.812
635.53	29.384
635.86	29.530
636.19	28.171
636.52	28.324
636.85	27.616
637.18	30.228
637.51	28.715
637.83	28.375
638.16	30.129
638.49	29.701
638.82	32.277
639.15	29.142
639.48	30.450
639.81	29.548
640.13	31.288
640.46	30.341
640.79	30.559
641.12	27.428
641.45	32.083
641.77	29.987
642.10	29.853
642.43	31.010
642.76	30.824
643.09	31.124
643.41	31.276
643.74	31.367
644.07	30.973
644.40	30.769
644.73	32.883
645.05	33.135
645.38	32.466
645.71	32.322
646.04	33.435
646.36	33.803
646.69	32.960
647.02	31.360
647.35	28.504
647.67	30.794
648.00	32.736
648.33	32.180
648.66	31.970
648.98	28.551
649.31	29.960
649.64	28.492
649.96	29.445
650.29	29.286
650.62	33.579
650.94	32.681
651.27	33.971
651.60	31.768
651.92	32.565
652.25	34.961
652.58	31.915
652.90	30.988
653.23	29.247
653.56	30.861
653.88	29.809
654.21	29.472
654.54	31.186
654.86	29.499
655.19	29.288
655.52	24.020
655.84	16.705
656.17	19.214
656.49	27.495
656.82	30.586
657.15	24.306
657.47	18.672
657.80	14.556
658.13	11.536
658.45	15.907
658.78	19.161
659.10	19.158
659.43	19.596
659.75	20.333
660.08	21.805
660.41	24.773
660.73	27.854
661.06	30.931
661.38	32.709
661.71	32.374
662.03	33.650
662.36	30.857
662.68	34.823
663.01	30.991
663.33	32.642
663.66	32.150
663.98	32.540
664.31	34.701
664.63	33.142
664.96	35.835
665.28	31.827
665.61	32.453
665.93	32.830
666.26	31.215
666.58	35.046
666.91	30.502
667.23	31.325
667.56	35.113
667.88	34.440
668.21	33.607
668.53	33.468
668.86	35.671
669.18	33.809
669.50	32.438
669.83	32.854
670.15	37.214
670.48	29.687
670.80	32.271
671.13	33.466
671.45	35.070
671.77	33.024
672.10	31.239
672.42	29.770
672.75	30.380
673.07	29.730
673.39	30.351
673.72	32.353
674.04	32.437
674.37	33.031
674.69	31.227
675.01	31.343
675.34	30.426
675.66	32.812
675.98	32.150
676.31	32.800
676.63	31.014
676.95	33.730
677.28	30.629
677.60	32.596
677.92	28.770
678.25	31.589
678.57	30.726
678.89	32.550
679.22	31.618
679.54	31.317
679.86	30.017
680.18	31.634
680.51	30.017
680.83	27.534
681.15	29.809
681.48	32.639
681.80	31.349
682.12	30.104
682.44	29.730
682.77	32.028
683.09	32.039
683.41	33.265
683.73	30.315
684.06	31.548
684.38	31.395
684.70	29.496
685.02	26.563
685.34	32.218
685.67	29.743
685.99	28.736
686.31	27.119
686.63	27.642
686.96	29.085
687.28	26.510
687.60	27.304
687.92	29.481
688.24	32.414
688.56	31.495
688.89	30.593
689.21	31.214
689.53	32.411
689.85	30.488
690.17	30.291
690.49	32.661
690.82	32.143
691.14	32.121
691.46	31.417
691.78	32.943
692.10	31.298
692.42	29.583
692.74	31.783
693.06	29.845
693.39	30.830
693.71	30.845
694.03	31.164
694.35	31.928
694.67	31.568
694.99	32.373
695.31	33.784
695.63	34.163
695.95	34.389
696.27	32.965
696.59	33.652
696.91	32.911
697.23	32.353
697.56	29.668
697.88	28.543
698.20	30.943
698.52	28.988
698.84	32.649
699.16	34.115
699.48	29.449
699.80	32.462
700.12	31.640
700.44	34.346
700.76	34.606
701.08	33.943
701.40	33.766
701.72	39.305
702.04	36.314
702.36	38.172
702.68	33.511
703.00	34.336
703.32	32.506
703.64	34.005
703.96	32.292
704.28	32.804
704.60	34.085
704.91	33.894
705.23	34.659
705.55	33.234
705.87	38.413
706.19	40.125
706.51	39.498
706.83	38.348
707.15	35.561
707.47	33.898
707.79	32.874
708.11	29.252
708.43	30.787
708.74	30.543
709.06	31.628
709.38	32.754
709.70	33.515
710.02	33.424
710.34	34.807
710.66	35.556
710.98	33.060
711.29	35.097
711.61	36.490
711.93	35.258
712.25	34.940
712.57	32.476
712.89	39.394
713.20	33.546
713.52	36.449
713.84	37.160
714.16	32.464
714.48	32.277
714.80	33.604
715.11	28.723
715.43	30.726
715.75	29.859
716.07	32.948
716.39	34.857
716.70	36.137
717.02	39.057
717.34	37.050
717.66	40.625
717.97	40.152
718.29	36.268
718.61	35.811
718.93	34.256
719.24	40.268
719.56	30.690
719.88	34.395
720.20	34.194
720.51	30.719
720.83	35.786
721.15	37.075
721.46	36.644
721.78	36.585
722.10	37.847
722.42	33.445
722.73	35.379
723.05	40.000
723.37	39.576
723.68	36.719
724.00	38.636
724.32	40.304
724.63	39.231
724.95	35.294
725.27	36.059
725.58	36.397
725.90	33.803
726.22	32.192
726.53	32.441
726.85	37.134
727.16	40.604
727.48	31.561
727.80	35.612
728.11	37.500
728.43	34.783
728.74	37.063
729.06	36.201
729.38	32.982
729.69	39.000
730.01	35.526
730.32	37.584
730.64	34.551
730.96	34.535
731.27	27.217
731.59	30.460
731.90	32.033
732.22	31.143
732.53	28.775
732.85	33.041
733.16	29.819
733.48	30.721
733.80	31.594
734.11	34.663
734.43	34.211
734.74	28.954
735.06	33.598
735.37	25.000
735.69	31.594
736.00	32.416
736.32	26.970
736.63	28.707
736.95	31.988
737.26	32.012
737.58	32.209
737.89	31.024
738.21	33.444
738.52	35.452
738.83	35.165
739.15	33.449
739.46	32.414
739.78	39.456
740.09	32.362
740.41	31.902
740.72	34.921
741.04	39.860
741.35	38.672
741.66	35.178
741.98	36.910
742.29	39.815
742.61	40.265
742.92	39.407
743.23	40.800
743.55	38.491
743.86	36.078
744.18	38.983
744.49	33.884
744.80	40.092
745.12	38.839
745.43	39.252
745.74	36.000
746.06	34.211
746.37	37.209
746.68	44.690
747.00	39.013
747.31	37.395
747.62	39.754
747.94	42.060
748.25	33.074
748.56	38.559
748.88	37.054
749.19	39.070
749.50	31.507
749.82	34.568
750.13	39.526
750.44	33.333
750.75	31.208
751.07	31.250
751.38	30.033
751.69	31.987
752.01	32.168
752.32	30.565
752.63	33.557
752.94	33.916
753.26	38.672
753.57	33.463
753.88	29.213
754.19	33.935
754.51	31.894
754.82	31.208
755.13	32.432
755.44	32.222
755.75	34.708
756.07	34.589
756.38	32.353
756.69	30.625
757.00	34.125
757.31	30.986
757.63	29.477
757.94	24.202
758.25	29.710
758.56	25.629
758.87	31.328
759.18	31.395
759.50	31.611
759.81	31.751
760.12	31.461
760.43	30.532
760.74	27.595
761.05	29.443
761.36	28.125
761.67	31.536
761.99	31.831
762.30	32.476
762.61	28.819
762.92	32.576
763.23	33.585
763.54	35.769
763.85	34.630
764.16	34.028
764.47	28.716
764.78	30.293
765.10	31.402
765.41	30.398
765.72	27.624
766.03	30.816
766.34	29.268
766.65	29.278
766.96	39.271
767.27	37.850
767.58	41.089
767.89	39.227
768.20	42.683
768.51	31.122
768.82	39.474
769.13	32.549
769.44	35.338
769.75	31.835
770.06	37.815
770.37	31.140
770.68	34.667
770.99	33.898
771.30	34.728
771.61	33.077
771.92	33.206
772.23	30.242
772.54	36.000
772.85	38.119
773.16	38.043
773.47	40.556
773.78	36.634
774.09	43.182
774.39	44.242
774.70	36.471
775.01	44.737
775.32	38.509
775.63	45.205
775.94	50.617
776.25	54.483
776.56	45.802
776.87	51.145
777.18	49.242
777.48	55.906
777.79	45.385
778.10	50.000
778.41	52.239
778.72	42.105
779.03	39.744
779.34	47.297
779.65	40.373
779.95	34.783
780.26	42.262
780.57	49.660
780.88	43.972
781.19	45.000
781.50	45.562
781.80	46.995
782.11	40.212
782.42	28.161
782.73	33.898
783.04	40.645
783.34	42.636
783.65	42.857
783.96	46.452
784.27	34.437
784.57	39.474
784.88	52.174
785.19	46.667
785.50	47.414
785.81	54.264
786.11	44.444
786.42	45.669
786.73	53.153
787.04	49.057
787.34	39.837
787.65	47.727
787.96	55.303
788.26	46.457
788.57	46.715
788.88	38.028
789.19	45.038
789.49	45.270
789.80	39.062
790.11	43.802
790.41	54.630
790.72	48.148
791.03	59.615
791.33	58.586
791.64	62.105
791.95	51.579
792.25	53.125
792.56	57.000
792.87	63.415
793.17	71.591
793.48	62.353
793.79	58.621
794.09	70.455
794.40	60.345
794.70	50.000
795.01	35.385
795.32	46.565
795.62	41.880
795.93	42.857
796.23	48.780
796.54	60.204
796.85	47.727
797.15	55.844
797.46	62.195
797.76	67.500
798.07	69.333
798.37	58.750
798.68	82.500
798.99	78.049
799.29	70.667
799.60	46.512
799.90	65.789
800.21	63.636
800.51	64.789
800.82	56.897
801.12	63.077
801.43	73.333
801.73	70.690
802.04	57.143
802.34	73.973
802.65	84.314
802.95	93.478
803.26	70.968
803.56	71.667
803.87	77.612
804.17	92.063
804.48	84.906
804.78	63.889
805.09	90.909
805.39	63.492
805.70	80.702
806.00	52.857
806.30	70.312
806.61	61.176
806.91	51.111
807.22	58.696
807.52	63.158
807.83	69.737
808.13	60.870
808.43	69.355
808.74	67.123
809.04	82.143
809.35	61.765
809.65	77.273
809.95	101.961
810.26	100.000
810.56	84.375
810.86	97.959
811.17	82.456
811.47	106.522
811.77	77.586
812.08	77.586
812.38	102.381
812.69	90.476
812.99	62.222
813.29	97.143
813.59	138.710
813.90	86.207
814.20	86.885
814.50	66.000
814.81	77.193
815.11	85.185
815.41	83.929
815.72	80.357
816.02	92.000
816.32	68.293
816.62	79.310
816.93	127.273
817.23	121.951
817.53	92.857
817.84	100.000
818.14	73.810
818.44	89.583
818.74	94.340
819.04	92.308
819.35	130.303
819.65	100.000
819.95	118.519
820.25	104.255
820.56	124.324
820.86	113.158
821.16	89.362
821.46	107.895
821.76	90.909
822.07	97.619
822.37	102.632
822.67	106.977
822.97	84.211
823.27	91.304
823.57	115.625
823.88	97.436
824.18	115.152
824.48	117.391
824.78	97.222
825.08	130.435
825.38	127.586
825.69	102.941
825.99	82.979
826.29	50.000
826.59	105.714
826.89	86.667
827.19	114.286
827.49	170.968
827.79	157.692
828.09	76.190
828.39	83.333
828.70	81.081
829.00	135.714
829.30	212.500
829.60	108.333
829.90	116.129
830.20	96.970
830.50	132.432
830.80	191.667
831.10	150.000
831.40	133.333
831.70	170.833
832.00	126.667
832.30	152.174
832.60	187.500
832.90	142.424
833.20	175.000
833.50	110.526
833.80	94.118
834.10	113.158
834.40	110.526
834.70	103.333
835.00	208.000
835.30	102.703
835.60	109.375
835.90	105.405
836.20	161.538
836.50	127.273
836.80	107.317
837.10	91.304
837.40	253.846
837.70	142.105
838.00	173.333
838.30	162.500
838.60	148.000
838.90	230.000
839.19	206.250
839.49	166.667
839.79	137.931
840.09	153.846
840.39	133.333
840.69	194.737
840.99	128.571
841.29	152.174
841.59	195.000
841.88	132.000
842.18	322.222
842.48	128.571
842.78	140.741
843.08	246.154
843.38	195.455
843.68	207.143
843.97	428.571
844.27	173.913
844.57	1350.000
844.87	264.286
845.17	233.333
845.47	95.238
845.76	187.500
846.06	500.000
846.36	182.353
846.66	223.077
846.96	231.250
847.25	215.385
847.55	163.158
847.85	166.667
848.15	680.000
848.44	309.091
848.74	166.667
849.04	150.000
849.34	170.588
849.63	256.250
849.93	225.000
850.23	1033.333
850.53	375.000
850.82	272.727
851.12	170.588
851.42	162.500
851.71	275.000
852.01	0.000
852.31	217.647
852.61	400.000
852.90	187.500
853.20	255.556
853.50	-1500.000
853.79	108.000
854.09	109.375
854.39	103.448
854.68	155.172
854.98	228.571
855.28	122.581
855.57	207.143
855.87	161.111
856.17	148.148
856.46	147.368
856.76	148.387
857.05	241.176
857.35	236.364
857.65	276.923
857.94	150.000
858.24	477.778
858.53	364.286
858.83	671.429
859.13	186.957
859.42	333.333
859.72	300.000
860.01	250.000
860.31	1000.000
860.60	390.000
860.90	312.500
861.20	269.231
861.49	385.714
861.79	-2700.000
862.08	542.857
862.38	355.556
862.67	207.143
862.97	360.000
863.26	150.000
863.56	725.000
863.85	315.385
864.15	288.235
864.44	188.889
864.74	358.333
865.03	254.545
865.33	375.000
865.62	226.667
865.92	533.333
866.21	825.000
866.51	600.000
866.80	172.222
867.10	966.667
867.39	2400.000
867.69	640.000
867.98	975.000
868.27	152.381
868.57	226.667
868.86	925.000
869.16	128.571
869.45	3200.000
869.75	-616.667
870.04	800.000
870.33	760.000
870.63	287.500
870.92	188.235
871.22	675.000
871.51	414.286
871.80	283.333
872.10	307.692
>>>>>End Processed Spectral Data<<<<<
