SpectraSuite Data File
++++++++++++++++++++++++++++++++++++
Date: Tue May 12 16:52:12 PDT 2015
User: schluterlab
Dark Spectrum Present: Yes
Reference Spectrum Present: Yes
Number of Sampled Component Spectra: 1
Spectrometers: USB2E3373
Integration Time (usec): 3000 (USB2E3373)
Spectra Averaged: 3 (USB2E3373)
Boxcar Smoothing: 0 (USB2E3373)
Correct for Electrical Dark: No (USB2E3373)
Strobe/Lamp Enabled: No (USB2E3373)
Correct for Detector Non-linearity: No (USB2E3373)
Correct for Stray Light: No (USB2E3373)
Number of Pixels in Processed Spectrum: 2048
>>>>>Begin Processed Spectral Data<<<<<
178.53	0.000
178.91	-275.000
179.29	-775.000
179.67	-3800.000
180.04	-153.333
180.42	600.000
180.80	2200.000
181.18	0.000
181.56	-287.500
181.94	0.000
182.31	966.667
182.69	-3200.000
183.07	557.143
183.45	-4200.000
183.83	-1400.000
184.20	380.000
184.58	485.714
184.96	-200.000
185.34	-225.000
185.72	1700.000
186.09	-1150.000
186.47	-2900.000
186.85	1300.000
187.23	600.000
187.61	1450.000
187.98	475.000
188.36	335.714
188.74	350.000
189.12	341.667
189.49	850.000
189.87	0.000
190.25	450.000
190.63	2200.000
191.00	-191.667
191.38	-3000.000
191.76	-675.000
192.14	575.000
192.51	-2800.000
192.89	1700.000
193.27	1066.667
193.65	-1233.333
194.02	-700.000
194.40	557.143
194.78	-242.857
195.15	240.000
195.53	-3000.000
195.91	-600.000
196.29	3900.000
196.66	262.500
197.04	800.000
197.42	-1500.000
197.79	475.000
198.17	316.667
198.55	0.000
198.92	414.286
199.30	1200.000
199.68	1600.000
200.05	616.667
200.43	-233.333
200.81	183.333
201.18	3500.000
201.56	266.667
201.94	-800.000
202.31	-212.500
202.69	-440.000
203.07	3600.000
203.44	-516.667
203.82	333.333
204.19	660.000
204.57	-1450.000
204.95	-725.000
205.32	-720.000
205.70	483.333
206.08	875.000
206.45	-733.333
206.83	377.778
207.20	136.842
207.58	316.667
207.96	600.000
208.33	0.000
208.71	614.286
209.08	640.000
209.46	-3700.000
209.84	-725.000
210.21	640.000
210.59	-660.000
210.96	283.333
211.34	-875.000
211.71	472.727
212.09	825.000
212.46	1900.000
212.84	-466.667
213.22	355.556
213.59	-2000.000
213.97	260.000
214.34	900.000
214.72	1100.000
215.09	1300.000
215.47	-3700.000
215.84	-300.000
216.22	-500.000
216.59	0.000
216.97	0.000
217.34	1600.000
217.72	-1750.000
218.09	1166.667
218.47	537.500
218.84	775.000
219.22	1066.667
219.59	1066.667
219.97	571.429
220.34	444.444
220.72	1300.000
221.09	3300.000
221.47	308.333
221.84	1366.667
222.22	370.000
222.59	255.556
222.97	271.429
223.34	243.750
223.72	-1800.000
224.09	1100.000
224.46	223.077
224.84	-800.000
225.21	366.667
225.59	273.333
225.96	1066.667
226.34	-660.000
226.71	-375.000
227.08	-480.000
227.46	0.000
227.83	-600.000
228.21	-1600.000
228.58	408.333
228.95	1025.000
229.33	388.889
229.70	1050.000
230.08	392.308
230.45	4800.000
230.82	-975.000
231.20	-833.333
231.57	-900.000
231.95	560.000
232.32	308.333
232.69	266.667
233.07	325.000
233.44	-1600.000
233.81	233.333
234.19	137.037
234.56	256.250
234.93	217.647
235.31	180.000
235.68	206.250
236.05	164.286
236.43	100.000
236.80	192.857
237.17	131.034
237.55	115.625
237.92	115.000
238.29	87.879
238.67	115.625
239.04	90.244
239.41	60.417
239.79	77.500
240.16	64.583
240.53	57.377
240.91	49.275
241.28	59.322
241.65	43.939
242.02	56.338
242.40	57.143
242.77	45.055
243.14	34.177
243.51	46.465
243.89	34.579
244.26	33.645
244.63	36.634
245.00	33.028
245.38	27.119
245.75	30.303
246.12	35.556
246.49	24.823
246.87	20.492
247.24	25.333
247.61	22.500
247.98	21.769
248.36	21.212
248.73	25.000
249.10	16.667
249.47	19.500
249.84	23.881
250.22	18.378
250.59	21.500
250.96	20.675
251.33	19.535
251.70	20.089
252.08	19.748
252.45	18.725
252.82	15.589
253.19	15.810
253.56	13.846
253.94	15.580
254.31	14.341
254.68	17.073
255.05	16.897
255.42	15.693
255.79	13.681
256.16	14.915
256.54	15.584
256.91	10.131
257.28	11.706
257.65	9.091
258.02	9.440
258.39	14.900
258.76	13.913
259.14	10.286
259.51	11.953
259.88	13.070
260.25	9.341
260.62	10.959
260.99	7.989
261.36	10.585
261.73	9.840
262.10	10.471
262.47	9.750
262.85	7.200
263.22	10.797
263.59	9.463
263.96	12.030
264.33	8.148
264.70	12.776
265.07	6.098
265.44	11.927
265.81	9.434
266.18	9.611
266.55	9.693
266.92	8.501
267.29	9.649
267.66	7.848
268.03	7.848
268.40	9.302
268.77	11.674
269.14	5.857
269.51	6.459
269.88	8.980
270.25	5.832
270.62	8.155
270.99	10.751
271.36	8.537
271.73	9.434
272.10	9.697
272.47	7.738
272.84	6.986
273.21	8.058
273.58	9.109
273.95	6.571
274.32	8.366
274.69	10.827
275.06	8.379
275.43	7.471
275.80	8.491
276.17	10.846
276.54	8.972
276.91	7.276
277.28	8.029
277.65	7.380
278.02	8.088
278.39	7.014
278.76	8.276
279.13	6.584
279.50	8.727
279.87	8.566
280.23	5.525
280.60	8.394
280.97	7.759
281.34	7.261
281.71	8.870
282.08	9.231
282.45	6.588
282.82	8.528
283.19	8.903
283.56	5.950
283.92	7.818
284.29	7.155
284.66	6.723
285.03	8.458
285.40	7.603
285.77	7.716
286.14	8.359
286.51	7.362
286.87	5.380
287.24	6.156
287.61	6.687
287.98	7.612
288.35	6.667
288.72	6.525
289.08	6.607
289.45	7.317
289.82	9.219
290.19	8.785
290.56	8.151
290.93	7.626
291.29	7.873
291.66	5.791
292.03	8.275
292.40	7.588
292.77	6.685
293.13	6.847
293.50	6.748
293.87	7.317
294.24	8.531
294.60	8.345
294.97	9.930
295.34	8.234
295.71	7.884
296.08	10.000
296.44	8.767
296.81	7.692
297.18	6.971
297.55	8.744
297.91	7.759
298.28	9.903
298.65	8.098
299.02	8.082
299.38	8.993
299.75	8.171
300.12	9.748
300.48	10.304
300.85	9.654
301.22	9.302
301.59	8.608
301.95	9.335
302.32	10.477
302.69	10.068
303.05	11.111
303.42	10.090
303.79	10.401
304.15	10.781
304.52	10.571
304.89	11.087
305.25	10.234
305.62	11.834
305.99	11.522
306.35	11.789
306.72	11.655
307.09	11.491
307.45	11.616
307.82	11.420
308.19	12.165
308.55	10.400
308.92	13.739
309.29	13.116
309.65	11.695
310.02	12.576
310.38	14.158
310.75	12.633
311.12	11.782
311.48	13.514
311.85	14.122
312.22	14.040
312.58	13.605
312.95	14.175
313.31	12.734
313.68	13.508
314.05	15.842
314.41	15.177
314.78	15.057
315.14	15.071
315.51	15.610
315.87	15.420
316.24	16.713
316.61	15.219
316.97	14.954
317.34	16.262
317.70	16.330
318.07	17.260
318.43	16.960
318.80	18.039
319.16	17.570
319.53	16.726
319.89	17.294
320.26	19.367
320.62	17.399
320.99	16.969
321.35	18.089
321.72	18.596
322.08	20.960
322.45	19.619
322.81	19.213
323.18	19.982
323.54	20.819
323.91	21.487
324.27	20.778
324.64	20.156
325.00	22.845
325.37	22.597
325.73	23.272
326.10	24.938
326.46	24.277
326.83	23.680
327.19	24.016
327.56	23.083
327.92	23.934
328.29	26.187
328.65	26.199
329.01	25.920
329.38	25.719
329.74	23.997
330.11	26.499
330.47	26.939
330.84	24.763
331.20	25.888
331.56	28.152
331.93	27.973
332.29	25.085
332.66	26.871
333.02	26.632
333.38	26.091
333.75	27.606
334.11	28.104
334.48	26.581
334.84	26.267
335.20	27.288
335.57	27.708
335.93	26.493
336.29	26.617
336.66	28.559
337.02	26.176
337.38	26.741
337.75	26.605
338.11	27.932
338.47	26.418
338.84	26.672
339.20	26.494
339.56	26.409
339.93	27.258
340.29	25.966
340.65	27.829
341.02	27.031
341.38	26.683
341.74	27.326
342.11	26.628
342.47	26.333
342.83	27.892
343.20	27.243
343.56	25.894
343.92	26.094
344.28	28.469
344.65	27.547
345.01	25.873
345.37	26.522
345.73	27.063
346.10	25.498
346.46	27.671
346.82	26.466
347.19	28.053
347.55	27.244
347.91	27.115
348.27	26.026
348.63	28.323
349.00	28.332
349.36	27.393
349.72	27.752
350.08	27.640
350.45	27.190
350.81	27.752
351.17	27.196
351.53	27.252
351.89	28.205
352.26	27.438
352.62	27.677
352.98	27.071
353.34	29.122
353.70	27.141
354.07	28.231
354.43	28.648
354.79	26.651
355.15	28.331
355.51	27.568
355.87	27.334
356.24	28.329
356.60	27.093
356.96	27.672
357.32	27.958
357.68	28.414
358.04	28.571
358.40	27.511
358.77	28.249
359.13	27.252
359.49	27.057
359.85	27.774
360.21	27.935
360.57	28.029
360.93	28.283
361.29	27.345
361.66	28.784
362.02	27.770
362.38	27.633
362.74	27.247
363.10	28.050
363.46	27.348
363.82	28.541
364.18	27.952
364.54	28.684
364.90	27.711
365.26	29.563
365.62	27.693
365.98	27.873
366.35	27.724
366.71	28.661
367.07	27.850
367.43	27.401
367.79	27.992
368.15	27.476
368.51	27.843
368.87	26.970
369.23	28.482
369.59	28.658
369.95	29.301
370.31	27.926
370.67	26.926
371.03	28.641
371.39	27.978
371.75	28.123
372.11	27.940
372.47	28.630
372.83	27.192
373.19	29.404
373.55	27.835
373.91	27.901
374.27	28.241
374.63	28.000
374.99	28.369
375.35	27.957
375.71	29.354
376.07	27.586
376.42	27.813
376.78	28.645
377.14	27.392
377.50	28.090
377.86	27.995
378.22	26.935
378.58	29.298
378.94	27.339
379.30	28.260
379.66	27.875
380.02	28.035
380.38	26.991
380.74	28.258
381.09	27.395
381.45	26.936
381.81	28.014
382.17	27.656
382.53	27.115
382.89	27.262
383.25	27.709
383.61	27.493
383.97	27.175
384.32	27.366
384.68	28.461
385.04	27.843
385.40	27.699
385.76	26.156
386.12	26.407
386.48	27.538
386.83	26.039
387.19	27.150
387.55	27.503
387.91	27.887
388.27	26.651
388.62	26.585
388.98	26.181
389.34	25.521
389.70	25.884
390.06	26.463
390.42	26.712
390.77	26.966
391.13	25.830
391.49	25.953
391.85	26.769
392.20	26.103
392.56	26.165
392.92	25.491
393.28	25.617
393.64	24.369
393.99	24.363
394.35	24.603
394.71	24.427
395.07	24.209
395.42	24.649
395.78	24.738
396.14	25.723
396.50	25.090
396.85	25.427
397.21	24.368
397.57	24.626
397.92	23.570
398.28	23.828
398.64	24.666
399.00	24.105
399.35	22.974
399.71	23.344
400.07	23.345
400.42	24.060
400.78	23.050
401.14	23.664
401.49	22.638
401.85	22.943
402.21	22.847
402.57	23.279
402.92	22.667
403.28	22.494
403.63	22.778
403.99	22.738
404.35	23.505
404.70	22.032
405.06	21.673
405.42	22.202
405.77	22.106
406.13	21.150
406.49	21.660
406.84	21.320
407.20	22.146
407.55	21.354
407.91	21.698
408.27	21.831
408.62	21.585
408.98	21.289
409.34	20.807
409.69	21.655
410.05	20.513
410.40	20.200
410.76	20.893
411.11	20.794
411.47	21.111
411.83	21.090
412.18	20.954
412.54	19.339
412.89	19.469
413.25	21.266
413.60	20.327
413.96	20.766
414.31	20.366
414.67	20.546
415.03	20.562
415.38	21.073
415.74	20.531
416.09	20.737
416.45	21.332
416.80	21.488
417.16	20.433
417.51	21.338
417.87	21.277
418.22	21.021
418.58	21.146
418.93	21.237
419.29	20.826
419.64	21.623
420.00	22.613
420.35	20.732
420.71	20.362
421.06	21.248
421.42	22.050
421.77	21.210
422.12	21.940
422.48	21.469
422.83	22.154
423.19	21.868
423.54	22.106
423.90	23.160
424.25	23.005
424.61	22.867
424.96	21.400
425.31	22.715
425.67	23.008
426.02	22.827
426.38	23.454
426.73	23.540
427.09	23.606
427.44	24.029
427.79	23.785
428.15	24.573
428.50	24.629
428.85	24.045
429.21	24.095
429.56	23.629
429.92	24.515
430.27	24.238
430.62	24.327
430.98	24.351
431.33	24.395
431.68	23.160
432.04	24.884
432.39	25.082
432.74	26.347
433.10	25.637
433.45	25.330
433.80	26.089
434.16	25.171
434.51	25.593
434.86	26.783
435.22	24.905
435.57	26.141
435.92	27.433
436.28	27.477
436.63	26.472
436.98	27.477
437.34	26.941
437.69	26.764
438.04	27.043
438.39	27.788
438.75	26.392
439.10	27.415
439.45	26.512
439.81	28.282
440.16	28.729
440.51	27.703
440.86	28.832
441.22	28.030
441.57	29.239
441.92	28.529
442.27	27.835
442.63	27.846
442.98	27.909
443.33	28.816
443.68	28.320
444.03	28.558
444.39	29.002
444.74	29.296
445.09	28.594
445.44	29.012
445.79	28.801
446.15	29.632
446.50	29.272
446.85	29.233
447.20	28.607
447.55	29.255
447.91	29.835
448.26	29.446
448.61	29.298
448.96	30.174
449.31	30.638
449.66	30.731
450.02	29.390
450.37	30.428
450.72	30.468
451.07	30.774
451.42	31.002
451.77	30.183
452.12	30.516
452.47	30.984
452.83	30.704
453.18	31.652
453.53	31.380
453.88	31.257
454.23	30.854
454.58	31.002
454.93	31.269
455.28	31.151
455.63	31.147
455.98	30.739
456.34	31.489
456.69	31.402
457.04	32.220
457.39	31.600
457.74	30.968
458.09	31.499
458.44	31.271
458.79	32.042
459.14	31.151
459.49	30.521
459.84	32.717
460.19	31.751
460.54	31.282
460.89	30.597
461.24	30.985
461.59	32.483
461.94	33.097
462.29	32.666
462.64	32.601
462.99	32.182
463.34	32.534
463.69	33.091
464.04	32.412
464.39	31.368
464.74	30.598
465.09	31.863
465.44	32.209
465.79	31.791
466.14	31.902
466.49	31.470
466.84	31.661
467.19	31.752
467.54	31.111
467.89	32.336
468.24	31.789
468.59	32.857
468.94	32.488
469.29	32.315
469.64	32.797
469.99	32.134
470.34	33.080
470.68	32.897
471.03	32.155
471.38	32.715
471.73	32.462
472.08	34.181
472.43	33.520
472.78	33.867
473.13	32.541
473.48	32.824
473.83	33.569
474.17	32.584
474.52	32.701
474.87	32.405
475.22	33.352
475.57	32.424
475.92	32.397
476.27	32.699
476.61	32.440
476.96	32.079
477.31	32.545
477.66	33.011
478.01	32.439
478.36	33.213
478.70	31.712
479.05	32.322
479.40	32.688
479.75	32.870
480.10	33.059
480.45	31.559
480.79	32.396
481.14	32.573
481.49	32.159
481.84	32.894
482.19	32.489
482.53	31.840
482.88	31.989
483.23	32.476
483.58	32.316
483.92	33.501
484.27	32.577
484.62	32.385
484.97	31.944
485.31	31.496
485.66	30.469
486.01	30.208
486.36	29.936
486.70	29.887
487.05	30.112
487.40	30.437
487.75	31.172
488.09	30.625
488.44	31.262
488.79	31.204
489.13	31.392
489.48	31.762
489.83	32.110
490.17	32.329
490.52	32.817
490.87	32.198
491.22	32.846
491.56	33.992
491.91	32.975
492.26	32.873
492.60	32.984
492.95	33.439
493.30	33.348
493.64	33.423
493.99	32.111
494.34	31.959
494.68	32.581
495.03	33.273
495.37	33.498
495.72	33.473
496.07	32.704
496.41	32.363
496.76	33.010
497.11	32.991
497.45	32.705
497.80	33.503
498.14	33.287
498.49	33.519
498.84	33.364
499.18	32.587
499.53	33.073
499.87	33.019
500.22	33.395
500.56	32.591
500.91	34.137
501.26	33.532
501.60	33.197
501.95	32.124
502.29	32.978
502.64	32.863
502.98	32.548
503.33	32.873
503.67	33.422
504.02	32.378
504.36	33.213
504.71	33.018
505.06	34.069
505.40	32.943
505.75	33.396
506.09	33.271
506.44	33.412
506.78	34.216
507.13	34.222
507.47	32.703
507.82	33.382
508.16	34.787
508.51	33.382
508.85	33.428
509.19	33.970
509.54	33.057
509.88	34.510
510.23	34.461
510.57	33.446
510.92	34.066
511.26	34.789
511.61	33.481
511.95	33.649
512.30	33.800
512.64	33.541
512.98	33.624
513.33	33.965
513.67	34.024
514.02	34.494
514.36	33.749
514.70	34.987
515.05	34.576
515.39	34.759
515.74	34.718
516.08	34.314
516.42	35.792
516.77	33.867
517.11	35.307
517.46	35.237
517.80	34.954
518.14	35.268
518.49	34.123
518.83	33.242
519.17	34.221
519.52	34.899
519.86	34.496
520.20	34.904
520.55	34.426
520.89	34.943
521.23	35.280
521.58	34.768
521.92	33.936
522.26	33.827
522.61	35.294
522.95	35.976
523.29	35.556
523.64	34.566
523.98	35.446
524.32	34.660
524.66	35.072
525.01	33.787
525.35	34.649
525.69	35.220
526.04	34.146
526.38	34.314
526.72	34.129
527.06	33.116
527.41	34.583
527.75	34.632
528.09	33.233
528.43	35.387
528.78	34.347
529.12	35.641
529.46	32.963
529.80	34.112
530.15	34.119
530.49	33.815
530.83	34.613
531.17	34.133
531.51	34.028
531.86	33.937
532.20	34.302
532.54	33.773
532.88	34.291
533.22	34.430
533.57	34.777
533.91	33.450
534.25	32.833
534.59	32.982
534.93	32.480
535.27	32.954
535.62	33.547
535.96	33.924
536.30	34.857
536.64	34.534
536.98	33.606
537.32	34.437
537.66	34.120
538.01	33.437
538.35	33.812
538.69	33.556
539.03	33.396
539.37	33.495
539.71	34.630
540.05	33.908
540.39	35.346
540.73	34.684
541.07	33.563
541.42	34.017
541.76	33.785
542.10	33.539
542.44	34.040
542.78	33.103
543.12	33.436
543.46	32.957
543.80	33.709
544.14	33.560
544.48	33.516
544.82	34.190
545.16	33.394
545.50	33.067
545.84	34.154
546.18	34.525
546.52	34.033
546.86	33.785
547.20	33.721
547.54	33.249
547.88	33.637
548.22	33.273
548.56	34.060
548.90	33.333
549.24	35.123
549.58	33.376
549.92	35.036
550.26	35.227
550.60	34.597
550.94	35.210
551.28	35.034
551.62	35.379
551.96	35.270
552.30	34.410
552.64	35.275
552.98	33.247
553.32	33.995
553.66	34.463
554.00	35.071
554.34	35.419
554.68	35.887
555.02	34.623
555.36	35.173
555.69	34.097
556.03	34.713
556.37	34.162
556.71	34.876
557.05	34.535
557.39	35.133
557.73	35.377
558.07	36.419
558.41	35.504
558.75	35.021
559.08	36.169
559.42	36.578
559.76	36.565
560.10	35.788
560.44	33.776
560.78	35.230
561.12	35.156
561.45	34.355
561.79	34.831
562.13	34.681
562.47	34.653
562.81	35.784
563.15	34.131
563.48	33.602
563.82	35.246
564.16	34.453
564.50	33.695
564.84	34.650
565.17	33.155
565.51	35.099
565.85	34.732
566.19	33.571
566.52	33.995
566.86	34.851
567.20	33.708
567.54	34.552
567.88	33.803
568.21	32.252
568.55	32.831
568.89	32.847
569.23	32.399
569.56	32.827
569.90	31.836
570.24	31.278
570.57	30.727
570.91	30.640
571.25	30.842
571.59	30.598
571.92	30.086
572.26	29.704
572.60	29.575
572.93	30.679
573.27	30.557
573.61	30.401
573.95	30.055
574.28	30.126
574.62	29.367
574.96	29.543
575.29	29.409
575.63	29.588
575.97	29.333
576.30	29.233
576.64	29.506
576.98	29.789
577.31	30.190
577.65	29.842
577.98	29.151
578.32	28.872
578.66	29.763
578.99	29.159
579.33	29.905
579.67	29.102
580.00	29.626
580.34	29.593
580.67	29.776
581.01	30.173
581.35	29.994
581.68	29.313
582.02	29.493
582.35	29.731
582.69	30.333
583.02	29.987
583.36	30.584
583.70	30.551
584.03	31.320
584.37	31.424
584.70	31.177
585.04	30.930
585.37	30.568
585.71	31.146
586.04	30.432
586.38	30.931
586.72	31.609
587.05	31.523
587.39	31.631
587.72	31.715
588.06	31.686
588.39	31.960
588.73	31.626
589.06	32.419
589.40	32.488
589.73	32.121
590.07	33.253
590.40	33.310
590.73	33.603
591.07	34.307
591.40	33.373
591.74	33.685
592.07	32.612
592.41	33.973
592.74	33.175
593.08	32.910
593.41	32.226
593.75	32.299
594.08	33.107
594.41	32.812
594.75	33.288
595.08	33.059
595.42	33.213
595.75	33.268
596.09	33.021
596.42	33.248
596.75	34.655
597.09	34.668
597.42	33.633
597.75	34.037
598.09	33.238
598.42	34.313
598.76	33.732
599.09	34.241
599.42	32.699
599.76	33.412
600.09	33.119
600.42	33.978
600.76	33.719
601.09	33.586
601.42	34.002
601.76	33.727
602.09	34.180
602.42	33.198
602.76	34.042
603.09	34.201
603.42	33.615
603.76	33.731
604.09	32.971
604.42	33.446
604.76	34.018
605.09	34.163
605.42	34.945
605.75	34.110
606.09	34.468
606.42	34.386
606.75	33.890
607.09	33.991
607.42	33.829
607.75	33.997
608.08	34.322
608.42	34.648
608.75	34.403
609.08	34.052
609.41	35.273
609.75	34.799
610.08	34.667
610.41	34.387
610.74	34.935
611.07	34.834
611.41	35.774
611.74	35.612
612.07	35.645
612.40	36.160
612.73	36.096
613.07	35.834
613.40	35.639
613.73	35.746
614.06	34.600
614.39	35.152
614.72	35.309
615.06	34.718
615.39	35.198
615.72	35.576
616.05	35.008
616.38	34.703
616.71	34.889
617.05	35.805
617.38	35.730
617.71	35.996
618.04	36.175
618.37	35.575
618.70	35.855
619.03	36.752
619.36	37.060
619.69	36.346
620.03	37.704
620.36	38.150
620.69	38.123
621.02	38.247
621.35	37.679
621.68	38.938
622.01	39.336
622.34	38.237
622.67	37.149
623.00	37.577
623.33	36.640
623.66	35.995
623.99	37.603
624.32	37.669
624.65	36.340
624.99	37.525
625.32	36.941
625.65	37.724
625.98	36.820
626.31	38.427
626.64	37.054
626.97	37.567
627.30	39.286
627.63	38.069
627.96	38.106
628.29	39.769
628.62	38.238
628.95	39.539
629.28	39.877
629.61	39.104
629.94	38.634
630.26	40.035
630.59	39.894
630.92	39.641
631.25	39.710
631.58	42.237
631.91	41.389
632.24	39.553
632.57	39.489
632.90	42.340
633.23	42.078
633.56	42.255
633.89	41.050
634.22	42.196
634.55	42.043
634.88	43.154
635.20	42.713
635.53	42.276
635.86	44.519
636.19	42.649
636.52	40.865
636.85	39.914
637.18	42.254
637.51	42.123
637.83	42.449
638.16	43.376
638.49	42.754
638.82	43.310
639.15	42.891
639.48	43.720
639.81	44.200
640.13	42.577
640.46	42.604
640.79	43.953
641.12	42.126
641.45	43.984
641.77	43.593
642.10	45.515
642.43	44.523
642.76	43.892
643.09	45.245
643.41	42.777
643.74	43.597
644.07	45.428
644.40	44.970
644.73	44.745
645.05	45.617
645.38	47.626
645.71	45.675
646.04	44.122
646.36	44.444
646.69	45.280
647.02	46.880
647.35	45.669
647.67	46.029
648.00	45.277
648.33	43.609
648.66	45.152
648.98	43.188
649.31	41.700
649.64	42.739
649.96	43.954
650.29	42.286
650.62	43.888
650.94	46.235
651.27	47.847
651.60	45.383
651.92	45.469
652.25	45.039
652.58	42.837
652.90	44.461
653.23	44.018
653.56	43.323
653.88	41.997
654.21	44.282
654.54	42.167
654.86	44.543
655.19	42.744
655.52	36.542
655.84	30.181
656.17	34.728
656.49	49.627
656.82	56.251
657.15	44.719
657.47	33.415
657.80	24.784
658.13	19.849
658.45	27.313
658.78	32.225
659.10	33.105
659.43	33.670
659.75	34.926
660.08	35.965
660.41	37.568
660.73	40.778
661.06	43.544
661.38	46.508
661.71	47.482
662.03	46.008
662.36	48.190
662.68	45.810
663.01	47.387
663.33	46.038
663.66	45.562
663.98	47.619
664.31	46.642
664.63	45.402
664.96	49.906
665.28	44.821
665.61	45.660
665.93	46.415
666.26	49.720
666.58	48.624
666.91	45.753
667.23	47.590
667.56	48.871
667.88	48.755
668.21	49.385
668.53	49.194
668.86	50.100
669.18	47.862
669.50	46.694
669.83	47.023
670.15	46.362
670.48	44.141
670.80	47.610
671.13	47.610
671.45	48.697
671.77	45.826
672.10	48.115
672.42	43.914
672.75	44.937
673.07	43.084
673.39	42.492
673.72	46.194
674.04	44.624
674.37	43.376
674.69	45.725
675.01	45.896
675.34	44.574
675.66	45.117
675.98	46.154
676.31	47.800
676.63	46.720
676.95	48.810
677.28	45.842
677.60	46.881
677.92	46.230
678.25	46.705
678.57	44.134
678.89	46.474
679.22	45.588
679.54	43.772
679.86	44.503
680.18	45.167
680.51	42.289
680.83	42.568
681.15	45.234
681.48	43.056
681.80	43.082
682.12	45.329
682.44	43.243
682.77	44.840
683.09	44.660
683.41	46.531
683.73	46.063
684.06	43.056
684.38	47.481
684.70	45.324
685.02	43.229
685.34	46.303
685.67	42.926
685.99	42.200
686.31	40.678
686.63	42.927
686.96	44.281
687.28	41.443
687.60	44.710
687.92	42.044
688.24	44.655
688.56	44.484
688.89	41.874
689.21	43.353
689.53	45.455
689.85	44.512
690.17	44.078
690.49	44.556
690.82	46.849
691.14	45.253
691.46	47.844
691.78	45.809
692.10	46.374
692.42	42.831
692.74	45.155
693.06	43.605
693.39	44.269
693.71	46.562
694.03	43.590
694.35	45.181
694.67	43.992
694.99	44.568
695.31	46.847
695.63	45.701
695.95	47.738
696.27	49.558
696.59	48.926
696.91	47.342
697.23	48.869
697.56	42.946
697.88	42.315
698.20	43.396
698.52	38.716
698.84	45.791
699.16	45.416
699.48	46.610
699.80	45.316
700.12	49.654
700.44	48.832
700.76	43.675
701.08	49.347
701.40	47.532
701.72	50.535
702.04	50.136
702.36	51.075
702.68	53.457
703.00	43.860
703.32	53.846
703.64	48.866
703.96	46.354
704.28	48.677
704.60	46.197
704.91	50.980
705.23	50.284
705.55	49.555
705.87	49.524
706.19	51.724
706.51	49.530
706.83	50.737
707.15	48.663
707.47	47.458
707.79	44.828
708.11	43.311
708.43	44.719
708.74	41.855
709.06	42.326
709.38	47.643
709.70	46.049
710.02	44.837
710.34	45.580
710.66	48.056
710.98	49.180
711.29	49.025
711.61	47.075
711.93	49.544
712.25	46.386
712.57	46.945
712.89	50.606
713.20	48.882
713.52	47.664
713.84	48.036
714.16	42.899
714.48	41.499
714.80	43.089
715.11	46.277
715.43	45.251
715.75	49.577
716.07	48.266
716.39	49.429
716.70	46.729
717.02	49.158
717.34	55.396
717.66	52.778
717.97	58.333
718.29	50.000
718.61	49.662
718.93	49.135
719.24	51.678
719.56	47.586
719.88	48.726
720.20	45.806
720.51	49.673
720.83	52.843
721.15	50.680
721.46	51.027
721.78	52.613
722.10	51.389
722.42	53.846
722.73	48.375
723.05	51.228
723.37	51.590
723.68	53.906
724.00	54.167
724.32	55.133
724.63	50.000
724.95	53.333
725.27	47.955
725.58	49.632
725.90	46.479
726.22	46.918
726.53	48.161
726.85	49.186
727.16	51.342
727.48	46.844
727.80	50.360
728.11	50.000
728.43	45.290
728.74	50.000
729.06	46.953
729.38	47.719
729.69	50.667
730.01	48.026
730.32	48.993
730.64	49.502
730.96	47.447
731.27	42.508
731.59	39.080
731.90	48.189
732.22	46.000
732.53	44.160
732.85	47.953
733.16	42.169
733.48	47.335
733.80	48.986
734.11	48.466
734.43	44.444
734.74	45.040
735.06	46.825
735.37	40.979
735.69	44.928
736.00	48.624
736.32	41.515
736.63	42.271
736.95	46.894
737.26	44.512
737.58	46.933
737.89	42.169
738.21	48.344
738.52	44.482
738.83	50.183
739.15	47.735
739.46	48.276
739.78	44.898
740.09	45.190
740.41	48.466
740.72	47.937
741.04	49.301
741.35	50.781
741.66	51.383
741.98	50.215
742.29	49.537
742.61	45.133
742.92	53.390
743.23	51.600
743.55	49.434
743.86	50.980
744.18	46.186
744.49	50.000
744.80	53.917
745.12	55.357
745.43	57.009
745.74	53.333
746.06	47.368
746.37	55.349
746.68	53.982
747.00	50.224
747.31	52.521
747.62	48.361
747.94	48.927
748.25	49.416
748.56	54.661
748.88	52.679
749.19	48.372
749.50	52.968
749.82	50.617
750.13	50.198
750.44	45.000
750.75	51.007
751.07	47.697
751.38	44.554
751.69	45.118
752.01	41.259
752.32	44.850
752.63	47.987
752.94	45.105
753.26	49.609
753.57	49.416
753.88	47.566
754.19	46.570
754.51	44.518
754.82	44.631
755.13	46.959
755.44	46.296
755.75	54.296
756.07	48.288
756.38	45.098
756.69	45.313
757.00	44.510
757.31	45.352
757.63	39.394
757.94	40.426
758.25	40.580
758.56	41.648
758.87	39.850
759.18	42.733
759.50	42.857
759.81	45.697
760.12	45.225
760.43	41.176
760.74	41.772
761.05	41.114
761.36	40.885
761.67	44.474
761.99	39.155
762.30	40.514
762.61	39.931
762.92	44.318
763.23	46.792
763.54	44.231
763.85	42.802
764.16	46.181
764.47	43.919
764.78	42.671
765.10	42.988
765.41	39.205
765.72	37.293
766.03	41.692
766.34	48.084
766.65	47.909
766.96	51.822
767.27	56.542
767.58	50.000
767.89	58.564
768.20	58.537
768.51	47.959
768.82	49.123
769.13	48.627
769.44	42.105
769.75	46.816
770.06	47.479
770.37	46.491
770.68	46.667
770.99	47.881
771.30	47.699
771.61	47.692
771.92	46.183
772.23	47.177
772.54	48.889
772.85	50.000
773.16	53.804
773.47	52.778
773.78	55.446
774.09	56.818
774.39	54.545
774.70	54.706
775.01	53.947
775.32	54.037
775.63	55.479
775.94	61.111
776.25	50.345
776.56	57.252
776.87	53.435
777.18	59.848
777.48	65.354
777.79	56.923
778.10	65.909
778.41	61.194
778.72	60.902
779.03	51.282
779.34	57.432
779.65	55.280
779.95	55.280
780.26	47.024
780.57	61.224
780.88	59.574
781.19	72.500
781.50	55.030
781.80	54.098
782.11	53.439
782.42	49.425
782.73	51.977
783.04	52.258
783.34	57.364
783.65	52.381
783.96	57.419
784.27	54.305
784.57	50.000
784.88	60.145
785.19	65.000
785.50	61.207
785.81	68.217
786.11	54.815
786.42	57.480
786.73	72.072
787.04	66.038
787.34	60.976
787.65	62.121
787.96	56.061
788.26	64.567
788.57	62.774
788.88	48.592
789.19	57.252
789.49	58.108
789.80	59.375
790.11	56.198
790.41	53.704
790.72	48.148
791.03	70.192
791.33	72.727
791.64	68.421
791.95	63.158
792.25	54.167
792.56	64.000
792.87	75.610
793.17	68.182
793.48	80.000
793.79	83.908
794.09	70.455
794.40	57.759
794.70	50.794
795.01	56.923
795.32	58.779
795.62	57.265
795.93	64.706
796.23	54.472
796.54	69.388
796.85	71.591
797.15	84.416
797.46	81.707
797.76	71.250
798.07	92.000
798.37	66.250
798.68	81.250
798.99	84.146
799.29	68.000
799.60	63.953
799.90	73.684
800.21	86.364
800.51	73.239
800.82	96.552
801.12	86.154
801.43	89.333
801.73	84.483
802.04	76.623
802.34	75.342
802.65	103.922
802.95	106.522
803.26	96.774
803.56	98.333
803.87	73.134
804.17	92.063
804.48	88.679
804.78	73.611
805.09	90.909
805.39	77.778
805.70	105.263
806.00	81.429
806.30	82.812
806.61	71.765
806.91	76.667
807.22	68.478
807.52	73.684
807.83	89.474
808.13	81.159
808.43	90.323
808.74	68.493
809.04	108.929
809.35	94.118
809.65	98.485
809.95	109.804
810.26	96.296
810.56	82.813
810.86	104.082
811.17	98.246
811.47	110.870
811.77	74.138
812.08	72.414
812.38	100.000
812.69	100.000
812.99	93.333
813.29	111.429
813.59	145.161
813.90	82.759
814.20	108.197
814.50	84.000
814.81	91.228
815.11	100.000
815.41	92.857
815.72	101.786
816.02	108.000
816.32	121.951
816.62	84.483
816.93	145.455
817.23	121.951
817.53	96.429
817.84	82.222
818.14	114.286
818.44	79.167
818.74	96.226
819.04	112.821
819.35	109.091
819.65	98.077
819.95	118.519
820.25	129.787
820.56	148.649
820.86	123.684
821.16	110.638
821.46	107.895
821.76	107.273
822.07	95.238
822.37	115.789
822.67	113.953
822.97	100.000
823.27	106.522
823.57	146.875
823.88	112.821
824.18	124.242
824.48	130.435
824.78	144.444
825.08	160.870
825.38	168.966
825.69	132.353
825.99	102.128
826.29	122.222
826.59	137.143
826.89	156.667
827.19	111.429
827.49	161.290
827.79	196.154
828.09	97.619
828.39	122.222
828.70	89.189
829.00	171.429
829.30	225.000
829.60	111.111
829.90	151.613
830.20	112.121
830.50	151.351
830.80	141.667
831.10	180.769
831.40	161.905
831.70	191.667
832.00	140.000
832.30	169.565
832.60	204.167
832.90	181.818
833.20	240.000
833.50	134.211
833.80	135.294
834.10	107.895
834.40	173.684
834.70	113.333
835.00	136.000
835.30	113.514
835.60	125.000
835.90	124.324
836.20	153.846
836.50	136.364
836.80	121.951
837.10	178.261
837.40	353.846
837.70	94.737
838.00	143.333
838.30	200.000
838.60	160.000
838.90	430.000
839.19	237.500
839.49	170.000
839.79	148.276
840.09	150.000
840.39	226.667
840.69	215.789
840.99	147.619
841.29	165.217
841.59	245.000
841.88	180.000
842.18	400.000
842.48	167.857
842.78	151.852
843.08	215.385
843.38	181.818
843.68	264.286
843.97	571.429
844.27	191.304
844.57	1600.000
844.87	300.000
845.17	250.000
845.47	176.190
845.76	154.167
846.06	542.857
846.36	223.529
846.66	246.154
846.96	268.750
847.25	269.231
847.55	163.158
847.85	244.444
848.15	540.000
848.44	390.909
848.74	161.905
849.04	195.833
849.34	147.059
849.63	243.750
849.93	250.000
850.23	1066.667
850.53	487.500
850.82	254.545
851.12	211.765
851.42	133.333
851.71	287.500
852.01	0.000
852.31	200.000
852.61	400.000
852.90	175.000
853.20	333.333
853.50	-3300.000
853.79	148.000
854.09	128.125
854.39	151.724
854.68	189.655
854.98	200.000
855.28	148.387
855.57	221.429
855.87	211.111
856.17	133.333
856.46	147.368
856.76	138.710
857.05	235.294
857.35	290.909
857.65	315.385
857.94	220.000
858.24	388.889
858.53	307.143
858.83	485.714
859.13	156.522
859.42	244.444
859.72	387.500
860.01	225.000
860.31	875.000
860.60	280.000
860.90	362.500
861.20	300.000
861.49	314.286
861.79	-3400.000
862.08	485.714
862.38	466.667
862.67	221.429
862.97	380.000
863.26	146.667
863.56	800.000
863.85	392.308
864.15	247.059
864.44	233.333
864.74	350.000
865.03	318.182
865.33	387.500
865.62	253.333
865.92	716.667
866.21	800.000
866.51	680.000
866.80	227.778
867.10	1200.000
867.39	3400.000
867.69	720.000
867.98	900.000
868.27	166.667
868.57	266.667
868.86	950.000
869.16	128.571
869.45	4000.000
869.75	-383.333
870.04	900.000
870.33	740.000
870.63	500.000
870.92	188.235
871.22	700.000
871.51	514.286
871.80	350.000
872.10	246.154
>>>>>End Processed Spectral Data<<<<<
