SpectraSuite Data File
++++++++++++++++++++++++++++++++++++
Date: Tue May 12 17:12:57 PDT 2015
User: schluterlab
Dark Spectrum Present: Yes
Reference Spectrum Present: Yes
Number of Sampled Component Spectra: 1
Spectrometers: USB2E3373
Integration Time (usec): 3000 (USB2E3373)
Spectra Averaged: 3 (USB2E3373)
Boxcar Smoothing: 0 (USB2E3373)
Correct for Electrical Dark: No (USB2E3373)
Strobe/Lamp Enabled: No (USB2E3373)
Correct for Detector Non-linearity: No (USB2E3373)
Correct for Stray Light: No (USB2E3373)
Number of Pixels in Processed Spectrum: 2048
>>>>>Begin Processed Spectral Data<<<<<
178.53	0.000
178.91	-275.000
179.29	-600.000
179.67	-3400.000
180.04	-133.333
180.42	650.000
180.80	1600.000
181.18	0.000
181.56	-312.500
181.94	0.000
182.31	1233.333
182.69	-3100.000
183.07	557.143
183.45	-3300.000
183.83	-1850.000
184.20	360.000
184.58	542.857
184.96	-261.538
185.34	-225.000
185.72	1500.000
186.09	-600.000
186.47	-3800.000
186.85	866.667
187.23	620.000
187.61	1850.000
187.98	425.000
188.36	242.857
188.74	300.000
189.12	275.000
189.49	800.000
189.87	0.000
190.25	525.000
190.63	1500.000
191.00	-233.333
191.38	-2400.000
191.76	-800.000
192.14	525.000
192.51	-2400.000
192.89	1600.000
193.27	1000.000
193.65	-1166.667
194.02	-660.000
194.40	500.000
194.78	-200.000
195.15	240.000
195.53	-2700.000
195.91	-620.000
196.29	3600.000
196.66	212.500
197.04	750.000
197.42	-1100.000
197.79	550.000
198.17	308.333
198.55	0.000
198.92	285.714
199.30	1133.333
199.68	1700.000
200.05	683.333
200.43	-400.000
200.81	183.333
201.18	3700.000
201.56	158.333
201.94	-825.000
202.31	-275.000
202.69	-540.000
203.07	2800.000
203.44	-433.333
203.82	291.667
204.19	600.000
204.57	-1250.000
204.95	-625.000
205.32	-840.000
205.70	300.000
206.08	800.000
206.45	-766.667
206.83	411.111
207.20	194.737
207.58	175.000
207.96	560.000
208.33	0.000
208.71	442.857
209.08	640.000
209.46	-2600.000
209.84	-725.000
210.21	820.000
210.59	-560.000
210.96	308.333
211.34	-725.000
211.71	436.364
212.09	950.000
212.46	1550.000
212.84	-433.333
213.22	444.444
213.59	-2200.000
213.97	280.000
214.34	1025.000
214.72	966.667
215.09	933.333
215.47	-3400.000
215.84	-300.000
216.22	-337.500
216.59	0.000
216.97	0.000
217.34	1300.000
217.72	-1450.000
218.09	1233.333
218.47	412.500
218.84	875.000
219.22	933.333
219.59	1100.000
219.97	514.286
220.34	300.000
220.72	1250.000
221.09	2900.000
221.47	258.333
221.84	1166.667
222.22	350.000
222.59	238.889
222.97	192.857
223.34	231.250
223.72	-950.000
224.09	1066.667
224.46	346.154
224.84	-700.000
225.21	433.333
225.59	233.333
225.96	933.333
226.34	-720.000
226.71	-875.000
227.08	-560.000
227.46	0.000
227.83	-400.000
228.21	-1450.000
228.58	391.667
228.95	1200.000
229.33	266.667
229.70	700.000
230.08	346.154
230.45	3200.000
230.82	-950.000
231.20	-933.333
231.57	-966.667
231.95	440.000
232.32	275.000
232.69	516.667
233.07	166.667
233.44	-1850.000
233.81	200.000
234.19	129.630
234.56	168.750
234.93	164.706
235.31	185.000
235.68	231.250
236.05	125.000
236.43	100.000
236.80	278.571
237.17	141.379
237.55	134.375
237.92	82.500
238.29	139.394
238.67	103.125
239.04	102.439
239.41	58.333
239.79	72.500
240.16	81.250
240.53	63.934
240.91	66.667
241.28	57.627
241.65	63.636
242.02	61.972
242.40	68.571
242.77	45.055
243.14	35.443
243.51	53.535
243.89	42.991
244.26	39.252
244.63	39.604
245.00	44.954
245.38	27.966
245.75	33.333
246.12	40.000
246.49	33.333
246.87	33.607
247.24	34.667
247.61	33.750
247.98	42.177
248.36	24.242
248.73	32.143
249.10	24.405
249.47	26.500
249.84	25.373
250.22	30.270
250.59	29.500
250.96	29.114
251.33	25.581
251.70	27.232
252.08	24.370
252.45	23.108
252.82	21.293
253.19	23.320
253.56	18.077
253.94	21.739
254.31	23.643
254.68	23.693
255.05	21.034
255.42	19.708
255.79	21.824
256.16	17.288
256.54	20.130
256.91	22.549
257.28	20.736
257.65	18.182
258.02	18.584
258.39	25.788
258.76	22.609
259.14	14.857
259.51	21.283
259.88	18.237
260.25	18.407
260.62	16.986
260.99	15.152
261.36	22.006
261.73	19.415
262.10	18.325
262.47	17.250
262.85	17.867
263.22	19.537
263.59	18.926
263.96	18.797
264.33	15.556
264.70	19.165
265.07	17.561
265.44	18.578
265.81	18.396
266.18	15.789
266.55	16.548
266.92	17.673
267.29	16.886
267.66	16.816
268.03	18.161
268.40	17.548
268.77	16.740
269.14	16.052
269.51	18.040
269.88	18.776
270.25	14.039
270.62	15.665
270.99	17.444
271.36	17.073
271.73	16.562
272.10	15.152
272.47	14.683
272.84	18.363
273.21	15.289
273.58	17.814
273.95	15.606
274.32	17.510
274.69	17.520
275.06	16.029
275.43	16.092
275.80	17.547
276.17	15.441
276.54	18.131
276.91	15.672
277.28	16.241
277.65	14.576
278.02	17.279
278.39	16.187
278.76	17.241
279.13	15.658
279.50	14.909
279.87	13.408
280.23	15.101
280.60	15.511
280.97	15.172
281.34	16.667
281.71	17.217
282.08	14.872
282.45	14.020
282.82	15.552
283.19	14.467
283.56	13.884
283.92	15.635
284.29	16.639
284.66	14.790
285.03	14.760
285.40	17.851
285.77	14.660
286.14	15.944
286.51	14.264
286.87	15.506
287.24	13.814
287.61	12.766
287.98	14.030
288.35	13.333
288.72	13.809
289.08	16.066
289.45	15.549
289.82	15.000
290.19	15.520
290.56	16.885
290.93	14.532
291.29	13.398
291.66	12.994
292.03	15.147
292.40	13.279
292.77	13.231
293.13	15.407
293.50	13.630
293.87	11.924
294.24	14.965
294.60	15.343
294.97	15.524
295.34	15.671
295.71	14.060
296.08	15.600
296.44	15.248
296.81	13.275
297.18	14.195
297.55	15.887
297.91	14.163
298.28	15.700
298.65	14.479
299.02	13.390
299.38	15.588
299.75	14.024
300.12	14.450
300.48	16.628
300.85	16.210
301.22	15.698
301.59	15.330
301.95	14.586
302.32	16.997
302.69	15.158
303.05	16.835
303.42	14.910
303.79	15.601
304.15	14.521
304.52	15.962
304.89	15.885
305.25	15.128
305.62	16.205
305.99	14.891
306.35	15.895
306.72	16.129
307.09	16.046
307.45	16.473
307.82	15.844
308.19	17.216
308.55	16.300
308.92	16.192
309.29	16.963
309.65	15.659
310.02	16.633
310.38	16.949
310.75	16.972
311.12	16.667
311.48	18.147
311.85	18.034
312.22	19.007
312.58	17.493
312.95	17.670
313.31	18.633
313.68	18.762
314.05	19.048
314.41	19.367
314.78	19.129
315.14	18.957
315.51	20.057
315.87	20.073
316.24	20.448
316.61	20.143
316.97	19.633
317.34	20.665
317.70	20.983
318.07	21.886
318.43	21.793
318.80	21.541
319.16	22.465
319.53	22.301
319.89	22.401
320.26	23.277
320.62	23.535
320.99	22.021
321.35	23.469
321.72	25.427
322.08	24.192
322.45	24.977
322.81	26.075
323.18	25.222
323.54	26.045
323.91	26.745
324.27	26.172
324.64	25.000
325.00	28.017
325.37	28.331
325.73	26.813
326.10	28.500
326.46	27.993
326.83	28.640
327.19	28.996
327.56	29.553
327.92	30.000
328.29	30.278
328.65	29.966
329.01	30.026
329.38	30.034
329.74	29.633
330.11	30.408
330.47	31.287
330.84	30.802
331.20	30.626
331.56	32.211
331.93	31.138
332.29	28.741
332.66	32.483
333.02	30.069
333.38	31.675
333.75	32.360
334.11	31.711
334.48	32.821
334.84	31.250
335.20	32.079
335.57	30.730
335.93	30.698
336.29	31.095
336.66	31.990
337.02	31.052
337.38	30.696
337.75	32.348
338.11	31.899
338.47	30.906
338.84	31.583
339.20	31.255
339.56	31.455
339.93	32.107
340.29	31.765
340.65	32.355
341.02	33.467
341.38	31.938
341.74	32.558
342.11	32.387
342.47	31.583
342.83	32.814
343.20	31.447
343.56	30.580
343.92	31.627
344.28	32.695
344.65	32.111
345.01	31.905
345.37	31.250
345.73	31.984
346.10	31.873
346.46	32.695
346.82	30.710
347.19	33.153
347.55	31.460
347.91	32.100
348.27	31.448
348.63	32.120
349.00	32.064
349.36	32.374
349.72	32.569
350.08	33.307
350.45	32.140
350.81	34.557
351.17	31.510
351.53	32.948
351.89	31.857
352.26	31.670
352.62	32.881
352.98	33.972
353.34	32.126
353.70	32.034
354.07	33.154
354.43	33.717
354.79	32.194
355.15	31.776
355.51	32.779
355.87	33.057
356.24	34.026
356.60	32.344
356.96	32.221
357.32	33.007
357.68	32.819
358.04	33.967
358.40	33.133
358.77	33.734
359.13	33.634
359.49	32.839
359.85	33.582
360.21	33.804
360.57	33.577
360.93	33.838
361.29	34.271
361.66	34.601
362.02	33.381
362.38	34.271
362.74	33.616
363.10	34.011
363.46	33.011
363.82	33.100
364.18	33.997
364.54	34.478
364.90	34.003
365.26	34.629
365.62	34.392
365.98	33.586
366.35	33.034
366.71	33.657
367.07	34.881
367.43	34.990
367.79	34.375
368.15	33.311
368.51	35.079
368.87	33.832
369.23	33.195
369.59	34.120
369.95	34.965
370.31	35.113
370.67	34.490
371.03	34.734
371.39	34.488
371.75	33.985
372.11	33.923
372.47	35.479
372.83	34.466
373.19	34.681
373.55	35.120
373.91	34.669
374.27	34.590
374.63	35.119
374.99	35.377
375.35	35.685
375.71	35.158
376.07	34.682
376.42	34.335
376.78	35.645
377.14	36.304
377.50	35.331
377.86	35.746
378.22	34.979
378.58	36.743
378.94	35.667
379.30	36.204
379.66	34.437
380.02	35.484
380.38	35.773
380.74	35.582
381.09	36.332
381.45	35.665
381.81	35.343
382.17	35.897
382.53	35.573
382.89	35.837
383.25	35.406
383.61	35.447
383.97	35.693
384.32	35.081
384.68	36.482
385.04	35.287
385.40	36.180
385.76	36.044
386.12	35.745
386.48	36.413
386.83	35.513
387.19	35.748
387.55	36.690
387.91	36.605
388.27	35.455
388.62	35.798
388.98	36.327
389.34	36.050
389.70	35.967
390.06	36.402
390.42	35.965
390.77	36.794
391.13	36.270
391.49	36.177
391.85	37.477
392.20	35.757
392.56	36.081
392.92	35.261
393.28	37.556
393.64	35.378
393.99	35.270
394.35	35.727
394.71	35.766
395.07	35.097
395.42	36.300
395.78	36.706
396.14	36.325
396.50	36.161
396.85	35.427
397.21	35.138
397.57	34.728
397.92	35.066
398.28	34.970
398.64	36.417
399.00	34.367
399.35	35.051
399.71	34.547
400.07	34.874
400.42	35.224
400.78	35.367
401.14	36.054
401.49	35.023
401.85	35.458
402.21	34.915
402.57	35.308
402.92	34.667
403.28	33.771
403.63	35.374
403.99	34.922
404.35	35.229
404.70	35.558
405.06	34.138
405.42	35.009
405.77	34.179
406.13	34.924
406.49	34.110
406.84	34.236
407.20	34.646
407.55	34.831
407.91	36.120
408.27	34.566
408.62	34.418
408.98	35.245
409.34	33.781
409.69	34.536
410.05	35.122
410.40	34.040
410.76	34.173
411.11	34.123
411.47	35.062
411.83	34.915
412.18	33.937
412.54	35.495
412.89	33.805
413.25	34.265
413.60	35.514
413.96	34.770
414.31	35.419
414.67	34.575
415.03	34.227
415.38	35.268
415.74	35.060
416.09	36.040
416.45	36.458
416.80	35.664
417.16	35.010
417.51	34.586
417.87	34.731
418.22	34.690
418.58	36.051
418.93	34.979
419.29	33.949
419.64	35.857
420.00	35.800
420.35	35.192
420.71	34.306
421.06	35.315
421.42	35.463
421.77	35.480
422.12	36.218
422.48	34.669
422.83	36.217
423.19	37.311
423.54	35.491
423.90	36.920
424.25	36.379
424.61	35.694
424.96	36.081
425.31	36.180
425.67	36.532
426.02	35.558
426.38	35.648
426.73	36.264
427.09	37.960
427.44	36.860
427.79	37.050
428.15	37.242
428.50	36.571
428.85	37.037
429.21	36.899
429.56	37.188
429.92	36.997
430.27	36.333
430.62	35.438
430.98	36.727
431.33	36.593
431.68	36.148
432.04	36.265
432.39	37.596
432.74	37.646
433.10	38.317
433.45	37.852
433.80	38.058
434.16	37.310
434.51	37.874
434.86	37.398
435.22	37.925
435.57	38.115
435.92	39.727
436.28	38.479
436.63	38.088
436.98	39.527
437.34	38.642
437.69	36.954
438.04	38.333
438.39	37.420
438.75	38.363
439.10	38.100
439.45	37.535
439.81	39.271
440.16	38.690
440.51	38.401
440.86	39.088
441.22	38.258
441.57	37.638
441.92	37.660
442.27	37.680
442.63	38.415
442.98	37.392
443.33	38.404
443.68	38.078
444.03	38.784
444.39	37.288
444.74	37.526
445.09	38.020
445.44	38.682
445.79	37.817
446.15	38.421
446.50	39.662
446.85	38.695
447.20	37.811
447.55	38.119
447.91	38.199
448.26	37.487
448.61	38.917
448.96	39.488
449.31	38.614
449.66	38.095
450.02	38.142
450.37	38.756
450.72	38.347
451.07	38.860
451.42	38.471
451.77	38.660
452.12	39.705
452.47	38.518
452.83	39.493
453.18	39.640
453.53	39.372
453.88	39.086
454.23	38.873
454.58	38.578
454.93	39.362
455.28	38.617
455.63	38.652
455.98	38.579
456.34	39.514
456.69	38.720
457.04	38.663
457.39	39.086
457.74	39.077
458.09	38.855
458.44	37.897
458.79	37.772
459.14	38.025
459.49	39.298
459.84	38.261
460.19	38.418
460.54	37.949
460.89	38.699
461.24	38.030
461.59	39.059
461.94	38.475
462.29	38.673
462.64	39.259
462.99	38.196
463.34	39.533
463.69	38.294
464.04	39.148
464.39	37.951
464.74	37.632
465.09	38.421
465.44	37.758
465.79	37.561
466.14	36.884
466.49	37.873
466.84	37.179
467.19	38.079
467.54	37.898
467.89	37.265
468.24	37.811
468.59	37.262
468.94	37.379
469.29	37.874
469.64	38.264
469.99	38.753
470.34	37.634
470.68	39.172
471.03	39.293
471.38	38.278
471.73	38.014
472.08	38.291
472.43	38.610
472.78	39.373
473.13	37.109
473.48	38.447
473.83	38.457
474.17	38.298
474.52	37.085
474.87	37.862
475.22	38.150
475.57	37.093
475.92	36.178
476.27	36.017
476.61	37.802
476.96	36.625
477.31	37.892
477.66	38.111
478.01	37.648
478.36	37.024
478.70	37.270
479.05	37.186
479.40	37.004
479.75	37.090
480.10	37.367
480.45	36.881
480.79	35.530
481.14	35.806
481.49	35.499
481.84	35.884
482.19	36.288
482.53	35.485
482.88	36.022
483.23	35.859
483.58	36.266
483.92	36.472
484.27	35.360
484.62	36.121
484.97	34.827
485.31	34.147
485.66	33.448
486.01	32.292
486.36	32.236
486.70	31.826
487.05	32.589
487.40	32.502
487.75	33.532
488.09	33.636
488.44	34.034
488.79	34.675
489.13	35.312
489.48	35.158
489.83	35.405
490.17	35.508
490.52	35.314
490.87	34.828
491.22	35.683
491.56	35.222
491.91	35.349
492.26	34.744
492.60	34.989
492.95	35.705
493.30	35.168
493.64	35.040
493.99	35.420
494.34	34.603
494.68	35.591
495.03	35.923
495.37	34.939
495.72	36.364
496.07	34.951
496.41	35.230
496.76	35.078
497.11	34.747
497.45	34.809
497.80	35.496
498.14	35.691
498.49	34.819
498.84	35.514
499.18	34.049
499.53	34.727
499.87	34.007
500.22	34.961
500.56	34.633
500.91	35.065
501.26	35.462
501.60	34.290
501.95	33.781
502.29	33.733
502.64	33.745
502.98	33.971
503.33	34.076
503.67	33.598
504.02	34.259
504.36	34.434
504.71	35.525
505.06	34.115
505.40	34.488
505.75	33.349
506.09	34.484
506.44	34.445
506.78	34.641
507.13	34.561
507.47	34.110
507.82	34.599
508.16	34.444
508.51	34.976
508.85	34.425
509.19	34.557
509.54	34.961
509.88	35.057
510.23	32.745
510.57	33.880
510.92	35.215
511.26	35.090
511.61	33.580
511.95	33.599
512.30	34.300
512.64	33.749
512.98	33.470
513.33	34.016
513.67	33.972
514.02	33.195
514.36	33.645
514.70	34.027
515.05	34.896
515.39	34.704
515.74	36.085
516.08	33.115
516.42	36.448
516.77	34.240
517.11	34.187
517.46	33.944
517.80	33.971
518.14	35.268
518.49	34.785
518.83	33.736
519.17	34.221
519.52	34.681
519.86	34.060
520.20	35.014
520.55	34.878
520.89	34.080
521.23	34.521
521.58	33.505
521.92	34.461
522.26	34.656
522.61	34.284
522.95	34.354
523.29	33.918
523.64	33.873
523.98	35.563
524.32	34.198
524.66	33.797
525.01	33.432
525.35	33.235
525.69	34.377
526.04	34.979
526.38	33.961
526.72	33.294
527.06	33.294
527.41	33.615
527.75	34.327
528.09	33.353
528.43	33.374
528.78	34.049
529.12	34.377
529.46	33.898
529.80	33.586
530.15	33.353
530.49	33.815
530.83	33.760
531.17	33.333
531.51	32.863
531.86	33.454
532.20	32.015
532.54	33.019
532.88	33.479
533.22	33.577
533.57	32.642
533.91	32.576
534.25	32.141
534.59	32.398
534.93	31.286
535.27	31.986
535.62	31.622
535.96	32.447
536.30	32.419
536.64	33.106
536.98	32.410
537.32	32.125
537.66	31.378
538.01	33.127
538.35	32.502
538.69	32.100
539.03	32.214
539.37	32.100
539.71	32.469
540.05	31.815
540.39	32.516
540.73	32.089
541.07	32.873
541.42	31.965
541.76	31.443
542.10	31.874
542.44	31.920
542.78	32.473
543.12	30.982
543.46	31.266
543.80	31.955
544.14	32.074
544.48	31.265
544.82	31.315
545.16	30.783
545.50	31.039
545.84	32.197
546.18	31.925
546.52	32.918
546.86	31.721
547.20	31.460
547.54	31.539
547.88	30.231
548.22	30.176
548.56	30.701
548.90	30.071
549.24	31.080
549.58	30.541
549.92	31.958
550.26	31.643
550.60	30.007
550.94	32.429
551.28	33.103
551.62	32.828
551.96	32.027
552.30	31.312
552.64	30.680
552.98	30.348
553.32	29.641
553.66	31.140
554.00	31.210
554.34	31.625
554.68	31.519
555.02	31.500
555.36	30.519
555.69	31.414
556.03	30.446
556.37	30.210
556.71	32.269
557.05	30.472
557.39	30.667
557.73	31.199
558.07	30.785
558.41	31.597
558.75	31.874
559.08	33.095
559.42	30.852
559.76	31.932
560.10	30.145
560.44	30.591
560.78	31.330
561.12	30.515
561.45	29.599
561.79	30.400
562.13	30.449
562.47	31.149
562.81	30.579
563.15	30.640
563.48	28.447
563.82	30.131
564.16	29.540
564.50	28.692
564.84	30.213
565.17	29.531
565.51	31.527
565.85	31.092
566.19	29.464
566.52	29.362
566.86	29.364
567.20	29.101
567.54	28.712
567.88	29.212
568.21	27.359
568.55	29.426
568.89	27.600
569.23	26.402
569.56	26.957
569.90	25.943
570.24	25.724
570.57	25.762
570.91	25.335
571.25	24.644
571.59	25.099
571.92	25.108
572.26	24.016
572.60	24.854
572.93	25.244
573.27	24.354
573.61	24.959
573.95	23.929
574.28	24.479
574.62	23.707
574.96	23.576
575.29	23.659
575.63	23.816
575.97	23.661
576.30	23.640
576.64	24.228
576.98	23.729
577.31	24.054
577.65	23.678
577.98	23.013
578.32	22.996
578.66	23.892
578.99	23.600
579.33	23.793
579.67	23.586
580.00	23.068
580.34	23.581
580.67	23.289
581.01	23.897
581.35	23.415
581.68	22.622
582.02	22.674
582.35	22.269
582.69	22.985
583.02	22.924
583.36	23.518
583.70	24.026
584.03	24.683
584.37	23.776
584.70	23.663
585.04	23.531
585.37	22.994
585.71	23.506
586.04	23.174
586.38	23.701
586.72	23.578
587.05	24.344
587.39	23.666
587.72	23.591
588.06	23.690
588.39	23.439
588.73	23.808
589.06	24.074
589.40	24.632
589.73	24.680
590.07	24.777
590.40	24.599
590.73	24.972
591.07	25.427
591.40	25.429
591.74	25.365
592.07	25.624
592.41	24.940
592.74	24.167
593.08	24.154
593.41	23.908
593.75	23.865
594.08	24.330
594.41	24.438
594.75	24.349
595.08	25.137
595.42	24.885
595.75	24.218
596.09	24.922
596.42	24.071
596.75	26.162
597.09	25.382
597.42	24.857
597.75	25.152
598.09	25.605
598.42	25.133
598.76	24.788
599.09	24.384
599.42	24.256
599.76	23.813
600.09	24.068
600.42	23.895
600.76	23.827
601.09	24.059
601.42	23.618
601.76	24.132
602.09	23.841
602.42	23.771
602.76	24.820
603.09	24.698
603.42	23.743
603.76	24.440
604.09	24.502
604.42	24.105
604.76	24.417
605.09	24.082
605.42	24.137
605.75	24.161
606.09	24.331
606.42	24.051
606.75	24.640
607.09	24.595
607.42	24.387
607.75	24.562
608.08	24.330
608.42	24.832
608.75	24.604
609.08	25.121
609.41	24.773
609.75	25.046
610.08	24.460
610.41	24.374
610.74	24.632
611.07	25.421
611.41	25.162
611.74	25.096
612.07	25.482
612.40	25.292
612.73	24.863
613.07	26.204
613.40	25.113
613.73	25.512
614.06	25.050
614.39	25.152
614.72	25.013
615.06	25.272
615.39	25.050
615.72	24.734
616.05	26.268
616.38	25.622
616.71	26.044
617.05	25.371
617.38	25.449
617.71	26.434
618.04	25.575
618.37	25.514
618.70	26.212
619.03	25.824
619.36	26.822
619.69	26.517
620.03	27.267
620.36	27.746
620.69	27.011
621.02	28.057
621.35	26.146
621.68	27.507
622.01	28.192
622.34	27.895
622.67	26.826
623.00	26.413
623.33	26.991
623.66	26.813
623.99	26.918
624.32	27.168
624.65	26.596
624.99	26.775
625.32	26.119
625.65	26.759
625.98	26.430
626.31	28.635
626.64	27.563
626.97	27.697
627.30	27.795
627.63	28.414
627.96	28.560
628.29	27.970
628.62	27.802
628.95	29.787
629.28	29.448
629.61	28.383
629.94	28.781
630.26	28.683
630.59	28.989
630.92	29.507
631.25	29.374
631.58	29.797
631.91	28.735
632.24	29.252
632.57	28.193
632.90	30.952
633.23	31.899
633.56	30.348
633.89	31.297
634.22	30.355
634.55	28.387
634.88	29.792
635.20	31.839
635.53	31.475
635.86	30.089
636.19	29.068
636.52	30.595
636.85	29.342
637.18	30.986
637.51	29.944
637.83	31.236
638.16	30.246
638.49	32.096
638.82	31.690
639.15	30.552
639.48	30.332
639.81	30.647
640.13	32.147
640.46	32.491
640.79	33.290
641.12	31.365
641.45	32.471
641.77	33.818
642.10	33.333
642.43	31.294
642.76	31.676
643.09	34.150
643.41	31.697
643.74	34.676
644.07	33.333
644.40	33.284
644.73	33.934
645.05	34.324
645.38	32.312
645.71	34.446
646.04	33.893
646.36	33.646
646.69	34.400
647.02	35.520
647.35	33.228
647.67	32.901
648.00	32.085
648.33	32.932
648.66	33.636
648.98	30.435
649.31	31.579
649.64	30.014
649.96	30.299
650.29	30.000
650.62	34.315
650.94	32.982
651.27	33.174
651.60	33.803
651.92	32.873
652.25	34.173
652.58	31.631
652.90	32.934
653.23	31.462
653.56	31.454
653.88	32.746
654.21	31.085
654.54	29.722
654.86	31.858
655.19	31.266
655.52	25.298
655.84	18.845
656.17	20.674
656.49	29.795
656.82	34.414
657.15	28.124
657.47	21.200
657.80	15.532
658.13	12.452
658.45	16.886
658.78	20.348
659.10	20.871
659.43	21.332
659.75	23.663
660.08	25.063
660.41	27.768
660.73	30.489
661.06	31.081
661.38	35.775
661.71	33.813
662.03	35.551
662.36	33.905
662.68	32.030
663.01	32.973
663.33	31.132
663.66	34.517
663.98	34.921
664.31	35.261
664.63	33.525
664.96	36.210
665.28	34.087
665.61	32.075
665.93	33.962
666.26	34.766
666.58	36.881
666.91	33.398
667.23	35.341
667.56	34.292
667.88	39.004
668.21	32.992
668.53	35.887
668.86	34.669
669.18	35.438
669.50	32.231
669.83	34.497
670.15	33.056
670.48	33.203
670.80	32.271
671.13	33.068
671.45	32.665
671.77	34.694
672.10	33.393
672.42	31.743
672.75	30.696
673.07	31.797
673.39	30.032
673.72	30.623
674.04	33.692
674.37	32.486
674.69	31.413
675.01	32.836
675.34	32.946
675.66	32.617
675.98	36.292
676.31	36.600
676.63	32.803
676.95	33.532
677.28	32.252
677.60	33.803
677.92	33.929
678.25	35.465
678.57	31.657
678.89	33.273
679.22	33.640
679.54	31.851
679.86	30.541
680.18	29.877
680.51	31.343
680.83	30.236
681.15	31.023
681.48	31.597
681.80	32.925
682.12	32.353
682.44	31.892
682.77	30.427
683.09	33.010
683.41	34.286
683.73	33.661
684.06	31.746
684.38	31.977
684.70	30.935
685.02	31.424
685.34	32.570
685.67	30.868
685.99	30.213
686.31	29.276
686.63	32.195
686.96	32.353
687.28	29.866
687.60	29.352
687.92	29.983
688.24	30.862
688.56	30.961
688.89	31.549
689.21	32.370
689.53	33.992
689.85	31.301
690.17	32.233
690.49	31.855
690.82	32.773
691.14	32.929
691.46	32.033
691.78	33.918
692.10	32.252
692.42	29.946
692.74	33.140
693.06	32.752
693.39	32.609
693.71	30.845
694.03	33.333
694.35	35.141
694.67	31.568
694.99	34.368
695.31	33.784
695.63	32.805
695.95	32.353
696.27	37.168
696.59	34.368
696.91	33.924
697.23	32.579
697.56	31.328
697.88	29.741
698.20	30.755
698.52	30.739
698.84	33.265
699.16	34.542
699.48	30.932
699.80	34.641
700.12	32.102
700.44	34.112
700.76	34.129
701.08	34.987
701.40	37.143
701.72	38.235
702.04	39.024
702.36	34.946
702.68	35.638
703.00	30.827
703.32	34.988
703.64	34.257
703.96	34.635
704.28	33.333
704.60	34.930
704.91	36.134
705.23	37.784
705.55	34.421
705.87	40.000
706.19	43.260
706.51	40.752
706.83	37.463
707.15	34.759
707.47	33.898
707.79	31.264
708.11	29.252
708.43	32.809
708.74	31.674
709.06	34.419
709.38	31.017
709.70	35.967
710.02	29.891
710.34	34.254
710.66	35.556
710.98	34.973
711.29	33.705
711.61	37.047
711.93	36.170
712.25	35.241
712.57	35.691
712.89	35.758
713.20	35.783
713.52	34.579
713.84	35.347
714.16	34.203
714.48	30.548
714.80	32.520
715.11	32.181
715.43	34.637
715.75	35.493
716.07	33.237
716.39	32.000
716.70	38.006
717.02	35.354
717.34	37.770
717.66	37.500
717.97	43.182
718.29	34.507
718.61	33.784
718.93	36.332
719.24	37.248
719.56	35.517
719.88	32.803
720.20	36.452
720.51	33.333
720.83	38.796
721.15	35.714
721.46	35.959
721.78	37.282
722.10	41.667
722.42	36.455
722.73	36.101
723.05	35.789
723.37	36.749
723.68	37.891
724.00	39.015
724.32	40.684
724.63	33.846
724.95	38.039
725.27	35.688
725.58	35.294
725.90	33.451
726.22	32.877
726.53	35.786
726.85	39.414
727.16	35.906
727.48	36.213
727.80	38.489
728.11	37.857
728.43	32.246
728.74	40.909
729.06	33.333
729.38	34.035
729.69	36.667
730.01	40.132
730.32	32.550
730.64	36.877
730.96	36.637
731.27	29.664
731.59	30.747
731.90	31.755
732.22	32.286
732.53	33.333
732.85	35.965
733.16	31.928
733.48	35.110
733.80	34.493
734.11	32.515
734.43	31.579
734.74	31.903
735.06	32.011
735.37	30.928
735.69	32.464
736.00	33.028
736.32	30.303
736.63	29.022
736.95	33.851
737.26	29.878
737.58	30.675
737.89	33.133
738.21	34.768
738.52	33.445
738.83	33.700
739.15	34.843
739.46	31.724
739.78	33.333
740.09	31.778
740.41	31.288
740.72	38.413
741.04	36.014
741.35	38.672
741.66	36.759
741.98	36.481
742.29	40.278
742.61	36.726
742.92	36.864
743.23	31.600
743.55	31.698
743.86	38.039
744.18	38.983
744.49	40.909
744.80	38.710
745.12	36.607
745.43	42.056
745.74	37.333
746.06	36.842
746.37	42.326
746.68	42.478
747.00	41.704
747.31	40.336
747.62	35.246
747.94	33.906
748.25	33.463
748.56	35.593
748.88	38.393
749.19	33.488
749.50	35.616
749.82	39.095
750.13	37.945
750.44	34.000
750.75	32.550
751.07	30.592
751.38	34.983
751.69	35.690
752.01	33.217
752.32	28.571
752.63	32.550
752.94	33.916
753.26	36.328
753.57	34.630
753.88	31.835
754.19	34.296
754.51	33.555
754.82	30.201
755.13	33.446
755.44	34.074
755.75	35.739
756.07	35.274
756.38	29.085
756.69	32.813
757.00	29.970
757.31	31.549
757.63	26.997
757.94	30.319
758.25	30.435
758.56	27.460
758.87	31.328
759.18	30.523
759.50	31.611
759.81	32.047
760.12	26.404
760.43	30.252
760.74	32.658
761.05	28.647
761.36	27.865
761.67	31.806
761.99	30.141
762.30	29.904
762.61	30.208
762.92	34.848
763.23	35.472
763.54	31.154
763.85	34.630
764.16	35.417
764.47	31.757
764.78	34.202
765.10	31.098
765.41	28.693
765.72	29.006
766.03	31.722
766.34	29.617
766.65	35.741
766.96	33.603
767.27	36.449
767.58	38.614
767.89	38.674
768.20	42.683
768.51	35.714
768.82	32.895
769.13	34.510
769.44	32.331
769.75	31.086
770.06	32.353
770.37	35.965
770.68	31.111
770.99	39.407
771.30	36.402
771.61	33.462
771.92	31.298
772.23	33.468
772.54	39.111
772.85	38.614
773.16	37.500
773.47	41.111
773.78	39.109
774.09	42.045
774.39	44.848
774.70	35.882
775.01	41.447
775.32	40.994
775.63	46.575
775.94	52.469
776.25	53.103
776.56	45.038
776.87	53.435
777.18	47.727
777.48	51.969
777.79	41.538
778.10	42.424
778.41	52.239
778.72	39.098
779.03	38.462
779.34	47.297
779.65	43.478
779.95	34.783
780.26	39.286
780.57	47.619
780.88	42.553
781.19	45.000
781.50	42.604
781.80	42.623
782.11	41.270
782.42	31.034
782.73	39.548
783.04	38.710
783.34	44.186
783.65	39.456
783.96	38.710
784.27	31.126
784.57	31.579
784.88	38.406
785.19	40.833
785.50	56.897
785.81	50.388
786.11	39.259
786.42	40.157
786.73	56.757
787.04	51.887
787.34	43.089
787.65	43.939
787.96	43.182
788.26	51.969
788.57	44.526
788.88	42.254
789.19	40.458
789.49	44.595
789.80	44.531
790.11	46.281
790.41	48.148
790.72	35.185
791.03	57.692
791.33	43.434
791.64	57.895
791.95	37.895
792.25	51.042
792.56	50.000
792.87	65.854
793.17	45.455
793.48	64.706
793.79	59.770
794.09	55.682
794.40	56.034
794.70	47.619
795.01	46.923
795.32	42.748
795.62	47.863
795.93	45.378
796.23	56.911
796.54	56.122
796.85	55.682
797.15	75.325
797.46	71.951
797.76	61.250
798.07	60.000
798.37	67.500
798.68	55.000
798.99	78.049
799.29	62.667
799.60	44.186
799.90	60.526
800.21	74.242
800.51	77.465
800.82	65.517
801.12	69.231
801.43	61.333
801.73	87.931
802.04	66.234
802.34	50.685
802.65	103.922
802.95	82.609
803.26	87.097
803.56	88.333
803.87	74.627
804.17	66.667
804.48	84.906
804.78	61.111
805.09	71.212
805.39	73.016
805.70	77.193
806.00	57.143
806.30	75.000
806.61	67.059
806.91	55.556
807.22	55.435
807.52	71.053
807.83	72.368
808.13	68.116
808.43	74.194
808.74	58.904
809.04	66.071
809.35	66.176
809.65	72.727
809.95	86.275
810.26	88.889
810.56	75.000
810.86	69.388
811.17	91.228
811.47	63.043
811.77	62.069
812.08	60.345
812.38	83.333
812.69	76.190
812.99	66.667
813.29	80.000
813.59	100.000
813.90	79.310
814.20	72.131
814.50	74.000
814.81	80.702
815.11	103.704
815.41	89.286
815.72	103.571
816.02	98.000
816.32	102.439
816.62	101.724
816.93	93.939
817.23	112.195
817.53	78.571
817.84	80.000
818.14	97.619
818.44	116.667
818.74	94.340
819.04	89.744
819.35	124.242
819.65	107.692
819.95	114.815
820.25	106.383
820.56	105.405
820.86	94.737
821.16	89.362
821.46	102.632
821.76	89.091
822.07	71.429
822.37	118.421
822.67	118.605
822.97	55.263
823.27	95.652
823.57	134.375
823.88	112.821
824.18	96.970
824.48	130.435
824.78	108.333
825.08	121.739
825.38	144.828
825.69	114.706
825.99	63.830
826.29	77.778
826.59	120.000
826.89	116.667
827.19	62.857
827.49	145.161
827.79	130.769
828.09	61.905
828.39	127.778
828.70	113.514
829.00	196.429
829.30	200.000
829.60	108.333
829.90	119.355
830.20	109.091
830.50	127.027
830.80	133.333
831.10	169.231
831.40	133.333
831.70	170.833
832.00	166.667
832.30	165.217
832.60	170.833
832.90	154.545
833.20	200.000
833.50	128.947
833.80	108.824
834.10	115.789
834.40	131.579
834.70	110.000
835.00	136.000
835.30	86.486
835.60	140.625
835.90	97.297
836.20	134.615
836.50	136.364
836.80	87.805
837.10	104.348
837.40	253.846
837.70	126.316
838.00	140.000
838.30	204.167
838.60	144.000
838.90	290.000
839.19	218.750
839.49	136.667
839.79	124.138
840.09	192.308
840.39	100.000
840.69	205.263
840.99	109.524
841.29	165.217
841.59	175.000
841.88	164.000
842.18	300.000
842.48	153.571
842.78	162.963
843.08	161.538
843.38	159.091
843.68	185.714
843.97	500.000
844.27	204.348
844.57	1600.000
844.87	235.714
845.17	183.333
845.47	161.905
845.76	145.833
846.06	528.571
846.36	182.353
846.66	300.000
846.96	250.000
847.25	238.462
847.55	184.211
847.85	177.778
848.15	600.000
848.44	281.818
848.74	171.429
849.04	183.333
849.34	152.941
849.63	218.750
849.93	218.750
850.23	900.000
850.53	412.500
850.82	200.000
851.12	205.882
851.42	170.833
851.71	243.750
852.01	0.000
852.31	188.235
852.61	480.000
852.90	208.333
853.20	388.889
853.50	-2500.000
853.79	136.000
854.09	150.000
854.39	93.103
854.68	172.414
854.98	195.238
855.28	116.129
855.57	300.000
855.87	216.667
856.17	111.111
856.46	200.000
856.76	148.387
857.05	252.941
857.35	272.727
857.65	261.538
857.94	145.000
858.24	377.778
858.53	300.000
858.83	557.143
859.13	139.130
859.42	144.444
859.72	337.500
860.01	166.667
860.31	750.000
860.60	300.000
860.90	425.000
861.20	223.077
861.49	314.286
861.79	-2800.000
862.08	485.714
862.38	355.556
862.67	150.000
862.97	340.000
863.26	130.000
863.56	725.000
863.85	292.308
864.15	211.765
864.44	177.778
864.74	300.000
865.03	345.455
865.33	387.500
865.62	266.667
865.92	483.333
866.21	700.000
866.51	600.000
866.80	166.667
867.10	900.000
867.39	3600.000
867.69	600.000
867.98	575.000
868.27	171.429
868.57	260.000
868.86	900.000
869.16	147.619
869.45	3000.000
869.75	-450.000
870.04	625.000
870.33	680.000
870.63	425.000
870.92	182.353
871.22	775.000
871.51	428.571
871.80	183.333
872.10	300.000
>>>>>End Processed Spectral Data<<<<<
