SpectraSuite Data File
++++++++++++++++++++++++++++++++++++
Date: Tue May 12 17:15:32 PDT 2015
User: schluterlab
Dark Spectrum Present: Yes
Reference Spectrum Present: Yes
Number of Sampled Component Spectra: 1
Spectrometers: USB2E3373
Integration Time (usec): 3000 (USB2E3373)
Spectra Averaged: 3 (USB2E3373)
Boxcar Smoothing: 0 (USB2E3373)
Correct for Electrical Dark: No (USB2E3373)
Strobe/Lamp Enabled: No (USB2E3373)
Correct for Detector Non-linearity: No (USB2E3373)
Correct for Stray Light: No (USB2E3373)
Number of Pixels in Processed Spectrum: 2048
>>>>>Begin Processed Spectral Data<<<<<
178.53	0.000
178.91	-200.000
179.29	-650.000
179.67	-3800.000
180.04	-166.667
180.42	925.000
180.80	1150.000
181.18	0.000
181.56	-250.000
181.94	0.000
182.31	1233.333
182.69	-3300.000
183.07	528.571
183.45	-4200.000
183.83	-1350.000
184.20	350.000
184.58	457.143
184.96	-269.231
185.34	-250.000
185.72	1800.000
186.09	-625.000
186.47	-2600.000
186.85	1433.333
187.23	460.000
187.61	1700.000
187.98	512.500
188.36	321.429
188.74	383.333
189.12	366.667
189.49	725.000
189.87	0.000
190.25	612.500
190.63	3000.000
191.00	-158.333
191.38	-3300.000
191.76	-800.000
192.14	450.000
192.51	-2100.000
192.89	1400.000
193.27	1000.000
193.65	-966.667
194.02	-860.000
194.40	514.286
194.78	-171.429
195.15	240.000
195.53	-3100.000
195.91	-520.000
196.29	3800.000
196.66	256.250
197.04	1025.000
197.42	-1350.000
197.79	675.000
198.17	333.333
198.55	0.000
198.92	471.429
199.30	1333.333
199.68	2300.000
200.05	683.333
200.43	-433.333
200.81	194.444
201.18	2600.000
201.56	325.000
201.94	-725.000
202.31	-337.500
202.69	-560.000
203.07	2400.000
203.44	-383.333
203.82	316.667
204.19	560.000
204.57	-1400.000
204.95	-800.000
205.32	-620.000
205.70	400.000
206.08	675.000
206.45	-833.333
206.83	355.556
207.20	189.474
207.58	266.667
207.96	640.000
208.33	0.000
208.71	557.143
209.08	680.000
209.46	-3200.000
209.84	-650.000
210.21	760.000
210.59	-480.000
210.96	283.333
211.34	-950.000
211.71	309.091
212.09	950.000
212.46	1550.000
212.84	-466.667
213.22	455.556
213.59	-1500.000
213.97	340.000
214.34	825.000
214.72	1100.000
215.09	1066.667
215.47	-2600.000
215.84	-340.000
216.22	-362.500
216.59	0.000
216.97	0.000
217.34	1800.000
217.72	-1550.000
218.09	1266.667
218.47	425.000
218.84	725.000
219.22	1133.333
219.59	1166.667
219.97	642.857
220.34	466.667
220.72	1100.000
221.09	3300.000
221.47	358.333
221.84	1000.000
222.22	310.000
222.59	233.333
222.97	192.857
223.34	187.500
223.72	-1700.000
224.09	1100.000
224.46	307.692
224.84	-850.000
225.21	444.444
225.59	260.000
225.96	1166.667
226.34	-660.000
226.71	-700.000
227.08	-580.000
227.46	0.000
227.83	-516.667
228.21	-1800.000
228.58	400.000
228.95	825.000
229.33	400.000
229.70	900.000
230.08	284.615
230.45	3000.000
230.82	-875.000
231.20	-900.000
231.57	-1133.333
231.95	700.000
232.32	300.000
232.69	550.000
233.07	225.000
233.44	-1350.000
233.81	226.667
234.19	129.630
234.56	225.000
234.93	170.588
235.31	155.000
235.68	300.000
236.05	128.571
236.43	107.407
236.80	250.000
237.17	127.586
237.55	96.875
237.92	107.500
238.29	96.970
238.67	118.750
239.04	87.805
239.41	58.333
239.79	77.500
240.16	52.083
240.53	45.902
240.91	43.478
241.28	62.712
241.65	45.455
242.02	50.704
242.40	48.571
242.77	36.264
243.14	27.848
243.51	46.465
243.89	34.579
244.26	31.776
244.63	30.693
245.00	37.615
245.38	23.729
245.75	28.788
246.12	25.185
246.49	22.695
246.87	18.852
247.24	26.000
247.61	22.500
247.98	21.088
248.36	21.212
248.73	23.980
249.10	18.452
249.47	16.500
249.84	18.905
250.22	17.297
250.59	14.500
250.96	16.034
251.33	15.349
251.70	15.179
252.08	18.908
252.45	16.733
252.82	14.068
253.19	11.858
253.56	11.923
253.94	15.217
254.31	12.016
254.68	12.892
255.05	14.138
255.42	13.139
255.79	10.423
256.16	12.542
256.54	12.662
256.91	13.399
257.28	12.040
257.65	8.464
258.02	11.209
258.39	9.742
258.76	13.913
259.14	10.857
259.51	10.496
259.88	10.942
260.25	9.341
260.62	8.767
260.99	8.264
261.36	13.092
261.73	8.777
262.10	9.424
262.47	8.000
262.85	6.133
263.22	10.283
263.59	7.928
263.96	10.526
264.33	8.148
264.70	10.565
265.07	10.732
265.44	8.028
265.81	9.198
266.18	10.069
266.55	8.274
266.92	8.501
267.29	8.991
267.66	7.399
268.03	7.175
268.40	8.457
268.77	9.031
269.14	5.640
269.51	6.682
269.88	7.755
270.25	6.048
270.62	6.867
270.99	8.925
271.36	10.163
271.73	6.709
272.10	7.677
272.47	7.143
272.84	5.788
273.21	6.612
273.58	8.502
273.95	6.982
274.32	7.004
274.69	9.646
275.06	9.472
275.43	6.705
275.80	7.358
276.17	8.272
276.54	8.224
276.91	6.530
277.28	7.117
277.65	6.273
278.02	7.721
278.39	7.914
278.76	8.448
279.13	6.584
279.50	8.182
279.87	7.635
280.23	6.446
280.60	6.387
280.97	7.069
281.34	6.601
281.71	8.000
282.08	8.718
282.45	5.405
282.82	4.849
283.19	6.995
283.56	6.777
283.92	5.212
284.29	5.824
284.66	5.378
285.03	6.302
285.40	5.289
285.77	5.247
286.14	6.037
286.51	7.209
286.87	5.538
287.24	5.255
287.61	8.663
287.98	7.164
288.35	6.815
288.72	6.070
289.08	5.856
289.45	7.012
289.82	6.562
290.19	5.710
290.56	6.550
290.93	5.899
291.29	8.011
291.66	5.508
292.03	6.171
292.40	7.588
292.77	4.875
293.13	6.705
293.50	5.668
293.87	4.607
294.24	6.154
294.60	5.922
294.97	6.993
295.34	5.578
295.71	6.439
296.08	6.133
296.44	7.624
296.81	4.342
297.18	5.577
297.55	5.788
297.91	6.773
298.28	6.401
298.65	7.362
299.02	5.790
299.38	7.194
299.75	6.707
300.12	6.766
300.48	6.557
300.85	5.602
301.22	5.814
301.59	5.542
301.95	3.967
302.32	7.101
302.69	5.882
303.05	6.958
303.42	6.166
303.79	5.959
304.15	5.611
304.52	6.025
304.89	6.397
305.25	6.340
305.62	7.676
305.99	6.739
306.35	6.316
306.72	5.619
307.09	6.004
307.45	6.653
307.82	6.173
308.19	7.423
308.55	6.400
308.92	8.734
309.29	8.185
309.65	7.532
310.02	7.201
310.38	6.481
310.75	7.522
311.12	7.375
311.48	8.591
311.85	8.779
312.22	9.456
312.58	7.872
312.95	8.544
313.31	9.270
313.68	9.006
314.05	9.799
314.41	9.404
314.78	10.322
315.14	9.953
315.51	9.650
315.87	10.401
316.24	10.364
316.61	10.027
316.97	11.835
317.34	11.141
317.70	10.887
318.07	11.744
318.43	11.336
318.80	12.697
319.16	12.063
319.53	13.363
319.89	12.366
320.26	13.966
320.62	13.462
320.99	14.013
321.35	14.750
321.72	15.844
322.08	14.774
322.45	15.895
322.81	15.279
323.18	17.229
323.54	16.638
323.91	16.591
324.27	16.976
324.64	16.003
325.00	18.276
325.37	18.634
325.73	17.791
326.10	18.890
326.46	18.993
326.83	19.440
327.19	20.562
327.56	20.447
327.92	20.820
328.29	21.604
328.65	21.318
329.01	21.471
329.38	22.420
329.74	20.495
330.11	21.546
330.47	22.677
330.84	21.743
331.20	22.166
331.56	23.230
331.93	23.268
332.29	20.748
332.66	23.554
333.02	21.907
333.38	23.473
333.75	23.353
334.11	22.819
334.48	22.735
334.84	23.057
335.20	23.268
335.57	22.922
335.93	23.717
336.29	22.471
336.66	23.928
337.02	22.583
337.38	23.044
337.75	22.044
338.11	24.388
338.47	23.116
338.84	22.862
339.20	22.684
339.56	22.708
339.93	23.328
340.29	22.941
340.65	23.135
341.02	23.250
341.38	23.892
341.74	23.422
342.11	23.539
342.47	23.134
342.83	24.610
343.20	24.171
343.56	22.558
343.92	24.195
344.28	24.163
344.65	23.961
345.01	23.651
345.37	23.317
345.73	23.651
346.10	23.984
346.46	24.402
346.82	23.302
347.19	25.348
347.55	23.029
347.91	23.867
348.27	24.167
348.63	23.259
349.00	25.057
349.36	24.202
349.72	24.159
350.08	23.525
350.45	23.991
350.81	24.618
351.17	22.573
351.53	24.249
351.89	24.398
352.26	23.810
352.62	24.284
352.98	26.074
353.34	24.037
353.70	23.547
354.07	24.077
354.43	24.962
354.79	23.766
355.15	24.502
355.51	23.943
355.87	25.226
356.24	24.249
356.60	23.592
356.96	24.716
357.32	24.717
357.68	24.670
358.04	24.240
358.40	24.213
358.77	25.995
359.13	25.676
359.49	25.574
359.85	25.912
360.21	25.409
360.57	24.672
360.93	24.675
361.29	24.747
361.66	25.429
362.02	24.716
362.38	24.315
362.74	24.699
363.10	25.736
363.46	25.069
363.82	25.456
364.18	25.107
364.54	24.464
364.90	25.703
365.26	25.399
365.62	25.622
365.98	24.983
366.35	24.759
366.71	25.538
367.07	25.392
367.43	25.991
367.79	25.000
368.15	24.423
368.51	25.293
368.87	25.747
369.23	24.809
369.59	24.949
369.95	26.503
370.31	24.778
370.67	26.024
371.03	26.331
371.39	26.177
371.75	24.634
372.11	25.901
372.47	26.781
372.83	26.037
373.19	26.182
373.55	25.498
373.91	24.724
374.27	26.058
374.63	26.508
374.99	26.011
375.35	25.941
375.71	26.847
376.07	25.663
376.42	24.680
376.78	27.103
377.14	26.409
377.50	25.718
377.86	26.201
378.22	25.472
378.58	27.421
378.94	26.192
379.30	26.440
379.66	25.647
380.02	26.921
380.38	25.351
380.74	25.894
381.09	25.993
381.45	25.723
381.81	26.478
382.17	26.435
382.53	26.635
382.89	26.730
383.25	25.518
383.61	25.245
383.97	25.375
384.32	26.522
384.68	25.966
385.04	25.967
385.40	25.860
385.76	25.629
386.12	26.654
386.48	26.687
386.83	26.406
387.19	26.443
387.55	26.207
387.91	25.808
388.27	26.353
388.62	26.526
388.98	26.122
389.34	26.056
389.70	24.764
390.06	26.159
390.42	26.774
390.77	25.614
391.13	26.011
391.49	25.892
391.85	27.446
392.20	26.281
392.56	25.986
392.92	27.120
393.28	25.617
393.64	25.631
393.99	26.141
394.35	25.309
394.71	25.573
395.07	25.669
395.42	25.644
395.78	26.712
396.14	25.783
396.50	25.752
396.85	25.122
397.21	26.053
397.57	25.822
397.92	24.957
398.28	25.207
398.64	26.236
399.00	24.853
399.35	25.067
399.71	25.773
400.07	25.742
400.42	25.373
400.78	25.279
401.14	25.073
401.49	24.885
401.85	25.087
402.21	24.722
402.57	25.853
402.92	25.818
403.28	24.702
403.63	24.779
403.99	25.694
404.35	25.557
404.70	24.926
405.06	24.649
405.42	25.434
405.77	25.248
406.13	24.729
406.49	24.559
406.84	24.647
407.20	25.514
407.55	24.492
407.91	24.569
408.27	25.349
408.62	24.837
408.98	24.187
409.34	24.489
409.69	24.456
410.05	23.971
410.40	24.441
410.76	24.041
411.11	24.230
411.47	25.062
411.83	23.433
412.18	24.155
412.54	24.925
412.89	24.897
413.25	24.572
413.60	25.000
413.96	24.835
414.31	25.148
414.67	25.574
415.03	23.819
415.38	24.732
415.74	24.068
416.09	24.172
416.45	26.180
416.80	25.978
417.16	24.507
417.51	24.841
417.87	25.720
418.22	25.577
418.58	24.841
418.93	25.818
419.29	24.091
419.64	24.409
420.00	24.403
420.35	24.913
420.71	25.088
421.06	24.603
421.42	25.446
421.77	25.375
422.12	26.075
422.48	25.270
422.83	25.446
423.19	25.432
423.54	26.001
423.90	26.444
424.25	26.142
424.61	26.465
424.96	25.974
425.31	25.835
425.67	27.104
426.02	24.565
426.38	24.796
426.73	26.200
427.09	27.165
427.44	25.267
427.79	26.015
428.15	26.930
428.50	27.543
428.85	27.219
429.21	26.580
429.56	27.418
429.92	27.151
430.27	27.286
430.62	26.089
430.98	27.046
431.33	26.462
431.68	26.469
432.04	26.280
432.39	26.948
432.74	27.693
433.10	27.464
433.45	28.834
433.80	28.351
434.16	27.325
434.51	28.019
434.86	28.470
435.22	28.147
435.57	28.690
435.92	28.458
436.28	28.917
436.63	28.417
436.98	29.617
437.34	28.824
437.69	27.884
438.04	29.140
438.39	29.656
438.75	28.508
439.10	28.117
439.45	28.208
439.81	29.902
440.16	29.224
440.51	28.885
440.86	29.744
441.22	28.247
441.57	29.554
441.92	28.677
442.27	29.639
442.63	29.472
442.98	28.610
443.33	29.138
443.68	29.376
444.03	29.029
444.39	29.331
444.74	29.193
445.09	29.489
445.44	30.446
445.79	29.386
446.15	30.842
446.50	28.956
446.85	29.781
447.20	28.905
447.55	30.125
447.91	30.101
448.26	29.606
448.61	31.288
448.96	30.392
449.31	31.023
449.66	30.676
450.02	30.146
450.37	31.760
450.72	30.083
451.07	30.250
451.42	30.883
451.77	30.298
452.12	30.743
452.47	30.984
452.83	31.549
453.18	30.991
453.53	30.965
453.88	31.200
454.23	31.435
454.58	31.294
454.93	31.392
455.28	31.028
455.63	32.151
455.98	31.472
456.34	31.489
456.69	31.585
457.04	31.384
457.39	31.543
457.74	31.194
458.09	30.432
458.44	31.325
458.79	31.034
459.14	30.987
459.49	31.767
459.84	31.413
460.19	31.299
460.54	31.567
460.89	31.397
461.24	30.813
461.59	32.483
461.94	31.206
462.29	31.693
462.64	32.601
462.99	31.926
463.34	32.534
463.69	33.394
464.04	31.721
464.39	32.112
464.74	31.594
465.09	31.341
465.44	31.556
465.79	30.702
466.14	32.114
466.49	31.633
466.84	32.219
467.19	32.513
467.54	31.652
467.89	32.218
468.24	31.731
468.59	32.083
468.94	31.763
469.29	33.109
469.64	33.312
469.99	33.162
470.34	32.321
470.68	33.793
471.03	33.289
471.38	32.517
471.73	32.854
472.08	33.138
472.43	33.147
472.78	33.675
473.13	32.979
473.48	31.907
473.83	33.157
474.17	33.678
474.52	33.294
474.87	31.950
475.22	31.982
475.57	32.162
475.92	31.886
476.27	31.012
476.61	31.743
476.96	32.863
477.31	33.625
477.66	32.636
478.01	32.285
478.36	32.956
478.70	32.506
479.05	31.276
479.40	32.292
479.75	33.217
480.10	32.623
480.45	32.353
480.79	32.166
481.14	32.240
481.49	31.290
481.84	31.794
482.19	32.838
482.53	32.104
482.88	32.437
483.23	32.161
483.58	31.912
483.92	32.998
484.27	31.935
484.62	33.574
484.97	31.632
485.31	31.392
485.66	30.706
486.01	29.818
486.36	29.781
486.70	29.361
487.05	30.234
487.40	30.104
487.75	30.731
488.09	31.222
488.44	31.453
488.79	31.378
489.13	31.654
489.48	31.962
489.83	32.193
490.17	31.709
490.52	33.161
490.87	32.543
491.22	32.491
491.56	32.982
491.91	32.348
492.26	33.318
492.60	33.121
492.95	32.170
493.30	32.803
493.64	32.300
493.99	32.603
494.34	32.721
494.68	32.315
495.03	33.139
495.37	33.183
495.72	33.147
496.07	32.435
496.41	32.233
496.76	31.954
497.11	33.290
497.45	32.486
497.80	32.345
498.14	32.594
498.49	32.126
498.84	33.551
499.18	31.856
499.53	32.706
499.87	32.884
500.22	32.704
500.56	32.544
500.91	33.720
501.26	33.532
501.60	33.288
501.95	32.348
502.29	32.756
502.64	31.892
502.98	31.836
503.33	32.873
503.67	32.274
504.02	31.975
504.36	32.353
504.71	33.254
505.06	33.130
505.40	32.475
505.75	32.694
506.09	32.618
506.44	33.412
506.78	33.790
507.13	33.737
507.47	32.606
507.82	33.771
508.16	34.199
508.51	33.043
508.85	32.574
509.19	33.382
509.54	32.910
509.88	33.913
510.23	32.598
510.57	33.012
510.92	33.716
511.26	34.237
511.61	32.890
511.95	33.748
512.30	32.900
512.64	32.710
512.98	33.624
513.33	34.324
513.67	32.988
514.02	34.026
514.36	33.229
514.70	33.440
515.05	33.831
515.39	34.046
515.74	33.789
516.08	34.096
516.42	35.301
516.77	33.120
517.11	33.120
517.46	33.890
517.80	33.697
518.14	34.085
518.49	34.289
518.83	33.132
519.17	33.833
519.52	33.807
519.86	33.787
520.20	34.740
520.55	33.691
520.89	34.540
521.23	35.280
521.58	34.194
521.92	32.770
522.26	33.886
522.61	33.987
522.95	35.075
523.29	33.918
523.64	33.815
523.98	33.862
524.32	33.218
524.66	34.667
525.01	33.669
525.35	34.708
525.69	35.099
526.04	35.217
526.38	33.961
526.72	33.353
527.06	34.122
527.41	34.825
527.75	33.719
528.09	33.534
528.43	34.838
528.78	34.466
529.12	34.798
529.46	34.424
529.80	34.287
530.15	33.648
530.49	33.875
530.83	33.943
531.17	34.133
531.51	34.273
531.86	34.300
532.20	35.043
532.54	33.333
532.88	33.604
533.22	33.760
533.57	33.862
533.91	32.867
534.25	33.179
534.59	34.211
534.93	33.675
535.27	32.555
535.62	33.489
535.96	33.747
536.30	33.516
536.64	33.665
536.98	32.914
537.32	34.375
537.66	32.653
538.01	33.932
538.35	34.311
538.69	32.646
539.03	33.147
539.37	33.313
539.71	33.580
540.05	32.738
540.39	33.585
540.73	33.544
541.07	32.873
541.42	33.644
541.76	33.354
542.10	32.984
542.44	33.541
542.78	32.536
543.12	33.374
543.46	32.832
543.80	33.835
544.14	33.808
544.48	33.029
544.82	33.456
545.16	32.787
545.50	32.637
545.84	32.702
546.18	34.200
546.52	33.902
546.86	33.914
547.20	34.044
547.54	33.122
547.88	33.090
548.22	33.273
548.56	32.940
548.90	32.503
549.24	33.607
549.58	33.054
549.92	33.726
550.26	34.686
550.60	33.533
550.94	33.718
551.28	34.345
551.62	34.345
551.96	34.189
552.30	32.630
552.64	34.304
552.98	33.698
553.32	32.330
553.66	33.029
554.00	33.269
554.34	33.622
554.68	34.207
555.02	34.148
555.36	33.045
555.69	33.639
556.03	34.204
556.37	33.270
556.71	34.094
557.05	31.782
557.39	32.800
557.73	33.288
558.07	34.004
558.41	34.476
558.75	34.747
559.08	34.882
559.42	34.145
559.76	34.284
560.10	32.829
560.44	33.112
560.78	34.015
561.12	33.566
561.45	32.791
561.79	33.208
562.13	32.596
562.47	33.550
562.81	32.661
563.15	33.678
563.48	31.304
563.82	33.687
564.16	32.276
564.50	31.284
564.84	33.009
565.17	31.967
565.51	33.190
565.85	33.436
566.19	32.202
566.52	32.130
566.86	33.742
567.20	32.416
567.54	32.533
567.88	32.760
568.21	31.802
568.55	30.982
568.89	31.159
569.23	31.104
569.56	31.230
569.90	29.429
570.24	30.630
570.57	30.045
570.91	29.704
571.25	29.122
571.59	28.511
571.92	28.552
572.26	29.003
572.60	28.714
572.93	29.212
573.27	28.805
573.61	28.939
573.95	29.133
574.28	28.648
574.62	28.132
574.96	28.187
575.29	27.598
575.63	27.939
575.97	27.897
576.30	28.094
576.64	28.558
576.98	28.140
577.31	28.533
577.65	27.863
577.98	27.381
578.32	27.483
578.66	27.080
578.99	28.320
579.33	28.349
579.67	27.533
580.00	28.113
580.34	27.447
580.67	27.875
581.01	28.374
581.35	27.887
581.68	27.577
582.02	27.743
582.35	27.673
582.69	28.139
583.02	27.887
583.36	28.032
583.70	27.969
584.03	29.306
584.37	28.142
584.70	28.664
585.04	27.790
585.37	28.291
585.71	28.629
586.04	28.533
586.38	28.082
586.72	28.623
587.05	28.718
587.39	28.369
587.72	28.739
588.06	28.706
588.39	28.199
588.73	28.984
589.06	29.530
589.40	29.609
589.73	29.367
590.07	30.542
590.40	29.756
590.73	30.775
591.07	30.133
591.40	28.982
591.74	29.302
592.07	29.243
592.41	29.776
592.74	29.220
593.08	29.232
593.41	29.025
593.75	28.873
594.08	28.765
594.41	28.739
594.75	29.315
595.08	28.978
595.42	29.526
595.75	29.483
596.09	30.379
596.42	28.660
596.75	29.527
597.09	30.004
597.42	30.163
597.75	29.168
598.09	29.627
598.42	30.192
598.76	29.491
599.09	29.754
599.42	29.585
599.76	29.342
600.09	29.051
600.42	28.902
600.76	28.824
601.09	29.306
601.42	29.074
601.76	29.646
602.09	29.617
602.42	29.094
602.76	29.639
603.09	29.525
603.42	30.165
603.76	28.995
604.09	29.135
604.42	29.642
604.76	29.277
605.09	29.102
605.42	29.338
605.75	29.451
606.09	29.265
606.42	28.861
606.75	29.926
607.09	28.504
607.42	29.610
607.75	28.861
608.08	29.448
608.42	29.950
608.75	28.455
609.08	29.168
609.41	30.000
609.75	30.495
610.08	30.126
610.41	29.513
610.74	29.740
611.07	29.695
611.41	30.491
611.74	30.449
612.07	29.576
612.40	30.507
612.73	29.556
613.07	30.360
613.40	29.925
613.73	30.255
614.06	29.600
614.39	30.556
614.72	29.533
615.06	29.377
615.39	28.911
615.72	28.848
616.05	30.035
616.38	30.137
616.71	30.765
617.05	29.874
617.38	30.112
617.71	30.540
618.04	29.052
618.37	30.017
618.70	30.831
619.03	30.281
619.36	31.281
619.69	30.739
620.03	30.985
620.36	30.957
620.69	31.865
621.02	32.065
621.35	31.160
621.68	32.743
622.01	31.882
622.34	31.318
622.67	31.039
623.00	30.905
623.33	31.377
623.66	30.938
623.99	30.548
624.32	31.640
624.65	30.744
624.99	30.899
625.32	30.194
625.65	31.448
625.98	30.614
626.31	31.083
626.64	31.359
626.97	31.217
627.30	29.969
627.63	32.496
627.96	31.221
628.29	32.673
628.62	31.908
628.95	32.624
629.28	33.216
629.61	32.337
629.94	32.152
630.26	33.276
630.59	33.422
630.92	32.377
631.25	32.185
631.58	34.137
631.91	33.302
632.24	31.778
632.57	32.613
632.90	34.472
633.23	32.844
633.56	34.247
633.89	32.154
634.22	33.907
634.55	32.796
634.88	33.516
635.20	34.081
635.53	35.308
635.86	34.787
636.19	33.558
636.52	32.432
636.85	32.470
637.18	33.911
637.51	32.626
637.83	31.693
638.16	32.474
638.49	33.533
638.82	33.803
639.15	31.375
639.48	34.953
639.81	34.676
640.13	33.742
640.46	34.008
640.79	35.631
641.12	30.971
641.45	34.670
641.77	35.667
642.10	34.672
642.43	36.558
642.76	34.233
643.09	36.455
643.41	33.100
643.74	36.403
644.07	36.578
644.40	34.763
644.73	35.886
645.05	35.958
645.38	35.835
645.71	35.812
646.04	34.809
646.36	36.776
646.69	32.960
647.02	36.800
647.35	34.646
647.67	36.143
648.00	34.528
648.33	36.241
648.66	35.758
648.98	33.768
649.31	33.063
649.64	32.089
649.96	33.001
650.29	33.000
650.62	34.462
650.94	35.843
651.27	36.523
651.60	36.150
651.92	35.023
652.25	34.173
652.58	34.468
652.90	33.084
653.23	33.383
653.56	34.421
653.88	33.774
654.21	33.871
654.54	31.772
654.86	34.366
655.19	32.718
655.52	27.002
655.84	22.197
656.17	26.199
656.49	38.026
656.82	43.206
657.15	34.377
657.47	26.094
657.80	19.224
658.13	15.497
658.45	20.576
658.78	25.079
659.10	25.691
659.43	26.696
659.75	27.607
660.08	28.759
660.41	30.036
660.73	32.371
661.06	32.432
661.38	35.605
661.71	34.173
662.03	34.030
662.36	36.381
662.68	35.382
663.01	36.216
663.33	36.604
663.66	34.122
663.98	35.317
664.31	37.313
664.63	36.973
664.96	35.460
665.28	34.463
665.61	34.340
665.93	37.736
666.26	34.393
666.58	36.881
666.91	35.714
667.23	34.137
667.56	35.729
667.88	37.137
668.21	34.221
668.53	34.677
668.86	37.675
669.18	35.845
669.50	34.711
669.83	36.345
670.15	35.967
670.48	34.961
670.80	36.853
671.13	34.263
671.45	36.072
671.77	35.250
672.10	35.548
672.42	31.579
672.75	31.962
673.07	32.750
673.39	32.109
673.72	35.986
674.04	33.692
674.37	31.942
674.69	33.086
675.01	31.530
675.34	31.783
675.66	36.719
675.98	34.320
676.31	33.800
676.63	33.201
676.95	35.317
677.28	34.686
677.60	36.016
677.92	33.135
678.25	34.302
678.57	33.706
678.89	34.901
679.22	33.456
679.54	31.495
679.86	32.461
680.18	31.986
680.51	31.343
680.83	30.743
681.15	31.889
681.48	30.903
681.80	32.049
682.12	32.353
682.44	30.450
682.77	33.096
683.09	33.010
683.41	34.694
683.73	33.268
684.06	31.944
684.38	33.140
684.70	33.094
685.02	30.208
685.34	33.451
685.67	31.833
685.99	29.885
686.31	31.125
686.63	30.894
686.96	30.556
687.28	29.530
687.60	30.717
687.92	31.658
688.24	33.448
688.56	31.495
688.89	31.166
689.21	32.563
689.53	33.992
689.85	32.114
690.17	31.262
690.49	33.266
690.82	30.462
691.14	33.737
691.46	32.033
691.78	32.749
692.10	31.489
692.42	29.583
692.74	33.915
693.06	31.395
693.39	29.644
693.71	30.059
694.03	34.714
694.35	35.341
694.67	32.179
694.99	32.594
695.31	34.234
695.63	31.448
695.95	33.710
696.27	35.841
696.59	31.026
696.91	34.177
697.23	30.090
697.56	32.573
697.88	28.743
698.20	31.887
698.52	28.210
698.84	32.033
699.16	32.836
699.48	31.780
699.80	33.769
700.12	37.413
700.44	33.879
700.76	31.504
701.08	33.943
701.40	34.545
701.72	39.305
702.04	34.959
702.36	34.409
702.68	35.904
703.00	34.085
703.32	36.228
703.64	30.479
703.96	33.333
704.28	37.302
704.60	37.746
704.91	31.092
705.23	36.080
705.55	35.312
705.87	36.508
706.19	36.050
706.51	38.871
706.83	34.808
707.15	36.364
707.47	34.625
707.79	33.563
708.11	29.025
708.43	33.933
708.74	31.900
709.06	30.465
709.38	33.995
709.70	34.605
710.02	33.152
710.34	32.044
710.66	34.444
710.98	33.333
711.29	34.540
711.61	31.476
711.93	30.091
712.25	33.133
712.57	36.977
712.89	37.576
713.20	36.102
713.52	32.087
713.84	36.858
714.16	33.043
714.48	29.683
714.80	33.062
715.11	32.979
715.43	32.961
715.75	34.366
716.07	35.549
716.39	36.286
716.70	33.333
717.02	34.680
717.34	41.367
717.66	38.889
717.97	39.015
718.29	40.141
718.61	34.459
718.93	37.716
719.24	32.886
719.56	34.828
719.88	33.758
720.20	31.935
720.51	32.026
720.83	36.120
721.15	34.694
721.46	38.014
721.78	37.282
722.10	37.847
722.42	35.452
722.73	37.184
723.05	35.088
723.37	36.749
723.68	38.281
724.00	37.500
724.32	39.924
724.63	38.077
724.95	35.294
725.27	39.033
725.58	39.338
725.90	31.690
726.22	31.164
726.53	36.120
726.85	34.528
727.16	39.597
727.48	35.216
727.80	37.050
728.11	35.357
728.43	29.710
728.74	34.965
729.06	29.391
729.38	36.491
729.69	36.333
730.01	31.579
730.32	33.557
730.64	32.890
730.96	33.634
731.27	25.688
731.59	29.885
731.90	32.033
732.22	32.286
732.53	31.339
732.85	33.041
733.16	34.639
733.48	30.721
733.80	31.304
734.11	36.196
734.43	27.485
734.74	31.367
735.06	32.804
735.37	29.381
735.69	31.014
736.00	37.309
736.32	30.909
736.63	28.707
736.95	28.882
737.26	32.012
737.58	35.276
737.89	30.723
738.21	30.464
738.52	33.110
738.83	37.363
739.15	33.798
739.46	32.414
739.78	33.673
740.09	33.528
740.41	32.515
740.72	30.794
741.04	34.615
741.35	37.109
741.66	33.202
741.98	36.052
742.29	37.500
742.61	34.956
742.92	37.288
743.23	32.400
743.55	29.434
743.86	27.843
744.18	32.203
744.49	34.711
744.80	35.484
745.12	38.839
745.43	38.785
745.74	36.444
746.06	35.965
746.37	36.279
746.68	42.920
747.00	35.874
747.31	37.395
747.62	34.836
747.94	36.481
748.25	28.405
748.56	36.017
748.88	40.179
749.19	39.070
749.50	33.333
749.82	37.449
750.13	35.178
750.44	33.000
750.75	33.893
751.07	33.882
751.38	34.653
751.69	26.936
752.01	33.217
752.32	31.229
752.63	35.235
752.94	36.713
753.26	37.109
753.57	35.409
753.88	35.955
754.19	35.379
754.51	28.239
754.82	27.181
755.13	30.068
755.44	32.963
755.75	34.021
756.07	31.507
756.38	32.353
756.69	30.625
757.00	31.157
757.31	31.268
757.63	25.344
757.94	30.319
758.25	26.329
758.56	28.375
758.87	25.815
759.18	31.686
759.50	28.571
759.81	30.861
760.12	28.652
760.43	26.331
760.74	28.101
761.05	29.443
761.36	28.385
761.67	29.380
761.99	27.324
762.30	28.939
762.61	25.694
762.92	28.788
763.23	32.830
763.54	30.000
763.85	27.626
764.16	33.333
764.47	30.743
764.78	28.013
765.10	30.793
765.41	28.125
765.72	25.691
766.03	28.097
766.34	31.010
766.65	30.798
766.96	35.628
767.27	33.645
767.58	35.644
767.89	38.674
768.20	42.683
768.51	36.735
768.82	36.842
769.13	30.980
769.44	31.579
769.75	28.839
770.06	34.454
770.37	32.018
770.68	27.111
770.99	37.288
771.30	32.218
771.61	33.846
771.92	31.298
772.23	33.871
772.54	37.778
772.85	39.109
773.16	32.609
773.47	41.667
773.78	39.109
774.09	36.364
774.39	41.818
774.70	32.941
775.01	38.816
775.32	34.161
775.63	50.685
775.94	46.296
776.25	42.069
776.56	48.855
776.87	51.145
777.18	43.939
777.48	55.118
777.79	44.615
778.10	44.697
778.41	42.537
778.72	47.368
779.03	34.615
779.34	39.865
779.65	40.994
779.95	39.752
780.26	32.738
780.57	47.619
780.88	48.227
781.19	51.667
781.50	48.521
781.80	42.623
782.11	38.095
782.42	36.782
782.73	37.853
783.04	34.194
783.34	31.783
783.65	43.537
783.96	43.871
784.27	41.722
784.57	34.211
784.88	42.754
785.19	36.667
785.50	49.138
785.81	55.814
786.11	39.259
786.42	45.669
786.73	42.342
787.04	38.679
787.34	45.528
787.65	46.212
787.96	51.515
788.26	48.031
788.57	47.445
788.88	47.183
789.19	43.511
789.49	42.568
789.80	51.563
790.11	35.537
790.41	49.074
790.72	38.889
791.03	50.962
791.33	52.525
791.64	52.632
791.95	57.895
792.25	46.875
792.56	43.000
792.87	69.512
793.17	45.455
793.48	54.118
793.79	60.920
794.09	56.818
794.40	56.034
794.70	42.857
795.01	27.692
795.32	40.458
795.62	40.171
795.93	56.303
796.23	43.089
796.54	58.163
796.85	55.682
797.15	67.532
797.46	62.195
797.76	58.750
798.07	56.000
798.37	68.750
798.68	62.500
798.99	74.390
799.29	61.333
799.60	43.023
799.90	63.158
800.21	65.152
800.51	66.197
800.82	77.586
801.12	67.692
801.43	68.000
801.73	72.414
802.04	67.532
802.34	67.123
802.65	66.667
802.95	65.217
803.26	79.032
803.56	66.667
803.87	74.627
804.17	61.905
804.48	73.585
804.78	58.333
805.09	57.576
805.39	73.016
805.70	78.947
806.00	67.143
806.30	62.500
806.61	63.529
806.91	60.000
807.22	55.435
807.52	61.842
807.83	75.000
808.13	63.768
808.43	72.581
808.74	61.644
809.04	80.357
809.35	82.353
809.65	78.788
809.95	78.431
810.26	103.704
810.56	79.688
810.86	97.959
811.17	89.474
811.47	100.000
811.77	68.966
812.08	65.517
812.38	73.810
812.69	85.714
812.99	64.444
813.29	111.429
813.59	103.226
813.90	72.414
814.20	70.492
814.50	62.000
814.81	66.667
815.11	77.778
815.41	87.500
815.72	92.857
816.02	78.000
816.32	102.439
816.62	82.759
816.93	100.000
817.23	114.634
817.53	89.286
817.84	82.222
818.14	73.810
818.44	100.000
818.74	96.226
819.04	89.744
819.35	130.303
819.65	121.154
819.95	105.556
820.25	112.766
820.56	110.811
820.86	97.368
821.16	57.447
821.46	97.368
821.76	83.636
822.07	92.857
822.37	94.737
822.67	113.953
822.97	76.316
823.27	110.870
823.57	106.250
823.88	128.205
824.18	103.030
824.48	130.435
824.78	111.111
825.08	139.130
825.38	165.517
825.69	132.353
825.99	91.489
826.29	91.667
826.59	97.143
826.89	106.667
827.19	94.286
827.49	112.903
827.79	138.462
828.09	85.714
828.39	111.111
828.70	78.378
829.00	110.714
829.30	175.000
829.60	83.333
829.90	138.710
830.20	81.818
830.50	132.432
830.80	229.167
831.10	142.308
831.40	119.048
831.70	208.333
832.00	120.000
832.30	143.478
832.60	191.667
832.90	160.606
833.20	205.000
833.50	123.684
833.80	114.706
834.10	60.526
834.40	157.895
834.70	100.000
835.00	156.000
835.30	81.081
835.60	125.000
835.90	105.405
836.20	111.538
836.50	150.000
836.80	82.927
837.10	126.087
837.40	238.462
837.70	147.368
838.00	100.000
838.30	125.000
838.60	156.000
838.90	320.000
839.19	125.000
839.49	143.333
839.79	110.345
840.09	138.462
840.39	206.667
840.69	200.000
840.99	123.810
841.29	147.826
841.59	160.000
841.88	184.000
842.18	300.000
842.48	110.714
842.78	162.963
843.08	215.385
843.38	127.273
843.68	228.571
843.97	428.571
844.27	152.174
844.57	1650.000
844.87	328.571
845.17	188.889
845.47	176.190
845.76	175.000
846.06	628.571
846.36	135.294
846.66	292.308
846.96	225.000
847.25	246.154
847.55	121.053
847.85	138.889
848.15	580.000
848.44	363.636
848.74	142.857
849.04	162.500
849.34	164.706
849.63	293.750
849.93	250.000
850.23	1200.000
850.53	400.000
850.82	336.364
851.12	211.765
851.42	133.333
851.71	193.750
852.01	0.000
852.31	211.765
852.61	390.000
852.90	158.333
853.20	344.444
853.50	-2200.000
853.79	132.000
854.09	156.250
854.39	117.241
854.68	137.931
854.98	204.762
855.28	151.613
855.57	185.714
855.87	216.667
856.17	151.852
856.46	184.211
856.76	148.387
857.05	194.118
857.35	336.364
857.65	276.923
857.94	125.000
858.24	411.111
858.53	192.857
858.83	528.571
859.13	234.783
859.42	266.667
859.72	337.500
860.01	275.000
860.31	800.000
860.60	430.000
860.90	412.500
861.20	246.154
861.49	571.429
861.79	-3700.000
862.08	514.286
862.38	433.333
862.67	278.571
862.97	370.000
863.26	153.333
863.56	750.000
863.85	338.462
864.15	241.176
864.44	205.556
864.74	400.000
865.03	263.636
865.33	300.000
865.62	180.000
865.92	616.667
866.21	600.000
866.51	640.000
866.80	227.778
867.10	900.000
867.39	2600.000
867.69	600.000
867.98	900.000
868.27	157.143
868.57	226.667
868.86	750.000
869.16	157.143
869.45	2200.000
869.75	-633.333
870.04	800.000
870.33	580.000
870.63	250.000
870.92	200.000
871.22	750.000
871.51	414.286
871.80	275.000
872.10	330.769
>>>>>End Processed Spectral Data<<<<<
