SpectraSuite Data File
++++++++++++++++++++++++++++++++++++
Date: Tue May 12 17:22:07 PDT 2015
User: schluterlab
Dark Spectrum Present: Yes
Reference Spectrum Present: Yes
Number of Sampled Component Spectra: 1
Spectrometers: USB2E3373
Integration Time (usec): 3000 (USB2E3373)
Spectra Averaged: 3 (USB2E3373)
Boxcar Smoothing: 0 (USB2E3373)
Correct for Electrical Dark: No (USB2E3373)
Strobe/Lamp Enabled: No (USB2E3373)
Correct for Detector Non-linearity: No (USB2E3373)
Correct for Stray Light: No (USB2E3373)
Number of Pixels in Processed Spectrum: 2048
>>>>>Begin Processed Spectral Data<<<<<
178.53	0.000
178.91	-250.000
179.29	-650.000
179.67	-3800.000
180.04	-160.000
180.42	750.000
180.80	1750.000
181.18	0.000
181.56	-375.000
181.94	0.000
182.31	1033.333
182.69	-1800.000
183.07	600.000
183.45	-3100.000
183.83	-1700.000
184.20	420.000
184.58	514.286
184.96	-276.923
185.34	-233.333
185.72	1300.000
186.09	-775.000
186.47	-2400.000
186.85	1400.000
187.23	660.000
187.61	1250.000
187.98	412.500
188.36	264.286
188.74	300.000
189.12	316.667
189.49	1075.000
189.87	0.000
190.25	525.000
190.63	2100.000
191.00	-166.667
191.38	-3600.000
191.76	-625.000
192.14	487.500
192.51	-2000.000
192.89	1300.000
193.27	1300.000
193.65	-1166.667
194.02	-700.000
194.40	571.429
194.78	-192.857
195.15	246.667
195.53	-2400.000
195.91	-520.000
196.29	4300.000
196.66	231.250
197.04	800.000
197.42	-1250.000
197.79	825.000
198.17	366.667
198.55	0.000
198.92	585.714
199.30	1033.333
199.68	1900.000
200.05	666.667
200.43	-450.000
200.81	222.222
201.18	3500.000
201.56	283.333
201.94	-600.000
202.31	-325.000
202.69	-580.000
203.07	2600.000
203.44	-516.667
203.82	416.667
204.19	520.000
204.57	-1250.000
204.95	-750.000
205.32	-840.000
205.70	433.333
206.08	875.000
206.45	-1100.000
206.83	422.222
207.20	163.158
207.58	200.000
207.96	740.000
208.33	0.000
208.71	600.000
209.08	720.000
209.46	-3800.000
209.84	-925.000
210.21	820.000
210.59	-400.000
210.96	333.333
211.34	-900.000
211.71	372.727
212.09	675.000
212.46	1750.000
212.84	-466.667
213.22	455.556
213.59	-3100.000
213.97	310.000
214.34	1000.000
214.72	1200.000
215.09	1033.333
215.47	-3000.000
215.84	-290.000
216.22	-500.000
216.59	0.000
216.97	0.000
217.34	1050.000
217.72	-1450.000
218.09	1000.000
218.47	462.500
218.84	600.000
219.22	1033.333
219.59	1000.000
219.97	442.857
220.34	233.333
220.72	1750.000
221.09	3300.000
221.47	216.667
221.84	966.667
222.22	440.000
222.59	272.222
222.97	250.000
223.34	206.250
223.72	-1650.000
224.09	1100.000
224.46	330.769
224.84	-625.000
225.21	455.556
225.59	266.667
225.96	1233.333
226.34	-520.000
226.71	-725.000
227.08	-480.000
227.46	0.000
227.83	-583.333
228.21	-1700.000
228.58	300.000
228.95	900.000
229.33	333.333
229.70	1025.000
230.08	323.077
230.45	3700.000
230.82	-1025.000
231.20	-1000.000
231.57	-833.333
231.95	440.000
232.32	266.667
232.69	600.000
233.07	308.333
233.44	-1500.000
233.81	286.667
234.19	174.074
234.56	237.500
234.93	164.706
235.31	195.000
235.68	250.000
236.05	153.571
236.43	144.444
236.80	185.714
237.17	151.724
237.55	78.125
237.92	77.500
238.29	81.818
238.67	109.375
239.04	80.488
239.41	64.583
239.79	55.000
240.16	66.667
240.53	42.623
240.91	55.072
241.28	50.847
241.65	51.515
242.02	49.296
242.40	48.571
242.77	47.253
243.14	34.177
243.51	43.434
243.89	32.710
244.26	28.972
244.63	31.683
245.00	35.780
245.38	24.576
245.75	28.788
246.12	40.741
246.49	19.858
246.87	21.311
247.24	26.000
247.61	25.000
247.98	24.490
248.36	23.636
248.73	26.531
249.10	17.857
249.47	17.000
249.84	19.403
250.22	18.919
250.59	17.500
250.96	18.143
251.33	16.279
251.70	18.304
252.08	16.387
252.45	17.530
252.82	16.350
253.19	15.415
253.56	11.154
253.94	16.304
254.31	15.891
254.68	13.937
255.05	17.241
255.42	14.234
255.79	14.984
256.16	12.203
256.54	12.338
256.91	12.092
257.28	11.371
257.65	9.404
258.02	10.029
258.39	14.900
258.76	14.203
259.14	11.429
259.51	12.828
259.88	12.766
260.25	9.890
260.62	10.411
260.99	8.815
261.36	8.357
261.73	9.574
262.10	12.565
262.47	10.000
262.85	8.533
263.22	10.797
263.59	10.997
263.96	10.276
264.33	7.901
264.70	11.794
265.07	10.000
265.44	10.092
265.81	8.491
266.18	7.551
266.55	6.619
266.92	5.145
267.29	10.526
267.66	10.090
268.03	6.951
268.40	10.148
268.77	8.811
269.14	8.026
269.51	7.572
269.88	8.980
270.25	5.400
270.62	8.369
270.99	10.142
271.36	10.366
271.73	5.870
272.10	8.081
272.47	5.952
272.84	4.790
273.21	7.438
273.58	7.287
273.95	7.187
274.32	7.977
274.69	8.268
275.06	8.925
275.43	6.322
275.80	7.547
276.17	7.904
276.54	8.411
276.91	8.396
277.28	6.387
277.65	8.118
278.02	9.743
278.39	6.295
278.76	7.241
279.13	6.762
279.50	6.364
279.87	4.655
280.23	4.972
280.60	5.657
280.97	3.966
281.34	5.941
281.71	7.304
282.08	6.496
282.45	5.236
282.82	6.856
283.19	6.518
283.56	4.298
283.92	6.189
284.29	6.656
284.66	5.042
285.03	6.468
285.40	5.289
285.77	5.864
286.14	8.050
286.51	6.595
286.87	5.380
287.24	3.604
287.61	6.231
287.98	8.060
288.35	6.519
288.72	6.677
289.08	5.856
289.45	6.707
289.82	7.031
290.19	7.028
290.56	6.987
290.93	6.475
291.29	5.939
291.66	4.661
292.03	6.031
292.40	5.285
292.77	5.850
293.13	6.562
293.50	6.478
293.87	5.962
294.24	6.993
294.60	7.133
294.97	5.455
295.34	6.375
295.71	5.782
296.08	6.667
296.44	5.591
296.81	3.970
297.18	5.830
297.55	6.034
297.91	5.172
298.28	5.435
298.65	5.153
299.02	4.946
299.38	5.156
299.75	6.707
300.12	5.849
300.48	6.674
300.85	5.483
301.22	7.326
301.59	5.307
301.95	5.018
302.32	5.821
302.69	6.222
303.05	6.173
303.42	5.605
303.79	5.959
304.15	6.051
304.52	5.708
304.89	7.036
305.25	5.673
305.62	6.716
305.99	5.652
306.35	5.579
306.72	6.764
307.09	6.108
307.45	6.547
307.82	5.041
308.19	7.113
308.55	5.600
308.92	6.379
309.29	7.298
309.65	7.037
310.02	6.288
310.38	6.879
310.75	7.715
311.12	7.471
311.48	7.625
311.85	7.538
312.22	7.736
312.58	7.094
312.95	9.417
313.31	8.708
313.68	8.724
314.05	10.623
314.41	8.939
314.78	9.280
315.14	10.427
315.51	9.934
315.87	9.763
316.24	11.111
316.61	11.191
316.97	10.092
317.34	11.411
317.70	11.326
318.07	11.922
318.43	11.863
318.80	12.872
319.16	13.374
319.53	13.097
319.89	14.247
320.26	15.642
320.62	14.835
320.99	15.157
321.35	15.399
321.72	17.078
322.08	15.697
322.45	17.166
322.81	16.834
323.18	18.384
323.54	19.599
323.91	19.764
324.27	20.336
324.64	20.156
325.00	20.259
325.37	20.826
325.73	22.681
326.10	22.370
326.46	23.287
326.83	22.240
327.19	24.659
327.56	23.482
327.92	25.246
328.29	24.795
328.65	26.113
329.01	24.808
329.38	26.058
329.74	26.302
330.11	27.020
330.47	27.536
330.84	26.747
331.20	26.988
331.56	29.965
331.93	27.203
332.29	27.466
332.66	27.636
333.02	27.320
333.38	28.010
333.75	28.357
334.11	27.601
334.48	28.462
334.84	27.956
335.20	28.486
335.57	28.631
335.93	28.343
336.29	29.353
336.66	28.731
337.02	28.999
337.38	28.977
337.75	30.068
338.11	30.211
338.47	29.128
338.84	27.858
339.20	29.177
339.56	29.268
339.93	30.100
340.29	28.067
340.65	31.685
341.02	30.652
341.38	30.049
341.74	30.814
342.11	30.217
342.47	29.614
342.83	30.353
343.20	29.830
343.56	28.356
343.92	29.149
344.28	30.303
344.65	29.095
345.01	30.159
345.37	29.247
345.73	28.492
346.10	29.562
346.46	30.861
346.82	29.012
347.19	30.371
347.55	29.899
347.91	29.607
348.27	28.970
348.63	29.668
349.00	30.541
349.36	30.661
349.72	30.581
350.08	30.512
350.45	29.855
350.81	30.810
351.17	29.199
351.53	29.253
351.89	31.158
352.26	30.612
352.62	30.468
352.98	31.135
353.34	30.740
353.70	28.976
354.07	30.231
354.43	31.413
354.79	30.600
355.15	30.322
355.51	31.269
355.87	32.154
356.24	30.947
356.60	31.355
356.96	30.705
357.32	30.746
357.68	31.424
358.04	30.167
358.40	30.435
358.77	31.781
359.13	30.631
359.49	31.431
359.85	31.124
360.21	31.426
360.57	31.898
360.93	31.674
361.29	31.674
361.66	31.767
362.02	30.753
362.38	32.323
362.74	31.635
363.10	32.118
363.46	31.906
363.82	32.328
364.18	31.935
364.54	32.690
364.90	32.530
365.26	32.061
365.62	32.666
365.98	31.315
366.35	31.448
366.71	31.506
367.07	32.969
367.43	32.774
367.79	31.981
368.15	32.429
368.51	32.323
368.87	31.929
369.23	31.878
369.59	33.176
369.95	32.727
370.31	32.307
370.67	34.212
371.03	33.333
371.39	33.172
371.75	33.706
372.11	32.631
372.47	33.493
372.83	33.787
373.19	34.339
373.55	33.196
373.91	32.735
374.27	33.135
374.63	32.678
374.99	34.367
375.35	33.938
375.71	34.499
376.07	32.560
376.42	31.777
376.78	33.783
377.14	34.797
377.50	34.707
377.86	33.824
378.22	33.943
378.58	34.443
378.94	33.917
379.30	33.354
379.66	33.474
380.02	34.252
380.38	33.489
380.74	34.314
381.09	34.638
381.45	32.659
381.81	33.983
382.17	33.394
382.53	34.673
382.89	34.536
383.25	35.169
383.61	33.199
383.97	34.853
384.32	34.418
384.68	34.759
385.04	33.587
385.40	34.816
385.76	33.879
386.12	34.014
386.48	34.225
386.83	34.046
387.19	34.335
387.55	33.804
387.91	34.238
388.27	34.622
388.62	34.331
388.98	33.528
389.34	33.492
389.70	34.021
390.06	33.659
390.42	34.978
390.77	34.275
391.13	33.675
391.49	33.031
391.85	34.769
392.20	34.684
392.56	34.170
392.92	33.127
393.28	33.016
393.64	33.085
393.99	33.906
394.35	32.549
394.71	32.931
395.07	33.394
395.42	31.909
395.78	34.300
396.14	35.181
396.50	33.634
396.85	32.683
397.21	33.995
397.57	32.576
397.92	32.987
398.28	31.329
398.64	33.799
399.00	31.427
399.35	31.669
399.71	32.450
400.07	32.877
400.42	32.179
400.78	32.551
401.14	33.353
401.49	32.258
401.85	33.835
402.21	32.162
402.57	32.555
402.92	33.212
403.28	31.205
403.63	30.665
403.99	30.579
404.35	32.122
404.70	32.369
405.06	31.162
405.42	31.418
405.77	31.257
406.13	30.911
406.49	30.756
406.84	31.190
407.20	32.021
407.55	31.446
407.91	32.419
408.27	31.959
408.62	31.520
408.98	31.283
409.34	31.034
409.69	31.985
410.05	31.604
410.40	30.742
410.76	30.681
411.11	31.043
411.47	31.111
411.83	30.873
412.18	31.099
412.54	31.051
412.89	31.386
413.25	30.616
413.60	31.425
413.96	31.299
414.31	31.228
414.67	32.588
415.03	30.971
415.38	32.934
415.74	30.954
416.09	31.793
416.45	31.157
416.80	33.419
417.16	31.127
417.51	30.955
417.87	30.914
418.22	31.409
418.58	32.293
418.93	31.291
419.29	30.807
419.64	30.951
420.00	32.936
420.35	31.243
420.71	31.039
421.06	32.195
421.42	32.182
421.77	31.371
422.12	31.422
422.48	30.560
422.83	31.752
423.19	31.803
423.54	32.309
423.90	32.559
424.25	31.976
424.61	32.618
424.96	32.185
425.31	31.856
425.67	32.211
426.02	32.529
426.38	31.972
426.73	33.892
427.09	32.859
427.44	32.921
427.79	32.304
428.15	32.999
428.50	33.714
428.85	32.745
429.21	32.523
429.56	32.004
429.92	33.366
430.27	32.269
430.62	31.914
430.98	32.335
431.33	31.804
431.68	31.407
432.04	31.505
432.39	32.711
432.74	33.607
433.10	32.614
433.45	33.257
433.80	33.811
434.16	33.579
434.51	33.540
434.86	34.567
435.22	33.225
435.57	34.143
435.92	33.694
436.28	33.410
436.63	32.685
436.98	33.277
437.34	33.961
437.69	33.371
438.04	33.978
438.39	34.092
438.75	33.964
439.10	33.351
439.45	33.126
439.81	33.198
440.16	34.507
440.51	33.108
440.86	35.556
441.22	33.929
441.57	33.228
441.92	33.860
442.27	33.557
442.63	33.791
442.98	33.459
443.33	34.655
443.68	33.602
444.03	34.025
444.39	33.804
444.74	34.058
445.09	34.650
445.44	33.953
445.79	33.967
446.15	34.105
446.50	33.650
446.85	34.213
447.20	34.279
447.55	34.965
447.91	35.802
448.26	34.931
448.61	33.997
448.96	35.566
449.31	34.488
449.66	35.437
450.02	34.576
450.37	34.536
450.72	35.647
451.07	35.020
451.42	34.262
451.77	33.906
452.12	34.827
452.47	35.115
452.83	36.282
453.18	34.955
453.53	34.636
453.88	34.857
454.23	35.735
454.58	33.974
454.93	35.132
455.28	35.190
455.63	35.520
455.98	35.307
456.34	35.866
456.69	35.305
457.04	34.368
457.39	35.257
457.74	35.417
458.09	34.643
458.44	34.995
458.79	34.111
459.14	33.661
459.49	35.051
459.84	34.783
460.19	34.294
460.54	34.416
460.89	35.021
461.24	34.937
461.59	35.658
461.94	35.106
462.29	35.069
462.64	35.992
462.99	35.253
463.34	35.774
463.69	35.148
464.04	35.233
464.39	35.031
464.74	34.877
465.09	33.198
465.44	34.168
465.79	34.676
466.14	34.234
466.49	34.455
466.84	33.891
467.19	34.622
467.54	33.814
467.89	34.507
468.24	35.553
468.59	34.583
468.94	35.145
469.29	35.186
469.64	35.627
469.99	35.861
470.34	36.053
470.68	35.103
471.03	35.157
471.38	35.298
471.73	35.010
472.08	35.747
472.43	36.002
472.78	35.723
473.13	34.355
473.48	35.208
473.83	34.865
474.17	35.562
474.52	34.953
474.87	34.167
475.22	35.351
475.57	34.470
475.92	34.287
476.27	34.603
476.61	34.477
476.96	34.639
477.31	35.424
477.66	35.427
478.01	35.482
478.36	35.427
478.70	34.541
479.05	34.990
479.40	35.169
479.75	35.501
480.10	35.431
480.45	33.940
480.79	34.424
481.14	34.047
481.49	34.355
481.84	34.257
482.19	34.367
482.53	34.431
482.88	34.633
483.23	33.965
483.58	35.233
483.92	35.740
484.27	33.776
484.62	34.465
484.97	33.892
485.31	33.171
485.66	31.471
486.01	31.473
486.36	31.226
486.70	30.659
487.05	31.228
487.40	31.766
487.75	32.106
488.09	32.756
488.44	32.760
488.79	33.495
489.13	33.893
489.48	34.559
489.83	34.070
490.17	33.980
490.52	35.013
490.87	34.828
491.22	35.195
491.56	35.310
491.91	34.588
492.26	34.343
492.60	35.626
492.95	34.934
493.30	35.259
493.64	34.726
493.99	34.884
494.34	34.917
494.68	34.706
495.03	34.980
495.37	35.389
495.72	35.711
496.07	34.052
496.41	34.666
496.76	34.572
497.11	34.919
497.45	35.335
497.80	34.986
498.14	34.767
498.49	34.633
498.84	35.935
499.18	33.729
499.53	35.324
499.87	34.277
500.22	36.020
500.56	35.330
500.91	35.807
501.26	36.013
501.60	35.291
501.95	35.260
502.29	34.622
502.64	34.054
502.98	34.282
503.33	35.100
503.67	34.790
504.02	33.856
504.36	35.385
504.71	36.045
505.06	35.289
505.40	35.470
505.75	35.126
506.09	34.904
506.44	35.667
506.78	36.106
507.13	36.452
507.47	35.662
507.82	35.815
508.16	36.796
508.51	36.280
508.85	35.992
509.19	35.928
509.54	36.279
509.88	36.499
510.23	36.520
510.57	34.990
510.92	36.763
511.26	36.396
511.61	35.007
511.95	36.137
512.30	36.550
512.64	35.877
512.98	36.648
513.33	36.578
513.67	37.390
514.02	36.831
514.36	36.241
514.70	36.587
515.05	36.068
515.39	38.048
515.74	38.928
516.08	37.800
516.42	38.142
516.77	37.493
517.11	37.280
517.46	37.500
517.80	37.794
518.14	37.915
518.49	37.652
518.83	36.429
519.17	38.103
519.52	38.613
519.86	37.657
520.20	38.301
520.55	37.818
520.89	37.126
521.23	38.493
521.58	37.694
521.92	38.426
522.26	38.092
522.61	39.037
522.95	38.198
523.29	38.012
523.64	36.590
523.98	38.204
524.32	38.293
524.66	37.913
525.01	38.402
525.35	37.478
525.69	39.615
526.04	38.073
526.38	38.964
526.72	38.425
527.06	37.966
527.41	38.452
527.75	38.710
528.09	38.712
528.43	38.560
528.78	39.058
529.12	38.230
529.46	37.171
529.80	37.909
530.15	38.480
530.49	36.522
530.83	38.026
531.17	38.130
531.51	36.358
531.86	38.225
532.20	38.443
532.54	39.422
532.88	38.726
533.22	38.391
533.57	38.621
533.91	36.830
534.25	37.392
534.59	37.836
534.93	36.234
535.27	36.540
535.62	36.581
535.96	37.175
536.30	38.087
536.64	37.578
536.98	38.767
537.32	39.000
537.66	37.309
538.01	37.771
538.35	38.303
538.69	35.983
539.03	38.184
539.37	37.136
539.71	37.222
540.05	37.292
540.39	37.862
540.73	37.785
541.07	37.955
541.42	37.562
541.76	37.546
542.10	37.238
542.44	37.718
542.78	37.634
543.12	37.362
543.46	36.028
543.80	36.967
544.14	36.842
544.48	37.409
544.82	37.859
545.16	37.098
545.50	36.939
545.84	38.194
546.18	38.882
546.52	38.230
546.86	38.491
547.20	36.757
547.54	36.225
547.88	36.557
548.22	36.248
548.56	37.006
548.90	36.299
549.24	36.829
549.58	36.147
549.92	38.310
550.26	39.621
550.60	36.993
550.94	38.263
551.28	38.207
551.62	37.172
551.96	38.176
552.30	36.585
552.64	38.123
552.98	36.920
553.32	36.876
553.66	37.329
554.00	37.323
554.34	38.016
554.68	37.500
555.02	38.425
555.36	37.301
555.69	37.893
556.03	36.115
556.37	37.412
556.71	37.614
557.05	36.304
557.39	38.667
557.73	37.534
558.07	37.961
558.41	38.725
558.75	37.962
559.08	38.528
559.42	38.726
559.76	38.632
560.10	36.752
560.44	37.890
560.78	37.212
561.12	37.254
561.45	37.359
561.79	36.517
562.13	36.576
562.47	37.833
562.81	37.215
563.15	36.587
563.48	35.217
563.82	37.430
564.16	37.873
564.50	36.046
564.84	36.109
565.17	35.116
565.51	36.946
565.85	37.446
566.19	36.488
566.52	36.763
566.86	36.486
567.20	36.067
567.54	35.644
567.88	35.733
568.21	34.548
568.55	35.214
568.89	34.580
569.23	34.469
569.56	33.626
569.90	32.375
570.24	32.845
570.57	32.025
570.91	30.952
571.25	31.880
571.59	31.049
571.92	30.597
572.26	30.431
572.60	31.102
572.93	31.311
573.27	30.787
573.61	30.726
573.95	30.627
574.28	30.853
574.62	30.182
574.96	29.702
575.29	30.201
575.63	29.635
575.97	30.088
576.30	29.613
576.64	29.847
576.98	29.835
577.31	29.989
577.65	29.863
577.98	29.536
578.32	29.266
578.66	29.082
578.99	29.956
579.33	29.995
579.67	29.425
580.00	30.016
580.34	29.996
580.67	29.642
581.01	30.151
581.35	29.597
581.68	29.313
582.02	28.826
582.35	29.279
582.69	29.305
583.02	29.013
583.36	29.762
583.70	29.836
584.03	31.096
584.37	30.994
584.70	30.007
585.04	30.145
585.37	29.666
585.71	30.337
586.04	29.934
586.38	30.285
586.72	30.656
587.05	29.954
587.39	29.735
587.72	31.130
588.06	30.767
588.39	30.834
588.73	30.537
589.06	31.485
589.40	31.362
589.73	31.170
590.07	32.292
590.40	32.404
590.73	33.419
591.07	32.903
591.40	32.295
591.74	32.386
592.07	32.446
592.41	32.294
592.74	31.710
593.08	31.576
593.41	30.730
593.75	30.600
594.08	31.013
594.41	31.281
594.75	31.952
595.08	31.413
595.42	31.435
595.75	31.293
596.09	32.117
596.42	30.845
596.75	32.732
597.09	32.315
597.42	31.265
597.75	31.968
598.09	31.555
598.42	31.701
598.76	31.689
599.09	31.666
599.42	30.796
599.76	31.445
600.09	30.881
600.42	31.768
600.76	31.305
601.09	31.067
601.42	30.447
601.76	31.364
602.09	31.420
602.42	31.608
602.76	31.727
603.09	32.164
603.42	31.817
603.76	31.417
604.09	31.379
604.42	31.412
604.76	31.371
605.09	32.367
605.42	31.694
605.75	31.425
606.09	31.408
606.42	31.229
606.75	32.297
607.09	31.820
607.42	31.780
607.75	31.967
608.08	32.250
608.42	32.215
608.75	31.151
609.08	32.072
609.41	32.636
609.75	33.104
610.08	32.779
610.41	32.279
610.74	31.732
611.07	32.924
611.41	32.437
611.74	31.549
612.07	33.092
612.40	32.846
612.73	33.050
613.07	32.945
613.40	32.581
613.73	34.049
614.06	32.300
614.39	32.929
614.72	32.798
615.06	31.850
615.39	32.624
615.72	31.559
616.05	32.597
616.38	32.522
616.71	32.339
617.05	32.180
617.38	33.258
617.71	34.139
618.04	34.436
618.37	33.130
618.70	32.737
619.03	34.493
619.36	34.234
619.69	34.235
620.03	35.095
620.36	33.911
620.69	35.696
621.02	34.851
621.35	34.885
621.68	36.209
622.01	36.162
622.34	33.795
622.67	35.323
623.00	33.696
623.33	34.953
623.66	34.664
623.99	35.274
624.32	35.637
624.65	34.036
624.99	34.550
625.32	34.736
625.65	35.034
625.98	33.612
626.31	36.276
626.64	35.535
626.97	35.501
627.30	36.335
627.63	36.578
627.96	35.446
628.29	36.469
628.62	36.441
628.95	38.298
629.28	36.459
629.61	36.555
629.94	36.214
630.26	37.782
630.59	38.032
630.92	36.861
631.25	36.537
631.58	39.441
631.91	37.108
632.24	37.026
632.57	37.819
632.90	40.373
633.23	40.084
633.56	39.726
633.89	40.943
634.22	40.581
634.55	38.602
634.88	38.992
635.20	39.910
635.53	39.257
635.86	38.702
636.19	39.955
636.52	37.946
636.85	38.727
637.18	39.112
637.51	39.106
637.83	37.757
638.16	40.094
638.49	40.000
638.82	40.376
639.15	40.188
639.48	40.284
639.81	39.927
640.13	41.104
640.46	41.340
640.79	40.962
641.12	40.551
641.45	42.044
641.77	40.555
642.10	40.696
642.43	42.390
642.76	42.330
643.09	41.354
643.41	39.972
643.74	41.295
644.07	43.510
644.40	40.828
644.73	43.994
645.05	43.982
645.38	43.798
645.71	43.247
646.04	43.053
646.36	43.818
646.69	43.840
647.02	42.240
647.35	42.835
647.67	42.950
648.00	43.485
648.33	42.556
648.66	42.121
648.98	38.986
649.31	37.787
649.64	38.451
649.96	38.407
650.29	39.429
650.62	40.648
650.94	40.060
651.27	43.541
651.60	42.567
651.92	43.164
652.25	41.575
652.58	41.135
652.90	41.317
653.23	39.882
653.56	40.208
653.88	41.557
654.21	40.469
654.54	39.971
654.86	41.003
655.19	38.391
655.52	31.261
655.84	24.496
656.17	27.981
656.49	39.851
656.82	45.693
657.15	36.294
657.47	27.520
657.80	20.311
658.13	16.049
658.45	21.932
658.78	26.267
659.10	27.331
659.43	27.958
659.75	28.659
660.08	31.892
660.41	34.301
660.73	37.516
661.06	41.892
661.38	41.908
661.71	41.727
662.03	44.297
662.36	43.238
662.68	41.155
663.01	42.523
663.33	42.264
663.66	43.984
663.98	44.643
664.31	45.522
664.63	44.828
664.96	43.715
665.28	41.620
665.61	40.566
665.93	42.642
666.26	43.178
666.58	45.505
666.91	42.664
667.23	39.558
667.56	43.737
667.88	44.606
668.21	44.467
668.53	43.145
668.86	44.890
669.18	42.566
669.50	41.736
669.83	46.407
670.15	39.501
670.48	40.039
670.80	44.223
671.13	42.231
671.45	43.687
671.77	40.631
672.10	38.779
672.42	38.322
672.75	38.924
673.07	40.064
673.39	38.818
673.72	37.889
674.04	39.068
674.37	41.561
674.69	40.706
675.01	41.604
675.34	39.922
675.66	41.602
675.98	41.223
676.31	41.600
676.63	40.755
676.95	42.460
677.28	41.988
677.60	43.058
677.92	38.492
678.25	41.667
678.57	42.272
678.89	39.964
679.22	40.809
679.54	40.036
679.86	40.489
680.18	40.949
680.51	37.148
680.83	38.682
681.15	39.688
681.48	39.583
681.80	38.529
682.12	39.100
682.44	37.838
682.77	40.214
683.09	40.777
683.41	41.633
683.73	40.551
684.06	39.484
684.38	39.922
684.70	37.770
685.02	36.458
685.34	39.789
685.67	38.424
685.99	36.782
686.31	35.593
686.63	38.211
686.96	38.235
687.28	36.409
687.60	35.495
687.92	36.348
688.24	39.310
688.56	39.324
688.89	37.667
689.21	41.811
689.53	40.514
689.85	36.179
690.17	40.583
690.49	38.710
690.82	38.655
691.14	39.394
691.46	40.862
691.78	36.842
692.10	38.740
692.42	37.931
692.74	37.791
693.06	37.597
693.39	37.747
693.71	38.114
694.03	39.645
694.35	42.169
694.67	36.049
694.99	39.468
695.31	43.243
695.63	43.213
695.95	39.593
696.27	44.690
696.59	40.334
696.91	42.278
697.23	40.045
697.56	37.967
697.88	36.327
698.20	37.736
698.52	34.630
698.84	41.068
699.16	39.872
699.48	39.195
699.80	38.780
700.12	42.494
700.44	40.421
700.76	42.482
701.08	41.775
701.40	41.558
701.72	46.524
702.04	42.818
702.36	42.473
702.68	41.489
703.00	39.599
703.32	40.199
703.64	41.562
703.96	38.021
704.28	42.593
704.60	41.127
704.91	40.896
705.23	44.318
705.55	46.291
705.87	44.444
706.19	46.082
706.51	43.574
706.83	43.953
707.15	39.840
707.47	41.646
707.79	41.149
708.11	36.508
708.43	36.629
708.74	36.199
709.06	34.186
709.38	40.447
709.70	38.692
710.02	44.565
710.34	39.227
710.66	41.667
710.98	40.984
711.29	40.390
711.61	43.454
711.93	41.033
712.25	40.361
712.57	40.836
712.89	43.333
713.20	41.534
713.52	40.498
713.84	41.390
714.16	41.159
714.48	36.599
714.80	40.650
715.11	36.170
715.43	37.989
715.75	39.718
716.07	40.751
716.39	40.000
716.70	42.679
717.02	46.128
717.34	39.568
717.66	45.833
717.97	48.864
718.29	44.718
718.61	40.203
718.93	45.675
719.24	44.631
719.56	45.517
719.88	38.535
720.20	42.903
720.51	40.196
720.83	43.813
721.15	41.837
721.46	42.808
721.78	41.812
722.10	43.056
722.42	41.472
722.73	41.877
723.05	40.000
723.37	44.170
723.68	37.891
724.00	42.424
724.32	41.825
724.63	44.231
724.95	44.706
725.27	40.149
725.58	43.015
725.90	40.493
726.22	39.384
726.53	41.806
726.85	40.391
727.16	41.946
727.48	40.864
727.80	38.849
728.11	41.429
728.43	39.493
728.74	38.811
729.06	39.785
729.38	42.456
729.69	41.667
730.01	42.763
730.32	38.255
730.64	38.870
730.96	37.838
731.27	34.251
731.59	34.483
731.90	33.983
732.22	35.143
732.53	34.473
732.85	37.135
733.16	36.747
733.48	37.304
733.80	39.710
734.11	38.957
734.43	34.503
734.74	37.265
735.06	36.508
735.37	32.990
735.69	35.072
736.00	35.780
736.32	36.061
736.63	34.385
736.95	35.404
737.26	34.146
737.58	37.423
737.89	34.639
738.21	36.755
738.52	38.127
738.83	41.026
739.15	40.418
739.46	36.552
739.78	32.993
740.09	38.776
740.41	36.810
740.72	39.365
741.04	42.657
741.35	40.625
741.66	38.735
741.98	40.773
742.29	42.593
742.61	42.478
742.92	37.712
743.23	36.000
743.55	40.377
743.86	40.000
744.18	40.254
744.49	42.149
744.80	39.171
745.12	38.839
745.43	45.327
745.74	38.222
746.06	41.228
746.37	43.256
746.68	40.708
747.00	43.946
747.31	34.454
747.62	40.984
747.94	40.343
748.25	37.354
748.56	41.525
748.88	39.286
749.19	40.465
749.50	37.443
749.82	44.856
750.13	39.526
750.44	34.333
750.75	37.248
751.07	34.868
751.38	33.003
751.69	39.731
752.01	36.364
752.32	39.867
752.63	41.275
752.94	35.315
753.26	37.891
753.57	36.576
753.88	39.326
754.19	37.545
754.51	34.884
754.82	34.228
755.13	37.500
755.44	34.444
755.75	35.739
756.07	38.356
756.38	33.987
756.69	38.750
757.00	34.718
757.31	32.958
757.63	30.854
757.94	30.319
758.25	29.952
758.56	29.062
758.87	35.338
759.18	33.721
759.50	33.435
759.81	34.421
760.12	35.112
760.43	31.653
760.74	34.177
761.05	29.178
761.36	25.521
761.67	33.693
761.99	34.366
762.30	33.441
762.61	30.208
762.92	35.227
763.23	31.321
763.54	38.462
763.85	31.518
764.16	33.333
764.47	33.108
764.78	30.293
765.10	32.927
765.41	29.830
765.72	34.530
766.03	29.909
766.34	34.495
766.65	33.840
766.96	35.628
767.27	38.318
767.58	47.030
767.89	42.541
768.20	45.732
768.51	44.388
768.82	38.596
769.13	35.294
769.44	36.090
769.75	31.086
770.06	38.655
770.37	32.895
770.68	36.889
770.99	40.678
771.30	39.749
771.61	38.462
771.92	36.260
772.23	33.065
772.54	42.667
772.85	35.644
773.16	45.109
773.47	38.333
773.78	43.564
774.09	44.318
774.39	40.606
774.70	38.824
775.01	43.421
775.32	42.857
775.63	50.685
775.94	53.086
776.25	49.655
776.56	47.328
776.87	54.198
777.18	45.455
777.48	59.843
777.79	46.923
778.10	50.758
778.41	50.000
778.72	43.609
779.03	45.513
779.34	45.946
779.65	44.720
779.95	47.826
780.26	41.667
780.57	51.701
780.88	45.390
781.19	57.500
781.50	42.604
781.80	41.530
782.11	42.857
782.42	48.276
782.73	40.678
783.04	42.581
783.34	41.860
783.65	42.857
783.96	41.935
784.27	46.358
784.57	42.105
784.88	43.478
785.19	43.333
785.50	41.379
785.81	56.589
786.11	47.407
786.42	44.882
786.73	49.550
787.04	57.547
787.34	39.024
787.65	59.848
787.96	57.576
788.26	48.031
788.57	54.745
788.88	42.958
789.19	55.725
789.49	54.054
789.80	50.000
790.11	42.975
790.41	46.296
790.72	49.074
791.03	59.615
791.33	65.657
791.64	62.105
791.95	57.895
792.25	50.000
792.56	55.000
792.87	65.854
793.17	53.409
793.48	60.000
793.79	56.322
794.09	67.045
794.40	57.759
794.70	48.413
795.01	45.385
795.32	46.565
795.62	47.863
795.93	52.101
796.23	47.154
796.54	52.041
796.85	62.500
797.15	71.429
797.46	70.732
797.76	57.500
798.07	64.000
798.37	71.250
798.68	85.000
798.99	79.268
799.29	61.333
799.60	38.372
799.90	71.053
800.21	68.182
800.51	78.873
800.82	75.862
801.12	76.923
801.43	77.333
801.73	72.414
802.04	61.039
802.34	63.014
802.65	74.510
802.95	84.783
803.26	93.548
803.56	73.333
803.87	52.239
804.17	74.603
804.48	79.245
804.78	62.500
805.09	75.758
805.39	73.016
805.70	64.912
806.00	64.286
806.30	62.500
806.61	61.176
806.91	55.556
807.22	44.565
807.52	61.842
807.83	73.684
808.13	79.710
808.43	79.032
808.74	64.384
809.04	87.500
809.35	80.882
809.65	63.636
809.95	88.235
810.26	100.000
810.56	89.063
810.86	100.000
811.17	75.439
811.47	106.522
811.77	87.931
812.08	62.069
812.38	90.476
812.69	97.619
812.99	64.444
813.29	117.143
813.59	132.258
813.90	89.655
814.20	78.689
814.50	80.000
814.81	73.684
815.11	92.593
815.41	80.357
815.72	83.929
816.02	96.000
816.32	102.439
816.62	86.207
816.93	121.212
817.23	117.073
817.53	87.500
817.84	75.556
818.14	97.619
818.44	60.417
818.74	86.792
819.04	92.308
819.35	133.333
819.65	111.538
819.95	103.704
820.25	102.128
820.56	116.216
820.86	115.789
821.16	44.681
821.46	123.684
821.76	103.636
822.07	88.095
822.37	115.789
822.67	113.953
822.97	92.105
823.27	93.478
823.57	109.375
823.88	130.769
824.18	90.909
824.48	186.957
824.78	105.556
825.08	117.391
825.38	162.069
825.69	117.647
825.99	97.872
826.29	97.222
826.59	97.143
826.89	126.667
827.19	122.857
827.49	132.258
827.79	165.385
828.09	76.190
828.39	88.889
828.70	75.676
829.00	107.143
829.30	193.750
829.60	138.889
829.90	122.581
830.20	118.182
830.50	108.108
830.80	175.000
831.10	157.692
831.40	109.524
831.70	191.667
832.00	123.333
832.30	152.174
832.60	204.167
832.90	145.455
833.20	195.000
833.50	110.526
833.80	129.412
834.10	107.895
834.40	142.105
834.70	93.333
835.00	188.000
835.30	110.811
835.60	137.500
835.90	110.811
836.20	146.154
836.50	136.364
836.80	90.244
837.10	191.304
837.40	315.385
837.70	163.158
838.00	130.000
838.30	154.167
838.60	160.000
838.90	340.000
839.19	156.250
839.49	150.000
839.79	124.138
840.09	161.538
840.39	200.000
840.69	184.211
840.99	119.048
841.29	178.261
841.59	215.000
841.88	180.000
842.18	311.111
842.48	153.571
842.78	148.148
843.08	223.077
843.38	150.000
843.68	228.571
843.97	485.714
844.27	156.522
844.57	1300.000
844.87	228.571
845.17	177.778
845.47	157.143
845.76	208.333
846.06	514.286
846.36	170.588
846.66	307.692
846.96	218.750
847.25	223.077
847.55	184.211
847.85	200.000
848.15	540.000
848.44	236.364
848.74	166.667
849.04	225.000
849.34	194.118
849.63	237.500
849.93	293.750
850.23	866.667
850.53	512.500
850.82	309.091
851.12	223.529
851.42	200.000
851.71	237.500
852.01	0.000
852.31	229.412
852.61	400.000
852.90	145.833
853.20	266.667
853.50	-2200.000
853.79	156.000
854.09	143.750
854.39	124.138
854.68	141.379
854.98	185.714
855.28	109.677
855.57	221.429
855.87	161.111
856.17	162.963
856.46	173.684
856.76	122.581
857.05	252.941
857.35	300.000
857.65	246.154
857.94	175.000
858.24	388.889
858.53	228.571
858.83	600.000
859.13	200.000
859.42	200.000
859.72	325.000
860.01	291.667
860.31	775.000
860.60	280.000
860.90	425.000
861.20	246.154
861.49	371.429
861.79	-3200.000
862.08	600.000
862.38	344.444
862.67	207.143
862.97	420.000
863.26	166.667
863.56	900.000
863.85	276.923
864.15	276.471
864.44	222.222
864.74	283.333
865.03	272.727
865.33	362.500
865.62	260.000
865.92	666.667
866.21	1025.000
866.51	620.000
866.80	227.778
867.10	800.000
867.39	2600.000
867.69	760.000
867.98	925.000
868.27	195.238
868.57	266.667
868.86	975.000
869.16	147.619
869.45	3000.000
869.75	-466.667
870.04	875.000
870.33	720.000
870.63	500.000
870.92	211.765
871.22	625.000
871.51	385.714
871.80	358.333
872.10	330.769
>>>>>End Processed Spectral Data<<<<<
