SpectraSuite Data File
++++++++++++++++++++++++++++++++++++
Date: Tue May 12 17:18:43 PDT 2015
User: schluterlab
Dark Spectrum Present: Yes
Reference Spectrum Present: Yes
Number of Sampled Component Spectra: 1
Spectrometers: USB2E3373
Integration Time (usec): 3000 (USB2E3373)
Spectra Averaged: 3 (USB2E3373)
Boxcar Smoothing: 0 (USB2E3373)
Correct for Electrical Dark: No (USB2E3373)
Strobe/Lamp Enabled: No (USB2E3373)
Correct for Detector Non-linearity: No (USB2E3373)
Correct for Stray Light: No (USB2E3373)
Number of Pixels in Processed Spectrum: 2048
>>>>>Begin Processed Spectral Data<<<<<
178.53	0.000
178.91	-216.667
179.29	-725.000
179.67	-3900.000
180.04	-180.000
180.42	575.000
180.80	1400.000
181.18	0.000
181.56	-400.000
181.94	0.000
182.31	1166.667
182.69	-3700.000
183.07	714.286
183.45	-3700.000
183.83	-1650.000
184.20	300.000
184.58	442.857
184.96	-223.077
185.34	-166.667
185.72	1750.000
186.09	-1025.000
186.47	-3000.000
186.85	1066.667
187.23	680.000
187.61	2050.000
187.98	575.000
188.36	250.000
188.74	400.000
189.12	383.333
189.49	925.000
189.87	0.000
190.25	437.500
190.63	2800.000
191.00	-291.667
191.38	-3600.000
191.76	-800.000
192.14	512.500
192.51	-3400.000
192.89	2000.000
193.27	1000.000
193.65	-966.667
194.02	-920.000
194.40	542.857
194.78	-192.857
195.15	273.333
195.53	-3300.000
195.91	-580.000
196.29	3900.000
196.66	212.500
197.04	925.000
197.42	-1750.000
197.79	700.000
198.17	391.667
198.55	0.000
198.92	514.286
199.30	1233.333
199.68	2150.000
200.05	750.000
200.43	-433.333
200.81	211.111
201.18	3200.000
201.56	275.000
201.94	-775.000
202.31	-375.000
202.69	-640.000
203.07	3900.000
203.44	-466.667
203.82	358.333
204.19	580.000
204.57	-1800.000
204.95	-750.000
205.32	-660.000
205.70	633.333
206.08	675.000
206.45	-733.333
206.83	455.556
207.20	163.158
207.58	316.667
207.96	760.000
208.33	0.000
208.71	628.571
209.08	460.000
209.46	-3000.000
209.84	-900.000
210.21	760.000
210.59	-680.000
210.96	266.667
211.34	-975.000
211.71	390.909
212.09	1050.000
212.46	2050.000
212.84	-516.667
213.22	466.667
213.59	-2600.000
213.97	370.000
214.34	950.000
214.72	1233.333
215.09	1033.333
215.47	-2700.000
215.84	-320.000
216.22	-387.500
216.59	0.000
216.97	0.000
217.34	1650.000
217.72	-1700.000
218.09	1100.000
218.47	425.000
218.84	1000.000
219.22	1233.333
219.59	900.000
219.97	542.857
220.34	411.111
220.72	2100.000
221.09	3100.000
221.47	325.000
221.84	1100.000
222.22	470.000
222.59	244.444
222.97	157.143
223.34	212.500
223.72	-1600.000
224.09	1133.333
224.46	207.692
224.84	-800.000
225.21	422.222
225.59	273.333
225.96	1066.667
226.34	-740.000
226.71	-725.000
227.08	-600.000
227.46	0.000
227.83	-633.333
228.21	-2000.000
228.58	383.333
228.95	1375.000
229.33	300.000
229.70	975.000
230.08	315.385
230.45	4000.000
230.82	-975.000
231.20	-833.333
231.57	-1000.000
231.95	520.000
232.32	175.000
232.69	600.000
233.07	283.333
233.44	-1300.000
233.81	213.333
234.19	177.778
234.56	181.250
234.93	229.412
235.31	155.000
235.68	293.750
236.05	153.571
236.43	148.148
236.80	221.429
237.17	151.724
237.55	140.625
237.92	97.500
238.29	103.030
238.67	112.500
239.04	78.049
239.41	52.083
239.79	85.000
240.16	79.167
240.53	70.492
240.91	56.522
241.28	81.356
241.65	43.939
242.02	71.831
242.40	82.857
242.77	47.253
243.14	55.696
243.51	55.556
243.89	40.187
244.26	37.383
244.63	39.604
245.00	52.294
245.38	36.441
245.75	41.667
246.12	45.185
246.49	39.716
246.87	29.508
247.24	35.333
247.61	36.250
247.98	31.973
248.36	25.455
248.73	35.714
249.10	29.167
249.47	26.500
249.84	31.343
250.22	32.973
250.59	29.000
250.96	26.160
251.33	29.302
251.70	27.232
252.08	23.950
252.45	24.303
252.82	22.814
253.19	25.692
253.56	23.462
253.94	23.913
254.31	24.031
254.68	22.997
255.05	26.552
255.42	26.277
255.79	24.430
256.16	27.458
256.54	26.623
256.91	24.183
257.28	23.411
257.65	15.987
258.02	17.994
258.39	24.069
258.76	23.188
259.14	20.286
259.51	23.615
259.88	23.708
260.25	21.703
260.62	20.000
260.99	18.733
261.36	19.220
261.73	19.681
262.10	22.513
262.47	22.250
262.85	19.467
263.22	22.879
263.59	23.785
263.96	20.802
264.33	19.259
264.70	21.376
265.07	21.707
265.44	19.954
265.81	17.689
266.18	17.391
266.55	19.622
266.92	18.568
267.29	20.175
267.66	19.058
268.03	20.628
268.40	19.239
268.77	21.145
269.14	16.703
269.51	18.708
269.88	19.592
270.25	15.335
270.62	18.455
270.99	20.487
271.36	20.325
271.73	17.191
272.10	17.172
272.47	18.452
272.84	17.964
273.21	19.008
273.58	19.838
273.95	18.891
274.32	18.677
274.69	20.866
275.06	19.490
275.43	20.115
275.80	19.057
276.17	18.750
276.54	19.813
276.91	19.216
277.28	15.511
277.65	20.664
278.02	18.015
278.39	18.705
278.76	19.310
279.13	19.395
279.50	19.273
279.87	18.063
280.23	13.996
280.60	18.066
280.97	18.103
281.34	17.987
281.71	18.261
282.08	18.803
282.45	16.554
282.82	18.395
283.19	19.396
283.56	16.198
283.92	16.938
284.29	17.804
284.66	15.798
285.03	18.076
285.40	16.529
285.77	16.821
286.14	18.111
286.51	15.798
286.87	15.981
287.24	15.766
287.61	17.325
287.98	17.761
288.35	16.296
288.72	17.602
289.08	16.066
289.45	17.378
289.82	16.094
290.19	16.398
290.56	17.758
290.93	14.532
291.29	16.851
291.66	15.395
292.03	14.306
292.40	15.718
292.77	14.763
293.13	16.262
293.50	15.655
293.87	14.770
294.24	14.965
294.60	15.882
294.97	15.245
295.34	15.139
295.71	15.112
296.08	16.933
296.44	15.248
296.81	15.385
297.18	15.716
297.55	15.394
297.91	13.424
298.28	16.546
298.65	14.724
299.02	14.717
299.38	15.108
299.75	13.171
300.12	15.023
300.48	14.988
300.85	14.660
301.22	14.535
301.59	13.561
301.95	13.886
302.32	13.970
302.69	14.253
303.05	16.835
303.42	13.453
303.79	16.251
304.15	14.961
304.52	14.588
304.89	15.352
305.25	14.683
305.62	16.418
305.99	13.261
306.35	14.211
306.72	13.840
307.09	14.286
307.45	15.206
307.82	14.712
308.19	13.918
308.55	15.300
308.92	15.309
309.29	16.568
309.65	15.164
310.02	16.633
310.38	14.656
310.75	14.754
311.12	15.326
311.48	17.181
311.85	17.557
312.22	16.714
312.58	17.104
312.95	16.893
313.31	17.135
313.68	16.698
314.05	18.223
314.41	18.436
314.78	18.750
315.14	18.863
315.51	19.205
315.87	18.796
316.24	19.701
316.61	19.158
316.97	19.174
317.34	21.024
317.70	20.808
318.07	20.819
318.43	20.826
318.80	21.804
319.16	21.678
319.53	22.035
319.89	21.864
320.26	24.209
320.62	23.260
320.99	24.309
321.35	24.026
321.72	26.376
322.08	25.023
322.45	25.522
322.81	25.343
323.18	26.732
323.54	26.829
323.91	28.921
324.27	26.967
324.64	26.990
325.00	28.966
325.37	28.668
325.73	28.836
326.10	29.412
326.46	29.149
326.83	30.240
327.19	32.450
327.56	30.192
327.92	33.934
328.29	33.224
328.65	34.247
329.01	32.934
329.38	32.995
329.74	33.732
330.11	34.752
330.47	34.271
330.84	33.736
331.20	34.349
331.56	35.751
331.93	35.244
332.29	33.844
332.66	36.990
333.02	35.481
333.38	36.387
333.75	35.696
334.11	34.983
334.48	35.983
334.84	35.220
335.20	35.928
335.57	35.516
335.93	37.174
336.29	35.572
336.66	36.449
337.02	37.553
337.38	36.457
337.75	37.838
338.11	37.300
338.47	36.579
338.84	36.156
339.20	35.758
339.56	36.333
339.93	36.873
340.29	35.798
340.65	38.726
341.02	36.364
341.38	38.588
341.74	37.957
342.11	37.646
342.47	36.259
342.83	37.900
343.20	38.561
343.56	36.458
343.92	37.325
344.28	37.002
344.65	38.142
345.01	37.063
345.37	37.340
345.73	38.016
346.10	38.088
346.46	38.278
346.82	37.654
347.19	37.017
347.55	38.564
347.91	37.613
348.27	36.483
348.63	37.816
349.00	38.385
349.36	38.288
349.72	37.232
350.08	39.053
350.45	38.690
350.81	38.761
351.17	37.982
351.53	38.645
351.89	38.928
352.26	38.700
352.62	39.291
352.98	39.264
353.34	39.214
353.70	37.844
354.07	39.692
354.43	39.708
354.79	38.573
355.15	39.587
355.51	38.973
355.87	39.985
356.24	40.262
356.60	39.498
356.96	39.196
357.32	39.186
357.68	39.648
358.04	41.565
358.40	40.330
358.77	40.721
359.13	40.616
359.49	40.474
359.85	41.251
360.21	40.416
360.57	40.438
360.93	41.775
361.29	40.837
361.66	41.685
362.02	39.986
362.38	41.486
362.74	42.321
363.10	41.445
363.46	40.193
363.82	41.304
364.18	42.390
364.54	42.418
364.90	41.700
365.26	42.401
365.62	42.127
365.98	41.225
366.35	41.172
366.71	42.124
367.07	41.775
367.43	42.915
367.79	41.689
368.15	42.673
368.51	44.108
368.87	41.916
369.23	42.966
369.59	43.695
369.95	42.867
370.31	43.258
370.67	43.442
371.03	43.207
371.39	43.006
371.75	43.057
372.11	44.528
372.47	43.973
372.83	44.052
373.19	44.208
373.55	43.505
373.91	43.370
374.27	43.915
374.63	44.271
374.99	43.598
375.35	46.102
375.71	44.129
376.07	44.496
376.42	44.309
376.78	45.279
377.14	45.282
377.50	44.382
377.86	44.779
378.22	45.460
378.58	44.915
378.94	46.168
379.30	44.754
379.66	46.418
380.02	45.806
380.38	45.023
380.74	45.559
381.09	45.853
381.45	45.029
381.81	45.686
382.17	44.811
382.53	45.591
382.89	45.417
383.25	45.826
383.61	45.533
383.97	45.411
384.32	45.509
384.68	47.118
385.04	46.483
385.40	45.196
385.76	45.582
386.12	45.826
386.48	46.626
386.83	45.966
387.19	45.878
387.55	46.113
387.91	47.113
388.27	46.222
388.62	45.481
388.98	46.880
389.34	44.557
389.70	45.991
390.06	44.939
390.42	46.638
390.77	45.639
391.13	46.590
391.49	46.158
391.85	46.092
392.20	45.888
392.56	44.982
392.92	45.480
393.28	44.955
393.64	45.298
393.99	45.347
394.35	44.732
394.71	45.175
395.07	44.708
395.42	46.136
395.78	46.453
396.14	47.169
396.50	46.149
396.85	45.976
397.21	45.728
397.57	46.981
397.92	44.136
398.28	45.670
398.64	46.306
399.00	44.415
399.35	44.659
399.71	44.812
400.07	44.806
400.42	44.776
400.78	44.751
401.14	45.156
401.49	44.758
401.85	45.249
402.21	44.347
402.57	46.020
402.92	46.000
403.28	44.928
403.63	43.967
403.99	43.486
404.35	45.487
404.70	45.600
405.06	43.346
405.42	44.464
405.77	44.598
406.13	43.818
406.49	43.491
406.84	44.219
407.20	44.463
407.55	44.308
407.91	44.544
408.27	44.148
408.62	45.417
408.98	44.530
409.34	43.892
409.69	44.928
410.05	43.113
410.40	44.052
410.76	43.503
411.11	43.365
411.47	43.395
411.83	42.414
412.18	44.867
412.54	44.024
412.89	43.245
413.25	44.869
413.60	42.991
413.96	44.285
414.31	44.333
414.67	44.755
415.03	44.061
415.38	43.407
415.74	44.283
416.09	44.160
416.45	44.279
416.80	45.157
417.16	43.348
417.51	44.841
417.87	43.429
418.22	43.499
418.58	43.312
418.93	43.902
419.29	43.192
419.64	43.368
420.00	45.585
420.35	44.193
420.71	43.057
421.06	43.202
421.42	43.120
421.77	44.031
422.12	43.936
422.48	43.451
422.83	43.415
423.19	43.251
423.54	43.445
423.90	43.884
424.25	44.469
424.61	44.225
424.96	44.043
425.31	44.773
425.67	45.062
426.02	43.690
426.38	43.816
426.73	44.534
427.09	44.484
427.44	44.232
427.79	44.654
428.15	45.256
428.50	44.514
428.85	44.621
429.21	43.652
429.56	44.367
429.92	44.157
430.27	44.170
430.62	43.710
430.98	42.665
431.33	43.548
431.68	42.420
432.04	44.128
432.39	44.896
432.74	44.848
433.10	45.404
433.45	45.549
433.80	46.111
434.16	44.982
434.51	44.066
434.86	44.801
435.22	44.408
435.57	44.398
435.92	45.589
436.28	44.931
436.63	43.652
436.98	45.383
437.34	45.833
437.69	43.449
438.04	44.892
438.39	44.950
438.75	44.710
439.10	44.684
439.45	44.036
439.81	44.303
440.16	44.579
440.51	44.482
440.86	44.729
441.22	43.290
441.57	44.042
441.92	44.423
442.27	44.948
442.63	43.852
442.98	43.696
443.33	44.724
443.68	44.165
444.03	44.345
444.39	44.397
444.74	43.789
445.09	44.392
445.44	44.421
445.79	44.396
446.15	45.000
446.50	44.620
446.85	44.273
447.20	43.930
447.55	44.861
447.91	44.592
448.26	43.663
448.61	44.887
448.96	45.044
449.31	44.059
449.66	44.795
450.02	43.706
450.37	45.641
450.72	44.242
451.07	43.630
451.42	44.102
451.77	44.903
452.12	43.846
452.47	44.350
452.83	45.577
453.18	45.405
453.53	45.826
453.88	45.371
454.23	44.741
454.58	45.396
454.93	44.574
455.28	44.614
455.63	45.272
455.98	44.444
456.34	46.261
456.69	45.183
457.04	45.107
457.39	45.029
457.74	46.002
458.09	44.526
458.44	43.100
458.79	44.085
459.14	43.863
459.49	44.111
459.84	44.185
460.19	43.559
460.54	44.160
460.89	45.043
461.24	42.841
461.59	44.558
461.94	43.913
462.29	44.966
462.64	44.410
462.99	44.146
463.34	45.690
463.69	45.917
464.04	45.078
464.39	43.560
464.74	43.142
465.09	43.471
465.44	44.233
465.79	43.332
466.14	42.024
466.49	43.299
466.84	43.088
467.19	43.351
467.54	43.784
467.89	43.779
468.24	43.833
468.59	43.333
468.94	43.780
469.29	44.105
469.64	43.666
469.99	44.666
470.34	44.149
470.68	44.483
471.03	44.763
471.38	45.033
471.73	44.938
472.08	44.879
472.43	44.507
472.78	45.839
473.13	43.805
473.48	44.193
473.83	45.112
474.17	44.316
474.52	44.846
474.87	42.240
475.22	43.861
475.57	42.812
475.92	43.740
476.27	43.906
476.61	43.432
476.96	43.730
477.31	44.113
477.66	44.713
478.01	43.476
478.36	42.739
478.70	42.730
479.05	43.201
479.40	42.014
479.75	44.141
480.10	43.078
480.45	42.764
480.79	42.995
481.14	42.891
481.49	43.230
481.84	43.492
482.19	42.489
482.53	42.468
482.88	42.339
483.23	42.580
483.58	43.851
483.92	43.556
484.27	42.723
484.62	43.421
484.97	41.566
485.31	41.158
485.66	39.642
486.01	38.597
486.36	38.372
486.70	37.991
487.05	38.680
487.40	39.791
487.75	39.756
488.09	40.312
488.44	40.344
488.79	41.305
489.13	41.807
489.48	43.068
489.83	41.868
490.17	42.981
490.52	43.023
490.87	42.845
491.22	43.041
491.56	43.259
491.91	42.921
492.26	42.272
492.60	43.690
492.95	43.589
493.30	43.631
493.64	42.767
493.99	42.174
494.34	42.806
494.68	42.807
495.03	42.613
495.37	42.638
495.72	43.030
496.07	42.902
496.41	41.920
496.76	42.381
497.11	42.374
497.45	42.832
497.80	42.725
498.14	43.273
498.49	43.036
498.84	43.131
499.18	41.453
499.53	43.638
499.87	42.857
500.22	43.114
500.56	41.968
500.91	42.950
501.26	43.041
501.60	43.397
501.95	42.159
502.29	42.578
502.64	41.597
502.98	42.285
503.33	42.806
503.67	42.826
504.02	42.096
504.36	43.258
504.71	44.040
505.06	42.562
505.40	43.472
505.75	42.703
506.09	42.510
506.44	42.716
506.78	43.147
507.13	43.965
507.47	43.523
507.82	44.720
508.16	43.753
508.51	44.638
508.85	42.688
509.19	43.906
509.54	43.652
509.88	43.660
510.23	43.284
510.57	41.747
510.92	44.356
511.26	43.876
511.61	43.082
511.95	43.853
512.30	43.700
512.64	43.925
512.98	44.336
513.33	43.955
513.67	45.313
514.02	44.468
514.36	45.223
514.70	44.853
515.05	45.019
515.39	45.669
515.74	45.435
516.08	45.915
516.42	46.667
516.77	45.493
517.11	45.120
517.46	45.420
517.80	46.095
518.14	46.930
518.49	44.983
518.83	45.165
519.17	46.700
519.52	45.603
519.86	46.213
520.20	46.301
520.55	46.184
520.89	47.011
521.23	47.313
521.58	46.931
521.92	46.880
522.26	46.919
522.61	48.010
522.95	48.468
523.29	47.193
523.64	46.243
523.98	47.770
524.32	46.886
524.66	47.942
525.01	47.692
525.35	46.671
525.69	47.863
526.04	47.531
526.38	46.969
526.72	47.375
527.06	47.487
527.41	47.823
527.75	47.596
528.09	47.321
528.43	48.078
528.78	48.420
529.12	48.465
529.46	47.808
529.80	48.481
530.15	46.965
530.49	47.052
530.83	46.923
531.17	47.847
531.51	46.658
531.86	46.377
532.20	47.775
532.54	48.399
532.88	49.532
533.22	48.629
533.57	48.627
533.91	46.096
534.25	45.759
534.59	47.661
534.93	45.791
535.27	45.077
535.62	45.974
535.96	46.217
536.30	48.202
536.64	47.391
536.98	47.514
537.32	48.062
537.66	47.704
538.01	47.059
538.35	47.661
538.69	46.723
539.03	47.139
539.37	47.451
539.71	47.963
540.05	46.892
540.39	48.050
540.73	46.835
541.07	45.609
541.42	46.828
541.76	46.856
542.10	46.424
542.44	47.818
542.78	47.451
543.12	45.767
543.46	46.930
543.80	47.807
544.14	46.935
544.48	47.445
544.82	47.951
545.16	46.570
545.50	46.896
545.84	47.664
546.18	48.440
546.52	46.885
546.86	47.389
547.20	47.351
547.54	46.295
547.88	46.594
548.22	47.237
548.56	46.081
548.90	44.840
549.24	47.568
549.58	47.809
549.92	48.657
550.26	49.425
550.60	47.305
550.94	49.186
551.28	48.276
551.62	48.000
551.96	48.986
552.30	48.187
552.64	47.832
552.98	47.229
553.32	47.055
553.66	46.645
554.00	46.976
554.34	48.735
554.68	46.640
555.02	48.676
555.36	46.809
555.69	47.644
556.03	46.624
556.37	46.973
556.71	48.370
557.05	46.068
557.39	48.000
557.73	48.720
558.07	47.753
558.41	48.938
558.75	48.427
559.08	49.964
559.42	49.678
559.76	48.539
560.10	48.176
560.44	47.113
560.78	48.018
561.12	48.252
561.45	46.245
561.79	46.692
562.13	47.947
562.47	47.177
562.81	47.430
563.15	48.093
563.48	44.596
563.82	47.848
564.16	47.015
564.50	45.509
564.84	46.140
565.17	46.762
565.51	47.537
565.85	48.365
566.19	46.845
566.52	45.307
566.86	47.110
567.20	46.854
567.54	45.579
567.88	45.905
568.21	42.936
568.55	44.407
568.89	43.385
569.23	42.925
569.56	42.891
569.90	40.783
570.24	41.465
570.57	40.461
570.91	39.626
571.25	39.887
571.59	39.679
571.92	38.994
572.26	39.218
572.60	38.989
572.93	40.138
573.27	39.374
573.61	38.738
573.95	39.268
574.28	39.457
574.62	38.309
574.96	37.364
575.29	37.537
575.63	37.856
575.97	37.950
576.30	38.066
576.64	38.263
576.98	38.054
577.31	38.589
577.65	37.880
577.98	37.983
578.32	36.662
578.66	37.364
578.99	38.011
579.33	37.664
579.67	37.157
580.00	37.698
580.34	37.707
580.67	37.629
581.01	38.029
581.35	37.070
581.68	36.872
582.02	36.812
582.35	36.741
582.69	36.740
583.02	37.431
583.36	38.030
583.70	38.321
584.03	38.777
584.37	38.743
584.70	38.467
585.04	38.758
585.37	37.601
585.71	38.382
586.04	37.735
586.38	39.191
586.72	38.327
587.05	38.857
587.39	38.180
587.72	38.424
588.06	38.838
588.39	38.895
588.73	38.818
589.06	39.014
589.40	39.844
589.73	39.397
590.07	40.597
590.40	40.488
590.73	40.580
591.07	41.518
591.40	40.719
591.74	41.721
592.07	41.514
592.41	40.767
592.74	40.461
593.08	39.193
593.41	38.959
593.75	38.917
594.08	40.222
594.41	39.752
594.75	39.692
595.08	39.095
595.42	40.158
595.75	39.487
596.09	40.216
596.42	40.532
596.75	42.188
597.09	41.189
597.42	41.020
597.75	40.690
598.09	40.542
598.42	41.085
598.76	39.861
599.09	40.566
599.42	39.931
599.76	39.620
600.09	39.729
600.42	39.192
600.76	39.905
601.09	39.420
601.42	39.423
601.76	40.566
602.09	40.397
602.42	39.593
602.76	40.531
603.09	40.309
603.42	40.587
603.76	40.528
604.09	39.812
604.42	40.753
604.76	41.090
605.09	41.143
605.42	41.000
605.75	40.308
606.09	39.556
606.42	39.233
606.75	40.148
607.09	40.466
607.42	40.096
607.75	40.725
608.08	39.602
608.42	40.059
608.75	40.779
609.08	41.091
609.41	41.682
609.75	41.346
610.08	41.727
610.41	40.755
610.74	40.952
611.07	41.746
611.41	42.076
611.74	41.874
612.07	42.100
612.40	41.569
612.73	42.836
613.07	42.271
613.40	43.759
613.73	42.536
614.06	41.800
614.39	42.576
614.72	42.441
615.06	41.296
615.39	42.079
615.72	41.191
616.05	42.692
616.38	42.618
616.71	42.811
617.05	42.998
617.38	41.461
617.71	43.926
618.04	43.410
618.37	42.635
618.70	42.667
619.03	44.017
619.36	45.226
619.69	44.327
620.03	45.401
620.36	43.610
620.69	44.955
621.02	46.671
621.35	45.989
621.68	45.870
622.01	46.937
622.34	46.176
622.67	47.191
623.00	44.656
623.33	45.007
623.66	45.043
623.99	45.068
624.32	46.748
624.65	44.569
624.99	45.098
625.32	44.823
625.65	44.690
625.98	44.840
626.31	46.588
626.64	44.495
626.97	46.442
627.30	48.137
627.63	48.587
627.96	46.166
628.29	48.102
628.62	47.562
628.95	48.936
629.28	49.430
629.61	48.243
629.94	48.487
630.26	47.660
630.59	48.759
630.92	48.341
631.25	49.048
631.58	49.855
631.91	49.857
632.24	49.368
632.57	48.428
632.90	52.174
633.23	53.305
633.56	51.739
633.89	52.519
634.22	51.238
634.55	52.151
634.88	52.245
635.20	53.027
635.53	54.123
635.86	52.573
636.19	52.525
636.52	49.189
636.85	49.299
637.18	50.163
637.51	50.391
637.83	51.602
638.16	53.576
638.49	53.293
638.82	53.873
639.15	50.294
639.48	52.370
639.81	52.015
640.13	54.356
640.46	53.603
640.79	54.746
641.12	54.987
641.45	55.498
641.77	56.011
642.10	53.146
642.43	56.046
642.76	52.983
643.09	55.331
643.41	56.662
643.74	54.964
644.07	58.260
644.40	55.473
644.73	56.456
645.05	56.464
645.38	58.806
645.71	57.208
646.04	57.557
646.36	56.025
646.69	56.800
647.02	58.720
647.35	54.331
647.67	56.402
648.00	57.329
648.33	55.639
648.66	53.636
648.98	53.913
649.31	51.552
649.64	51.729
649.96	50.498
650.29	52.286
650.62	54.934
650.94	55.271
651.27	56.778
651.60	54.460
651.92	53.763
652.25	57.008
652.58	51.915
652.90	52.994
653.23	53.914
653.56	51.780
653.88	54.332
654.21	53.372
654.54	52.416
654.86	51.622
655.19	51.055
655.52	43.526
655.84	31.778
656.17	36.060
656.49	51.264
656.82	58.797
657.15	47.909
657.47	36.147
657.80	26.719
658.13	20.858
658.45	28.627
658.78	34.679
659.10	36.066
659.43	36.447
659.75	39.089
660.08	42.293
660.41	46.461
660.73	51.568
661.06	53.003
661.38	57.581
661.71	57.014
662.03	60.266
662.36	54.857
662.68	57.542
663.01	58.198
663.33	56.604
663.66	57.988
663.98	57.738
664.31	56.343
664.63	58.046
664.96	58.724
665.28	53.296
665.61	56.792
665.93	56.604
666.26	55.701
666.58	57.798
666.91	57.722
667.23	55.823
667.56	61.191
667.88	59.129
668.21	61.270
668.53	60.887
668.86	59.118
669.18	59.267
669.50	57.025
669.83	57.290
670.15	58.004
670.48	54.492
670.80	57.968
671.13	56.972
671.45	56.112
671.77	55.659
672.10	54.219
672.42	52.632
672.75	51.266
673.07	51.510
673.39	52.556
673.72	55.709
674.04	53.226
674.37	53.721
674.69	56.506
675.01	51.866
675.34	53.876
675.66	56.055
675.98	56.607
676.31	55.800
676.63	53.678
676.95	56.548
677.28	53.550
677.60	54.527
677.92	54.167
678.25	55.620
678.57	53.818
678.89	52.622
679.22	52.574
679.54	50.712
679.86	53.752
680.18	53.251
680.51	48.756
680.83	49.662
681.15	51.646
681.48	52.431
681.80	52.539
682.12	51.384
682.44	49.730
682.77	51.957
683.09	54.951
683.41	57.959
683.73	50.984
684.06	54.762
684.38	53.682
684.70	53.597
685.02	50.521
685.34	53.521
685.67	51.125
685.99	49.425
686.31	48.998
686.63	50.569
686.96	50.490
687.28	49.664
687.60	48.635
687.92	51.759
688.24	50.000
688.56	49.644
688.89	51.625
689.21	51.830
689.53	55.731
689.85	55.081
690.17	53.592
690.49	53.629
690.82	53.361
691.14	53.939
691.46	53.593
691.78	54.386
692.10	50.763
692.42	49.546
692.74	52.907
693.06	51.744
693.39	50.988
693.71	55.206
694.03	53.452
694.35	56.827
694.67	51.935
694.99	53.437
695.31	55.180
695.63	54.072
695.95	55.430
696.27	54.425
696.59	56.563
696.91	56.709
697.23	52.941
697.56	48.963
697.88	45.309
698.20	49.811
698.52	50.000
698.84	50.103
699.16	55.224
699.48	52.966
699.80	55.991
700.12	56.351
700.44	55.140
700.76	56.563
701.08	55.091
701.40	54.805
701.72	58.021
702.04	60.705
702.36	56.183
702.68	56.383
703.00	56.642
703.32	56.328
703.64	52.897
703.96	54.427
704.28	56.878
704.60	56.620
704.91	57.703
705.23	53.693
705.55	58.754
705.87	59.365
706.19	62.069
706.51	65.517
706.83	58.702
707.15	59.358
707.47	56.416
707.79	51.724
708.11	49.206
708.43	52.360
708.74	49.774
709.06	51.395
709.38	53.350
709.70	54.768
710.02	56.250
710.34	52.210
710.66	53.056
710.98	55.738
711.29	52.646
711.61	57.103
711.93	56.535
712.25	54.518
712.57	56.270
712.89	57.879
713.20	58.147
713.52	57.944
713.84	55.287
714.16	53.623
714.48	52.738
714.80	53.659
715.11	53.191
715.43	51.955
715.75	54.930
716.07	55.202
716.39	56.286
716.70	56.698
717.02	58.249
717.34	62.230
717.66	60.069
717.97	63.636
718.29	59.859
718.61	54.392
718.93	57.093
719.24	58.054
719.56	56.552
719.88	52.229
720.20	57.419
720.51	56.536
720.83	55.184
721.15	53.741
721.46	55.822
721.78	54.007
722.10	57.292
722.42	56.187
722.73	55.235
723.05	56.842
723.37	61.837
723.68	58.594
724.00	58.333
724.32	63.878
724.63	55.000
724.95	60.392
725.27	53.160
725.58	58.456
725.90	53.169
726.22	52.397
726.53	57.525
726.85	57.980
727.16	55.705
727.48	53.488
727.80	55.396
728.11	56.786
728.43	60.145
728.74	54.196
729.06	54.480
729.38	55.789
729.69	56.000
730.01	57.895
730.32	56.376
730.64	58.140
730.96	51.051
731.27	46.483
731.59	50.575
731.90	49.861
732.22	49.143
732.53	47.863
732.85	51.170
733.16	52.108
733.48	49.843
733.80	52.464
734.11	53.374
734.43	50.000
734.74	47.721
735.06	47.619
735.37	46.134
735.69	48.406
736.00	51.988
736.32	47.273
736.63	49.211
736.95	49.379
737.26	48.171
737.58	50.613
737.89	50.904
738.21	48.344
738.52	50.167
738.83	59.707
739.15	51.916
739.46	47.241
739.78	52.721
740.09	48.105
740.41	50.613
740.72	51.429
741.04	56.993
741.35	55.078
741.66	56.917
741.98	58.798
742.29	60.185
742.61	57.965
742.92	54.661
743.23	53.600
743.55	52.075
743.86	51.765
744.18	61.017
744.49	52.479
744.80	58.065
745.12	57.143
745.43	52.336
745.74	54.667
746.06	53.509
746.37	59.070
746.68	57.522
747.00	59.193
747.31	63.445
747.62	48.770
747.94	57.511
748.25	53.696
748.56	56.356
748.88	58.036
749.19	62.791
749.50	54.795
749.82	55.144
750.13	58.893
750.44	47.667
750.75	52.685
751.07	51.316
751.38	50.825
751.69	51.178
752.01	46.853
752.32	49.169
752.63	53.356
752.94	50.350
753.26	51.953
753.57	55.253
753.88	51.311
754.19	53.791
754.51	53.488
754.82	48.993
755.13	50.338
755.44	46.667
755.75	52.921
756.07	51.027
756.38	49.673
756.69	47.812
757.00	47.181
757.31	44.789
757.63	44.904
757.94	43.883
758.25	42.029
758.56	40.961
758.87	43.860
759.18	47.093
759.50	44.377
759.81	48.961
760.12	44.663
760.43	45.098
760.74	44.810
761.05	44.297
761.36	41.927
761.67	47.170
761.99	47.606
762.30	46.945
762.61	47.222
762.92	49.242
763.23	53.585
763.54	55.769
763.85	43.969
764.16	48.611
764.47	43.919
764.78	45.928
765.10	45.732
765.41	39.773
765.72	42.818
766.03	44.109
766.34	49.477
766.65	49.049
766.96	53.846
767.27	55.607
767.58	55.446
767.89	65.193
768.20	61.585
768.51	54.592
768.82	52.632
769.13	48.627
769.44	47.368
769.75	46.067
770.06	52.101
770.37	50.439
770.68	48.889
770.99	52.119
771.30	53.138
771.61	46.154
771.92	51.145
772.23	44.758
772.54	54.222
772.85	52.970
773.16	58.152
773.47	58.889
773.78	51.980
774.09	61.364
774.39	60.000
774.70	58.235
775.01	55.921
775.32	57.764
775.63	64.384
775.94	63.580
776.25	60.000
776.56	72.519
776.87	65.649
777.18	69.697
777.48	81.102
777.79	59.231
778.10	66.667
778.41	64.925
778.72	63.158
779.03	56.410
779.34	58.108
779.65	60.248
779.95	57.143
780.26	55.952
780.57	61.224
780.88	63.830
781.19	71.667
781.50	65.089
781.80	55.191
782.11	52.381
782.42	55.747
782.73	51.977
783.04	57.419
783.34	57.364
783.65	58.503
783.96	49.677
784.27	60.265
784.57	62.500
784.88	51.449
785.19	60.000
785.50	79.310
785.81	68.992
786.11	65.926
786.42	59.843
786.73	68.468
787.04	69.811
787.34	55.285
787.65	65.909
787.96	57.576
788.26	62.205
788.57	63.504
788.88	57.746
789.19	47.328
789.49	62.838
789.80	62.500
790.11	61.157
790.41	63.889
790.72	62.963
791.03	65.385
791.33	71.717
791.64	74.737
791.95	70.526
792.25	71.875
792.56	77.000
792.87	74.390
793.17	78.409
793.48	87.059
793.79	90.805
794.09	82.955
794.40	75.000
794.70	62.698
795.01	53.846
795.32	57.252
795.62	62.393
795.93	70.588
796.23	67.480
796.54	72.449
796.85	81.818
797.15	89.610
797.46	91.463
797.76	85.000
798.07	70.667
798.37	95.000
798.68	86.250
798.99	84.146
799.29	77.333
799.60	60.465
799.90	84.211
800.21	81.818
800.51	91.549
800.82	101.724
801.12	87.692
801.43	90.667
801.73	101.724
802.04	77.922
802.34	69.863
802.65	107.843
802.95	97.826
803.26	90.323
803.56	118.333
803.87	83.582
804.17	96.825
804.48	83.019
804.78	95.833
805.09	96.970
805.39	107.937
805.70	103.509
806.00	94.286
806.30	84.375
806.61	81.176
806.91	75.556
807.22	57.609
807.52	67.105
807.83	92.105
808.13	79.710
808.43	96.774
808.74	86.301
809.04	101.786
809.35	98.529
809.65	74.242
809.95	100.000
810.26	131.481
810.56	110.938
810.86	102.041
811.17	114.035
811.47	108.696
811.77	82.759
812.08	93.103
812.38	104.762
812.69	104.762
812.99	104.444
813.29	100.000
813.59	148.387
813.90	79.310
814.20	96.721
814.50	104.000
814.81	82.456
815.11	112.963
815.41	101.786
815.72	103.571
816.02	116.000
816.32	131.707
816.62	86.207
816.93	151.515
817.23	121.951
817.53	96.429
817.84	86.667
818.14	114.286
818.44	102.083
818.74	113.208
819.04	120.513
819.35	163.636
819.65	123.077
819.95	107.407
820.25	127.660
820.56	164.865
820.86	126.316
821.16	87.234
821.46	142.105
821.76	107.273
822.07	78.571
822.37	118.421
822.67	130.233
822.97	94.737
823.27	106.522
823.57	153.125
823.88	107.692
824.18	121.212
824.48	139.130
824.78	133.333
825.08	160.870
825.38	182.759
825.69	132.353
825.99	95.745
826.29	102.778
826.59	128.571
826.89	143.333
827.19	134.286
827.49	145.161
827.79	180.769
828.09	111.905
828.39	130.556
828.70	100.000
829.00	167.857
829.30	181.250
829.60	136.111
829.90	151.613
830.20	130.303
830.50	137.838
830.80	208.333
831.10	184.615
831.40	171.429
831.70	208.333
832.00	146.667
832.30	182.609
832.60	150.000
832.90	136.364
833.20	200.000
833.50	152.632
833.80	150.000
834.10	136.842
834.40	189.474
834.70	120.000
835.00	164.000
835.30	127.027
835.60	146.875
835.90	132.432
836.20	153.846
836.50	140.909
836.80	109.756
837.10	160.870
837.40	292.308
837.70	184.211
838.00	173.333
838.30	170.833
838.60	196.000
838.90	380.000
839.19	268.750
839.49	180.000
839.79	134.483
840.09	188.462
840.39	213.333
840.69	231.579
840.99	166.667
841.29	160.870
841.59	255.000
841.88	176.000
842.18	333.333
842.48	150.000
842.78	166.667
843.08	253.846
843.38	177.273
843.68	335.714
843.97	457.143
844.27	169.565
844.57	1900.000
844.87	271.429
845.17	222.222
845.47	171.429
845.76	195.833
846.06	514.286
846.36	176.471
846.66	238.462
846.96	243.750
847.25	192.308
847.55	184.211
847.85	288.889
848.15	680.000
848.44	372.727
848.74	190.476
849.04	187.500
849.34	170.588
849.63	225.000
849.93	306.250
850.23	1100.000
850.53	475.000
850.82	309.091
851.12	217.647
851.42	212.500
851.71	287.500
852.01	0.000
852.31	217.647
852.61	450.000
852.90	166.667
853.20	411.111
853.50	-3700.000
853.79	148.000
854.09	156.250
854.39	155.172
854.68	193.103
854.98	223.810
855.28	145.161
855.57	271.429
855.87	222.222
856.17	151.852
856.46	236.842
856.76	151.613
857.05	241.176
857.35	309.091
857.65	253.846
857.94	175.000
858.24	500.000
858.53	335.714
858.83	614.286
859.13	204.348
859.42	500.000
859.72	350.000
860.01	266.667
860.31	975.000
860.60	330.000
860.90	375.000
861.20	353.846
861.49	457.143
861.79	-2800.000
862.08	514.286
862.38	355.556
862.67	135.714
862.97	310.000
863.26	153.333
863.56	750.000
863.85	330.769
864.15	288.235
864.44	238.889
864.74	383.333
865.03	281.818
865.33	375.000
865.62	326.667
865.92	750.000
866.21	975.000
866.51	740.000
866.80	238.889
867.10	933.333
867.39	4300.000
867.69	720.000
867.98	875.000
868.27	185.714
868.57	333.333
868.86	1075.000
869.16	161.905
869.45	4200.000
869.75	-583.333
870.04	1025.000
870.33	900.000
870.63	450.000
870.92	247.059
871.22	575.000
871.51	471.429
871.80	375.000
872.10	330.769
>>>>>End Processed Spectral Data<<<<<
