SpectraSuite Data File
++++++++++++++++++++++++++++++++++++
Date: Tue May 12 17:06:02 PDT 2015
User: schluterlab
Dark Spectrum Present: Yes
Reference Spectrum Present: Yes
Number of Sampled Component Spectra: 1
Spectrometers: USB2E3373
Integration Time (usec): 3000 (USB2E3373)
Spectra Averaged: 3 (USB2E3373)
Boxcar Smoothing: 0 (USB2E3373)
Correct for Electrical Dark: No (USB2E3373)
Strobe/Lamp Enabled: No (USB2E3373)
Correct for Detector Non-linearity: No (USB2E3373)
Correct for Stray Light: No (USB2E3373)
Number of Pixels in Processed Spectrum: 2048
>>>>>Begin Processed Spectral Data<<<<<
178.53	0.000
178.91	-258.333
179.29	-675.000
179.67	-3300.000
180.04	-120.000
180.42	750.000
180.80	1650.000
181.18	0.000
181.56	-375.000
181.94	0.000
182.31	1000.000
182.69	-2700.000
183.07	557.143
183.45	-3800.000
183.83	-1450.000
184.20	400.000
184.58	500.000
184.96	-276.923
185.34	-266.667
185.72	1650.000
186.09	-725.000
186.47	-3500.000
186.85	1100.000
187.23	620.000
187.61	1750.000
187.98	500.000
188.36	207.143
188.74	341.667
189.12	358.333
189.49	775.000
189.87	0.000
190.25	387.500
190.63	3200.000
191.00	-258.333
191.38	-3300.000
191.76	-775.000
192.14	512.500
192.51	-3900.000
192.89	1700.000
193.27	1333.333
193.65	-1266.667
194.02	-760.000
194.40	614.286
194.78	-228.571
195.15	213.333
195.53	-2800.000
195.91	-500.000
196.29	3900.000
196.66	281.250
197.04	900.000
197.42	-1700.000
197.79	775.000
198.17	291.667
198.55	0.000
198.92	542.857
199.30	1166.667
199.68	1700.000
200.05	633.333
200.43	-550.000
200.81	244.444
201.18	3800.000
201.56	300.000
201.94	-675.000
202.31	-387.500
202.69	-740.000
203.07	3300.000
203.44	-583.333
203.82	358.333
204.19	620.000
204.57	-1050.000
204.95	-975.000
205.32	-680.000
205.70	566.667
206.08	525.000
206.45	-900.000
206.83	355.556
207.20	236.842
207.58	250.000
207.96	860.000
208.33	0.000
208.71	628.571
209.08	800.000
209.46	-3700.000
209.84	-1075.000
210.21	740.000
210.59	-580.000
210.96	216.667
211.34	-700.000
211.71	381.818
212.09	1075.000
212.46	1650.000
212.84	-466.667
213.22	388.889
213.59	-2900.000
213.97	390.000
214.34	1100.000
214.72	1133.333
215.09	866.667
215.47	-3700.000
215.84	-310.000
216.22	-425.000
216.59	0.000
216.97	0.000
217.34	1450.000
217.72	-1650.000
218.09	1200.000
218.47	512.500
218.84	825.000
219.22	1000.000
219.59	1166.667
219.97	571.429
220.34	366.667
220.72	1900.000
221.09	3400.000
221.47	291.667
221.84	1100.000
222.22	320.000
222.59	266.667
222.97	300.000
223.34	293.750
223.72	-1600.000
224.09	1300.000
224.46	261.538
224.84	-975.000
225.21	433.333
225.59	300.000
225.96	1100.000
226.34	-600.000
226.71	-625.000
227.08	-560.000
227.46	0.000
227.83	-783.333
228.21	-2100.000
228.58	350.000
228.95	1075.000
229.33	544.444
229.70	1125.000
230.08	330.769
230.45	3200.000
230.82	-975.000
231.20	-1266.667
231.57	-1066.667
231.95	660.000
232.32	308.333
232.69	500.000
233.07	341.667
233.44	-1750.000
233.81	246.667
234.19	177.778
234.56	212.500
234.93	264.706
235.31	215.000
235.68	343.750
236.05	196.429
236.43	166.667
236.80	292.857
237.17	196.552
237.55	150.000
237.92	165.000
238.29	154.545
238.67	159.375
239.04	141.463
239.41	135.417
239.79	150.000
240.16	97.917
240.53	104.918
240.91	92.754
241.28	98.305
241.65	104.545
242.02	105.634
242.40	114.286
242.77	80.220
243.14	86.076
243.51	90.909
243.89	82.243
244.26	79.439
244.63	75.248
245.00	77.982
245.38	78.814
245.75	81.061
246.12	77.778
246.49	76.596
246.87	77.869
247.24	72.667
247.61	76.875
247.98	77.551
248.36	69.091
248.73	72.959
249.10	71.429
249.47	68.500
249.84	67.164
250.22	75.135
250.59	67.000
250.96	65.823
251.33	67.442
251.70	66.964
252.08	65.126
252.45	62.948
252.82	62.738
253.19	63.241
253.56	66.154
253.94	63.043
254.31	63.178
254.68	65.854
255.05	61.724
255.42	59.489
255.79	67.752
256.16	67.119
256.54	65.584
256.91	65.359
257.28	64.883
257.65	58.307
258.02	60.767
258.39	64.756
258.76	61.159
259.14	57.143
259.51	61.808
259.88	66.565
260.25	57.692
260.62	58.904
260.99	60.606
261.36	64.624
261.73	59.309
262.10	60.733
262.47	57.500
262.85	62.933
263.22	61.697
263.59	61.637
263.96	59.900
264.33	57.778
264.70	59.214
265.07	64.390
265.44	57.339
265.81	58.726
266.18	60.412
266.55	61.229
266.92	58.389
267.29	57.456
267.66	61.659
268.03	61.211
268.40	57.294
268.77	59.251
269.14	58.134
269.51	56.347
269.88	57.347
270.25	58.747
270.62	56.652
270.99	56.187
271.36	55.488
271.73	58.910
272.10	57.374
272.47	56.548
272.84	54.890
273.21	55.579
273.58	58.907
273.95	56.263
274.32	56.420
274.69	57.480
275.06	57.559
275.43	55.172
275.80	57.358
276.17	55.699
276.54	56.449
276.91	60.075
277.28	55.292
277.65	53.875
278.02	52.574
278.39	56.115
278.76	54.310
279.13	54.093
279.50	55.818
279.87	56.052
280.23	52.855
280.60	57.482
280.97	57.241
281.34	53.300
281.71	55.826
282.08	55.385
282.45	54.223
282.82	57.860
283.19	54.054
283.56	54.050
283.92	54.072
284.29	53.744
284.66	50.756
285.03	54.395
285.40	51.901
285.77	52.315
286.14	53.560
286.51	51.687
286.87	49.684
287.24	48.498
287.61	49.848
287.98	52.239
288.35	49.778
288.72	51.897
289.08	51.051
289.45	50.457
289.82	53.594
290.19	49.927
290.56	52.984
290.93	50.647
291.29	48.343
291.66	48.729
292.03	50.771
292.40	47.154
292.77	49.304
293.13	50.357
293.50	49.393
293.87	45.799
294.24	48.671
294.60	47.241
294.97	51.469
295.34	49.137
295.71	47.832
296.08	46.933
296.44	45.997
296.81	46.650
297.18	44.867
297.55	45.567
297.91	45.567
298.28	46.618
298.65	44.785
299.02	46.080
299.38	45.324
299.75	45.244
300.12	44.725
300.48	46.136
300.85	47.080
301.22	46.163
301.59	45.873
301.95	45.391
302.32	46.217
302.69	46.606
303.05	46.128
303.42	45.067
303.79	47.237
304.15	46.755
304.52	44.715
304.89	46.375
305.25	48.053
305.62	45.842
305.99	47.065
306.35	45.684
306.72	48.179
307.09	47.723
307.45	47.202
307.82	46.605
308.19	47.526
308.55	48.700
308.92	48.871
309.29	48.619
309.65	48.959
310.02	49.797
310.38	47.757
310.75	49.373
311.12	48.180
311.48	50.869
311.85	48.950
312.22	51.767
312.58	50.923
312.95	52.524
313.31	50.562
313.68	50.938
314.05	51.923
314.41	52.886
314.78	54.924
315.14	53.649
315.51	53.926
315.87	53.741
316.24	53.875
316.61	53.447
316.97	53.945
317.34	56.694
317.70	55.751
318.07	56.940
318.43	55.448
318.80	57.618
319.16	57.955
319.53	57.876
319.89	59.140
320.26	62.104
320.62	59.982
320.99	62.154
321.35	61.503
321.72	64.326
322.08	64.912
322.45	64.396
322.81	66.514
323.18	65.719
323.54	67.944
323.91	70.444
324.27	68.258
324.64	69.637
325.00	70.948
325.37	70.489
325.73	71.585
326.10	74.234
326.46	73.741
326.83	74.640
327.19	76.546
327.56	77.875
327.92	78.443
328.29	77.169
328.65	79.966
329.01	78.956
329.38	78.511
329.74	78.565
330.11	81.321
330.47	80.051
330.84	78.343
331.20	81.557
331.56	81.174
331.93	81.266
332.29	82.143
332.66	83.163
333.02	81.701
333.38	82.373
333.75	81.401
334.11	81.208
334.48	82.479
334.84	81.250
335.20	83.062
335.57	82.788
335.93	80.151
336.29	80.431
336.66	83.276
337.02	82.549
337.38	82.975
337.75	81.841
338.11	82.869
338.47	81.202
338.84	82.642
339.20	81.472
339.56	81.077
339.93	81.355
340.29	80.420
340.65	82.984
341.02	80.451
341.38	81.856
341.74	81.811
342.11	82.137
342.47	81.214
342.83	84.495
343.20	82.943
343.56	79.508
343.92	82.576
344.28	81.100
344.65	83.700
345.01	80.317
345.37	82.372
345.73	80.159
346.10	81.912
346.46	81.180
346.82	79.707
347.19	80.448
347.55	81.655
347.91	79.532
348.27	80.790
348.63	82.991
349.00	81.645
349.36	81.712
349.72	80.122
350.08	81.677
350.45	82.559
350.81	81.804
351.17	80.200
351.53	80.831
351.89	81.818
352.26	80.499
352.62	81.674
352.98	83.129
353.34	81.587
353.70	79.740
354.07	81.769
354.43	82.104
354.79	78.891
355.15	80.628
355.51	81.269
355.87	81.476
356.24	81.986
356.60	81.431
356.96	80.743
357.32	80.633
357.68	80.250
358.04	81.079
358.40	81.334
358.77	82.795
359.13	82.132
359.49	81.987
359.85	81.608
360.21	81.798
360.57	81.022
360.93	82.468
361.29	82.395
361.66	82.849
362.02	80.824
362.38	82.035
362.74	81.741
363.10	80.435
363.46	80.870
363.82	81.276
364.18	82.361
364.54	81.974
364.90	80.120
365.26	83.553
365.62	81.837
365.98	80.661
366.35	80.897
366.71	80.985
367.07	79.932
367.43	80.255
367.79	80.120
368.15	80.190
368.51	81.668
368.87	80.910
369.23	82.883
369.59	80.512
369.95	81.678
370.31	80.014
370.67	80.430
371.03	81.583
371.39	81.163
371.75	83.461
372.11	81.373
372.47	81.986
372.83	83.481
373.19	82.111
373.55	81.100
373.91	81.008
374.27	81.349
374.63	80.949
374.99	82.345
375.35	82.191
375.71	81.398
376.07	81.233
376.42	81.074
376.78	82.081
377.14	82.765
377.50	81.461
377.86	82.063
378.22	82.693
378.58	81.840
378.94	81.714
379.30	81.928
379.66	82.420
380.02	81.760
380.38	81.733
380.74	82.641
381.09	81.484
381.45	81.445
381.81	80.319
382.17	83.455
382.53	81.284
382.89	82.436
383.25	81.113
383.61	79.827
383.97	82.723
384.32	81.796
384.68	83.125
385.04	81.243
385.40	83.037
385.76	80.925
386.12	81.076
386.48	82.067
386.83	82.396
387.19	80.919
387.55	81.037
387.91	81.120
388.27	82.332
388.62	81.279
388.98	81.516
389.34	80.488
389.70	81.427
390.06	80.854
390.42	80.938
390.77	80.098
391.13	81.110
391.49	80.641
391.85	81.292
392.20	81.108
392.56	80.526
392.92	80.685
393.28	80.942
393.64	81.021
393.99	79.372
394.35	79.812
394.71	78.951
395.07	80.657
395.42	80.621
395.78	82.480
396.14	80.904
396.50	80.445
396.85	80.244
397.21	80.806
397.57	80.335
397.92	79.838
398.28	79.316
398.64	79.697
399.00	78.781
399.35	79.120
399.71	80.574
400.07	79.795
400.42	81.194
400.78	80.176
401.14	80.153
401.49	79.781
401.85	78.795
402.21	79.028
402.57	78.995
402.92	79.636
403.28	78.819
403.63	78.164
403.99	79.554
404.35	79.601
404.70	81.099
405.06	79.450
405.42	78.875
405.77	78.501
406.13	77.983
406.49	78.169
406.84	77.552
407.20	77.568
407.55	78.831
407.91	79.132
408.27	78.411
408.62	79.480
408.98	77.587
409.34	76.505
409.69	78.407
410.05	79.129
410.40	76.855
410.76	77.619
411.11	77.903
411.47	77.531
411.83	76.801
412.18	77.536
412.54	76.036
412.89	77.758
413.25	78.221
413.60	77.278
413.96	79.054
414.31	76.623
414.67	78.336
415.03	77.331
415.38	77.350
415.74	79.975
416.09	77.639
416.45	78.862
416.80	79.474
417.16	77.721
417.51	77.962
417.87	78.786
418.22	78.190
418.58	78.726
418.93	77.156
419.29	77.634
419.64	77.226
420.00	78.461
420.35	76.307
420.71	77.246
421.06	78.458
421.42	76.281
421.77	78.068
422.12	78.060
422.48	76.066
422.83	77.902
423.19	78.672
423.54	76.687
423.90	76.614
424.25	77.325
424.61	77.771
424.96	77.696
425.31	79.584
425.67	78.844
426.02	76.725
426.38	77.188
426.73	79.005
427.09	79.181
427.44	77.378
427.79	78.788
428.15	79.906
428.50	78.457
428.85	79.071
429.21	78.228
429.56	77.866
429.92	78.220
430.27	78.036
430.62	76.848
430.98	77.196
431.33	77.772
431.68	77.235
432.04	77.807
432.39	79.034
432.74	77.342
433.10	77.907
433.45	80.299
433.80	80.695
434.16	78.928
434.51	79.876
434.86	79.913
435.22	79.146
435.57	78.957
435.92	79.226
436.28	79.435
436.63	78.552
436.98	80.912
437.34	79.452
437.69	79.283
438.04	77.742
438.39	79.977
438.75	78.731
439.10	77.982
439.45	78.010
439.81	80.509
440.16	78.426
440.51	78.885
440.86	80.285
441.22	78.409
441.57	78.373
441.92	79.023
442.27	77.887
442.63	77.693
442.98	78.017
443.33	78.629
443.68	78.219
444.03	78.275
444.39	79.520
444.74	78.986
445.09	80.832
445.44	77.736
445.79	80.263
446.15	77.789
446.50	78.586
446.85	79.681
447.20	78.507
447.55	80.587
447.91	78.583
448.26	77.902
448.61	79.381
448.96	80.447
449.31	79.098
449.66	78.793
450.02	79.579
450.37	79.012
450.72	80.220
451.07	78.825
451.42	79.075
451.77	80.756
452.12	78.162
452.47	78.615
452.83	79.493
453.18	79.279
453.53	79.929
453.88	80.114
454.23	79.489
454.58	76.166
454.93	78.602
455.28	78.274
455.63	79.669
455.98	79.131
456.34	80.669
456.69	80.061
457.04	78.461
457.39	79.086
457.74	78.885
458.09	78.383
458.44	78.478
458.79	76.180
459.14	78.778
459.49	79.728
459.84	79.130
460.19	78.701
460.54	78.120
460.89	78.518
461.24	77.148
461.59	79.138
461.94	77.778
462.29	78.318
462.64	79.585
462.99	77.607
463.34	78.678
463.69	78.282
464.04	78.584
464.39	77.619
464.74	78.957
465.09	78.526
465.44	77.095
465.79	76.919
466.14	76.312
466.49	77.971
466.84	77.035
467.19	77.329
467.54	76.697
467.89	77.230
468.24	77.939
468.59	77.619
468.94	78.502
469.29	75.932
469.64	77.299
469.99	75.835
470.34	77.862
470.68	77.172
471.03	78.052
471.38	77.550
471.73	77.074
472.08	78.408
472.43	77.033
472.78	77.401
473.13	76.158
473.48	76.895
473.83	76.737
474.17	76.778
474.52	76.422
474.87	77.089
475.22	75.899
475.57	74.449
475.92	75.779
476.27	75.789
476.61	76.944
476.96	74.608
477.31	77.121
477.66	77.026
478.01	75.761
478.36	76.107
478.70	75.533
479.05	76.046
479.40	75.744
479.75	75.770
480.10	75.508
480.45	75.584
480.79	74.562
481.14	74.798
481.49	73.879
481.84	74.758
482.19	74.716
482.53	74.133
482.88	74.238
483.23	75.778
483.58	75.000
483.92	75.960
484.27	73.844
484.62	74.788
484.97	72.809
485.31	72.968
485.66	72.957
486.01	71.336
486.36	70.903
486.70	69.965
487.05	70.985
487.40	70.750
487.75	72.277
488.09	71.477
488.44	71.829
488.79	72.128
489.13	73.834
489.48	73.791
489.83	73.686
490.17	72.791
490.52	74.849
490.87	72.457
491.22	73.980
491.56	73.298
491.91	72.939
492.26	72.650
492.60	73.166
492.95	73.403
493.30	73.339
493.64	72.327
493.99	72.317
494.34	73.017
494.68	73.572
495.03	73.776
495.37	72.220
495.72	72.914
496.07	72.237
496.41	70.938
496.76	72.140
497.11	71.979
497.45	70.583
497.80	72.196
498.14	71.706
498.49	71.866
498.84	72.383
499.18	70.887
499.53	71.980
499.87	71.563
500.22	71.442
500.56	71.634
500.91	73.145
501.26	71.750
501.60	71.995
501.95	71.416
502.29	70.267
502.64	70.798
502.98	70.031
503.33	70.067
503.67	69.669
504.02	69.458
504.36	70.588
504.71	71.807
505.06	71.000
505.40	70.800
505.75	71.422
506.09	71.162
506.44	71.006
506.78	70.038
507.13	71.159
507.47	71.955
507.82	71.873
508.16	71.191
508.51	70.048
508.85	70.465
509.19	70.191
509.54	69.873
509.88	71.109
510.23	69.314
510.57	68.533
510.92	71.179
511.26	70.984
511.61	68.882
511.95	68.143
512.30	69.100
512.64	69.990
512.98	68.683
513.33	69.109
513.67	68.462
514.02	69.351
514.36	69.574
514.70	69.440
515.05	68.354
515.39	69.682
515.74	70.476
516.08	70.044
516.42	70.984
516.77	68.907
517.11	68.587
517.46	68.696
517.80	69.252
518.14	70.648
518.49	67.971
518.83	68.297
519.17	69.329
519.52	69.088
519.86	68.774
520.20	68.712
520.55	68.061
520.89	67.356
521.23	68.516
521.58	68.675
521.92	68.513
522.26	67.239
522.61	69.697
522.95	69.189
523.29	68.070
523.64	67.052
523.98	68.369
524.32	67.243
524.66	68.000
525.01	68.166
525.35	66.411
525.69	68.814
526.04	67.341
526.38	67.157
526.72	67.124
527.06	67.357
527.41	69.347
527.75	66.159
528.09	66.707
528.43	68.761
528.78	66.369
529.12	68.934
529.46	66.978
529.80	64.603
530.15	65.881
530.49	66.787
530.83	66.118
531.17	66.790
531.51	66.156
531.86	65.097
532.20	65.946
532.54	66.729
532.88	67.208
533.22	66.849
533.57	66.931
533.91	64.277
534.25	63.878
534.59	65.088
534.93	65.188
535.27	63.460
535.62	65.053
535.96	64.243
536.30	65.692
536.64	63.540
536.98	65.198
537.32	65.438
537.66	63.584
538.01	64.644
538.35	64.005
538.69	64.199
539.03	63.806
539.37	64.260
539.71	65.370
540.05	63.938
540.39	64.151
540.73	63.924
541.07	63.488
541.42	63.806
541.76	64.242
542.10	63.255
542.44	63.342
542.78	63.436
543.12	63.129
543.46	62.281
543.80	63.722
544.14	61.981
544.48	62.835
544.82	61.529
545.16	60.838
545.50	61.770
545.84	62.942
546.18	64.499
546.52	64.000
546.86	63.765
547.20	62.984
547.54	62.128
547.88	61.679
548.22	62.599
548.56	60.813
548.90	61.329
549.24	62.287
549.58	61.791
549.92	62.868
550.26	62.272
550.60	62.475
550.94	62.890
551.28	62.069
551.62	64.828
551.96	61.757
552.30	61.239
552.64	61.812
552.98	61.791
553.32	61.140
553.66	61.759
554.00	60.360
554.34	60.586
554.68	61.290
555.02	61.575
555.36	59.973
555.69	60.929
556.03	60.955
556.37	60.612
556.71	61.082
557.05	59.961
557.39	59.133
557.73	61.051
558.07	59.691
558.41	61.138
558.75	60.534
559.08	61.901
559.42	61.847
559.76	62.081
560.10	61.046
560.44	59.124
560.78	60.230
561.12	61.284
561.45	59.825
561.79	59.675
562.13	59.507
562.47	59.442
562.81	59.727
563.15	60.375
563.48	56.832
563.82	59.576
564.16	60.075
564.50	57.143
564.84	58.480
565.17	58.764
565.51	60.653
565.85	60.271
566.19	58.571
566.52	59.085
566.86	59.253
567.20	58.427
567.54	58.352
567.88	58.320
568.21	55.966
568.55	57.879
568.89	56.980
569.23	57.334
569.56	56.510
569.90	55.659
570.24	55.707
570.57	55.321
570.91	55.226
571.25	54.715
571.59	54.230
571.92	54.090
572.26	54.178
572.60	53.652
572.93	54.428
573.27	54.394
573.61	54.006
573.95	53.984
574.28	54.217
574.62	53.517
574.96	52.825
575.29	52.819
575.63	53.404
575.97	52.653
576.30	52.822
576.64	52.542
576.98	53.169
577.31	53.684
577.65	52.645
577.98	52.761
578.32	52.487
578.66	52.449
578.99	52.759
579.33	52.706
579.67	52.573
580.00	52.259
580.34	51.207
580.67	52.304
581.01	52.622
581.35	52.236
581.68	52.206
582.02	51.951
582.35	52.133
582.69	51.767
583.02	52.663
583.36	53.364
583.70	52.110
584.03	53.095
584.37	52.322
584.70	52.078
585.04	52.463
585.37	51.668
585.71	52.090
586.04	51.594
586.38	51.831
586.72	52.407
587.05	52.419
587.39	51.606
587.72	51.500
588.06	51.676
588.39	51.894
588.73	51.866
589.06	52.582
589.40	54.116
589.73	52.180
590.07	52.677
590.40	53.345
590.73	53.360
591.07	53.966
591.40	52.455
591.74	52.922
592.07	52.288
592.41	52.158
592.74	52.325
593.08	51.497
593.41	51.795
593.75	51.245
594.08	51.247
594.41	51.124
594.75	51.473
595.08	51.166
595.42	51.350
595.75	51.596
596.09	52.346
596.42	51.529
596.75	53.125
597.09	51.341
597.42	50.857
597.75	50.629
598.09	51.252
598.42	51.897
598.76	50.617
599.09	50.864
599.42	49.481
599.76	50.204
600.09	50.169
600.42	51.070
600.76	50.884
601.09	50.639
601.42	50.651
601.76	50.698
602.09	51.214
602.42	50.055
602.76	50.474
603.09	50.377
603.42	49.872
603.76	50.145
604.09	50.923
604.42	50.132
604.76	50.375
605.09	50.122
605.42	49.817
605.75	50.020
606.09	50.115
606.42	48.741
606.75	49.981
607.09	49.033
607.42	48.855
607.75	49.761
608.08	49.310
608.42	49.832
608.75	48.695
609.08	49.758
609.41	49.455
609.75	49.954
610.08	50.135
610.41	49.671
610.74	50.130
611.07	49.932
611.41	49.861
611.74	49.522
612.07	50.096
612.40	50.195
612.73	49.476
613.07	50.076
613.40	50.276
613.73	50.275
614.06	49.600
614.39	49.848
614.72	48.569
615.06	48.714
615.39	49.257
615.72	48.645
616.05	50.477
616.38	48.300
616.71	49.756
617.05	50.851
617.38	49.494
617.71	49.325
618.04	49.748
618.37	48.694
618.70	49.654
619.03	49.084
619.36	49.749
619.69	50.132
620.03	51.207
620.36	49.583
620.69	51.916
621.02	50.340
621.35	49.212
621.68	50.147
622.01	51.365
622.34	51.056
622.67	49.579
623.00	49.694
623.33	49.798
623.66	49.102
623.99	50.274
624.32	49.322
624.65	49.375
624.99	49.831
625.32	49.766
625.65	49.172
625.98	48.954
626.31	49.629
626.64	48.823
626.97	48.738
627.30	48.991
627.63	50.392
627.96	48.670
628.29	49.010
628.62	49.444
628.95	50.887
629.28	50.219
629.61	50.439
629.94	50.216
630.26	50.867
630.59	49.468
630.92	48.520
631.25	49.592
631.58	51.977
631.91	50.428
632.24	49.466
632.57	50.491
632.90	50.518
633.23	50.157
633.56	50.263
633.89	51.125
634.22	51.453
634.55	49.677
634.88	50.383
635.20	51.345
635.53	50.639
635.86	50.224
636.19	51.964
636.52	48.541
636.85	48.867
637.18	49.187
637.51	48.939
637.83	49.771
638.16	51.114
638.49	51.856
638.82	51.408
639.15	49.824
639.48	50.474
639.81	48.596
640.13	51.534
640.46	50.569
640.79	50.195
641.12	50.000
641.45	52.264
641.77	49.273
642.10	51.673
642.43	51.778
642.76	49.290
643.09	51.585
643.41	49.509
643.74	50.935
644.07	51.032
644.40	51.923
644.73	53.153
645.05	52.155
645.38	52.680
645.71	53.718
646.04	50.687
646.36	52.739
646.69	50.720
647.02	52.320
647.35	48.189
647.67	49.919
648.00	51.792
648.33	47.519
648.66	49.848
648.98	48.551
649.31	48.178
649.64	48.133
649.96	49.644
650.29	48.571
650.62	49.926
650.94	49.247
651.27	53.589
651.60	49.139
651.92	48.541
652.25	51.339
652.58	46.667
652.90	49.551
653.23	49.188
653.56	49.852
653.88	48.018
654.21	47.067
654.54	49.780
654.86	47.345
655.19	49.472
655.52	43.697
655.84	40.025
656.17	46.694
656.49	66.514
656.82	76.772
657.15	60.965
657.47	45.487
657.80	33.424
658.13	26.168
658.45	35.547
658.78	43.112
659.10	43.088
659.43	44.525
659.75	45.574
660.08	46.679
660.41	47.913
660.73	51.819
661.06	50.000
661.38	47.700
661.71	45.683
662.03	48.859
662.36	47.429
662.68	49.534
663.01	50.811
663.33	49.057
663.66	49.507
663.98	51.190
664.31	48.507
664.63	49.808
664.96	50.844
665.28	46.516
665.61	48.491
665.93	49.245
666.26	47.850
666.58	49.541
666.91	47.683
667.23	47.590
667.56	48.049
667.88	51.245
668.21	49.590
668.53	48.589
668.86	49.699
669.18	46.436
669.50	48.140
669.83	49.897
670.15	48.649
670.48	45.898
670.80	47.012
671.13	49.801
671.45	49.699
671.77	49.165
672.10	47.038
672.42	44.572
672.75	47.627
673.07	47.536
673.39	46.006
673.72	48.962
674.04	46.057
674.37	46.461
674.69	47.026
675.01	46.269
675.34	46.124
675.66	48.633
675.98	50.690
676.31	48.200
676.63	48.111
676.95	46.825
677.28	46.653
677.60	46.278
677.92	46.429
678.25	46.124
678.57	47.672
678.89	47.920
679.22	49.265
679.54	45.907
679.86	47.818
680.18	44.640
680.51	46.269
680.83	44.595
681.15	47.834
681.48	45.139
681.80	43.958
682.12	45.848
682.44	44.865
682.77	45.730
683.09	46.214
683.41	48.367
683.73	45.276
684.06	44.841
684.38	48.256
684.70	46.583
685.02	47.049
685.34	46.303
685.67	46.302
685.99	45.813
686.31	44.992
686.63	41.463
686.96	44.444
687.28	42.282
687.60	45.734
687.92	43.551
688.24	46.552
688.56	44.484
688.89	44.933
689.21	47.206
689.53	48.617
689.85	45.325
690.17	46.602
690.49	45.766
690.82	46.639
691.14	46.263
691.46	46.612
691.78	45.224
692.10	45.611
692.42	44.646
692.74	44.186
693.06	47.287
693.39	45.059
693.71	41.257
694.03	45.759
694.35	47.791
694.67	43.381
694.99	48.115
695.31	47.072
695.63	44.796
695.95	45.701
696.27	48.451
696.59	47.733
696.91	46.076
697.23	47.285
697.56	41.909
697.88	46.307
698.20	44.340
698.52	44.358
698.84	44.353
699.16	48.188
699.48	45.339
699.80	47.277
700.12	46.420
700.44	47.430
700.76	48.926
701.08	49.869
701.40	47.532
701.72	48.930
702.04	50.678
702.36	50.806
702.68	48.138
703.00	43.609
703.32	48.387
703.64	46.348
703.96	46.354
704.28	48.677
704.60	48.451
704.91	49.020
705.23	47.727
705.55	49.852
705.87	47.302
706.19	52.351
706.51	48.903
706.83	47.198
707.15	44.920
707.47	46.973
707.79	48.506
708.11	45.578
708.43	45.393
708.74	45.023
709.06	42.326
709.38	48.387
709.70	43.869
710.02	43.750
710.34	46.685
710.66	47.778
710.98	50.273
711.29	45.961
711.61	50.975
711.93	48.024
712.25	49.398
712.57	48.875
712.89	47.576
713.20	48.243
713.52	47.664
713.84	50.151
714.16	42.899
714.48	43.804
714.80	45.799
715.11	46.011
715.43	44.972
715.75	47.324
716.07	43.931
716.39	47.143
716.70	46.729
717.02	48.822
717.34	49.640
717.66	52.778
717.97	54.924
718.29	51.761
718.61	48.311
718.93	49.481
719.24	48.658
719.56	47.586
719.88	41.720
720.20	48.387
720.51	42.157
720.83	45.151
721.15	49.320
721.46	50.685
721.78	46.690
722.10	51.389
722.42	50.502
722.73	49.458
723.05	48.070
723.37	46.643
723.68	48.438
724.00	47.348
724.32	48.669
724.63	48.462
724.95	52.549
725.27	50.929
725.58	46.691
725.90	50.000
726.22	48.288
726.53	49.498
726.85	47.557
727.16	47.987
727.48	47.508
727.80	46.763
728.11	47.500
728.43	45.652
728.74	47.552
729.06	44.444
729.38	47.719
729.69	51.000
730.01	47.368
730.32	50.671
730.64	50.166
730.96	44.745
731.27	44.037
731.59	41.954
731.90	44.290
732.22	47.429
732.53	43.590
732.85	46.784
733.16	43.976
733.48	45.141
733.80	48.116
734.11	45.092
734.43	43.860
734.74	44.504
735.06	45.503
735.37	46.649
735.69	45.217
736.00	45.566
736.32	46.061
736.63	41.325
736.95	45.963
737.26	45.427
737.58	45.706
737.89	43.675
738.21	46.358
738.52	47.157
738.83	49.451
739.15	47.038
739.46	39.310
739.78	42.857
740.09	45.773
740.41	46.012
740.72	47.937
741.04	46.503
741.35	47.266
741.66	49.012
741.98	52.361
742.29	54.630
742.61	49.558
742.92	44.492
743.23	47.200
743.55	46.792
743.86	47.843
744.18	51.271
744.49	54.959
744.80	51.613
745.12	50.893
745.43	56.075
745.74	52.889
746.06	46.930
746.37	56.279
746.68	50.000
747.00	52.466
747.31	51.681
747.62	47.541
747.94	51.502
748.25	44.358
748.56	52.119
748.88	50.000
749.19	47.442
749.50	50.228
749.82	48.971
750.13	48.617
750.44	41.333
750.75	46.980
751.07	46.382
751.38	47.195
751.69	45.455
752.01	44.056
752.32	44.186
752.63	46.980
752.94	48.951
753.26	49.219
753.57	49.416
753.88	43.446
754.19	48.014
754.51	43.854
754.82	47.315
755.13	39.527
755.44	45.926
755.75	49.141
756.07	44.863
756.38	40.850
756.69	44.375
757.00	44.807
757.31	47.324
757.63	41.873
757.94	46.011
758.25	42.029
758.56	42.334
758.87	41.855
759.18	44.767
759.50	46.809
759.81	40.653
760.12	42.978
760.43	46.779
760.74	43.038
761.05	46.154
761.36	42.708
761.67	45.553
761.99	43.099
762.30	42.122
762.61	47.917
762.92	41.667
763.23	49.057
763.54	48.077
763.85	47.082
764.16	49.306
764.47	46.284
764.78	42.020
765.10	41.768
765.41	40.057
765.72	45.028
766.03	42.598
766.34	49.477
766.65	49.430
766.96	47.773
767.27	50.467
767.58	53.465
767.89	50.276
768.20	60.366
768.51	47.449
768.82	47.368
769.13	45.098
769.44	44.361
769.75	44.569
770.06	50.840
770.37	47.807
770.68	47.111
770.99	48.729
771.30	48.954
771.61	46.538
771.92	47.328
772.23	43.952
772.54	52.889
772.85	49.505
773.16	51.630
773.47	51.111
773.78	48.515
774.09	57.955
774.39	60.606
774.70	46.471
775.01	51.974
775.32	57.764
775.63	56.849
775.94	59.259
776.25	62.069
776.56	68.702
776.87	59.542
777.18	59.091
777.48	64.567
777.79	60.769
778.10	59.091
778.41	56.716
778.72	52.632
779.03	50.641
779.34	54.054
779.65	59.627
779.95	53.416
780.26	54.167
780.57	59.184
780.88	63.830
781.19	68.333
781.50	52.071
781.80	53.005
782.11	53.439
782.42	46.552
782.73	53.107
783.04	52.903
783.34	56.589
783.65	58.503
783.96	61.290
784.27	46.358
784.57	48.684
784.88	50.000
785.19	58.333
785.50	65.517
785.81	65.891
786.11	60.000
786.42	61.417
786.73	59.459
787.04	64.151
787.34	57.724
787.65	65.152
787.96	58.333
788.26	62.205
788.57	67.153
788.88	56.338
789.19	62.595
789.49	60.135
789.80	53.906
790.11	57.025
790.41	65.741
790.72	54.630
791.03	70.192
791.33	69.697
791.64	64.211
791.95	58.947
792.25	60.417
792.56	56.000
792.87	69.512
793.17	68.182
793.48	72.941
793.79	67.816
794.09	82.955
794.40	75.000
794.70	65.873
795.01	49.231
795.32	64.122
795.62	55.556
795.93	64.706
796.23	65.041
796.54	69.388
796.85	70.455
797.15	92.208
797.46	71.951
797.76	67.500
798.07	80.000
798.37	67.500
798.68	81.250
798.99	87.805
799.29	68.000
799.60	63.953
799.90	78.947
800.21	87.879
800.51	71.831
800.82	93.103
801.12	90.769
801.43	77.333
801.73	86.207
802.04	70.130
802.34	68.493
802.65	107.843
802.95	86.957
803.26	101.613
803.56	113.333
803.87	80.597
804.17	84.127
804.48	96.226
804.78	70.833
805.09	80.303
805.39	92.063
805.70	96.491
806.00	77.143
806.30	93.750
806.61	72.941
806.91	58.889
807.22	72.826
807.52	78.947
807.83	92.105
808.13	86.957
808.43	87.097
808.74	80.822
809.04	103.571
809.35	88.235
809.65	84.848
809.95	98.039
810.26	109.259
810.56	95.312
810.86	104.082
811.17	94.737
811.47	82.609
811.77	96.552
812.08	72.414
812.38	109.524
812.69	83.333
812.99	95.556
813.29	108.571
813.59	138.710
813.90	70.690
814.20	90.164
814.50	86.000
814.81	80.702
815.11	103.704
815.41	76.786
815.72	108.929
816.02	102.000
816.32	102.439
816.62	91.379
816.93	148.485
817.23	121.951
817.53	94.643
817.84	108.889
818.14	107.143
818.44	97.917
818.74	109.434
819.04	102.564
819.35	142.424
819.65	111.538
819.95	112.963
820.25	127.660
820.56	154.054
820.86	113.158
821.16	72.340
821.46	136.842
821.76	96.364
822.07	83.333
822.37	113.158
822.67	111.628
822.97	81.579
823.27	104.348
823.57	125.000
823.88	135.897
824.18	96.970
824.48	173.913
824.78	102.778
825.08	156.522
825.38	127.586
825.69	141.176
825.99	78.723
826.29	105.556
826.59	134.286
826.89	146.667
827.19	91.429
827.49	158.065
827.79	180.769
828.09	126.190
828.39	122.222
828.70	124.324
829.00	175.000
829.30	256.250
829.60	136.111
829.90	158.065
830.20	115.152
830.50	129.730
830.80	179.167
831.10	226.923
831.40	157.143
831.70	183.333
832.00	120.000
832.30	173.913
832.60	216.667
832.90	133.333
833.20	245.000
833.50	142.105
833.80	126.471
834.10	100.000
834.40	142.105
834.70	116.667
835.00	180.000
835.30	121.622
835.60	140.625
835.90	129.730
836.20	165.385
836.50	127.273
836.80	124.390
837.10	204.348
837.40	315.385
837.70	163.158
838.00	170.000
838.30	183.333
838.60	152.000
838.90	440.000
839.19	212.500
839.49	146.667
839.79	131.034
840.09	173.077
840.39	286.667
840.69	205.263
840.99	195.238
841.29	169.565
841.59	215.000
841.88	180.000
842.18	355.556
842.48	182.143
842.78	155.556
843.08	207.692
843.38	204.545
843.68	328.571
843.97	614.286
844.27	156.522
844.57	1600.000
844.87	285.714
845.17	250.000
845.47	147.619
845.76	150.000
846.06	557.143
846.36	176.471
846.66	323.077
846.96	281.250
847.25	276.923
847.55	236.842
847.85	222.222
848.15	500.000
848.44	318.182
848.74	147.619
849.04	200.000
849.34	205.882
849.63	206.250
849.93	200.000
850.23	1033.333
850.53	462.500
850.82	272.727
851.12	200.000
851.42	195.833
851.71	268.750
852.01	0.000
852.31	176.471
852.61	390.000
852.90	162.500
853.20	344.444
853.50	-2200.000
853.79	148.000
854.09	162.500
854.39	134.483
854.68	168.966
854.98	247.619
855.28	145.161
855.57	271.429
855.87	250.000
856.17	159.259
856.46	215.789
856.76	161.290
857.05	205.882
857.35	354.545
857.65	292.308
857.94	175.000
858.24	377.778
858.53	278.571
858.83	557.143
859.13	200.000
859.42	400.000
859.72	412.500
860.01	266.667
860.31	1050.000
860.60	460.000
860.90	450.000
861.20	346.154
861.49	514.286
861.79	-3800.000
862.08	514.286
862.38	422.222
862.67	278.571
862.97	410.000
863.26	136.667
863.56	750.000
863.85	338.462
864.15	241.176
864.44	166.667
864.74	358.333
865.03	336.364
865.33	375.000
865.62	246.667
865.92	583.333
866.21	925.000
866.51	640.000
866.80	238.889
867.10	966.667
867.39	2900.000
867.69	460.000
867.98	875.000
868.27	180.952
868.57	293.333
868.86	800.000
869.16	152.381
869.45	3100.000
869.75	-483.333
870.04	800.000
870.33	780.000
870.63	387.500
870.92	182.353
871.22	750.000
871.51	442.857
871.80	333.333
872.10	269.231
>>>>>End Processed Spectral Data<<<<<
