SpectraSuite Data File
++++++++++++++++++++++++++++++++++++
Date: Tue May 12 17:12:50 PDT 2015
User: schluterlab
Dark Spectrum Present: Yes
Reference Spectrum Present: Yes
Number of Sampled Component Spectra: 1
Spectrometers: USB2E3373
Integration Time (usec): 3000 (USB2E3373)
Spectra Averaged: 3 (USB2E3373)
Boxcar Smoothing: 0 (USB2E3373)
Correct for Electrical Dark: No (USB2E3373)
Strobe/Lamp Enabled: No (USB2E3373)
Correct for Detector Non-linearity: No (USB2E3373)
Correct for Stray Light: No (USB2E3373)
Number of Pixels in Processed Spectrum: 2048
>>>>>Begin Processed Spectral Data<<<<<
178.53	0.000
178.91	-183.333
179.29	-600.000
179.67	-4100.000
180.04	-173.333
180.42	825.000
180.80	1800.000
181.18	0.000
181.56	-312.500
181.94	0.000
182.31	1000.000
182.69	-3300.000
183.07	600.000
183.45	-3400.000
183.83	-1300.000
184.20	320.000
184.58	414.286
184.96	-169.231
185.34	-216.667
185.72	1550.000
186.09	-1025.000
186.47	-3500.000
186.85	1133.333
187.23	540.000
187.61	1050.000
187.98	500.000
188.36	264.286
188.74	366.667
189.12	383.333
189.49	725.000
189.87	0.000
190.25	412.500
190.63	2300.000
191.00	-191.667
191.38	-2900.000
191.76	-675.000
192.14	525.000
192.51	-2200.000
192.89	1850.000
193.27	1133.333
193.65	-733.333
194.02	-620.000
194.40	485.714
194.78	-192.857
195.15	206.667
195.53	-3300.000
195.91	-520.000
196.29	3500.000
196.66	262.500
197.04	625.000
197.42	-1350.000
197.79	750.000
198.17	258.333
198.55	0.000
198.92	385.714
199.30	1033.333
199.68	1750.000
200.05	616.667
200.43	-433.333
200.81	183.333
201.18	2500.000
201.56	283.333
201.94	-700.000
202.31	-287.500
202.69	-360.000
203.07	2500.000
203.44	-450.000
203.82	358.333
204.19	600.000
204.57	-1050.000
204.95	-725.000
205.32	-620.000
205.70	516.667
206.08	675.000
206.45	-633.333
206.83	322.222
207.20	194.737
207.58	316.667
207.96	660.000
208.33	0.000
208.71	600.000
209.08	760.000
209.46	-3600.000
209.84	-725.000
210.21	800.000
210.59	-420.000
210.96	241.667
211.34	-900.000
211.71	318.182
212.09	850.000
212.46	1450.000
212.84	-583.333
213.22	411.111
213.59	-2900.000
213.97	340.000
214.34	800.000
214.72	1166.667
215.09	1200.000
215.47	-1800.000
215.84	-330.000
216.22	-362.500
216.59	0.000
216.97	0.000
217.34	800.000
217.72	-1300.000
218.09	1000.000
218.47	462.500
218.84	900.000
219.22	1100.000
219.59	966.667
219.97	314.286
220.34	255.556
220.72	1300.000
221.09	2900.000
221.47	225.000
221.84	566.667
222.22	320.000
222.59	216.667
222.97	214.286
223.34	218.750
223.72	-1350.000
224.09	1233.333
224.46	253.846
224.84	-575.000
225.21	322.222
225.59	213.333
225.96	1500.000
226.34	-560.000
226.71	-650.000
227.08	-620.000
227.46	0.000
227.83	-550.000
228.21	-1400.000
228.58	375.000
228.95	775.000
229.33	300.000
229.70	800.000
230.08	292.308
230.45	4000.000
230.82	-950.000
231.20	-1133.333
231.57	-966.667
231.95	620.000
232.32	308.333
232.69	500.000
233.07	283.333
233.44	-1450.000
233.81	266.667
234.19	155.556
234.56	150.000
234.93	217.647
235.31	185.000
235.68	250.000
236.05	139.286
236.43	107.407
236.80	235.714
237.17	148.276
237.55	90.625
237.92	100.000
238.29	127.273
238.67	134.375
239.04	90.244
239.41	75.000
239.79	80.000
240.16	79.167
240.53	59.016
240.91	56.522
241.28	79.661
241.65	63.636
242.02	61.972
242.40	65.714
242.77	62.637
243.14	49.367
243.51	57.576
243.89	44.860
244.26	46.729
244.63	46.535
245.00	34.862
245.38	35.593
245.75	41.667
246.12	48.889
246.49	39.007
246.87	27.869
247.24	38.667
247.61	36.250
247.98	35.374
248.36	33.939
248.73	36.735
249.10	29.167
249.47	32.000
249.84	34.328
250.22	33.514
250.59	28.000
250.96	31.224
251.33	29.302
251.70	33.482
252.08	32.353
252.45	24.701
252.82	26.996
253.19	23.715
253.56	31.154
253.94	26.087
254.31	26.744
254.68	29.268
255.05	27.586
255.42	27.372
255.79	28.990
256.16	27.797
256.54	30.519
256.91	26.471
257.28	25.753
257.65	21.944
258.02	25.074
258.39	26.074
258.76	25.797
259.14	20.571
259.51	26.239
259.88	24.316
260.25	24.451
260.62	26.027
260.99	20.661
261.36	23.120
261.73	22.606
262.10	25.654
262.47	25.000
262.85	22.133
263.22	23.650
263.59	24.552
263.96	24.812
264.33	23.951
264.70	21.622
265.07	23.415
265.44	22.248
265.81	21.934
266.18	22.426
266.55	20.567
266.92	21.029
267.29	24.561
267.66	19.731
268.03	23.094
268.40	24.313
268.77	24.449
269.14	19.089
269.51	20.935
269.88	22.449
270.25	19.006
270.62	20.815
270.99	24.544
271.36	22.154
271.73	19.916
272.10	20.202
272.47	20.238
272.84	18.962
273.21	22.934
273.58	21.862
273.95	20.739
274.32	21.012
274.69	22.835
275.06	21.129
275.43	20.115
275.80	19.434
276.17	20.588
276.54	19.813
276.91	20.709
277.28	18.248
277.65	22.878
278.02	20.037
278.39	20.863
278.76	20.345
279.13	19.395
279.50	20.545
279.87	19.553
280.23	18.969
280.60	19.161
280.97	19.483
281.34	19.637
281.71	21.043
282.08	20.684
282.45	19.932
282.82	19.900
283.19	19.873
283.56	18.347
283.92	18.567
284.29	18.469
284.66	18.824
285.03	17.910
285.40	20.000
285.77	17.284
286.14	19.814
286.51	18.712
286.87	17.880
287.24	17.267
287.61	17.477
287.98	16.716
288.35	18.963
288.72	16.540
289.08	18.619
289.45	18.598
289.82	18.125
290.19	15.813
290.56	19.651
290.93	17.266
291.29	17.403
291.66	16.525
292.03	15.007
292.40	16.667
292.77	16.992
293.13	16.262
293.50	16.059
293.87	17.073
294.24	16.224
294.60	18.304
294.97	18.042
295.34	15.803
295.71	15.637
296.08	16.000
296.44	14.994
296.81	14.392
297.18	15.336
297.55	14.286
297.91	14.901
298.28	13.406
298.65	14.479
299.02	15.320
299.38	15.348
299.75	14.024
300.12	15.482
300.48	14.637
300.85	13.468
301.22	14.070
301.59	13.443
301.95	13.302
302.32	14.319
302.69	14.140
303.05	15.039
303.42	14.350
303.79	15.168
304.15	12.981
304.52	14.165
304.89	14.819
305.25	14.683
305.62	14.072
305.99	13.696
306.35	13.263
306.72	13.215
307.09	13.458
307.45	13.939
307.82	13.786
308.19	13.814
308.55	12.500
308.92	12.561
309.29	14.201
309.65	14.073
310.02	13.996
310.38	13.759
310.75	14.079
311.12	12.452
311.48	14.865
311.85	13.740
312.22	13.372
312.58	13.703
312.95	13.981
313.31	12.547
313.68	13.415
314.05	13.736
314.41	11.732
314.78	13.636
315.14	13.555
315.51	13.623
315.87	13.777
316.24	12.885
316.61	13.071
316.97	11.835
317.34	13.208
317.70	13.169
318.07	13.434
318.43	12.478
318.80	13.573
319.16	12.238
319.53	12.920
319.89	12.455
320.26	14.432
320.62	13.828
320.99	13.346
321.35	12.338
321.72	12.998
322.08	12.188
322.45	13.261
322.81	13.083
323.18	13.588
323.54	13.415
323.91	14.053
324.27	12.997
324.64	11.938
325.00	13.017
325.37	14.081
325.73	12.563
326.10	13.256
326.46	13.460
326.83	11.680
327.19	13.092
327.56	13.498
327.92	13.279
328.29	13.339
328.65	13.784
329.01	13.516
329.38	13.452
329.74	12.724
330.11	13.206
330.47	13.043
330.84	12.942
331.20	12.521
331.56	14.594
331.93	12.831
332.29	12.415
332.66	14.286
333.02	12.543
333.38	12.216
333.75	13.761
334.11	12.919
334.48	12.564
334.84	13.598
335.20	12.831
335.57	12.678
335.93	12.952
336.29	12.106
336.66	13.551
337.02	12.318
337.38	12.038
337.75	12.162
338.11	13.418
338.47	11.685
338.84	11.854
339.20	11.429
339.56	12.784
339.93	12.458
340.29	11.681
340.65	12.992
341.02	13.194
341.38	12.726
341.74	12.292
342.11	11.436
342.47	11.895
342.83	11.895
343.20	12.045
343.56	11.358
343.92	11.148
344.28	12.041
344.65	11.899
345.01	11.825
345.37	11.699
345.73	12.540
346.10	11.793
346.46	11.962
346.82	11.034
347.19	11.901
347.55	11.553
347.91	11.254
348.27	10.999
348.63	12.421
349.00	12.414
349.36	11.440
349.72	12.462
350.08	11.801
350.45	11.805
350.81	12.538
351.17	11.787
351.53	11.393
351.89	10.956
352.26	10.884
352.62	11.689
352.98	12.730
353.34	12.712
353.70	10.474
354.07	12.692
354.43	11.290
354.79	10.858
355.15	11.485
355.51	11.782
355.87	12.048
356.24	11.932
356.60	11.035
356.96	10.917
357.32	11.379
357.68	11.747
358.04	12.082
358.40	12.294
358.77	11.796
359.13	11.336
359.49	10.675
359.85	11.690
360.21	11.516
360.57	11.241
360.93	10.967
361.29	11.111
361.66	11.559
362.02	10.653
362.38	11.255
362.74	11.323
363.10	11.571
363.46	10.221
363.82	11.992
364.18	12.162
364.54	11.588
364.90	11.780
365.26	11.381
365.62	11.050
365.98	11.356
366.35	10.966
366.71	11.034
367.07	10.580
367.43	12.089
367.79	11.702
368.15	10.041
368.51	11.440
368.87	10.122
369.23	11.157
369.59	12.205
369.95	11.469
370.31	10.609
370.67	11.867
371.03	11.835
371.39	11.080
371.75	10.886
372.11	11.353
372.47	11.027
372.83	11.421
373.19	11.652
373.55	10.584
373.91	10.083
374.27	10.913
374.63	10.983
374.99	11.590
375.35	11.290
375.71	11.478
376.07	10.411
376.42	9.655
376.78	11.432
377.14	10.354
377.50	9.738
377.86	10.058
378.22	10.116
378.58	11.138
378.94	10.380
379.30	10.552
379.66	10.114
380.02	10.029
380.38	9.602
380.74	11.995
381.09	10.748
381.45	9.711
381.81	9.752
382.17	10.562
382.53	10.678
382.89	10.822
383.25	9.710
383.61	10.317
383.97	10.318
384.32	10.729
384.68	10.458
385.04	10.961
385.40	11.151
385.76	10.357
386.12	10.451
386.48	10.091
386.83	10.391
387.19	10.660
387.55	10.306
387.91	10.912
388.27	10.589
388.62	10.446
388.98	9.621
389.34	9.459
389.70	9.906
390.06	9.573
390.42	9.624
390.77	10.319
391.13	10.199
391.49	10.526
391.85	10.831
392.20	10.727
392.56	10.932
392.92	10.387
393.28	10.426
393.64	10.550
393.99	10.966
394.35	10.477
394.71	9.650
395.07	9.732
395.42	10.363
395.78	9.747
396.14	10.904
396.50	9.747
396.85	9.634
397.21	10.289
397.57	10.281
397.92	10.456
398.28	9.873
398.64	10.995
399.00	9.353
399.35	10.145
399.71	9.382
400.07	9.760
400.42	9.612
400.78	9.971
401.14	9.278
401.49	9.159
401.85	10.255
402.21	10.135
402.57	9.455
402.92	10.667
403.28	9.547
403.63	9.535
403.99	9.952
404.35	9.906
404.70	10.573
405.06	9.152
405.42	9.994
405.77	10.088
406.13	9.870
406.49	9.778
406.84	9.588
407.20	10.046
407.55	10.154
407.91	11.104
408.27	10.552
408.62	10.704
408.98	10.112
409.34	9.994
409.69	9.023
410.05	10.256
410.40	10.130
410.76	9.216
411.11	9.775
411.47	10.000
411.83	9.549
412.18	10.326
412.54	9.910
412.89	8.850
413.25	10.034
413.60	9.930
413.96	9.755
414.31	9.681
414.67	9.808
415.03	10.728
415.38	10.221
415.74	10.044
416.09	10.618
416.45	11.183
416.80	10.520
417.16	9.866
417.51	10.318
417.87	10.200
418.22	10.024
418.58	9.809
418.93	9.935
419.29	9.181
419.64	10.055
420.00	10.263
420.35	9.814
420.71	10.502
421.06	9.476
421.42	9.557
421.77	9.883
422.12	9.978
422.48	9.707
422.83	10.212
423.19	9.449
423.54	9.709
423.90	10.136
424.25	9.631
424.61	9.576
424.96	9.881
425.31	9.195
425.67	9.428
426.02	8.974
426.38	9.860
426.73	9.427
427.09	9.490
427.44	9.173
427.79	8.977
428.15	10.077
428.50	9.714
428.85	9.641
429.21	9.292
429.56	9.372
429.92	9.150
430.27	9.579
430.62	9.055
430.98	9.281
431.33	9.274
431.68	8.938
432.04	10.088
432.39	9.824
432.74	9.660
433.10	9.801
433.45	9.477
433.80	9.983
434.16	9.879
434.51	9.236
434.86	9.962
435.22	9.238
435.57	9.366
435.92	10.586
436.28	10.196
436.63	10.103
436.98	9.910
437.34	9.989
437.69	8.959
438.04	10.430
438.39	9.982
438.75	9.577
439.10	9.066
439.45	9.836
439.81	10.121
440.16	10.017
440.51	9.347
440.86	9.516
441.22	8.820
441.57	9.501
441.92	10.168
442.27	9.227
442.63	9.502
442.98	10.345
443.33	10.016
443.68	9.708
444.03	9.378
444.39	9.369
444.74	9.679
445.09	9.479
445.44	9.511
445.79	9.454
446.15	10.053
446.50	9.705
446.85	9.562
447.20	9.502
447.55	9.190
447.91	10.655
448.26	9.851
448.61	9.453
448.96	10.458
449.31	9.791
449.66	8.970
450.02	9.238
450.37	10.494
450.72	9.587
451.07	10.064
451.42	10.848
451.77	10.538
452.12	9.756
452.47	10.632
452.83	10.310
453.18	10.511
453.53	9.710
453.88	11.029
454.23	10.517
454.58	10.198
454.93	9.503
455.28	10.220
455.63	10.106
455.98	9.532
456.34	9.909
456.69	10.488
457.04	10.203
457.39	9.486
457.74	10.248
458.09	9.601
458.44	10.022
458.79	9.867
459.14	9.875
459.49	10.646
459.84	9.946
460.19	10.339
460.54	9.915
460.89	9.861
461.24	10.137
461.59	10.544
461.94	10.047
462.29	10.183
462.64	10.427
462.99	10.173
463.34	11.406
463.69	10.889
464.04	10.881
464.39	9.960
464.74	10.082
465.09	9.518
465.44	10.773
465.79	10.397
466.14	10.387
466.49	9.821
466.84	9.643
467.19	10.603
467.54	9.730
467.89	10.329
468.24	9.902
468.59	9.524
468.94	10.447
469.29	10.446
469.64	11.125
469.99	10.540
470.34	10.942
470.68	10.483
471.03	9.740
471.38	10.397
471.73	10.777
472.08	11.481
472.43	10.863
472.78	10.948
473.13	10.826
473.48	10.330
473.83	10.247
474.17	11.125
474.52	10.308
474.87	9.892
475.22	10.508
475.57	9.916
475.92	9.709
476.27	10.392
476.61	10.295
476.96	9.927
477.31	9.923
477.66	10.306
478.01	9.902
478.36	9.887
478.70	10.223
479.05	10.042
479.40	10.169
479.75	9.881
480.10	10.019
480.45	9.570
480.79	9.954
481.14	9.748
481.49	9.286
481.84	9.719
482.19	10.087
482.53	9.925
482.88	10.170
483.23	10.239
483.58	10.458
483.92	10.375
484.27	10.017
484.62	10.144
484.97	9.349
485.31	8.755
485.66	8.224
486.01	8.315
486.36	7.970
486.70	8.088
487.05	8.873
487.40	8.547
487.75	9.077
488.09	9.290
488.44	9.592
488.79	8.747
489.13	9.481
489.48	9.748
489.83	10.092
490.17	9.785
490.52	9.991
490.87	10.259
491.22	10.727
491.56	9.969
491.91	9.812
492.26	10.245
492.60	10.068
492.95	9.832
493.30	10.146
493.64	10.108
493.99	10.420
494.34	9.592
494.68	9.650
495.03	10.328
495.37	10.761
495.72	10.956
496.07	9.524
496.41	10.817
496.76	10.004
497.11	10.797
497.45	10.916
497.80	10.056
498.14	10.541
498.49	10.910
498.84	11.168
499.18	9.872
499.53	10.841
499.87	9.748
500.22	10.871
500.56	10.446
500.91	11.039
501.26	10.795
501.60	10.519
501.95	9.991
502.29	10.267
502.64	10.057
502.98	10.405
503.33	10.245
503.67	10.640
504.02	10.076
504.36	10.452
504.71	10.312
505.06	10.652
505.40	10.810
505.75	10.898
506.09	10.873
506.44	10.479
506.78	10.302
507.13	10.131
507.47	10.335
507.82	11.046
508.16	11.269
508.51	10.338
508.85	10.636
509.19	10.915
509.54	10.889
509.88	11.437
510.23	11.176
510.57	9.942
510.92	10.839
511.26	10.994
511.61	10.684
511.95	11.299
512.30	11.000
512.64	10.021
512.98	11.174
513.33	10.809
513.67	11.238
514.02	11.429
514.36	10.436
514.70	10.400
515.05	10.975
515.39	11.513
515.74	11.372
516.08	11.220
516.42	11.585
516.77	10.667
517.11	11.200
517.46	11.153
517.80	11.032
518.14	10.704
518.49	10.639
518.83	10.879
519.17	11.314
519.52	10.978
519.86	12.098
520.20	12.110
520.55	11.588
520.89	11.149
521.23	10.923
521.58	11.761
521.92	11.195
522.26	11.908
522.61	11.289
522.95	12.372
523.29	11.520
523.64	11.272
523.98	11.620
524.32	11.649
524.66	11.304
525.01	11.302
525.35	11.609
525.69	12.041
526.04	12.612
526.38	11.418
526.72	11.038
527.06	11.236
527.41	12.213
527.75	12.295
528.09	11.258
528.43	12.142
528.78	11.032
529.12	11.800
529.46	10.754
529.80	12.383
530.15	11.196
530.49	11.432
530.83	11.213
531.17	11.685
531.51	11.649
531.86	11.715
532.20	11.743
532.54	11.174
532.88	11.056
533.22	11.883
533.57	11.714
533.91	11.422
534.25	11.771
534.59	11.287
534.93	12.287
535.27	11.098
535.62	11.144
535.96	11.525
536.30	11.456
536.64	10.994
536.98	11.328
537.32	12.250
537.66	11.607
538.01	11.393
538.35	11.042
538.69	11.529
539.03	10.945
539.37	11.044
539.71	11.790
540.05	11.508
540.39	11.887
540.73	12.215
541.07	11.543
541.42	11.629
541.76	11.714
542.10	10.912
542.44	12.406
542.78	10.950
543.12	11.411
543.46	11.341
543.80	11.529
544.14	11.207
544.48	11.131
544.82	11.315
545.16	10.747
545.50	11.063
545.84	11.616
546.18	11.638
546.52	12.262
546.86	11.992
547.20	11.886
547.54	11.526
547.88	11.375
548.22	11.111
548.56	11.373
548.90	11.210
549.24	12.066
549.58	11.856
549.92	11.853
550.26	11.697
550.60	11.710
550.94	12.280
551.28	12.966
551.62	12.414
551.96	12.027
552.30	11.140
552.64	11.909
552.98	10.503
553.32	11.460
553.66	11.857
554.00	11.905
554.34	11.651
554.68	12.567
555.02	11.745
555.36	11.170
555.69	11.322
556.03	12.229
556.37	11.536
556.71	12.777
557.05	10.419
557.39	12.400
557.73	12.129
558.07	12.408
558.41	11.926
558.75	12.585
559.08	11.723
559.42	12.384
559.76	12.046
560.10	11.493
560.44	12.143
560.78	12.148
561.12	10.998
561.45	10.951
561.79	11.798
562.13	11.434
562.47	10.642
562.81	11.906
563.15	11.248
563.48	11.366
563.82	11.291
564.16	12.251
564.50	11.634
564.84	11.429
565.17	11.705
565.51	11.515
565.85	12.276
566.19	10.536
566.52	10.650
566.86	10.858
567.20	12.022
567.54	11.026
567.88	10.746
568.21	10.484
568.55	11.138
568.89	11.040
569.23	10.440
569.56	10.224
569.90	9.738
570.24	9.574
570.57	9.507
570.91	9.017
571.25	9.015
571.59	8.799
571.92	9.177
572.26	8.652
572.60	8.914
572.93	9.172
573.27	8.960
573.61	8.960
573.95	8.765
574.28	8.725
574.62	8.640
574.96	8.725
575.29	8.399
575.63	8.693
575.97	8.544
576.30	8.150
576.64	8.733
576.98	8.614
577.31	8.623
577.65	8.351
577.98	8.216
578.32	8.316
578.66	8.145
578.99	8.769
579.33	8.457
579.67	8.770
580.00	8.622
580.34	8.583
580.67	8.456
581.01	8.690
581.35	8.229
581.68	8.119
582.02	8.219
582.35	8.098
582.69	8.306
583.02	8.284
583.36	8.353
583.70	8.923
584.03	8.750
584.37	8.834
584.70	8.709
585.04	8.708
585.37	8.521
585.71	8.899
586.04	8.546
586.38	8.523
586.72	8.803
587.05	8.595
587.39	8.546
587.72	8.783
588.06	8.418
588.39	8.930
588.73	8.771
589.06	8.987
589.40	9.296
589.73	9.374
590.07	9.266
590.40	9.547
590.73	10.503
591.07	9.905
591.40	9.621
591.74	9.740
592.07	9.484
592.41	9.392
592.74	9.410
593.08	8.789
593.41	8.648
593.75	8.814
594.08	9.055
594.41	9.189
594.75	9.212
595.08	9.534
595.42	9.447
595.75	9.608
596.09	9.454
596.42	9.468
596.75	9.976
597.09	9.905
597.42	9.878
597.75	9.128
598.09	9.561
598.42	9.833
598.76	9.638
599.09	9.673
599.42	8.962
599.76	9.464
600.09	9.085
600.42	9.427
600.76	9.041
601.09	9.355
601.42	9.680
601.76	9.309
602.09	9.566
602.42	9.390
602.76	9.753
603.09	9.238
603.42	9.725
603.76	9.653
604.09	9.700
604.42	9.492
604.76	9.759
605.09	9.878
605.42	10.037
605.75	9.435
606.09	9.793
606.42	9.620
606.75	9.911
607.09	9.949
607.42	9.401
607.75	9.793
608.08	9.383
608.42	9.815
608.75	9.371
609.08	9.503
609.41	9.909
609.75	9.890
610.08	10.117
610.41	9.574
610.74	10.390
611.07	9.504
611.41	10.565
611.74	10.755
612.07	10.164
612.40	9.942
612.73	10.584
613.07	10.289
613.40	10.977
613.73	10.235
614.06	9.350
614.39	10.859
614.72	10.146
615.06	10.386
615.39	10.198
615.72	10.019
616.05	10.547
616.38	10.198
616.71	10.038
617.05	9.940
617.38	10.000
617.71	10.686
618.04	10.881
618.37	10.450
618.70	10.566
619.03	10.867
619.36	11.307
619.69	10.884
620.03	12.133
620.36	11.111
620.69	11.750
621.02	11.957
621.35	11.533
621.68	11.357
622.01	12.030
622.34	11.216
622.67	13.272
623.00	11.913
623.33	11.808
623.66	11.178
623.99	12.260
624.32	11.653
624.65	11.587
624.99	11.562
625.32	11.623
625.65	11.034
625.98	11.576
626.31	11.944
626.64	10.402
626.97	11.706
627.30	11.491
627.63	12.088
627.96	11.268
628.29	11.881
628.62	11.891
628.95	12.943
629.28	12.621
629.61	12.127
629.94	12.187
630.26	13.432
630.59	13.209
630.92	12.377
631.25	13.237
631.58	13.597
631.91	13.225
632.24	12.342
632.57	13.261
632.90	13.872
633.23	15.950
633.56	14.963
633.89	13.183
634.22	13.886
634.55	14.194
634.88	15.005
635.20	14.686
635.53	14.170
635.86	13.758
636.19	13.692
636.52	13.189
636.85	14.239
637.18	15.601
637.51	13.184
637.83	13.272
638.16	14.185
638.49	16.048
638.82	14.437
639.15	12.338
639.48	14.573
639.81	15.385
640.13	14.233
640.46	14.918
640.79	13.524
641.12	14.304
641.45	14.877
641.77	14.267
642.10	13.922
642.43	15.789
642.76	15.199
643.09	14.121
643.41	14.165
643.74	15.540
644.07	15.339
644.40	15.385
644.73	15.315
645.05	17.236
645.38	16.233
645.71	16.388
646.04	16.489
646.36	16.432
646.69	16.320
647.02	17.440
647.35	15.433
647.67	15.235
648.00	17.427
648.33	16.541
648.66	17.424
648.98	15.797
649.31	12.686
649.64	15.076
649.96	14.367
650.29	13.286
650.62	16.937
650.94	15.663
651.27	15.470
651.60	17.684
651.92	15.668
652.25	15.748
652.58	15.745
652.90	15.120
653.23	15.362
653.56	15.430
653.88	15.272
654.21	15.982
654.54	15.520
654.86	15.782
655.19	15.172
655.52	11.925
655.84	7.282
656.17	7.986
656.49	11.354
656.82	12.832
657.15	10.189
657.47	8.042
657.80	6.103
658.13	5.047
658.45	6.807
658.78	8.452
659.10	8.466
659.43	9.025
659.75	9.553
660.08	10.150
660.41	12.250
660.73	15.809
661.06	15.015
661.38	16.865
661.71	15.647
662.03	16.540
662.36	16.762
662.68	15.456
663.01	18.198
663.33	16.038
663.66	17.554
663.98	17.262
664.31	19.216
664.63	17.050
664.96	18.199
665.28	16.196
665.61	17.358
665.93	17.547
666.26	16.636
666.58	18.532
666.91	18.533
667.23	17.671
667.56	18.891
667.88	18.672
668.21	18.238
668.53	16.734
668.86	19.238
669.18	18.330
669.50	16.116
669.83	18.070
670.15	16.632
670.48	16.016
670.80	16.733
671.13	15.339
671.45	18.838
671.77	16.327
672.10	17.415
672.42	14.803
672.75	14.082
673.07	15.739
673.39	13.738
673.72	13.322
674.04	17.563
674.37	15.608
674.69	16.543
675.01	13.993
675.34	13.566
675.66	19.727
675.98	17.357
676.31	17.600
676.63	16.899
676.95	19.444
677.28	17.039
677.60	16.901
677.92	18.452
678.25	18.411
678.57	17.132
678.89	18.264
679.22	17.279
679.54	16.192
679.86	16.928
680.18	15.641
680.51	14.594
680.83	14.189
681.15	16.984
681.48	17.187
681.80	16.112
682.12	16.955
682.44	15.135
682.77	16.904
683.09	16.505
683.41	15.918
683.73	16.535
684.06	16.865
684.38	17.248
684.70	17.086
685.02	16.319
685.34	16.725
685.67	15.595
685.99	15.271
686.31	15.100
686.63	16.585
686.96	15.523
687.28	13.255
687.60	14.164
687.92	15.745
688.24	16.207
688.56	15.125
688.89	15.679
689.21	15.222
689.53	17.787
689.85	17.073
690.17	17.670
690.49	16.331
690.82	17.437
691.14	17.172
691.46	17.043
691.78	17.349
692.10	16.412
692.42	16.878
692.74	15.698
693.06	17.442
693.39	16.403
693.71	17.878
694.03	18.540
694.35	18.876
694.67	18.330
694.99	18.404
695.31	18.018
695.63	16.516
695.95	14.480
696.27	20.796
696.59	18.616
696.91	17.468
697.23	17.873
697.56	14.938
697.88	11.776
698.20	17.170
698.52	14.202
698.84	18.275
699.16	17.910
699.48	16.102
699.80	20.915
700.12	18.707
700.44	17.757
700.76	20.048
701.08	18.799
701.40	19.740
701.72	22.460
702.04	21.138
702.36	19.892
702.68	18.883
703.00	17.544
703.32	19.603
703.64	18.388
703.96	16.927
704.28	20.106
704.60	18.028
704.91	21.569
705.23	20.170
705.55	22.552
705.87	18.095
706.19	21.630
706.51	25.392
706.83	23.304
707.15	19.519
707.47	19.855
707.79	19.770
708.11	18.821
708.43	17.528
708.74	15.158
709.06	18.837
709.38	17.866
709.70	17.439
710.02	19.022
710.34	19.613
710.66	20.833
710.98	19.945
711.29	20.334
711.61	21.448
711.93	18.845
712.25	16.265
712.57	20.900
712.89	21.212
713.20	21.086
713.52	20.561
713.84	21.148
714.16	19.130
714.48	13.833
714.80	18.699
715.11	17.819
715.43	17.877
715.75	20.282
716.07	17.630
716.39	20.571
716.70	21.184
717.02	24.916
717.34	21.223
717.66	22.569
717.97	22.348
718.29	22.535
718.61	20.608
718.93	22.491
719.24	22.819
719.56	18.621
719.88	17.834
720.20	20.645
720.51	22.222
720.83	22.408
721.15	21.769
721.46	26.027
721.78	24.390
722.10	21.528
722.42	23.077
722.73	22.383
723.05	22.456
723.37	26.855
723.68	22.656
724.00	22.727
724.32	23.574
724.63	21.923
724.95	21.569
725.27	23.420
725.58	22.059
725.90	16.549
726.22	20.548
726.53	22.742
726.85	26.059
727.16	19.463
727.48	18.272
727.80	19.784
728.11	23.571
728.43	17.029
728.74	25.524
729.06	17.204
729.38	20.702
729.69	23.000
730.01	25.987
730.32	19.463
730.64	20.598
730.96	23.123
731.27	13.456
731.59	15.805
731.90	20.056
732.22	20.571
732.53	17.379
732.85	22.515
733.16	17.470
733.48	18.809
733.80	20.000
734.11	23.620
734.43	16.374
734.74	18.231
735.06	18.783
735.37	16.753
735.69	18.261
736.00	20.183
736.32	16.970
736.63	13.565
736.95	16.770
737.26	21.037
737.58	19.939
737.89	15.060
738.21	19.536
738.52	18.060
738.83	24.176
739.15	21.603
739.46	21.034
739.78	18.027
740.09	22.449
740.41	16.564
740.72	18.730
741.04	20.280
741.35	20.703
741.66	21.344
741.98	25.751
742.29	25.463
742.61	24.779
742.92	25.847
743.23	19.600
743.55	18.868
743.86	22.745
744.18	26.695
744.49	25.207
744.80	24.424
745.12	23.214
745.43	27.570
745.74	23.556
746.06	23.246
746.37	27.907
746.68	22.124
747.00	21.076
747.31	22.689
747.62	20.902
747.94	21.888
748.25	22.568
748.56	22.881
748.88	24.554
749.19	24.651
749.50	21.461
749.82	24.280
750.13	25.692
750.44	19.667
750.75	18.456
751.07	19.408
751.38	19.142
751.69	20.875
752.01	19.580
752.32	20.598
752.63	21.477
752.94	21.329
753.26	24.219
753.57	23.346
753.88	20.599
754.19	22.022
754.51	18.605
754.82	19.463
755.13	23.649
755.44	23.704
755.75	24.399
756.07	18.836
756.38	19.935
756.69	19.375
757.00	21.662
757.31	18.592
757.63	15.978
757.94	18.085
758.25	17.150
758.56	17.391
758.87	19.298
759.18	20.058
759.50	19.453
759.81	19.585
760.12	15.730
760.43	19.328
760.74	17.468
761.05	17.507
761.36	17.448
761.67	19.407
761.99	20.000
762.30	19.936
762.61	17.361
762.92	20.076
763.23	23.019
763.54	19.615
763.85	18.677
764.16	19.792
764.47	19.595
764.78	19.870
765.10	19.512
765.41	15.625
765.72	19.061
766.03	18.127
766.34	14.983
766.65	20.152
766.96	22.267
767.27	26.636
767.58	21.782
767.89	29.282
768.20	34.756
768.51	21.939
768.82	23.246
769.13	21.569
769.44	19.549
769.75	20.225
770.06	19.328
770.37	20.175
770.68	21.333
770.99	22.458
771.30	20.921
771.61	22.308
771.92	21.374
772.23	22.984
772.54	24.889
772.85	29.703
773.16	23.370
773.47	24.444
773.78	25.743
774.09	29.545
774.39	24.848
774.70	27.059
775.01	26.316
775.32	32.298
775.63	28.082
775.94	38.272
776.25	31.034
776.56	31.298
776.87	32.061
777.18	37.121
777.48	46.457
777.79	39.231
778.10	31.061
778.41	33.582
778.72	36.090
779.03	28.846
779.34	28.378
779.65	29.814
779.95	30.435
780.26	30.952
780.57	32.653
780.88	36.879
781.19	37.500
781.50	33.136
781.80	28.415
782.11	21.164
782.42	26.437
782.73	25.424
783.04	31.613
783.34	27.907
783.65	26.531
783.96	32.903
784.27	21.192
784.57	24.342
784.88	42.754
785.19	30.833
785.50	39.655
785.81	36.434
786.11	37.037
786.42	27.559
786.73	45.946
787.04	41.509
787.34	29.268
787.65	40.909
787.96	37.121
788.26	40.157
788.57	42.336
788.88	27.465
789.19	34.351
789.49	45.270
789.80	31.250
790.11	34.711
790.41	30.556
790.72	42.593
791.03	42.308
791.33	38.384
791.64	29.474
791.95	35.789
792.25	56.250
792.56	39.000
792.87	40.244
793.17	56.818
793.48	38.824
793.79	60.920
794.09	44.318
794.40	48.276
794.70	37.302
795.01	29.231
795.32	23.664
795.62	29.915
795.93	36.134
796.23	43.089
796.54	38.776
796.85	39.773
797.15	62.338
797.46	58.537
797.76	36.250
798.07	57.333
798.37	47.500
798.68	52.500
798.99	54.878
799.29	38.667
799.60	36.047
799.90	48.684
800.21	54.545
800.51	63.380
800.82	37.931
801.12	69.231
801.43	72.000
801.73	56.897
802.04	42.857
802.34	52.055
802.65	78.431
802.95	78.261
803.26	75.806
803.56	70.000
803.87	67.164
804.17	68.254
804.48	62.264
804.78	50.000
805.09	71.212
805.39	57.143
805.70	75.439
806.00	67.143
806.30	54.687
806.61	49.412
806.91	53.333
807.22	31.522
807.52	44.737
807.83	53.947
808.13	43.478
808.43	58.065
808.74	56.164
809.04	53.571
809.35	58.824
809.65	78.788
809.95	74.510
810.26	72.222
810.56	67.187
810.86	51.020
811.17	75.439
811.47	71.739
811.77	50.000
812.08	63.793
812.38	73.810
812.69	71.429
812.99	62.222
813.29	82.857
813.59	93.548
813.90	48.276
814.20	73.770
814.50	60.000
814.81	47.368
815.11	85.185
815.41	71.429
815.72	78.571
816.02	80.000
816.32	97.561
816.62	74.138
816.93	93.939
817.23	107.317
817.53	71.429
817.84	73.333
818.14	66.667
818.44	68.750
818.74	81.132
819.04	92.308
819.35	84.848
819.65	84.615
819.95	98.148
820.25	106.383
820.56	124.324
820.86	76.316
821.16	68.085
821.46	110.526
821.76	67.273
822.07	71.429
822.37	71.053
822.67	95.349
822.97	78.947
823.27	73.913
823.57	109.375
823.88	97.436
824.18	127.273
824.48	100.000
824.78	94.444
825.08	134.783
825.38	137.931
825.69	73.529
825.99	59.574
826.29	75.000
826.59	108.571
826.89	116.667
827.19	74.286
827.49	87.097
827.79	119.231
828.09	80.952
828.39	88.889
828.70	83.784
829.00	125.000
829.30	193.750
829.60	88.889
829.90	106.452
830.20	103.030
830.50	124.324
830.80	108.333
831.10	161.538
831.40	133.333
831.70	133.333
832.00	96.667
832.30	104.348
832.60	162.500
832.90	121.212
833.20	155.000
833.50	113.158
833.80	108.824
834.10	100.000
834.40	168.421
834.70	90.000
835.00	108.000
835.30	83.784
835.60	121.875
835.90	97.297
836.20	111.538
836.50	77.273
836.80	100.000
837.10	100.000
837.40	292.308
837.70	94.737
838.00	100.000
838.30	158.333
838.60	140.000
838.90	350.000
839.19	206.250
839.49	120.000
839.79	96.552
840.09	173.077
840.39	153.333
840.69	189.474
840.99	95.238
841.29	113.043
841.59	180.000
841.88	144.000
842.18	244.444
842.48	146.429
842.78	125.926
843.08	169.231
843.38	131.818
843.68	257.143
843.97	342.857
844.27	165.217
844.57	1550.000
844.87	228.571
845.17	200.000
845.47	128.571
845.76	162.500
846.06	471.429
846.36	211.765
846.66	223.077
846.96	175.000
847.25	153.846
847.55	178.947
847.85	122.222
848.15	580.000
848.44	300.000
848.74	161.905
849.04	154.167
849.34	200.000
849.63	237.500
849.93	162.500
850.23	766.667
850.53	412.500
850.82	272.727
851.12	135.294
851.42	116.667
851.71	225.000
852.01	0.000
852.31	235.294
852.61	340.000
852.90	137.500
853.20	333.333
853.50	-1900.000
853.79	128.000
854.09	125.000
854.39	137.931
854.68	113.793
854.98	161.905
855.28	129.032
855.57	221.429
855.87	127.778
856.17	114.815
856.46	163.158
856.76	119.355
857.05	211.765
857.35	200.000
857.65	261.538
857.94	175.000
858.24	300.000
858.53	285.714
858.83	585.714
859.13	169.565
859.42	244.444
859.72	300.000
860.01	283.333
860.31	725.000
860.60	370.000
860.90	337.500
861.20	300.000
861.49	428.571
861.79	-3000.000
862.08	500.000
862.38	344.444
862.67	250.000
862.97	350.000
863.26	103.333
863.56	825.000
863.85	338.462
864.15	200.000
864.44	172.222
864.74	333.333
865.03	309.091
865.33	337.500
865.62	233.333
865.92	500.000
866.21	800.000
866.51	640.000
866.80	205.556
867.10	966.667
867.39	3300.000
867.69	720.000
867.98	1000.000
868.27	171.429
868.57	246.667
868.86	750.000
869.16	119.048
869.45	2700.000
869.75	-433.333
870.04	675.000
870.33	620.000
870.63	387.500
870.92	176.471
871.22	650.000
871.51	371.429
871.80	333.333
872.10	207.692
>>>>>End Processed Spectral Data<<<<<
