SpectraSuite Data File
++++++++++++++++++++++++++++++++++++
Date: Tue May 12 17:15:27 PDT 2015
User: schluterlab
Dark Spectrum Present: Yes
Reference Spectrum Present: Yes
Number of Sampled Component Spectra: 1
Spectrometers: USB2E3373
Integration Time (usec): 3000 (USB2E3373)
Spectra Averaged: 3 (USB2E3373)
Boxcar Smoothing: 0 (USB2E3373)
Correct for Electrical Dark: No (USB2E3373)
Strobe/Lamp Enabled: No (USB2E3373)
Correct for Detector Non-linearity: No (USB2E3373)
Correct for Stray Light: No (USB2E3373)
Number of Pixels in Processed Spectrum: 2048
>>>>>Begin Processed Spectral Data<<<<<
178.53	0.000
178.91	-175.000
179.29	-675.000
179.67	-2900.000
180.04	-100.000
180.42	600.000
180.80	1750.000
181.18	0.000
181.56	-387.500
181.94	0.000
182.31	1233.333
182.69	-2800.000
183.07	585.714
183.45	-3700.000
183.83	-1450.000
184.20	330.000
184.58	542.857
184.96	-238.462
185.34	-208.333
185.72	1800.000
186.09	-775.000
186.47	-2700.000
186.85	900.000
187.23	480.000
187.61	1900.000
187.98	450.000
188.36	257.143
188.74	266.667
189.12	358.333
189.49	650.000
189.87	0.000
190.25	462.500
190.63	2400.000
191.00	-266.667
191.38	-3600.000
191.76	-800.000
192.14	512.500
192.51	-2600.000
192.89	1850.000
193.27	1166.667
193.65	-1100.000
194.02	-620.000
194.40	457.143
194.78	-207.143
195.15	280.000
195.53	-2900.000
195.91	-500.000
196.29	2900.000
196.66	243.750
197.04	825.000
197.42	-1250.000
197.79	600.000
198.17	258.333
198.55	0.000
198.92	500.000
199.30	1333.333
199.68	1900.000
200.05	650.000
200.43	-466.667
200.81	166.667
201.18	3000.000
201.56	225.000
201.94	-700.000
202.31	-375.000
202.69	-560.000
203.07	3700.000
203.44	-583.333
203.82	325.000
204.19	860.000
204.57	-1700.000
204.95	-700.000
205.32	-740.000
205.70	516.667
206.08	575.000
206.45	-933.333
206.83	366.667
207.20	221.053
207.58	258.333
207.96	760.000
208.33	0.000
208.71	585.714
209.08	700.000
209.46	-2800.000
209.84	-750.000
210.21	760.000
210.59	-520.000
210.96	308.333
211.34	-875.000
211.71	390.909
212.09	950.000
212.46	1700.000
212.84	-383.333
213.22	322.222
213.59	-2200.000
213.97	350.000
214.34	650.000
214.72	1100.000
215.09	933.333
215.47	-3300.000
215.84	-370.000
216.22	-312.500
216.59	0.000
216.97	0.000
217.34	1100.000
217.72	-1700.000
218.09	933.333
218.47	400.000
218.84	825.000
219.22	1100.000
219.59	966.667
219.97	471.429
220.34	288.889
220.72	1650.000
221.09	2400.000
221.47	225.000
221.84	966.667
222.22	280.000
222.59	316.667
222.97	221.429
223.34	187.500
223.72	-1550.000
224.09	1333.333
224.46	323.077
224.84	-700.000
225.21	411.111
225.59	246.667
225.96	1200.000
226.34	-640.000
226.71	-775.000
227.08	-660.000
227.46	0.000
227.83	-433.333
228.21	-1450.000
228.58	433.333
228.95	1025.000
229.33	344.444
229.70	925.000
230.08	369.231
230.45	3300.000
230.82	-600.000
231.20	-800.000
231.57	-900.000
231.95	500.000
232.32	225.000
232.69	533.333
233.07	216.667
233.44	-1250.000
233.81	233.333
234.19	151.852
234.56	231.250
234.93	129.412
235.31	180.000
235.68	143.750
236.05	114.286
236.43	148.148
236.80	185.714
237.17	127.586
237.55	106.250
237.92	87.500
238.29	96.970
238.67	121.875
239.04	80.488
239.41	47.917
239.79	47.500
240.16	54.167
240.53	50.820
240.91	44.928
241.28	49.153
241.65	46.970
242.02	52.113
242.40	48.571
242.77	50.549
243.14	30.380
243.51	45.455
243.89	30.841
244.26	30.841
244.63	32.673
245.00	26.606
245.38	24.576
245.75	19.697
246.12	25.185
246.49	21.986
246.87	18.852
247.24	24.667
247.61	28.125
247.98	17.007
248.36	17.576
248.73	21.429
249.10	10.714
249.47	18.000
249.84	18.408
250.22	15.135
250.59	19.500
250.96	16.878
251.33	16.744
251.70	17.411
252.08	14.706
252.45	14.343
252.82	14.829
253.19	11.462
253.56	10.769
253.94	13.406
254.31	12.403
254.68	12.195
255.05	14.138
255.42	10.584
255.79	12.052
256.16	11.525
256.54	12.013
256.91	11.765
257.28	10.702
257.65	6.897
258.02	8.850
258.39	14.040
258.76	10.435
259.14	8.000
259.51	11.662
259.88	11.854
260.25	7.692
260.62	12.603
260.99	6.336
261.36	6.407
261.73	9.309
262.10	10.995
262.47	8.750
262.85	7.467
263.22	9.254
263.59	9.463
263.96	9.273
264.33	7.901
264.70	10.319
265.07	9.512
265.44	11.009
265.81	8.255
266.18	9.153
266.55	8.747
266.92	9.396
267.29	8.333
267.66	8.520
268.03	5.381
268.40	7.400
268.77	9.251
269.14	7.375
269.51	6.904
269.88	10.000
270.25	5.184
270.62	4.721
270.99	7.302
271.36	10.163
271.73	6.080
272.10	7.071
272.47	6.944
272.84	5.589
273.21	6.198
273.58	8.704
273.95	6.571
274.32	8.366
274.69	8.661
275.06	7.468
275.43	8.046
275.80	6.226
276.17	7.904
276.54	8.037
276.91	7.090
277.28	7.299
277.65	7.011
278.02	5.331
278.39	6.655
278.76	5.690
279.13	6.584
279.50	5.636
279.87	4.097
280.23	5.157
280.60	5.839
280.97	7.931
281.34	6.601
281.71	6.261
282.08	7.009
282.45	4.561
282.82	6.522
283.19	7.313
283.56	7.603
283.92	5.375
284.29	6.489
284.66	6.555
285.03	5.970
285.40	5.785
285.77	4.938
286.14	7.276
286.51	6.748
286.87	5.380
287.24	4.505
287.61	6.079
287.98	4.179
288.35	4.444
288.72	5.311
289.08	6.607
289.45	5.640
289.82	5.469
290.19	5.564
290.56	7.278
290.93	5.899
291.29	6.077
291.66	5.226
292.03	5.189
292.40	5.691
292.77	3.760
293.13	5.278
293.50	4.184
293.87	5.556
294.24	5.594
294.60	5.384
294.97	5.035
295.34	4.250
295.71	5.388
296.08	5.067
296.44	4.320
296.81	5.087
297.18	2.788
297.55	4.187
297.91	3.202
298.28	5.072
298.65	4.908
299.02	4.222
299.38	4.676
299.75	3.780
300.12	6.078
300.48	5.386
300.85	4.887
301.22	4.535
301.59	2.948
301.95	4.201
302.32	4.889
302.69	5.656
303.05	5.836
303.42	4.596
303.79	4.225
304.15	3.410
304.52	5.920
304.89	4.264
305.25	4.894
305.62	5.437
305.99	4.457
306.35	3.895
306.72	3.954
307.09	4.658
307.45	4.224
307.82	4.835
308.19	4.536
308.55	4.400
308.92	4.809
309.29	5.621
309.65	4.658
310.02	3.753
310.38	3.589
310.75	3.954
311.12	4.885
311.48	7.046
311.85	5.630
312.22	4.871
312.58	4.082
312.95	4.854
313.31	5.056
313.68	4.690
314.05	5.678
314.41	3.631
314.78	5.114
315.14	5.118
315.51	5.014
315.87	4.562
316.24	5.509
316.61	5.551
316.97	5.046
317.34	5.121
317.70	5.707
318.07	5.694
318.43	5.624
318.80	5.954
319.16	5.245
319.53	5.221
319.89	5.556
320.26	5.866
320.62	6.136
320.99	5.910
321.35	5.566
321.72	7.211
322.08	6.279
322.45	6.994
322.81	5.764
323.18	6.750
323.54	5.923
323.91	5.893
324.27	6.278
324.64	5.536
325.00	6.724
325.37	5.902
325.73	5.649
326.10	6.877
326.46	5.945
326.83	5.600
327.19	7.149
327.56	5.911
327.92	6.639
328.29	7.447
328.65	8.219
329.01	6.758
329.38	7.107
329.74	5.722
330.11	6.864
330.47	6.650
330.84	6.816
331.20	7.022
331.56	6.390
331.93	7.442
332.29	6.888
332.66	7.398
333.02	7.131
333.38	6.370
333.75	7.089
334.11	6.711
334.48	6.410
334.84	7.770
335.20	6.758
335.57	7.221
335.93	7.149
336.29	5.473
336.66	7.033
337.02	6.245
337.38	6.707
337.75	7.432
338.11	7.173
338.47	6.774
338.84	6.520
339.20	6.407
339.56	6.897
339.93	6.689
340.29	5.462
340.65	7.041
341.02	7.321
341.38	6.650
341.74	6.063
342.11	6.093
342.47	6.317
342.83	7.629
343.20	7.276
343.56	5.163
343.92	6.276
344.28	6.300
344.65	5.297
345.01	6.032
345.37	5.689
345.73	6.190
346.10	5.179
346.46	7.257
346.82	5.633
347.19	7.110
347.55	6.167
347.91	6.344
348.27	5.422
348.63	6.962
349.00	6.321
349.36	6.070
349.72	6.881
350.08	6.444
350.45	6.321
350.81	6.346
351.17	5.085
351.53	6.390
351.89	6.138
352.26	5.971
352.62	6.938
352.98	5.675
353.34	6.394
353.70	5.810
354.07	5.385
354.43	5.069
354.79	5.543
355.15	5.896
355.51	5.967
355.87	6.777
356.24	5.312
356.60	5.784
356.96	4.928
357.32	5.350
357.68	5.580
358.04	6.535
358.40	6.372
358.77	5.259
359.13	6.006
359.49	5.263
359.85	5.510
360.21	4.978
360.57	5.693
360.93	5.195
361.29	4.762
361.66	6.189
362.02	4.688
362.38	5.267
362.74	5.662
363.10	5.820
363.46	4.696
363.82	6.452
364.18	5.903
364.54	5.508
364.90	6.225
365.26	6.037
365.62	5.663
365.98	4.886
366.35	4.483
366.71	5.482
367.07	5.529
367.43	6.044
367.79	6.051
368.15	4.885
368.51	5.651
368.87	5.095
369.23	5.336
369.59	5.394
369.95	5.734
370.31	5.202
370.67	6.037
371.03	5.952
371.39	5.055
371.75	5.722
372.11	5.710
372.47	5.479
372.83	5.099
373.19	6.032
373.55	5.636
373.91	5.249
374.27	4.894
374.63	4.610
374.99	4.852
375.35	4.637
375.71	4.881
376.07	4.642
376.42	4.476
376.78	5.395
377.14	5.177
377.50	4.744
377.86	4.612
378.22	5.119
378.58	5.387
378.94	4.647
379.30	4.427
379.66	4.515
380.02	5.513
380.38	3.747
380.74	5.306
381.09	5.374
381.45	4.393
381.81	4.905
382.17	4.518
382.53	4.499
382.89	4.494
383.25	4.500
383.61	5.014
383.97	4.199
384.32	4.461
384.68	5.882
385.04	5.510
385.40	4.448
385.76	3.979
386.12	5.009
386.48	3.830
386.83	4.523
387.19	4.240
387.55	5.183
387.91	5.370
388.27	4.640
388.62	4.871
388.98	4.723
389.34	3.986
389.70	4.068
390.06	4.329
390.42	4.627
390.77	4.975
391.13	4.104
391.49	4.053
391.85	4.985
392.20	5.066
392.56	4.719
392.92	3.874
393.28	4.652
393.64	3.440
393.99	4.624
394.35	4.061
394.71	4.463
395.07	4.136
395.42	4.508
395.78	4.688
396.14	5.482
396.50	3.791
396.85	4.756
397.21	3.971
397.57	4.423
397.92	3.524
398.28	3.530
398.64	4.188
399.00	4.222
399.35	3.704
399.71	3.974
400.07	4.053
400.42	4.239
400.78	4.282
401.14	4.404
401.49	3.859
401.85	4.114
402.21	3.691
402.57	4.129
402.92	4.121
403.28	3.580
403.63	4.709
403.99	4.463
404.35	5.275
404.70	4.312
405.06	3.593
405.42	3.471
405.77	4.079
406.13	4.393
406.49	3.582
406.84	3.835
407.20	4.224
407.55	4.369
407.91	4.595
408.27	4.427
408.62	4.376
408.98	3.489
409.34	3.682
409.69	3.858
410.05	4.234
410.40	3.004
410.76	3.434
411.11	3.199
411.47	4.259
411.83	3.866
412.18	3.865
412.54	4.144
412.89	3.422
413.25	4.219
413.60	4.439
413.96	3.471
414.31	3.660
414.67	3.538
415.03	3.576
415.38	3.975
415.74	3.538
416.09	4.622
416.45	4.331
416.80	4.233
417.16	3.310
417.51	4.268
417.87	4.380
418.22	3.463
418.58	3.758
418.93	3.629
419.29	3.758
419.64	4.300
420.00	4.594
420.35	2.846
420.71	3.501
421.06	3.473
421.42	3.685
421.77	3.831
422.12	3.418
422.48	4.160
422.83	3.627
423.19	3.564
423.54	3.730
423.90	3.737
424.25	4.018
424.61	3.366
424.96	3.219
425.31	3.667
425.67	3.367
426.02	3.646
426.38	3.559
426.73	4.049
427.09	3.974
427.44	3.489
427.79	3.316
428.15	4.243
428.50	3.886
428.85	3.821
429.21	3.458
429.56	4.586
429.92	3.481
430.27	3.628
430.62	3.965
430.98	3.892
431.33	3.730
431.68	3.210
432.04	3.673
432.39	4.226
432.74	3.923
433.10	3.876
433.45	3.561
433.80	4.192
434.16	3.678
434.51	4.231
434.86	3.919
435.22	3.782
435.57	4.268
435.92	4.155
436.28	4.435
436.63	4.214
436.98	4.673
437.34	4.452
437.69	3.639
438.04	3.871
438.39	4.145
438.75	4.733
439.10	4.371
439.45	4.692
439.81	3.875
440.16	4.238
440.51	3.885
440.86	4.729
441.22	3.788
441.57	4.357
441.92	3.998
442.27	3.608
442.63	3.709
442.98	3.933
443.33	4.178
443.68	3.924
444.03	3.864
444.39	4.096
444.74	4.037
445.09	4.265
445.44	3.826
445.79	3.558
446.15	3.842
446.50	4.114
446.85	3.835
447.20	3.881
447.55	3.698
447.91	4.582
448.26	3.994
448.61	4.201
448.96	4.303
449.31	4.400
449.66	4.707
450.02	3.944
450.37	4.609
450.72	4.628
451.07	4.654
451.42	4.624
451.77	4.066
452.12	4.594
452.47	4.800
452.83	4.958
453.18	4.925
453.53	4.322
453.88	4.743
454.23	4.765
454.58	4.312
454.93	4.721
455.28	4.774
455.63	4.551
455.98	5.133
456.34	4.802
456.69	4.390
457.04	4.356
457.39	4.457
457.74	4.561
458.09	4.099
458.44	4.600
458.79	4.668
459.14	3.873
459.49	5.096
459.84	4.565
460.19	4.689
460.54	4.786
460.89	4.371
461.24	4.754
461.59	4.478
461.94	4.787
462.29	4.691
462.64	5.214
462.99	5.118
463.34	4.796
463.69	5.808
464.04	4.260
464.39	4.808
464.74	4.279
465.09	4.817
465.44	4.407
465.79	4.028
466.14	4.081
466.49	4.178
466.84	3.846
467.19	4.979
467.54	4.685
467.89	4.988
468.24	4.343
468.59	5.536
468.94	4.408
469.29	4.582
469.64	5.723
469.99	5.206
470.34	5.376
470.68	4.414
471.03	4.937
471.38	5.298
471.73	5.029
472.08	5.545
472.43	5.338
472.78	5.186
473.13	5.006
473.48	4.890
473.83	4.476
474.17	4.498
474.52	5.569
474.87	4.548
475.22	4.683
475.57	4.827
475.92	4.343
476.27	3.808
476.61	4.718
476.96	4.650
477.31	4.884
477.66	4.831
478.01	4.384
478.36	4.789
478.70	4.069
479.05	3.818
479.40	4.663
479.75	4.767
480.10	4.550
480.45	4.155
480.79	4.654
481.14	3.661
481.49	4.575
481.84	4.222
482.19	4.498
482.53	4.831
482.88	3.719
483.23	3.789
483.58	3.905
483.92	5.347
484.27	4.623
484.62	4.839
484.97	4.246
485.31	4.011
485.66	3.664
486.01	3.739
486.36	3.356
486.70	3.140
487.05	3.635
487.40	3.632
487.75	3.838
488.09	4.062
488.44	3.983
488.79	3.922
489.13	3.733
489.48	4.195
489.83	4.170
490.17	4.294
490.52	4.091
490.87	4.698
491.22	3.856
491.56	4.743
491.91	4.077
492.26	4.499
492.60	4.282
492.95	4.259
493.30	4.231
493.64	4.313
493.99	4.919
494.34	4.348
494.68	4.471
495.03	4.535
495.37	4.953
495.72	4.755
496.07	4.492
496.41	4.431
496.76	4.854
497.11	5.099
497.45	4.954
497.80	4.217
498.14	4.577
498.49	4.596
498.84	5.280
499.18	4.433
499.53	4.685
499.87	4.403
500.22	4.192
500.56	4.503
500.91	5.009
501.26	4.915
501.60	4.554
501.95	4.256
502.29	4.444
502.64	4.720
502.98	4.669
503.33	4.143
503.67	4.945
504.02	4.075
504.36	4.480
504.71	4.872
505.06	4.740
505.40	4.679
505.75	5.051
506.09	5.366
506.44	4.699
506.78	5.246
507.13	4.702
507.47	4.609
507.82	5.304
508.16	5.047
508.51	4.444
508.85	4.891
509.19	4.846
509.54	5.615
509.88	5.420
510.23	4.755
510.57	4.778
510.92	4.645
511.26	5.020
511.61	4.677
511.95	5.127
512.30	5.200
512.64	4.569
512.98	5.074
513.33	5.072
513.67	5.075
514.02	4.519
514.36	5.400
514.70	4.533
515.05	4.102
515.39	4.715
515.74	5.522
516.08	4.739
516.42	5.847
516.77	4.853
517.11	5.493
517.46	5.603
517.80	4.970
518.14	4.958
518.49	5.127
518.83	4.286
519.17	5.491
519.52	5.352
519.86	5.831
520.20	5.479
520.55	5.144
520.89	5.287
521.23	5.607
521.58	5.278
521.92	5.190
522.26	5.273
522.61	5.882
522.95	5.285
523.29	5.497
523.64	4.393
523.98	5.399
524.32	5.075
524.66	5.391
525.01	4.497
525.35	5.480
525.69	5.599
526.04	6.187
526.38	5.238
526.72	5.788
527.06	5.618
527.41	6.227
527.75	4.991
528.09	5.298
528.43	5.186
528.78	5.903
529.12	5.659
529.46	5.319
529.80	5.374
530.15	5.186
530.49	5.355
530.83	5.302
531.17	5.658
531.51	5.089
531.86	5.254
532.20	5.501
532.54	5.587
532.88	5.746
533.22	5.972
533.57	4.759
533.91	5.186
534.25	5.309
534.59	6.316
534.93	5.802
535.27	5.065
535.62	4.726
535.96	4.846
536.30	5.728
536.64	5.093
536.98	5.475
537.32	6.313
537.66	5.230
538.01	6.316
538.35	5.614
538.69	4.915
539.03	4.540
539.37	5.097
539.71	5.926
540.05	5.723
540.39	5.409
540.73	5.380
541.07	5.082
541.42	5.037
541.76	6.473
542.10	4.932
542.44	5.798
542.78	5.538
543.12	5.521
543.46	5.702
543.80	5.514
544.14	5.944
544.48	5.779
544.82	5.688
545.16	5.039
545.50	5.716
545.84	5.556
546.18	5.852
546.52	5.836
546.86	5.932
547.20	5.297
547.54	5.763
547.88	5.049
548.22	5.161
548.56	5.716
548.90	5.872
549.24	6.064
549.58	5.090
549.92	6.090
550.26	5.950
550.60	5.256
550.94	6.649
551.28	6.138
551.62	6.345
551.96	5.878
552.30	4.746
552.64	5.890
552.98	5.026
553.32	4.930
553.66	6.840
554.00	5.084
554.34	5.992
554.68	5.309
555.02	5.024
555.36	5.984
555.69	5.759
556.03	6.051
556.37	5.354
556.71	6.389
557.05	4.784
557.39	5.200
557.73	6.334
558.07	6.506
558.41	6.032
558.75	6.977
559.08	6.147
559.42	5.154
559.76	5.916
560.10	5.712
560.44	5.640
560.78	6.330
561.12	5.976
561.45	4.819
561.79	6.117
562.13	5.433
562.47	4.997
562.81	5.530
563.15	5.882
563.48	5.280
563.82	5.490
564.16	6.032
564.50	5.304
564.84	6.079
565.17	5.823
565.51	5.049
565.85	5.861
566.19	5.476
566.52	5.054
566.86	5.779
567.20	5.506
567.54	4.531
567.88	5.112
568.21	4.943
568.55	4.815
568.89	5.292
569.23	4.745
569.56	4.952
569.90	4.671
570.24	4.566
570.57	4.543
570.91	4.087
571.25	4.093
571.59	3.779
571.92	4.198
572.26	3.342
572.60	3.916
572.93	4.255
573.27	3.992
573.61	4.169
573.95	3.959
574.28	3.951
574.62	3.726
574.96	3.775
575.29	3.781
575.63	3.934
575.97	3.870
576.30	3.822
576.64	3.795
576.98	3.877
577.31	4.031
577.65	3.873
577.98	3.848
578.32	3.717
578.66	3.519
578.99	4.049
579.33	4.037
579.67	3.854
580.00	3.944
580.34	3.979
580.67	3.691
581.01	4.060
581.35	3.796
581.68	3.526
582.02	3.768
582.35	3.413
582.69	3.691
583.02	3.531
583.36	3.902
583.70	4.058
584.03	4.002
584.37	4.190
584.70	3.782
585.04	3.831
585.37	3.877
585.71	4.090
586.04	3.911
586.38	3.950
586.72	3.990
587.05	4.323
587.39	4.071
587.72	4.001
588.06	4.172
588.39	3.813
588.73	4.331
589.06	4.114
589.40	4.319
589.73	4.556
590.07	5.010
590.40	4.739
590.73	5.362
591.07	4.972
591.40	4.192
591.74	4.586
592.07	4.742
592.41	4.836
592.74	4.101
593.08	4.264
593.41	4.159
593.75	4.070
594.08	4.866
594.41	4.431
594.75	4.315
595.08	4.767
595.42	4.970
595.75	4.541
596.09	4.623
596.42	4.443
596.75	4.728
597.09	4.622
597.42	4.245
597.75	4.381
598.09	5.170
598.42	4.529
598.76	4.780
599.09	4.671
599.42	4.637
599.76	4.953
600.09	4.169
600.42	4.420
600.76	4.181
601.09	4.556
601.42	4.400
601.76	4.726
602.09	4.746
602.42	4.288
602.76	4.516
603.09	4.638
603.42	4.624
603.76	4.591
604.09	4.307
604.42	4.595
604.76	4.781
605.09	4.571
605.42	5.120
605.75	4.501
606.09	4.705
606.42	4.547
606.75	4.742
607.09	4.264
607.42	4.299
607.75	4.697
608.08	4.387
608.42	4.572
608.75	4.279
609.08	4.531
609.41	4.955
609.75	5.082
610.08	4.721
610.41	5.446
610.74	5.281
611.07	5.275
611.41	4.356
611.74	4.924
612.07	4.239
612.40	5.019
612.73	5.292
613.07	4.257
613.40	5.363
613.73	5.092
614.06	4.500
614.39	5.404
614.72	4.219
615.06	4.253
615.39	5.149
615.72	4.356
616.05	5.023
616.38	5.479
616.71	5.589
617.05	4.997
617.38	4.607
617.71	4.724
618.04	4.767
618.37	4.780
618.70	4.677
619.03	5.250
619.36	5.653
619.69	5.013
620.03	5.936
620.36	5.202
620.69	5.939
621.02	6.250
621.35	5.444
621.68	5.605
622.01	6.052
622.34	5.244
622.67	6.320
623.00	5.174
623.33	5.398
623.66	5.389
623.99	5.753
624.32	5.623
624.65	5.464
624.99	4.936
625.32	6.480
625.65	5.586
625.98	5.579
626.31	5.490
626.64	5.391
626.97	5.126
627.30	5.280
627.63	6.044
627.96	5.008
628.29	5.281
628.62	6.074
628.95	6.472
629.28	6.047
629.61	6.503
629.94	6.396
630.26	6.586
630.59	7.890
630.92	5.830
631.25	7.434
631.58	6.654
631.91	6.851
632.24	6.803
632.57	5.697
632.90	6.522
633.23	7.240
633.56	6.955
633.89	5.788
634.22	6.243
634.55	6.559
634.88	8.215
635.20	6.614
635.53	6.852
635.86	7.494
636.19	6.846
636.52	7.135
636.85	6.149
637.18	7.584
637.51	6.257
637.83	5.835
638.16	7.268
638.49	8.024
638.82	8.685
639.15	5.640
639.48	7.346
639.81	7.204
640.13	6.626
640.46	7.080
640.79	7.152
641.12	6.299
641.45	8.538
641.77	7.662
642.10	8.434
642.43	7.255
642.76	7.955
643.09	7.637
643.41	7.994
643.74	7.914
644.07	8.702
644.40	7.988
644.73	9.159
645.05	8.618
645.38	8.270
645.71	8.194
646.04	9.008
646.36	7.668
646.69	7.840
647.02	8.480
647.35	5.984
647.67	7.293
648.00	7.818
648.33	9.925
648.66	6.970
648.98	7.536
649.31	7.557
649.64	4.841
649.96	5.974
650.29	7.286
650.62	7.806
650.94	9.036
651.27	8.931
651.60	7.825
651.92	9.677
652.25	9.449
652.58	7.801
652.90	7.485
653.23	7.386
653.56	8.160
653.88	7.342
654.21	8.798
654.54	7.321
654.86	6.785
655.19	7.916
655.52	6.218
655.84	2.878
656.17	3.013
656.49	4.201
656.82	4.600
657.15	4.038
657.47	2.978
657.80	2.283
658.13	1.900
658.45	2.432
658.78	3.147
659.10	3.058
659.43	3.629
659.75	3.550
660.08	4.449
660.41	5.989
660.73	8.407
661.06	7.658
661.38	9.199
661.71	8.633
662.03	7.414
662.36	8.571
662.68	9.870
663.01	11.532
663.33	8.868
663.66	8.876
663.98	9.325
664.31	11.567
664.63	9.962
664.96	10.319
665.28	10.169
665.61	8.491
665.93	7.547
666.26	7.850
666.58	10.642
666.91	8.494
667.23	8.434
667.56	7.598
667.88	12.241
668.21	9.221
668.53	7.258
668.86	11.222
669.18	9.572
669.50	9.091
669.83	11.499
670.15	9.148
670.48	7.812
670.80	9.761
671.13	8.765
671.45	9.218
671.77	12.801
672.10	9.156
672.42	6.908
672.75	7.437
673.07	8.744
673.39	7.508
673.72	7.266
674.04	9.498
674.37	10.889
674.69	10.781
675.01	9.142
675.34	7.946
675.66	9.375
675.98	9.862
676.31	9.600
676.63	8.549
676.95	8.929
677.28	8.722
677.60	8.451
677.92	7.341
678.25	9.884
678.57	8.939
678.89	10.307
679.22	8.272
679.54	9.786
679.86	8.377
680.18	7.733
680.51	6.799
680.83	7.095
681.15	8.492
681.48	9.549
681.80	8.231
682.12	10.208
682.44	6.486
682.77	10.676
683.09	10.680
683.41	7.143
683.73	10.630
684.06	8.135
684.38	9.496
684.70	10.072
685.02	8.333
685.34	7.746
685.67	8.360
685.99	8.210
686.31	8.166
686.63	8.455
686.96	9.641
687.28	8.221
687.60	8.874
687.92	9.045
688.24	10.172
688.56	8.541
688.89	7.457
689.21	10.597
689.53	9.486
689.85	7.114
690.17	8.738
690.49	10.887
690.82	8.193
691.14	10.101
691.46	9.446
691.78	9.162
692.10	9.542
692.42	7.623
692.74	10.271
693.06	10.078
693.39	8.498
693.71	11.198
694.03	10.454
694.35	12.249
694.67	10.183
694.99	10.643
695.31	11.036
695.63	9.050
695.95	9.502
696.27	10.841
696.59	9.308
696.91	9.873
697.23	10.633
697.56	7.469
697.88	5.988
698.20	9.623
698.52	7.588
698.84	9.446
699.16	10.235
699.48	7.627
699.80	11.765
700.12	12.240
700.44	10.981
700.76	11.933
701.08	8.094
701.40	10.909
701.72	13.904
702.04	14.092
702.36	12.366
702.68	11.436
703.00	9.524
703.32	14.640
703.64	9.572
703.96	10.937
704.28	11.640
704.60	11.831
704.91	10.364
705.23	12.500
705.55	13.056
705.87	10.159
706.19	12.853
706.51	15.047
706.83	13.274
707.15	13.636
707.47	8.717
707.79	10.115
708.11	7.483
708.43	10.337
708.74	7.919
709.06	10.698
709.38	11.911
709.70	9.809
710.02	13.043
710.34	11.878
710.66	13.333
710.98	11.202
711.29	11.978
711.61	16.156
711.93	9.726
712.25	7.229
712.57	9.968
712.89	14.242
713.20	13.738
713.52	13.707
713.84	15.408
714.16	10.435
714.48	6.628
714.80	12.195
715.11	9.840
715.43	10.894
715.75	9.296
716.07	10.694
716.39	10.000
716.70	12.773
717.02	12.795
717.34	15.468
717.66	14.931
717.97	19.318
718.29	14.437
718.61	11.824
718.93	13.841
719.24	14.430
719.56	13.793
719.88	10.828
720.20	15.806
720.51	10.458
720.83	15.050
721.15	15.986
721.46	13.356
721.78	12.544
722.10	14.236
722.42	14.716
722.73	6.859
723.05	15.789
723.37	17.314
723.68	12.891
724.00	13.636
724.32	12.928
724.63	16.154
724.95	16.863
725.27	16.729
725.58	16.544
725.90	14.437
726.22	13.699
726.53	14.047
726.85	12.704
727.16	15.772
727.48	15.947
727.80	13.669
728.11	17.143
728.43	15.942
728.74	13.986
729.06	12.903
729.38	14.386
729.69	16.000
730.01	12.829
730.32	13.423
730.64	14.950
730.96	14.414
731.27	8.563
731.59	9.483
731.90	13.092
732.22	10.000
732.53	10.826
732.85	13.158
733.16	9.036
733.48	11.912
733.80	14.783
734.11	14.417
734.43	11.696
734.74	9.920
735.06	12.698
735.37	10.052
735.69	8.696
736.00	13.761
736.32	9.394
736.63	10.410
736.95	12.422
737.26	12.195
737.58	11.350
737.89	15.663
738.21	13.245
738.52	13.712
738.83	16.117
739.15	14.634
739.46	13.103
739.78	11.905
740.09	13.994
740.41	12.270
740.72	12.698
741.04	17.483
741.35	12.891
741.66	16.601
741.98	15.880
742.29	16.667
742.61	13.717
742.92	15.678
743.23	10.400
743.55	14.717
743.86	14.118
744.18	14.407
744.49	20.248
744.80	13.364
745.12	18.750
745.43	18.224
745.74	14.667
746.06	11.404
746.37	15.349
746.68	21.239
747.00	17.489
747.31	16.807
747.62	15.574
747.94	20.172
748.25	16.342
748.56	18.644
748.88	12.946
749.19	15.349
749.50	15.068
749.82	16.872
750.13	18.972
750.44	13.333
750.75	15.101
751.07	12.171
751.38	13.201
751.69	15.825
752.01	11.538
752.32	10.963
752.63	16.443
752.94	15.035
753.26	14.453
753.57	17.899
753.88	13.109
754.19	12.635
754.51	14.618
754.82	16.779
755.13	16.892
755.44	15.185
755.75	18.900
756.07	14.041
756.38	13.072
756.69	11.875
757.00	16.024
757.31	10.704
757.63	12.121
757.94	9.574
758.25	13.043
758.56	10.984
758.87	11.779
759.18	11.628
759.50	12.766
759.81	12.463
760.12	12.640
760.43	9.524
760.74	15.443
761.05	10.610
761.36	7.292
761.67	12.129
761.99	12.113
762.30	8.682
762.61	14.583
762.92	10.227
763.23	14.340
763.54	11.923
763.85	13.619
764.16	14.931
764.47	11.149
764.78	9.121
765.10	9.146
765.41	9.943
765.72	11.326
766.03	7.553
766.34	8.362
766.65	15.970
766.96	17.409
767.27	18.224
767.58	22.772
767.89	18.232
768.20	31.098
768.51	18.878
768.82	20.614
769.13	14.118
769.44	16.541
769.75	16.479
770.06	15.966
770.37	10.965
770.68	15.111
770.99	16.525
771.30	16.736
771.61	16.538
771.92	18.321
772.23	15.323
772.54	16.889
772.85	19.802
773.16	19.565
773.47	21.111
773.78	17.327
774.09	26.136
774.39	21.212
774.70	22.941
775.01	15.789
775.32	25.466
775.63	16.438
775.94	35.802
776.25	22.069
776.56	27.481
776.87	32.824
777.18	15.909
777.48	36.220
777.79	26.923
778.10	25.758
778.41	22.388
778.72	21.805
779.03	19.231
779.34	21.622
779.65	19.876
779.95	17.391
780.26	20.833
780.57	27.211
780.88	20.567
781.19	24.167
781.50	26.036
781.80	21.858
782.11	21.693
782.42	18.391
782.73	23.729
783.04	21.290
783.34	14.729
783.65	21.088
783.96	32.903
784.27	22.517
784.57	21.711
784.88	26.087
785.19	22.500
785.50	24.138
785.81	32.558
786.11	18.519
786.42	26.772
786.73	22.523
787.04	41.509
787.34	22.764
787.65	38.636
787.96	29.545
788.26	33.858
788.57	30.657
788.88	20.423
789.19	25.954
789.49	27.703
789.80	25.000
790.11	33.884
790.41	26.852
790.72	25.000
791.03	38.462
791.33	31.313
791.64	31.579
791.95	33.684
792.25	35.417
792.56	33.000
792.87	46.341
793.17	45.455
793.48	38.824
793.79	33.333
794.09	28.409
794.40	45.690
794.70	29.365
795.01	19.231
795.32	29.008
795.62	30.769
795.93	36.134
796.23	33.333
796.54	40.816
796.85	38.636
797.15	54.545
797.46	56.098
797.76	36.250
798.07	48.000
798.37	42.500
798.68	41.250
798.99	56.098
799.29	37.333
799.60	32.558
799.90	32.895
800.21	37.879
800.51	42.254
800.82	48.276
801.12	49.231
801.43	42.667
801.73	51.724
802.04	45.455
802.34	35.616
802.65	62.745
802.95	43.478
803.26	75.806
803.56	80.000
803.87	46.269
804.17	47.619
804.48	41.509
804.78	54.167
805.09	66.667
805.39	63.492
805.70	66.667
806.00	44.286
806.30	45.312
806.61	47.059
806.91	52.222
807.22	30.435
807.52	50.000
807.83	59.211
808.13	43.478
808.43	61.290
808.74	45.205
809.04	55.357
809.35	60.294
809.65	57.576
809.95	58.824
810.26	74.074
810.56	68.750
810.86	44.898
811.17	71.930
811.47	80.435
811.77	60.345
812.08	58.621
812.38	97.619
812.69	95.238
812.99	60.000
813.29	82.857
813.59	122.581
813.90	51.724
814.20	67.213
814.50	66.000
814.81	38.596
815.11	66.667
815.41	67.857
815.72	83.929
816.02	88.000
816.32	100.000
816.62	51.724
816.93	87.879
817.23	102.439
817.53	71.429
817.84	57.778
818.14	69.048
818.44	79.167
818.74	75.472
819.04	64.103
819.35	115.152
819.65	88.462
819.95	100.000
820.25	87.234
820.56	97.297
820.86	94.737
821.16	40.426
821.46	97.368
821.76	85.455
822.07	52.381
822.37	81.579
822.67	88.372
822.97	52.632
823.27	93.478
823.57	65.625
823.88	87.179
824.18	90.909
824.48	95.652
824.78	91.667
825.08	91.304
825.38	100.000
825.69	108.824
825.99	78.723
826.29	77.778
826.59	120.000
826.89	113.333
827.19	68.571
827.49	116.129
827.79	150.000
828.09	57.143
828.39	91.667
828.70	75.676
829.00	132.143
829.30	193.750
829.60	113.889
829.90	154.839
830.20	84.848
830.50	105.405
830.80	129.167
831.10	165.385
831.40	100.000
831.70	133.333
832.00	103.333
832.30	169.565
832.60	129.167
832.90	136.364
833.20	175.000
833.50	97.368
833.80	79.412
834.10	89.474
834.40	115.789
834.70	66.667
835.00	140.000
835.30	91.892
835.60	100.000
835.90	86.486
836.20	130.769
836.50	136.364
836.80	78.049
837.10	117.391
837.40	246.154
837.70	115.789
838.00	126.667
838.30	137.500
838.60	128.000
838.90	280.000
839.19	168.750
839.49	123.333
839.79	93.103
840.09	103.846
840.39	253.333
840.69	136.842
840.99	104.762
841.29	178.261
841.59	160.000
841.88	112.000
842.18	233.333
842.48	107.143
842.78	140.741
843.08	161.538
843.38	136.364
843.68	185.714
843.97	342.857
844.27	130.435
844.57	1350.000
844.87	235.714
845.17	161.111
845.47	100.000
845.76	158.333
846.06	385.714
846.36	182.353
846.66	215.385
846.96	225.000
847.25	207.692
847.55	189.474
847.85	166.667
848.15	600.000
848.44	336.364
848.74	142.857
849.04	179.167
849.34	129.412
849.63	231.250
849.93	156.250
850.23	1100.000
850.53	412.500
850.82	281.818
851.12	147.059
851.42	187.500
851.71	250.000
852.01	0.000
852.31	217.647
852.61	360.000
852.90	137.500
853.20	344.444
853.50	-2100.000
853.79	164.000
854.09	134.375
854.39	127.586
854.68	120.690
854.98	171.429
855.28	103.226
855.57	242.857
855.87	138.889
856.17	122.222
856.46	178.947
856.76	122.581
857.05	170.588
857.35	227.273
857.65	184.615
857.94	155.000
858.24	344.444
858.53	142.857
858.83	528.571
859.13	178.261
859.42	144.444
859.72	362.500
860.01	250.000
860.31	850.000
860.60	280.000
860.90	325.000
861.20	253.846
861.49	357.143
861.79	-3300.000
862.08	571.429
862.38	322.222
862.67	178.571
862.97	350.000
863.26	140.000
863.56	675.000
863.85	223.077
864.15	300.000
864.44	155.556
864.74	216.667
865.03	318.182
865.33	362.500
865.62	186.667
865.92	466.667
866.21	800.000
866.51	460.000
866.80	183.333
867.10	933.333
867.39	2900.000
867.69	520.000
867.98	700.000
868.27	161.905
868.57	266.667
868.86	775.000
869.16	166.667
869.45	2200.000
869.75	-400.000
870.04	825.000
870.33	660.000
870.63	400.000
870.92	164.706
871.22	775.000
871.51	471.429
871.80	291.667
872.10	284.615
>>>>>End Processed Spectral Data<<<<<
