SpectraSuite Data File
++++++++++++++++++++++++++++++++++++
Date: Tue May 12 17:11:15 PDT 2015
User: schluterlab
Dark Spectrum Present: Yes
Reference Spectrum Present: Yes
Number of Sampled Component Spectra: 1
Spectrometers: USB2E3373
Integration Time (usec): 3000 (USB2E3373)
Spectra Averaged: 3 (USB2E3373)
Boxcar Smoothing: 0 (USB2E3373)
Correct for Electrical Dark: No (USB2E3373)
Strobe/Lamp Enabled: No (USB2E3373)
Correct for Detector Non-linearity: No (USB2E3373)
Correct for Stray Light: No (USB2E3373)
Number of Pixels in Processed Spectrum: 2048
>>>>>Begin Processed Spectral Data<<<<<
178.53	0.000
178.91	-225.000
179.29	-650.000
179.67	-3400.000
180.04	-93.333
180.42	425.000
180.80	1500.000
181.18	0.000
181.56	-287.500
181.94	0.000
182.31	900.000
182.69	-2800.000
183.07	542.857
183.45	-3400.000
183.83	-1300.000
184.20	310.000
184.58	500.000
184.96	-169.231
185.34	-183.333
185.72	1950.000
186.09	-725.000
186.47	-2600.000
186.85	966.667
187.23	520.000
187.61	2150.000
187.98	487.500
188.36	200.000
188.74	291.667
189.12	333.333
189.49	750.000
189.87	0.000
190.25	387.500
190.63	3800.000
191.00	-225.000
191.38	-3300.000
191.76	-700.000
192.14	500.000
192.51	-2200.000
192.89	1700.000
193.27	933.333
193.65	-1100.000
194.02	-840.000
194.40	428.571
194.78	-142.857
195.15	193.333
195.53	-2600.000
195.91	-420.000
196.29	3800.000
196.66	256.250
197.04	925.000
197.42	-1150.000
197.79	600.000
198.17	233.333
198.55	0.000
198.92	471.429
199.30	1166.667
199.68	2200.000
200.05	583.333
200.43	-433.333
200.81	216.667
201.18	2900.000
201.56	250.000
201.94	-625.000
202.31	-287.500
202.69	-380.000
203.07	2300.000
203.44	-516.667
203.82	266.667
204.19	640.000
204.57	-1500.000
204.95	-875.000
205.32	-520.000
205.70	550.000
206.08	600.000
206.45	-600.000
206.83	300.000
207.20	121.053
207.58	233.333
207.96	640.000
208.33	0.000
208.71	385.714
209.08	820.000
209.46	-2800.000
209.84	-675.000
210.21	960.000
210.59	-500.000
210.96	291.667
211.34	-875.000
211.71	354.545
212.09	650.000
212.46	1350.000
212.84	-350.000
213.22	344.444
213.59	-2800.000
213.97	270.000
214.34	1025.000
214.72	1000.000
215.09	1033.333
215.47	-2600.000
215.84	-250.000
216.22	-362.500
216.59	0.000
216.97	0.000
217.34	900.000
217.72	-1100.000
218.09	966.667
218.47	375.000
218.84	800.000
219.22	1166.667
219.59	766.667
219.97	600.000
220.34	322.222
220.72	1500.000
221.09	2000.000
221.47	191.667
221.84	833.333
222.22	200.000
222.59	272.222
222.97	214.286
223.34	231.250
223.72	-1350.000
224.09	1266.667
224.46	253.846
224.84	-850.000
225.21	411.111
225.59	213.333
225.96	1000.000
226.34	-700.000
226.71	-550.000
227.08	-500.000
227.46	0.000
227.83	-316.667
228.21	-1450.000
228.58	341.667
228.95	875.000
229.33	300.000
229.70	950.000
230.08	307.692
230.45	2600.000
230.82	-900.000
231.20	-1066.667
231.57	-866.667
231.95	600.000
232.32	225.000
232.69	550.000
233.07	266.667
233.44	-1350.000
233.81	186.667
234.19	144.444
234.56	231.250
234.93	170.588
235.31	160.000
235.68	262.500
236.05	121.429
236.43	133.333
236.80	164.286
237.17	117.241
237.55	90.625
237.92	115.000
238.29	84.848
238.67	131.250
239.04	78.049
239.41	56.250
239.79	72.500
240.16	45.833
240.53	49.180
240.91	52.174
241.28	62.712
241.65	31.818
242.02	56.338
242.40	51.429
242.77	48.352
243.14	34.177
243.51	46.465
243.89	26.168
244.26	31.776
244.63	43.564
245.00	33.028
245.38	24.576
245.75	28.030
246.12	35.556
246.49	25.532
246.87	18.033
247.24	24.667
247.61	26.250
247.98	28.571
248.36	17.576
248.73	27.041
249.10	19.048
249.47	22.500
249.84	16.418
250.22	22.162
250.59	20.000
250.96	19.409
251.33	14.884
251.70	18.750
252.08	20.168
252.45	17.928
252.82	16.350
253.19	15.810
253.56	15.000
253.94	18.116
254.31	16.667
254.68	16.725
255.05	16.207
255.42	17.153
255.79	19.218
256.16	14.237
256.54	16.234
256.91	15.359
257.28	14.381
257.65	12.226
258.02	11.504
258.39	14.327
258.76	16.232
259.14	12.857
259.51	13.703
259.88	13.374
260.25	12.912
260.62	14.795
260.99	10.468
261.36	11.699
261.73	13.032
262.10	13.089
262.47	13.750
262.85	11.467
263.22	14.653
263.59	11.253
263.96	13.534
264.33	13.086
264.70	13.022
265.07	12.439
265.44	11.009
265.81	10.849
266.18	11.442
266.55	10.638
266.92	10.291
267.29	12.939
267.66	9.865
268.03	10.762
268.40	10.148
268.77	15.198
269.14	11.497
269.51	11.804
269.88	12.857
270.25	9.719
270.62	12.446
270.99	13.590
271.36	12.398
271.73	10.901
272.10	12.121
272.47	10.714
272.84	10.379
273.21	8.264
273.58	9.514
273.95	9.856
274.32	11.089
274.69	11.811
275.06	11.475
275.43	10.536
275.80	10.000
276.17	11.581
276.54	12.150
276.91	13.060
277.28	10.584
277.65	10.148
278.02	12.684
278.39	11.151
278.76	11.207
279.13	9.253
279.50	8.182
279.87	10.615
280.23	8.656
280.60	9.124
280.97	10.862
281.34	10.231
281.71	11.304
282.08	10.598
282.45	9.966
282.82	7.358
283.19	10.970
283.56	10.579
283.92	10.586
284.29	9.817
284.66	8.739
285.03	9.121
285.40	9.091
285.77	8.796
286.14	11.455
286.51	10.429
286.87	7.911
287.24	7.958
287.61	9.726
287.98	9.851
288.35	9.926
288.72	8.042
289.08	8.408
289.45	9.451
289.82	10.781
290.19	9.517
290.56	11.063
290.93	10.935
291.29	10.912
291.66	10.169
292.03	10.659
292.40	9.214
292.77	8.635
293.13	9.700
293.50	10.256
293.87	8.672
294.24	10.490
294.60	11.709
294.97	10.629
295.34	10.890
295.71	9.593
296.08	10.400
296.44	10.928
296.81	10.670
297.18	9.886
297.55	10.591
297.91	10.222
298.28	10.386
298.65	12.393
299.02	10.253
299.38	11.990
299.75	11.707
300.12	12.041
300.48	13.349
300.85	11.919
301.22	11.977
301.59	12.736
301.95	11.085
302.32	12.456
302.69	11.652
303.05	12.346
303.42	12.556
303.79	12.568
304.15	12.541
304.52	11.734
304.89	13.113
305.25	13.237
305.62	13.326
305.99	11.413
306.35	12.737
306.72	12.695
307.09	12.629
307.45	13.622
307.82	12.654
308.19	13.196
308.55	13.200
308.92	13.837
309.29	15.286
309.65	13.380
310.02	14.909
310.38	11.864
310.75	13.308
311.12	13.410
311.48	14.961
311.85	13.740
312.22	15.282
312.58	13.800
312.95	15.631
313.31	14.232
313.68	14.259
314.05	15.934
314.41	14.618
314.78	15.152
315.14	15.735
315.51	15.799
315.87	15.237
316.24	16.340
316.61	16.920
316.97	16.147
317.34	17.430
317.70	15.716
318.07	17.883
318.43	17.223
318.80	17.075
319.16	17.045
319.53	16.460
319.89	18.100
320.26	19.646
320.62	18.132
320.99	17.350
321.35	18.089
321.72	19.639
322.08	18.744
322.45	17.439
322.81	18.481
323.18	19.538
323.54	20.732
323.91	20.580
324.27	19.717
324.64	19.464
325.00	21.034
325.37	20.742
325.73	20.236
326.10	21.210
326.46	23.039
326.83	20.320
327.19	21.285
327.56	20.927
327.92	21.967
328.29	21.522
328.65	23.459
329.01	22.498
329.38	22.589
329.74	21.776
330.11	24.414
330.47	22.762
330.84	22.347
331.20	22.081
331.56	22.193
331.93	23.182
332.29	21.854
332.66	22.704
333.02	22.852
333.38	23.386
333.75	22.435
334.11	23.154
334.48	22.991
334.84	22.804
335.20	23.524
335.57	22.166
335.93	21.362
336.29	22.471
336.66	22.642
337.02	22.241
337.38	22.958
337.75	23.057
338.11	22.785
338.47	22.439
338.84	22.777
339.20	21.818
339.56	21.699
339.93	21.656
340.29	20.756
340.65	22.967
341.02	23.652
341.38	21.429
341.74	22.674
342.11	21.452
342.47	20.673
342.83	24.118
343.20	23.040
343.56	21.366
343.92	22.543
344.28	22.807
344.65	23.146
345.01	21.825
345.37	22.516
345.73	21.587
346.10	22.629
346.46	22.648
346.82	21.991
347.19	22.025
347.55	21.780
347.91	21.450
348.27	21.534
348.63	22.706
349.00	20.716
349.36	22.568
349.72	22.554
350.08	22.904
350.45	21.782
350.81	23.089
351.17	21.495
351.53	21.709
351.89	22.222
352.26	21.618
352.62	21.644
352.98	22.393
353.34	22.804
353.70	21.865
354.07	23.231
354.43	22.965
354.79	22.323
355.15	22.205
355.51	22.432
355.87	23.645
356.24	23.249
356.60	22.983
356.96	21.304
357.32	23.286
357.68	21.806
358.04	22.264
358.40	23.388
358.77	23.065
359.13	22.072
359.49	23.128
359.85	23.157
360.21	22.660
360.57	22.774
360.93	22.799
361.29	22.294
361.66	22.893
362.02	21.094
362.38	23.232
362.74	23.284
363.10	23.142
363.46	22.169
363.82	23.212
364.18	22.902
364.54	23.605
364.90	22.892
365.26	23.595
365.62	22.030
365.98	21.679
366.35	23.103
366.71	22.970
367.07	22.457
367.43	22.700
367.79	22.872
368.15	23.474
368.51	23.088
368.87	22.486
369.23	21.968
369.59	22.320
369.95	23.566
370.31	22.724
370.67	22.831
371.03	23.319
371.39	22.645
371.75	22.749
372.11	23.182
372.47	22.877
372.83	22.910
373.19	22.892
373.55	22.887
373.91	22.997
374.27	23.280
374.63	23.525
374.99	22.844
375.35	23.185
375.71	23.351
376.07	22.944
376.42	22.251
376.78	23.699
377.14	23.132
377.50	22.909
377.86	22.998
378.22	22.913
378.58	24.153
378.94	23.235
379.30	23.772
379.66	23.480
380.02	23.343
380.38	22.190
380.74	23.472
381.09	23.715
381.45	21.792
381.81	23.404
382.17	22.772
382.53	23.515
382.89	23.655
383.25	22.499
383.61	23.285
383.97	23.335
384.32	23.629
384.68	24.183
385.04	23.740
385.40	22.835
385.76	22.352
386.12	24.242
386.48	22.857
386.83	24.389
387.19	23.322
387.55	23.322
387.91	22.979
388.27	23.260
388.62	22.829
388.98	23.265
389.34	22.308
389.70	23.054
390.06	24.024
390.42	22.764
390.77	22.113
391.13	23.295
391.49	22.807
391.85	23.692
392.20	24.017
392.56	22.820
392.92	22.122
393.28	22.422
393.64	21.846
393.99	21.992
394.35	22.837
394.71	21.773
395.07	22.080
395.42	23.419
395.78	23.381
396.14	23.253
396.50	22.924
396.85	22.500
397.21	23.466
397.57	22.833
397.92	21.606
398.28	22.118
398.64	22.571
399.00	22.074
399.35	21.417
399.71	22.406
400.07	22.374
400.42	23.045
400.78	22.463
401.14	23.958
401.49	22.120
401.85	22.538
402.21	22.027
402.57	22.861
402.92	22.485
403.28	22.136
403.63	21.660
403.99	22.075
404.35	22.919
404.70	22.032
405.06	22.179
405.42	21.544
405.77	21.610
406.13	22.451
406.49	21.433
406.84	21.658
407.20	22.146
407.55	22.092
407.91	22.463
408.27	22.195
408.62	22.058
408.98	21.940
409.34	21.800
409.69	21.780
410.05	21.765
410.40	21.731
410.76	21.866
411.11	22.453
411.47	21.790
411.83	20.680
412.18	21.739
412.54	21.922
412.89	21.357
413.25	21.779
413.60	21.086
413.96	22.442
414.31	21.606
414.67	22.160
415.03	21.264
415.38	22.965
415.74	21.541
416.09	21.611
416.45	22.301
416.80	22.130
417.16	21.897
417.51	21.401
417.87	21.715
418.22	21.264
418.58	21.847
418.93	22.070
419.29	20.949
419.64	21.926
420.00	23.150
420.35	21.777
420.71	21.120
421.06	21.778
421.42	21.244
421.77	21.821
422.12	21.334
422.48	21.418
422.83	22.433
423.19	22.246
423.54	21.777
423.90	21.631
424.25	21.464
424.61	21.764
424.96	21.118
425.31	22.113
425.67	22.222
426.02	21.705
426.38	22.229
426.73	21.457
427.09	22.123
427.44	21.384
427.79	21.670
428.15	23.335
428.50	22.343
428.85	22.281
429.21	21.772
429.56	21.785
429.92	22.079
430.27	21.722
430.62	21.488
430.98	21.657
431.33	21.421
431.68	21.432
432.04	22.297
432.39	23.052
432.74	22.248
433.10	21.927
433.45	22.401
433.80	23.276
434.16	22.386
434.51	22.910
434.86	23.353
435.22	21.286
435.57	22.999
435.92	22.709
436.28	22.696
436.63	22.582
436.98	23.086
437.34	21.747
437.69	21.613
438.04	23.172
438.39	22.475
438.75	21.938
439.10	22.666
439.45	22.329
439.81	22.788
440.16	22.124
440.51	21.959
440.86	22.393
441.22	22.348
441.57	23.097
441.92	22.211
442.27	23.247
442.63	21.951
442.98	22.360
443.33	22.978
443.68	22.384
444.03	22.997
444.39	23.305
444.74	21.739
445.09	22.328
445.44	22.901
445.79	22.856
446.15	22.842
446.50	22.627
446.85	22.460
447.20	21.791
447.55	22.403
447.91	23.069
448.26	22.950
448.61	23.328
448.96	22.658
449.31	22.827
449.66	22.979
450.02	22.528
450.37	23.043
450.72	22.755
451.07	23.386
451.42	22.940
451.77	23.139
452.12	23.483
452.47	23.998
452.83	23.606
453.18	23.063
453.53	23.446
453.88	22.914
454.23	23.126
454.58	24.009
454.93	22.747
455.28	23.133
455.63	23.168
455.98	22.673
456.34	23.891
456.69	23.354
457.04	23.449
457.39	22.857
457.74	23.705
458.09	22.684
458.44	23.001
458.79	22.493
459.14	22.149
459.49	23.273
459.84	22.228
460.19	23.729
460.54	23.134
460.89	23.188
461.24	23.425
461.59	23.866
461.94	23.168
462.29	23.455
462.64	23.681
462.99	22.841
463.34	23.331
463.69	23.291
464.04	24.525
464.39	23.297
464.74	22.392
465.09	22.461
465.44	22.089
465.79	23.081
466.14	22.417
466.49	22.789
466.84	22.464
467.19	22.964
467.54	23.003
467.89	23.122
468.24	22.525
468.59	24.286
468.94	23.188
469.29	23.885
469.64	24.373
469.99	23.329
470.34	22.834
470.68	23.793
471.03	23.349
471.38	24.238
471.73	22.926
472.08	24.984
472.43	24.084
472.78	24.136
473.13	22.591
473.48	23.105
473.83	23.616
474.17	22.614
474.52	23.578
474.87	22.911
475.22	23.529
475.57	22.980
475.92	23.812
476.27	22.633
476.61	22.359
476.96	23.250
477.31	23.342
477.66	23.779
478.01	22.331
478.36	22.915
478.70	23.127
479.05	22.960
479.40	22.569
479.75	22.890
480.10	23.669
480.45	22.876
480.79	23.088
481.14	22.349
481.49	22.141
481.84	22.603
482.19	23.100
482.53	22.793
482.88	22.357
483.23	22.508
483.58	22.980
483.92	23.172
484.27	22.346
484.62	22.453
484.97	22.400
485.31	22.044
485.66	20.980
486.01	20.257
486.36	20.180
486.70	19.957
487.05	20.386
487.40	21.011
487.75	20.799
488.09	21.051
488.44	20.809
488.79	21.798
489.13	22.060
489.48	22.813
489.83	22.269
490.17	22.048
490.52	21.964
490.87	22.802
491.22	22.651
491.56	23.057
491.91	21.953
492.26	23.163
492.60	22.961
492.95	22.565
493.30	22.839
493.64	23.270
493.99	22.585
494.34	22.098
494.68	22.089
495.03	22.901
495.37	23.233
495.72	22.517
496.07	22.462
496.41	23.328
496.76	23.174
497.11	23.093
497.45	23.323
497.80	23.401
498.14	23.070
498.49	23.538
498.84	23.925
499.18	22.578
499.53	23.151
499.87	22.417
500.22	23.031
500.56	22.331
500.91	23.191
501.26	23.610
501.60	22.996
501.95	22.357
502.29	22.622
502.64	22.585
502.98	22.143
503.33	22.851
503.67	22.870
504.02	22.481
504.36	22.715
504.71	23.415
505.06	23.510
505.40	22.649
505.75	23.433
506.09	23.378
506.44	23.543
506.78	23.204
507.13	23.073
507.47	22.902
507.82	24.623
508.16	24.204
508.51	23.961
508.85	23.837
509.19	24.082
509.54	24.268
509.88	23.471
510.23	24.265
510.57	23.311
510.92	23.776
511.26	24.297
511.61	24.225
511.95	23.096
512.30	24.150
512.64	23.261
512.98	23.783
513.33	24.641
513.67	24.806
514.02	24.364
514.36	23.936
514.70	24.960
515.05	23.655
515.39	25.219
515.74	25.369
516.08	25.000
516.42	25.519
516.77	24.747
517.11	25.387
517.46	24.892
517.80	25.068
518.14	25.296
518.49	24.476
518.83	23.791
519.17	25.125
519.52	25.396
519.86	24.741
520.20	25.699
520.55	25.155
520.89	25.345
521.23	25.292
521.58	25.416
521.92	25.481
522.26	25.296
522.61	26.857
522.95	26.246
523.29	24.912
523.64	25.029
523.98	25.880
524.32	25.606
524.66	25.159
525.01	25.385
525.35	25.692
525.69	26.791
526.04	26.413
526.38	25.721
526.72	25.776
527.06	25.606
527.41	26.360
527.75	25.806
528.09	25.828
528.43	26.113
528.78	25.045
529.12	26.490
529.46	25.599
529.80	24.883
530.15	25.810
530.49	26.053
530.83	26.143
531.17	25.892
531.51	26.303
531.86	25.604
532.20	24.969
532.54	24.984
532.88	26.421
533.22	27.361
533.57	26.052
533.91	24.942
534.25	25.620
534.59	25.029
534.93	24.858
535.27	24.075
535.62	25.088
535.96	25.414
536.30	26.021
536.64	25.714
536.98	24.355
537.32	26.625
537.66	26.148
538.01	25.944
538.35	26.014
538.69	25.364
539.03	25.622
539.37	25.243
539.71	26.358
540.05	24.985
540.39	25.723
540.73	24.810
541.07	24.592
541.42	25.560
541.76	25.462
542.10	26.017
542.44	25.374
542.78	26.054
543.12	24.601
543.46	25.627
543.80	25.940
544.14	25.573
544.48	25.912
544.82	25.688
545.16	24.529
545.50	25.507
545.84	26.263
546.18	26.658
546.52	26.885
546.86	26.112
547.20	25.646
547.54	26.156
547.88	26.034
548.22	25.865
548.56	24.808
548.90	24.792
549.24	25.332
549.58	25.000
549.92	25.933
550.26	25.152
550.60	25.482
550.94	26.730
551.28	27.172
551.62	27.034
551.96	26.419
552.30	25.643
552.64	27.314
552.98	25.451
553.32	25.544
553.66	26.124
554.00	26.577
554.34	26.298
554.68	25.941
555.02	24.779
555.36	25.000
555.69	25.720
556.03	25.478
556.37	25.558
556.71	26.662
557.05	25.426
557.39	26.467
557.73	27.291
558.07	26.425
558.41	26.045
558.75	25.855
559.08	27.520
559.42	27.344
559.76	26.728
560.10	26.703
560.44	26.410
560.78	26.662
561.12	25.175
561.45	25.344
561.79	24.906
562.13	24.005
562.47	24.919
562.81	26.090
563.15	24.758
563.48	24.596
563.82	25.203
564.16	25.062
564.50	25.859
564.84	25.593
565.17	25.431
565.51	25.677
565.85	25.170
566.19	25.833
566.52	24.910
566.86	25.452
567.20	25.730
567.54	23.526
567.88	24.361
568.21	23.565
568.55	23.979
568.89	24.453
569.23	22.735
569.56	22.444
569.90	22.530
570.24	21.874
570.57	22.096
570.91	21.747
571.25	22.005
571.59	21.179
571.92	21.233
572.26	21.321
572.60	21.411
572.93	21.622
573.27	21.941
573.61	21.007
573.95	21.116
574.28	21.134
574.62	20.657
574.96	20.479
575.29	20.738
575.63	20.353
575.97	20.643
576.30	20.805
576.64	20.774
576.98	21.082
577.31	21.187
577.65	21.158
577.98	20.589
578.32	20.293
578.66	20.354
578.99	20.810
579.33	20.771
579.67	20.494
580.00	20.408
580.34	20.586
580.67	20.828
581.01	21.066
581.35	20.334
581.68	20.000
582.02	20.223
582.35	20.177
582.69	20.024
583.02	20.462
583.36	20.607
583.70	21.213
584.03	21.303
584.37	20.974
584.70	20.751
585.04	20.795
585.37	20.198
585.71	21.124
586.04	20.303
586.38	20.733
586.72	20.978
587.05	21.050
587.39	20.910
587.72	20.932
588.06	20.834
588.39	20.829
588.73	20.485
589.06	21.331
589.40	21.909
589.73	21.534
590.07	21.688
590.40	22.439
590.73	22.585
591.07	22.884
591.40	21.836
591.74	22.646
592.07	22.338
592.41	22.382
592.74	22.519
593.08	21.126
593.41	21.155
593.75	21.083
594.08	21.682
594.41	20.789
594.75	22.329
595.08	21.262
595.42	21.560
595.75	22.047
596.09	22.037
596.42	22.323
596.75	22.796
597.09	22.864
597.42	22.041
597.75	21.988
598.09	21.953
598.42	22.603
598.76	22.089
599.09	22.619
599.42	21.315
599.76	21.506
600.09	21.322
600.42	21.651
600.76	21.108
601.09	21.712
601.42	21.542
601.76	21.482
602.09	21.928
602.42	21.664
602.76	21.670
603.09	21.795
603.42	21.651
603.76	21.764
604.09	21.643
604.42	21.318
604.76	21.889
605.09	22.408
605.42	21.942
605.75	21.713
606.09	21.806
606.42	21.684
606.75	21.842
607.09	21.871
607.42	21.615
607.75	21.975
608.08	21.933
608.42	22.693
608.75	22.037
609.08	22.657
609.41	22.955
609.75	23.168
610.08	22.842
610.41	22.222
610.74	22.857
611.07	22.465
611.41	22.475
611.74	22.706
612.07	23.266
612.40	23.635
612.73	23.215
613.07	23.315
613.40	22.055
613.73	23.315
614.06	22.550
614.39	23.485
614.72	22.501
615.06	21.612
615.39	22.673
615.72	22.120
616.05	22.853
616.38	22.882
616.71	23.332
617.05	23.064
617.38	22.865
617.71	23.397
618.04	23.612
618.37	22.957
618.70	23.730
619.03	24.237
619.36	24.749
619.69	23.615
620.03	24.462
620.36	24.534
620.69	24.904
621.02	24.524
621.35	24.713
621.68	25.074
622.01	25.756
622.34	25.055
622.67	24.649
623.00	24.506
623.33	24.359
623.66	23.886
623.99	24.521
624.32	24.661
624.65	24.358
624.99	24.138
625.32	24.182
625.65	24.000
625.98	23.849
626.31	24.555
626.64	24.829
626.97	23.412
627.30	25.543
627.63	26.609
627.96	24.804
628.29	24.670
628.62	25.150
628.95	25.621
629.28	27.082
629.61	25.659
629.94	26.621
630.26	27.556
630.59	27.039
630.92	26.099
631.25	26.473
631.58	28.158
631.91	25.690
632.24	26.628
632.57	27.210
632.90	27.536
633.23	28.437
633.56	26.660
633.89	28.617
634.22	27.557
634.55	26.559
634.88	27.054
635.20	28.027
635.53	29.268
635.86	27.181
636.19	28.956
636.52	27.784
636.85	27.832
637.18	26.652
637.51	27.821
637.83	25.744
638.16	30.481
638.49	27.904
638.82	28.991
639.15	27.145
639.48	29.147
639.81	28.327
640.13	28.344
640.46	29.583
640.79	28.999
641.12	29.003
641.45	29.754
641.77	28.930
642.10	29.987
642.43	29.303
642.76	29.261
643.09	28.674
643.41	29.313
643.74	30.360
644.07	29.204
644.40	29.586
644.73	30.631
645.05	30.312
645.38	29.709
645.71	30.956
646.04	30.687
646.36	31.612
646.69	30.240
647.02	31.680
647.35	30.394
647.67	27.877
648.00	31.107
648.33	32.030
648.66	31.061
648.98	28.551
649.31	28.610
649.64	29.046
649.96	30.299
650.29	28.857
650.62	31.517
650.94	30.271
651.27	32.855
651.60	29.734
651.92	30.415
652.25	30.079
652.58	30.780
652.90	28.144
653.23	29.247
653.56	31.009
653.88	29.515
654.21	30.792
654.54	30.161
654.86	27.876
655.19	29.815
655.52	23.765
655.84	17.775
656.17	19.817
656.49	28.658
656.82	33.099
657.15	26.606
657.47	20.046
657.80	14.539
658.13	11.485
658.45	15.418
658.78	18.686
659.10	19.574
659.43	19.912
659.75	21.472
660.08	22.180
660.41	25.499
660.73	29.235
661.06	30.631
661.38	31.175
661.71	31.115
662.03	30.989
662.36	31.810
662.68	31.471
663.01	31.712
663.33	32.830
663.66	30.375
663.98	30.952
664.31	36.381
664.63	31.992
664.96	31.895
665.28	31.638
665.61	31.887
665.93	32.264
666.26	31.215
666.58	33.028
666.91	30.502
667.23	31.526
667.56	33.881
667.88	34.647
668.21	32.787
668.53	35.081
668.86	31.864
669.18	33.809
669.50	32.025
669.83	31.622
670.15	32.432
670.48	29.102
670.80	31.474
671.13	31.673
671.45	32.866
671.77	29.499
672.10	29.803
672.42	29.441
672.75	30.063
673.07	29.094
673.39	29.553
673.72	30.277
674.04	30.287
674.37	32.305
674.69	31.041
675.01	29.851
675.34	29.845
675.66	32.422
675.98	31.361
676.31	32.200
676.63	31.014
676.95	33.532
677.28	31.440
677.60	33.803
677.92	28.770
678.25	31.977
678.57	29.423
678.89	31.103
679.22	30.331
679.54	31.317
679.86	28.796
680.18	28.822
680.51	28.856
680.83	28.041
681.15	31.716
681.48	30.035
681.80	29.597
682.12	32.526
682.44	29.189
682.77	32.562
683.09	31.068
683.41	31.020
683.73	32.480
684.06	30.754
684.38	30.233
684.70	30.576
685.02	30.035
685.34	29.754
685.67	28.778
685.99	27.915
686.31	28.197
686.63	27.480
686.96	28.922
687.28	28.859
687.60	27.304
687.92	29.146
688.24	30.172
688.56	29.537
688.89	27.533
689.21	28.902
689.53	31.423
689.85	29.268
690.17	30.485
690.49	29.637
690.82	31.513
691.14	32.727
691.46	31.006
691.78	30.799
692.10	29.771
692.42	29.401
692.74	30.620
693.06	28.295
693.39	29.644
693.71	32.417
694.03	29.783
694.35	31.124
694.67	29.124
694.99	32.373
695.31	31.757
695.63	31.900
695.95	32.579
696.27	35.177
696.59	30.072
696.91	31.392
697.23	30.769
697.56	30.705
697.88	27.545
698.20	28.302
698.52	27.237
698.84	30.801
699.16	32.196
699.48	34.110
699.80	32.026
700.12	36.490
700.44	28.738
700.76	31.742
701.08	31.854
701.40	35.325
701.72	37.433
702.04	36.043
702.36	33.871
702.68	33.777
703.00	33.083
703.32	34.491
703.64	36.524
703.96	31.510
704.28	34.656
704.60	35.211
704.91	33.053
705.23	33.523
705.55	32.344
705.87	34.921
706.19	39.812
706.51	36.991
706.83	36.283
707.15	34.492
707.47	34.867
707.79	28.966
708.11	29.252
708.43	29.438
708.74	31.674
709.06	29.070
709.38	31.017
709.70	31.335
710.02	33.967
710.34	32.044
710.66	30.833
710.98	36.339
711.29	32.033
711.61	31.476
711.93	33.739
712.25	35.241
712.57	36.656
712.89	34.545
713.20	32.907
713.52	36.137
713.84	36.556
714.16	30.725
714.48	28.530
714.80	30.894
715.11	29.787
715.43	31.844
715.75	27.606
716.07	34.682
716.39	34.286
716.70	34.891
717.02	36.700
717.34	34.892
717.66	34.028
717.97	37.879
718.29	36.268
718.61	32.095
718.93	32.526
719.24	35.570
719.56	32.759
719.88	29.936
720.20	38.065
720.51	32.680
720.83	33.779
721.15	37.075
721.46	32.192
721.78	36.585
722.10	34.028
722.42	34.114
722.73	35.379
723.05	35.789
723.37	36.396
723.68	35.156
724.00	37.121
724.32	35.741
724.63	36.538
724.95	34.118
725.27	33.457
725.58	33.456
725.90	30.282
726.22	32.877
726.53	32.776
726.85	36.482
727.16	34.228
727.48	30.233
727.80	33.813
728.11	37.857
728.43	34.420
728.74	38.811
729.06	30.108
729.38	33.684
729.69	38.000
730.01	36.842
730.32	30.201
730.64	32.226
730.96	30.931
731.27	28.440
731.59	27.586
731.90	29.526
732.22	30.286
732.53	27.635
732.85	32.749
733.16	31.627
733.48	32.915
733.80	33.913
734.11	33.129
734.43	30.994
734.74	30.027
735.06	30.952
735.37	26.289
735.69	32.174
736.00	32.416
736.32	29.394
736.63	30.915
736.95	31.988
737.26	31.402
737.58	33.436
737.89	30.723
738.21	29.470
738.52	33.779
738.83	34.066
739.15	33.798
739.46	30.000
739.78	33.673
740.09	33.819
740.41	32.822
740.72	31.429
741.04	36.713
741.35	32.422
741.66	36.759
741.98	41.202
742.29	37.963
742.61	39.381
742.92	34.746
743.23	37.600
743.55	35.849
743.86	33.725
744.18	38.136
744.49	36.777
744.80	41.014
745.12	40.179
745.43	39.720
745.74	36.444
746.06	35.965
746.37	38.140
746.68	40.265
747.00	34.529
747.31	35.714
747.62	33.197
747.94	33.906
748.25	32.296
748.56	34.746
748.88	37.054
749.19	39.535
749.50	38.813
749.82	33.333
750.13	32.806
750.44	28.667
750.75	31.879
751.07	30.921
751.38	33.333
751.69	36.027
752.01	30.420
752.32	33.223
752.63	34.564
752.94	37.063
753.26	39.063
753.57	33.463
753.88	32.584
754.19	33.935
754.51	33.887
754.82	28.188
755.13	32.095
755.44	32.963
755.75	35.052
756.07	34.247
756.38	28.758
756.69	27.500
757.00	32.938
757.31	29.014
757.63	27.824
757.94	26.064
758.25	26.329
758.56	26.545
758.87	26.566
759.18	31.395
759.50	29.179
759.81	32.938
760.12	31.180
760.43	31.092
760.74	29.620
761.05	32.361
761.36	22.396
761.67	28.841
761.99	27.887
762.30	29.904
762.61	25.000
762.92	34.091
763.23	35.472
763.54	33.846
763.85	32.685
764.16	33.333
764.47	26.689
764.78	30.945
765.10	27.134
765.41	26.989
765.72	25.691
766.03	23.867
766.34	33.449
766.65	33.080
766.96	34.818
767.27	35.514
767.58	37.129
767.89	35.359
768.20	37.805
768.51	34.184
768.82	36.842
769.13	31.373
769.44	29.699
769.75	33.333
770.06	30.252
770.37	30.702
770.68	30.222
770.99	37.712
771.30	32.218
771.61	31.538
771.92	31.298
772.23	32.661
772.54	38.667
772.85	35.149
773.16	43.478
773.47	36.667
773.78	35.644
774.09	39.205
774.39	44.848
774.70	38.235
775.01	40.789
775.32	29.193
775.63	47.945
775.94	45.679
776.25	46.207
776.56	41.221
776.87	48.092
777.18	40.909
777.48	56.693
777.79	50.000
778.10	42.424
778.41	44.776
778.72	42.105
779.03	38.462
779.34	41.216
779.65	40.373
779.95	39.752
780.26	44.048
780.57	53.061
780.88	46.099
781.19	54.167
781.50	40.828
781.80	38.798
782.11	41.799
782.42	37.356
782.73	40.678
783.04	42.581
783.34	37.209
783.65	44.898
783.96	41.290
784.27	47.020
784.57	36.842
784.88	38.406
785.19	53.333
785.50	44.828
785.81	58.140
786.11	48.889
786.42	54.331
786.73	53.153
787.04	49.057
787.34	42.276
787.65	46.970
787.96	43.182
788.26	51.969
788.57	48.905
788.88	47.887
789.19	38.931
789.49	43.243
789.80	48.437
790.11	42.975
790.41	44.444
790.72	52.778
791.03	51.923
791.33	57.576
791.64	54.737
791.95	53.684
792.25	54.167
792.56	40.000
792.87	56.098
793.17	52.273
793.48	61.176
793.79	51.724
794.09	54.545
794.40	51.724
794.70	44.444
795.01	46.154
795.32	38.168
795.62	44.444
795.93	45.378
796.23	48.780
796.54	51.020
796.85	55.682
797.15	63.636
797.46	59.756
797.76	53.750
798.07	68.000
798.37	57.500
798.68	58.750
798.99	80.488
799.29	61.333
799.60	46.512
799.90	61.842
800.21	60.606
800.51	56.338
800.82	74.138
801.12	73.846
801.43	70.667
801.73	74.138
802.04	68.831
802.34	58.904
802.65	86.275
802.95	67.391
803.26	77.419
803.56	86.667
803.87	70.149
804.17	71.429
804.48	71.698
804.78	72.222
805.09	68.182
805.39	66.667
805.70	71.930
806.00	62.857
806.30	78.125
806.61	52.941
806.91	58.889
807.22	56.522
807.52	51.316
807.83	67.105
808.13	57.971
808.43	66.129
808.74	67.123
809.04	71.429
809.35	73.529
809.65	80.303
809.95	78.431
810.26	92.593
810.56	85.937
810.86	79.592
811.17	66.667
811.47	73.913
811.77	81.034
812.08	67.241
812.38	71.429
812.69	104.762
812.99	75.556
813.29	108.571
813.59	112.903
813.90	62.069
814.20	78.689
814.50	80.000
814.81	59.649
815.11	96.296
815.41	83.929
815.72	85.714
816.02	92.000
816.32	102.439
816.62	84.483
816.93	148.485
817.23	117.073
817.53	83.929
817.84	100.000
818.14	66.667
818.44	77.083
818.74	84.906
819.04	89.744
819.35	121.212
819.65	107.692
819.95	103.704
820.25	93.617
820.56	97.297
820.86	118.421
821.16	68.085
821.46	110.526
821.76	81.818
822.07	83.333
822.37	86.842
822.67	111.628
822.97	94.737
823.27	108.696
823.57	96.875
823.88	120.513
824.18	96.970
824.48	165.217
824.78	125.000
825.08	169.565
825.38	144.828
825.69	129.412
825.99	82.979
826.29	102.778
826.59	122.857
826.89	113.333
827.19	108.571
827.49	112.903
827.79	169.231
828.09	97.619
828.39	86.111
828.70	102.703
829.00	121.429
829.30	200.000
829.60	83.333
829.90	83.871
830.20	106.061
830.50	118.919
830.80	112.500
831.10	161.538
831.40	147.619
831.70	150.000
832.00	140.000
832.30	156.522
832.60	183.333
832.90	124.242
833.20	175.000
833.50	123.684
833.80	105.882
834.10	115.789
834.40	100.000
834.70	126.667
835.00	128.000
835.30	108.108
835.60	109.375
835.90	124.324
836.20	161.538
836.50	136.364
836.80	102.439
837.10	108.696
837.40	300.000
837.70	163.158
838.00	136.667
838.30	141.667
838.60	164.000
838.90	240.000
839.19	100.000
839.49	126.667
839.79	103.448
840.09	115.385
840.39	240.000
840.69	215.789
840.99	128.571
841.29	204.348
841.59	180.000
841.88	144.000
842.18	166.667
842.48	171.429
842.78	144.444
843.08	184.615
843.38	154.545
843.68	221.429
843.97	371.429
844.27	117.391
844.57	1700.000
844.87	257.143
845.17	177.778
845.47	114.286
845.76	154.167
846.06	514.286
846.36	194.118
846.66	238.462
846.96	256.250
847.25	200.000
847.55	226.316
847.85	122.222
848.15	720.000
848.44	200.000
848.74	128.571
849.04	166.667
849.34	188.235
849.63	250.000
849.93	250.000
850.23	1133.333
850.53	337.500
850.82	336.364
851.12	217.647
851.42	137.500
851.71	187.500
852.01	0.000
852.31	235.294
852.61	360.000
852.90	120.833
853.20	333.333
853.50	-1600.000
853.79	144.000
854.09	140.625
854.39	120.690
854.68	158.621
854.98	195.238
855.28	100.000
855.57	221.429
855.87	216.667
856.17	166.667
856.46	152.632
856.76	119.355
857.05	264.706
857.35	363.636
857.65	230.769
857.94	170.000
858.24	355.556
858.53	292.857
858.83	600.000
859.13	186.957
859.42	277.778
859.72	412.500
860.01	275.000
860.31	950.000
860.60	300.000
860.90	400.000
861.20	230.769
861.49	500.000
861.79	-1700.000
862.08	485.714
862.38	377.778
862.67	242.857
862.97	380.000
863.26	146.667
863.56	700.000
863.85	292.308
864.15	252.941
864.44	194.444
864.74	325.000
865.03	281.818
865.33	350.000
865.62	226.667
865.92	416.667
866.21	550.000
866.51	600.000
866.80	227.778
867.10	1033.333
867.39	3100.000
867.69	620.000
867.98	875.000
868.27	166.667
868.57	306.667
868.86	575.000
869.16	180.952
869.45	3000.000
869.75	-483.333
870.04	775.000
870.33	760.000
870.63	312.500
870.92	235.294
871.22	700.000
871.51	542.857
871.80	291.667
872.10	253.846
>>>>>End Processed Spectral Data<<<<<
