SpectraSuite Data File
++++++++++++++++++++++++++++++++++++
Date: Tue May 12 17:06:07 PDT 2015
User: schluterlab
Dark Spectrum Present: Yes
Reference Spectrum Present: Yes
Number of Sampled Component Spectra: 1
Spectrometers: USB2E3373
Integration Time (usec): 3000 (USB2E3373)
Spectra Averaged: 3 (USB2E3373)
Boxcar Smoothing: 0 (USB2E3373)
Correct for Electrical Dark: No (USB2E3373)
Strobe/Lamp Enabled: No (USB2E3373)
Correct for Detector Non-linearity: No (USB2E3373)
Correct for Stray Light: No (USB2E3373)
Number of Pixels in Processed Spectrum: 2048
>>>>>Begin Processed Spectral Data<<<<<
178.53	0.000
178.91	-275.000
179.29	-725.000
179.67	-3400.000
180.04	-120.000
180.42	600.000
180.80	2000.000
181.18	0.000
181.56	-337.500
181.94	0.000
182.31	1233.333
182.69	-3100.000
183.07	557.143
183.45	-4300.000
183.83	-1500.000
184.20	420.000
184.58	400.000
184.96	-261.538
185.34	-275.000
185.72	1600.000
186.09	-875.000
186.47	-4200.000
186.85	1133.333
187.23	720.000
187.61	1750.000
187.98	500.000
188.36	250.000
188.74	241.667
189.12	300.000
189.49	1075.000
189.87	0.000
190.25	512.500
190.63	2500.000
191.00	-200.000
191.38	-3000.000
191.76	-1000.000
192.14	512.500
192.51	-3100.000
192.89	1550.000
193.27	1200.000
193.65	-1166.667
194.02	-780.000
194.40	600.000
194.78	-257.143
195.15	260.000
195.53	-2100.000
195.91	-440.000
196.29	3400.000
196.66	256.250
197.04	550.000
197.42	-1550.000
197.79	700.000
198.17	358.333
198.55	0.000
198.92	500.000
199.30	1066.667
199.68	2150.000
200.05	583.333
200.43	-566.667
200.81	222.222
201.18	3400.000
201.56	308.333
201.94	-625.000
202.31	-262.500
202.69	-680.000
203.07	2800.000
203.44	-483.333
203.82	308.333
204.19	800.000
204.57	-1400.000
204.95	-700.000
205.32	-720.000
205.70	533.333
206.08	825.000
206.45	-566.667
206.83	444.444
207.20	252.632
207.58	241.667
207.96	880.000
208.33	0.000
208.71	685.714
209.08	720.000
209.46	-2800.000
209.84	-725.000
210.21	1000.000
210.59	-580.000
210.96	308.333
211.34	-1100.000
211.71	454.545
212.09	925.000
212.46	1250.000
212.84	-566.667
213.22	511.111
213.59	-2800.000
213.97	340.000
214.34	1250.000
214.72	1166.667
215.09	866.667
215.47	-3000.000
215.84	-330.000
216.22	-387.500
216.59	0.000
216.97	0.000
217.34	1200.000
217.72	-1450.000
218.09	1366.667
218.47	450.000
218.84	875.000
219.22	1166.667
219.59	1133.333
219.97	571.429
220.34	455.556
220.72	1750.000
221.09	4000.000
221.47	333.333
221.84	1233.333
222.22	340.000
222.59	277.778
222.97	235.714
223.34	243.750
223.72	-1950.000
224.09	933.333
224.46	253.846
224.84	-750.000
225.21	422.222
225.59	246.667
225.96	1333.333
226.34	-640.000
226.71	-700.000
227.08	-520.000
227.46	0.000
227.83	-733.333
228.21	-1350.000
228.58	375.000
228.95	1125.000
229.33	411.111
229.70	950.000
230.08	330.769
230.45	3600.000
230.82	-925.000
231.20	-900.000
231.57	-800.000
231.95	500.000
232.32	391.667
232.69	550.000
233.07	266.667
233.44	-1700.000
233.81	293.333
234.19	148.148
234.56	268.750
234.93	258.824
235.31	230.000
235.68	268.750
236.05	203.571
236.43	170.370
236.80	257.143
237.17	155.172
237.55	162.500
237.92	147.500
238.29	127.273
238.67	165.625
239.04	112.195
239.41	102.083
239.79	102.500
240.16	112.500
240.53	88.525
240.91	88.406
241.28	103.390
241.65	98.485
242.02	94.366
242.40	84.286
242.77	84.615
243.14	69.620
243.51	87.879
243.89	75.701
244.26	79.439
244.63	84.158
245.00	77.064
245.38	62.712
245.75	65.152
246.12	77.778
246.49	57.447
246.87	66.393
247.24	68.667
247.61	60.000
247.98	65.986
248.36	53.939
248.73	56.122
249.10	55.952
249.47	56.000
249.84	55.224
250.22	58.919
250.59	58.500
250.96	55.696
251.33	61.395
251.70	52.679
252.08	56.723
252.45	54.980
252.82	52.091
253.19	50.988
253.56	55.000
253.94	53.261
254.31	57.364
254.68	54.355
255.05	55.172
255.42	50.000
255.79	50.163
256.16	53.559
256.54	49.026
256.91	51.634
257.28	51.839
257.65	51.097
258.02	48.378
258.39	53.009
258.76	53.623
259.14	51.429
259.51	54.519
259.88	54.103
260.25	51.923
260.62	52.329
260.99	49.587
261.36	50.696
261.73	49.468
262.10	53.403
262.47	48.750
262.85	51.200
263.22	51.414
263.59	50.639
263.96	51.378
264.33	49.136
264.70	49.877
265.07	50.732
265.44	49.312
265.81	47.170
266.18	49.886
266.55	48.463
266.92	46.756
267.29	50.219
267.66	47.534
268.03	48.430
268.40	49.260
268.77	48.018
269.14	47.072
269.51	49.220
269.88	48.571
270.25	45.356
270.62	46.567
270.99	44.422
271.36	45.935
271.73	48.847
272.10	44.646
272.47	45.833
272.84	45.908
273.21	45.455
273.58	47.571
273.95	46.407
274.32	46.304
274.69	48.819
275.06	46.266
275.43	44.828
275.80	46.792
276.17	45.956
276.54	46.542
276.91	47.948
277.28	43.796
277.65	48.524
278.02	46.140
278.39	45.324
278.76	43.103
279.13	44.840
279.50	45.455
279.87	44.134
280.23	44.015
280.60	46.898
280.97	42.931
281.34	44.719
281.71	44.696
282.08	47.009
282.45	42.568
282.82	45.151
283.19	43.243
283.56	43.471
283.92	44.625
284.29	44.592
284.66	42.353
285.03	45.274
285.40	41.653
285.77	42.130
286.14	41.486
286.51	42.945
286.87	40.665
287.24	39.940
287.61	42.401
287.98	41.791
288.35	41.926
288.72	40.516
289.08	40.541
289.45	40.396
289.82	39.531
290.19	41.435
290.56	41.776
290.93	38.417
291.29	36.878
291.66	41.243
292.03	39.691
292.40	38.753
292.77	36.351
293.13	40.371
293.50	38.192
293.87	36.450
294.24	39.021
294.60	38.089
294.97	38.322
295.34	36.653
295.71	36.925
296.08	38.400
296.44	35.197
296.81	36.849
297.18	34.728
297.55	35.591
297.91	35.345
298.28	37.077
298.65	35.092
299.02	35.464
299.38	36.571
299.75	34.634
300.12	34.404
300.48	36.417
300.85	36.591
301.22	35.465
301.59	34.434
301.95	35.239
302.32	35.739
302.69	34.955
303.05	36.027
303.42	33.632
303.79	35.428
304.15	35.094
304.52	34.989
304.89	34.435
305.25	35.484
305.62	35.394
305.99	35.217
306.35	34.737
306.72	34.860
307.09	34.265
307.45	34.741
307.82	34.671
308.19	35.464
308.55	35.700
308.92	36.408
309.29	36.391
309.65	36.274
310.02	36.511
310.38	34.895
310.75	35.101
311.12	35.728
311.48	38.031
311.85	36.355
312.22	36.390
312.58	37.123
312.95	35.437
313.31	38.202
313.68	36.304
314.05	38.004
314.41	37.430
314.78	38.826
315.14	38.673
315.51	38.978
315.87	37.044
316.24	38.936
316.61	38.496
316.97	37.523
317.34	39.443
317.70	40.474
318.07	40.836
318.43	39.982
318.80	39.492
319.16	39.248
319.53	39.912
319.89	40.412
320.26	42.737
320.62	41.941
320.99	42.231
321.35	42.115
321.72	42.789
322.08	43.767
322.45	42.325
322.81	43.367
323.18	44.050
323.54	44.251
323.91	44.878
324.27	45.181
324.64	43.253
325.00	46.034
325.37	45.278
325.73	44.266
326.10	46.727
326.46	45.995
326.83	44.960
327.19	44.578
327.56	46.086
327.92	47.213
328.29	45.908
328.65	46.575
329.01	48.161
329.38	46.277
329.74	47.822
330.11	47.524
330.47	46.377
330.84	46.333
331.20	46.954
331.56	47.927
331.93	47.049
332.29	46.939
332.66	47.194
333.02	46.478
333.38	49.302
333.75	47.957
334.11	46.980
334.48	47.265
334.84	47.297
335.20	46.963
335.57	45.760
335.93	46.594
336.29	45.605
336.66	48.714
337.02	47.476
337.38	46.690
337.75	48.564
338.11	47.679
338.47	48.010
338.84	46.740
339.20	45.801
339.56	46.426
339.93	47.074
340.29	46.807
340.65	47.108
341.02	48.512
341.38	49.261
341.74	47.259
342.11	46.828
342.47	47.252
342.83	48.318
343.20	47.049
343.56	45.909
343.92	47.399
344.28	47.847
344.65	47.433
345.01	47.222
345.37	46.875
345.73	46.429
346.10	46.375
346.46	47.847
346.82	47.608
347.19	47.295
347.55	46.292
347.91	46.224
348.27	47.715
348.63	47.943
349.00	47.296
349.36	47.082
349.72	47.783
350.08	48.758
350.45	48.134
350.81	47.554
351.17	47.766
351.53	48.807
351.89	47.009
352.26	47.468
352.62	48.643
352.98	46.779
353.34	46.687
353.70	46.713
354.07	47.538
354.43	47.773
354.79	46.849
355.15	47.703
355.51	47.432
355.87	48.419
356.24	48.576
356.60	47.184
356.96	47.763
357.32	46.420
357.68	47.871
358.04	47.416
358.40	48.426
358.77	47.708
359.13	47.523
359.49	46.850
359.85	47.655
360.21	47.028
360.57	47.007
360.93	48.268
361.29	48.701
361.66	47.875
362.02	48.224
362.38	48.629
362.74	48.691
363.10	47.616
363.46	47.307
363.82	47.966
364.18	47.866
364.54	49.642
364.90	47.657
365.26	48.786
365.62	47.859
365.98	48.107
366.35	48.276
366.71	48.924
367.07	48.737
367.43	48.690
367.79	48.471
368.15	47.829
368.51	49.345
368.87	48.641
369.23	50.243
369.59	47.404
369.95	50.280
370.31	48.392
370.67	48.092
371.03	48.389
371.39	48.961
371.75	49.546
372.11	48.878
372.47	49.521
372.83	48.470
373.19	49.623
373.55	49.622
373.91	48.826
374.27	48.347
374.63	49.017
374.99	48.652
375.35	49.731
375.71	50.000
376.07	50.663
376.42	49.297
376.78	50.996
377.14	50.131
377.50	49.438
377.86	49.520
378.22	50.030
378.58	50.969
378.94	50.091
379.30	50.091
379.66	49.247
380.02	50.088
380.38	49.649
380.74	50.231
381.09	49.007
381.45	49.595
381.81	50.709
382.17	49.634
382.53	50.030
382.89	49.438
383.25	50.089
383.61	49.107
383.97	50.330
384.32	50.753
384.68	52.109
385.04	50.938
385.40	50.356
385.76	49.971
386.12	50.155
386.48	52.036
386.83	52.017
387.19	50.530
387.55	49.882
387.91	51.039
388.27	51.814
388.62	49.413
388.98	49.913
389.34	49.197
389.70	50.825
390.06	50.183
390.42	50.586
390.77	50.430
391.13	50.030
391.49	49.728
391.85	50.769
392.20	50.715
392.56	50.836
392.92	49.017
393.28	50.392
393.64	50.057
393.99	50.860
394.35	50.500
394.71	50.060
395.07	49.148
395.42	50.293
395.78	52.437
396.14	50.542
396.50	50.782
396.85	48.780
397.21	50.963
397.57	49.851
397.92	49.393
398.28	50.579
398.64	50.320
399.00	49.332
399.35	49.383
399.71	49.614
400.07	50.514
400.42	50.149
400.78	49.384
401.14	50.264
401.49	48.387
401.85	50.521
402.21	48.975
402.57	50.329
402.92	49.758
403.28	49.523
403.63	48.735
403.99	48.854
404.35	49.238
404.70	50.561
405.06	48.793
405.42	48.654
405.77	49.063
406.13	48.319
406.49	48.721
406.84	48.675
407.20	49.543
407.55	49.600
407.91	50.862
408.27	49.848
408.62	50.089
408.98	48.610
409.34	47.633
409.69	48.911
410.05	48.420
410.40	47.703
410.76	48.540
411.11	48.637
411.47	49.815
411.83	46.866
412.18	47.705
412.54	48.829
412.89	47.434
413.25	48.347
413.60	48.364
413.96	48.833
414.31	48.819
414.67	48.852
415.03	48.404
415.38	47.950
415.74	48.136
416.09	48.907
416.45	49.063
416.80	49.070
417.16	47.613
417.51	48.471
417.87	48.248
418.22	47.205
418.58	48.153
418.93	47.948
419.29	47.197
419.64	47.789
420.00	48.270
420.35	47.387
420.71	48.833
421.06	46.616
421.42	47.668
421.77	47.918
422.12	47.850
422.48	48.485
422.83	48.047
423.19	48.218
423.54	48.162
423.90	48.188
424.25	48.762
424.61	48.520
424.96	47.995
425.31	48.166
425.67	49.327
426.02	47.504
426.38	46.733
426.73	47.831
427.09	47.924
427.44	46.877
427.79	48.542
428.15	48.262
428.50	47.486
428.85	48.031
429.21	47.488
429.56	48.604
429.92	47.837
430.27	47.750
430.62	48.116
430.98	47.555
431.33	48.337
431.68	46.864
432.04	47.284
432.39	48.189
432.74	47.717
433.10	47.342
433.45	48.076
433.80	48.428
434.16	46.453
434.51	48.039
434.86	46.979
435.22	48.406
435.57	48.133
435.92	48.719
436.28	47.408
436.63	47.326
436.98	49.043
437.34	47.432
437.69	47.144
438.04	47.581
438.39	47.986
438.75	46.548
439.10	48.570
439.45	46.750
439.81	47.889
440.16	47.991
440.51	47.691
440.86	48.376
441.22	48.268
441.57	47.402
441.92	47.828
442.27	46.959
442.63	47.409
442.98	47.468
443.33	47.188
443.68	47.435
444.03	47.785
444.39	47.693
444.74	48.033
445.09	48.025
445.44	47.078
445.79	46.686
446.15	47.263
446.50	47.574
446.85	46.514
447.20	47.114
447.55	48.396
447.91	47.682
448.26	46.645
448.61	48.314
448.96	48.148
449.31	47.745
449.66	47.398
450.02	47.380
450.37	47.307
450.72	46.887
451.07	47.295
451.42	48.607
451.77	47.308
452.12	47.760
452.47	46.962
452.83	47.606
453.18	47.688
453.53	47.069
453.88	47.200
454.23	47.589
454.58	47.319
454.93	46.291
455.28	47.858
455.63	47.518
455.98	45.742
456.34	48.267
456.69	47.927
457.04	46.659
457.39	46.857
457.74	47.635
458.09	46.659
458.44	46.659
458.79	45.676
459.14	45.827
459.49	45.300
459.84	47.011
460.19	44.915
460.54	45.983
460.89	46.322
461.24	45.762
461.59	46.712
461.94	46.690
462.29	45.881
462.64	46.796
462.99	45.553
463.34	45.949
463.69	46.521
464.04	45.999
464.39	45.392
464.74	44.138
465.09	44.457
465.44	45.430
465.79	45.781
466.14	44.356
466.49	45.469
466.84	45.373
467.19	44.815
467.54	44.024
467.89	45.423
468.24	43.775
468.59	45.655
468.94	45.833
469.29	44.533
469.64	44.116
469.99	44.216
470.34	44.149
470.68	44.621
471.03	44.563
471.38	44.172
471.73	44.350
472.08	45.466
472.43	45.189
472.78	45.391
473.13	43.367
473.48	43.765
473.83	43.404
474.17	44.134
474.52	43.009
474.87	43.491
475.22	43.746
475.57	42.760
475.92	43.843
476.27	43.526
476.61	43.432
476.96	42.738
477.31	43.805
477.66	43.586
478.01	42.702
478.36	43.821
478.70	42.680
479.05	43.096
479.40	42.262
479.75	43.049
480.10	43.804
480.45	42.344
480.79	42.258
481.14	42.273
481.49	42.635
481.84	43.096
482.19	42.227
482.53	42.819
482.88	43.235
483.23	41.949
483.58	41.921
483.92	42.733
484.27	42.295
484.62	42.233
484.97	41.021
485.31	41.018
485.66	41.460
486.01	41.406
486.36	41.448
486.70	40.819
487.05	41.421
487.40	40.788
487.75	41.105
488.09	40.994
488.44	40.089
488.79	40.229
489.13	40.612
489.48	41.151
489.83	40.200
490.17	40.050
490.52	40.956
490.87	39.612
491.22	40.780
491.56	40.228
491.91	40.367
492.26	40.089
492.60	40.866
492.95	39.284
493.30	39.718
493.64	39.353
493.99	39.848
494.34	39.130
494.68	38.645
495.03	40.099
495.37	39.757
495.72	39.254
496.07	38.589
496.41	38.662
496.76	39.341
497.11	39.032
497.45	39.325
497.80	38.786
498.14	38.927
498.49	39.322
498.84	38.925
499.18	38.163
499.53	39.228
499.87	38.814
500.22	39.659
500.56	38.858
500.91	38.729
501.26	38.631
501.60	38.479
501.95	38.217
502.29	38.222
502.64	38.774
502.98	38.106
503.33	38.886
503.67	37.837
504.02	37.438
504.36	37.511
504.71	37.985
505.06	37.776
505.40	38.044
505.75	36.857
506.09	38.964
506.44	36.936
506.78	37.335
507.13	37.712
507.47	37.263
507.82	38.054
508.16	37.237
508.51	36.812
508.85	37.417
509.19	38.277
509.54	36.523
509.88	37.394
510.23	37.745
510.57	36.293
510.92	37.712
511.26	37.550
511.61	36.583
511.95	36.536
512.30	36.300
512.64	36.656
512.98	36.853
513.33	36.578
513.67	37.390
514.02	36.312
514.36	36.085
514.70	36.907
515.05	36.175
515.39	36.787
515.74	38.108
516.08	36.874
516.42	37.760
516.77	37.707
517.11	36.267
517.46	36.853
517.80	35.336
518.14	36.394
518.49	36.329
518.83	35.440
519.17	34.886
519.52	36.428
519.86	35.477
520.20	36.822
520.55	35.953
520.89	35.402
521.23	35.397
521.58	36.431
521.92	35.219
522.26	34.301
522.61	35.829
522.95	35.856
523.29	34.678
523.64	34.162
523.98	34.800
524.32	34.948
524.66	34.493
525.01	34.734
525.35	34.767
525.69	35.400
526.04	34.801
526.38	34.903
526.72	34.547
527.06	33.590
527.41	35.913
527.75	35.301
528.09	34.136
528.43	34.838
528.78	34.228
529.12	35.160
529.46	34.249
529.80	34.112
530.15	34.001
530.49	33.213
530.83	33.943
531.17	33.456
531.51	34.580
531.86	33.213
532.20	33.004
532.54	34.087
532.88	34.041
533.22	34.796
533.57	35.021
533.91	33.741
534.25	32.660
534.59	33.626
534.93	33.163
535.27	32.669
535.62	33.722
535.96	33.156
536.30	33.882
536.64	33.106
536.98	32.725
537.32	33.562
537.66	31.633
538.01	33.808
538.35	33.250
538.69	33.556
539.03	32.960
539.37	32.828
539.71	32.407
540.05	32.862
540.39	32.956
540.73	33.418
541.07	32.434
541.42	32.400
541.76	31.751
542.10	32.676
542.44	32.855
542.78	32.347
543.12	32.147
543.46	33.459
543.80	32.707
544.14	32.879
544.48	32.908
544.82	32.905
545.16	31.208
545.50	32.022
545.84	32.639
546.18	33.030
546.52	33.049
546.86	33.011
547.20	32.364
547.54	31.792
547.88	31.813
548.22	32.362
548.56	31.821
548.90	31.495
549.24	32.723
549.58	30.348
549.92	31.958
550.26	33.333
550.60	31.803
550.94	32.090
551.28	32.690
551.62	32.966
551.96	31.959
552.30	30.916
552.64	32.298
552.98	31.637
553.32	30.986
553.66	31.726
554.00	30.952
554.34	33.222
554.68	31.384
555.02	32.587
555.36	30.984
555.69	31.021
556.03	30.764
556.37	32.250
556.71	32.138
557.05	30.079
557.39	31.067
557.73	32.075
558.07	30.785
558.41	31.528
558.75	31.464
559.08	31.951
559.42	31.138
559.76	31.219
560.10	30.626
560.44	29.927
560.78	31.394
561.12	31.214
561.45	30.663
561.79	29.963
562.13	30.259
562.47	30.629
562.81	30.254
563.15	30.705
563.48	30.373
563.82	31.753
564.16	31.468
564.50	30.259
564.84	31.489
565.17	30.719
565.51	31.404
565.85	31.030
566.19	30.298
566.52	30.205
566.86	30.765
567.20	30.730
567.54	30.731
567.88	30.829
568.21	30.205
568.55	30.156
568.89	30.794
569.23	30.155
569.56	30.391
569.90	30.579
570.24	30.664
570.57	30.792
570.91	29.735
571.25	29.923
571.59	29.836
571.92	29.844
572.26	29.811
572.60	29.992
572.93	29.816
573.27	29.954
573.61	29.940
573.95	29.756
574.28	30.223
574.62	30.112
574.96	29.634
575.29	29.703
575.63	29.117
575.97	29.309
576.30	29.309
576.64	29.093
576.98	29.371
577.31	29.765
577.65	29.633
577.98	29.575
578.32	29.566
578.66	29.627
578.99	29.893
579.33	29.544
579.67	28.941
580.00	28.640
580.34	29.459
580.67	28.971
581.01	29.515
581.35	28.960
581.68	29.458
582.02	29.710
582.35	29.513
582.69	29.828
583.02	29.299
583.36	29.213
583.70	29.398
584.03	29.754
584.37	29.228
584.70	29.485
585.04	29.146
585.37	29.238
585.71	29.730
586.04	29.663
586.38	29.351
586.72	28.803
587.05	29.104
587.39	29.507
587.72	28.861
588.06	29.476
588.39	29.478
588.73	28.929
589.06	29.034
589.40	29.264
589.73	28.745
590.07	29.032
590.40	29.617
590.73	30.151
591.07	30.133
591.40	28.982
591.74	28.977
592.07	29.035
592.41	28.977
592.74	28.451
593.08	28.451
593.41	28.636
593.75	28.492
594.08	29.042
594.41	28.674
594.75	28.767
595.08	28.978
595.42	29.263
595.75	28.496
596.09	28.815
596.42	28.077
596.75	28.646
597.09	28.725
597.42	28.939
597.75	27.911
598.09	28.272
598.42	28.560
598.76	28.219
599.09	28.613
599.42	27.924
599.76	28.392
600.09	28.169
600.42	28.453
600.76	27.872
601.09	28.340
601.42	28.265
601.76	28.285
602.09	28.661
602.42	27.579
602.76	27.856
603.09	28.846
603.42	28.991
603.76	28.200
604.09	28.085
604.42	27.608
604.76	28.408
605.09	28.204
605.42	29.053
605.75	28.267
606.09	28.424
606.42	27.847
606.75	28.333
607.09	27.161
607.42	28.807
607.75	27.468
608.08	28.351
608.42	28.272
608.75	27.813
609.08	27.585
609.41	28.182
609.75	27.656
610.08	28.327
610.41	27.844
610.74	27.965
611.07	28.149
611.41	28.082
611.74	28.250
612.07	28.083
612.40	27.632
612.73	27.758
613.07	27.876
613.40	27.719
613.73	28.058
614.06	27.400
614.39	27.929
614.72	26.921
615.06	27.201
615.39	27.178
615.72	27.348
616.05	27.875
616.38	27.397
616.71	27.075
617.05	27.512
617.38	26.742
617.71	27.728
618.04	27.201
618.37	26.904
618.70	26.963
619.03	27.167
619.36	27.701
619.69	27.177
620.03	28.050
620.36	27.938
620.69	27.586
621.02	27.785
621.35	26.862
621.68	26.549
622.01	27.823
622.34	27.167
622.67	27.037
623.00	26.413
623.33	27.395
623.66	27.279
623.99	28.219
624.32	27.100
624.65	27.321
624.99	27.857
625.32	27.923
625.65	26.690
625.98	26.290
626.31	27.893
626.64	25.437
626.97	26.702
627.30	26.786
627.63	27.002
627.96	26.839
628.29	28.383
628.62	26.091
628.95	28.103
629.28	28.046
629.61	26.362
629.94	26.793
630.26	27.816
630.59	27.571
630.92	28.251
631.25	27.652
631.58	27.097
631.91	27.593
632.24	25.850
632.57	24.951
632.90	26.915
633.23	27.597
633.56	26.344
633.89	27.546
634.22	26.265
634.55	26.237
634.88	26.835
635.20	27.915
635.53	28.223
635.86	27.181
636.19	26.936
636.52	26.162
636.85	26.969
637.18	26.544
637.51	26.704
637.83	25.744
638.16	27.081
638.49	26.826
638.82	27.347
639.15	25.147
639.48	28.199
639.81	28.571
640.13	27.239
640.46	26.802
640.79	25.488
641.12	26.640
641.45	27.167
641.77	28.666
642.10	26.908
642.43	26.458
642.76	25.142
643.09	27.522
643.41	27.349
643.74	27.914
644.07	27.434
644.40	26.183
644.73	25.826
645.05	28.083
645.38	28.331
645.71	26.859
646.04	28.397
646.36	27.230
646.69	24.640
647.02	27.200
647.35	25.512
647.67	28.363
648.00	27.687
648.33	26.767
648.66	27.424
648.98	27.246
649.31	25.641
649.64	25.173
649.96	26.600
650.29	25.857
650.62	27.982
650.94	27.259
651.27	28.868
651.60	26.917
651.92	27.803
652.25	28.976
652.58	26.667
652.90	26.796
653.23	27.326
653.56	27.151
653.88	27.313
654.21	28.739
654.54	27.233
654.86	27.581
655.19	27.177
655.52	25.383
655.84	23.794
656.17	29.033
656.49	41.650
656.82	47.738
657.15	37.923
657.47	28.096
657.80	20.599
658.13	16.320
658.45	21.736
658.78	26.386
659.10	26.499
659.43	26.507
659.75	25.855
660.08	26.692
660.41	26.860
660.73	27.102
661.06	26.426
661.38	27.087
661.71	26.619
662.03	23.954
662.36	25.524
662.68	26.071
663.01	26.306
663.33	27.170
663.66	26.430
663.98	28.175
664.31	29.291
664.63	28.161
664.96	30.019
665.28	27.495
665.61	26.604
665.93	26.792
666.26	25.981
666.58	30.275
666.91	27.027
667.23	28.313
667.56	28.747
667.88	28.008
668.21	27.254
668.53	27.621
668.86	30.461
669.18	27.495
669.50	26.446
669.83	29.979
670.15	25.364
670.48	25.586
670.80	28.685
671.13	26.693
671.45	25.050
671.77	28.015
672.10	28.905
672.42	26.480
672.75	28.006
673.07	28.140
673.39	26.677
673.72	25.952
674.04	26.165
674.37	26.316
674.69	24.907
675.01	27.985
675.34	25.775
675.66	26.563
675.98	25.247
676.31	27.400
676.63	25.845
676.95	25.992
677.28	26.572
677.60	25.151
677.92	29.167
678.25	26.744
678.57	27.374
678.89	26.582
679.22	27.574
679.54	25.623
679.86	27.225
680.18	25.659
680.51	27.032
680.83	26.689
681.15	25.997
681.48	29.514
681.80	27.320
682.12	28.720
682.44	24.685
682.77	27.758
683.09	28.350
683.41	26.531
683.73	27.165
684.06	27.579
684.38	27.907
684.70	25.719
685.02	26.736
685.34	26.761
685.67	27.974
685.99	26.765
686.31	26.040
686.63	29.106
686.96	27.288
687.28	26.007
687.60	26.280
687.92	26.131
688.24	29.655
688.56	27.936
688.89	25.813
689.21	25.819
689.53	30.632
689.85	26.829
690.17	25.631
690.49	29.839
690.82	25.420
691.14	28.687
691.46	28.953
691.78	28.265
692.10	27.290
692.42	27.586
692.74	27.713
693.06	26.357
693.39	27.668
693.71	27.308
694.03	29.191
694.35	29.719
694.67	24.847
694.99	27.494
695.31	27.027
695.63	25.792
695.95	25.792
696.27	29.867
696.59	28.640
696.91	27.342
697.23	29.412
697.56	24.066
697.88	26.946
698.20	28.679
698.52	24.708
698.84	28.337
699.16	29.424
699.48	28.602
699.80	28.105
700.12	28.868
700.44	29.439
700.76	28.878
701.08	29.243
701.40	25.974
701.72	30.214
702.04	29.810
702.36	30.376
702.68	31.117
703.00	29.574
703.32	26.799
703.64	29.219
703.96	26.562
704.28	29.894
704.60	28.732
704.91	30.532
705.23	32.670
705.55	29.970
705.87	27.937
706.19	30.094
706.51	31.661
706.83	32.448
707.15	29.679
707.47	31.719
707.79	29.885
708.11	30.159
708.43	26.966
708.74	28.281
709.06	28.837
709.38	30.273
709.70	28.883
710.02	28.804
710.34	29.282
710.66	32.500
710.98	28.415
711.29	27.019
711.61	32.033
711.93	31.307
712.25	26.506
712.57	31.190
712.89	33.333
713.20	29.712
713.52	30.841
713.84	29.909
714.16	26.957
714.48	27.666
714.80	27.913
715.11	30.053
715.43	30.726
715.75	29.859
716.07	28.324
716.39	30.857
716.70	28.972
717.02	30.640
717.34	32.374
717.66	32.639
717.97	38.258
718.29	33.451
718.61	26.689
718.93	32.180
719.24	29.866
719.56	31.379
719.88	30.573
720.20	30.000
720.51	29.085
720.83	31.773
721.15	30.272
721.46	31.507
721.78	29.965
722.10	30.903
722.42	34.448
722.73	31.408
723.05	30.877
723.37	30.035
723.68	30.469
724.00	34.091
724.32	36.882
724.63	31.923
724.95	36.078
725.27	31.227
725.58	34.926
725.90	29.225
726.22	31.849
726.53	33.110
726.85	34.528
727.16	35.570
727.48	28.571
727.80	34.532
728.11	32.143
728.43	29.348
728.74	33.566
729.06	29.749
729.38	32.982
729.69	34.000
730.01	33.882
730.32	30.537
730.64	36.545
730.96	30.330
731.27	23.242
731.59	26.437
731.90	30.084
732.22	32.857
732.53	33.048
732.85	32.749
733.16	29.217
733.48	31.034
733.80	34.493
734.11	34.049
734.43	28.947
734.74	30.563
735.06	30.952
735.37	32.732
735.69	29.275
736.00	34.251
736.32	27.273
736.63	30.284
736.95	32.298
737.26	31.402
737.58	31.595
737.89	31.325
738.21	30.464
738.52	32.441
738.83	34.432
739.15	34.843
739.46	29.655
739.78	32.653
740.09	34.402
740.41	33.129
740.72	35.873
741.04	35.315
741.35	31.250
741.66	31.621
741.98	33.906
742.29	35.185
742.61	31.416
742.92	33.051
743.23	31.600
743.55	29.434
743.86	33.725
744.18	34.746
744.49	30.579
744.80	37.327
745.12	34.821
745.43	40.187
745.74	34.667
746.06	29.825
746.37	33.953
746.68	36.726
747.00	35.426
747.31	33.613
747.62	29.098
747.94	31.760
748.25	32.685
748.56	40.678
748.88	36.607
749.19	30.698
749.50	35.160
749.82	39.506
750.13	32.016
750.44	33.000
750.75	33.893
751.07	32.237
751.38	29.043
751.69	31.650
752.01	34.615
752.32	29.236
752.63	34.564
752.94	33.916
753.26	36.328
753.57	35.409
753.88	34.082
754.19	31.769
754.51	32.226
754.82	27.181
755.13	30.405
755.44	30.741
755.75	31.615
756.07	33.219
756.38	33.987
756.69	30.625
757.00	34.421
757.31	32.958
757.63	28.926
757.94	30.053
758.25	30.435
758.56	29.977
758.87	30.827
759.18	32.267
759.50	30.699
759.81	32.938
760.12	32.022
760.43	26.891
760.74	30.633
761.05	31.830
761.36	31.510
761.67	28.841
761.99	29.296
762.30	32.797
762.61	29.514
762.92	31.439
763.23	37.736
763.54	38.077
763.85	34.630
764.16	31.944
764.47	33.108
764.78	30.293
765.10	30.183
765.41	32.955
765.72	30.939
766.03	31.118
766.34	31.359
766.65	33.080
766.96	36.437
767.27	39.720
767.58	46.040
767.89	43.646
768.20	46.341
768.51	34.184
768.82	35.088
769.13	32.157
769.44	34.586
769.75	31.086
770.06	34.874
770.37	32.456
770.68	36.889
770.99	40.678
771.30	35.983
771.61	35.385
771.92	34.733
772.23	34.677
772.54	36.000
772.85	38.614
773.16	33.696
773.47	33.333
773.78	38.119
774.09	39.773
774.39	47.273
774.70	40.000
775.01	38.816
775.32	40.373
775.63	46.575
775.94	48.765
776.25	36.552
776.56	45.038
776.87	45.038
777.18	37.121
777.48	48.819
777.79	51.538
778.10	50.758
778.41	45.522
778.72	43.609
779.03	41.026
779.34	39.189
779.65	43.478
779.95	50.932
780.26	35.714
780.57	55.782
780.88	42.553
781.19	50.833
781.50	49.112
781.80	39.891
782.11	35.450
782.42	40.230
782.73	43.503
783.04	35.484
783.34	33.333
783.65	40.816
783.96	45.161
784.27	35.099
784.57	38.816
784.88	54.348
785.19	42.500
785.50	45.690
785.81	55.814
786.11	52.593
786.42	44.094
786.73	48.649
787.04	57.547
787.34	42.276
787.65	53.788
787.96	41.667
788.26	45.669
788.57	51.825
788.88	47.183
789.19	43.511
789.49	43.919
789.80	51.563
790.11	45.455
790.41	52.778
790.72	51.852
791.03	50.962
791.33	52.525
791.64	44.211
791.95	74.737
792.25	55.208
792.56	43.000
792.87	60.976
793.17	57.955
793.48	71.765
793.79	64.368
794.09	54.545
794.40	62.069
794.70	49.206
795.01	43.077
795.32	39.695
795.62	45.299
795.93	52.101
796.23	49.593
796.54	63.265
796.85	60.227
797.15	66.234
797.46	69.512
797.76	66.250
798.07	65.333
798.37	66.250
798.68	76.250
798.99	65.854
799.29	70.667
799.60	52.326
799.90	56.579
800.21	68.182
800.51	71.831
800.82	63.793
801.12	67.692
801.43	84.000
801.73	72.414
802.04	54.545
802.34	63.014
802.65	60.784
802.95	73.913
803.26	80.645
803.56	80.000
803.87	82.090
804.17	73.016
804.48	77.358
804.78	70.833
805.09	83.333
805.39	76.190
805.70	73.684
806.00	58.571
806.30	81.250
806.61	56.471
806.91	66.667
807.22	55.435
807.52	63.158
807.83	72.368
808.13	75.362
808.43	77.419
808.74	56.164
809.04	87.500
809.35	67.647
809.65	72.727
809.95	101.961
810.26	87.037
810.56	82.813
810.86	87.755
811.17	87.719
811.47	84.783
811.77	74.138
812.08	60.345
812.38	88.095
812.69	111.905
812.99	77.778
813.29	100.000
813.59	100.000
813.90	84.483
814.20	73.770
814.50	76.000
814.81	66.667
815.11	85.185
815.41	91.071
815.72	101.786
816.02	104.000
816.32	95.122
816.62	84.483
816.93	109.091
817.23	109.756
817.53	94.643
817.84	100.000
818.14	66.667
818.44	91.667
818.74	83.019
819.04	92.308
819.35	124.242
819.65	103.846
819.95	124.074
820.25	100.000
820.56	102.703
820.86	97.368
821.16	110.638
821.46	128.947
821.76	98.182
822.07	97.619
822.37	94.737
822.67	106.977
822.97	100.000
823.27	102.174
823.57	143.750
823.88	112.821
824.18	100.000
824.48	100.000
824.78	111.111
825.08	143.478
825.38	131.034
825.69	138.235
825.99	85.106
826.29	100.000
826.59	102.857
826.89	113.333
827.19	134.286
827.49	151.613
827.79	138.462
828.09	78.571
828.39	83.333
828.70	78.378
829.00	160.714
829.30	187.500
829.60	136.111
829.90	145.161
830.20	103.030
830.50	118.919
830.80	158.333
831.10	157.692
831.40	195.238
831.70	179.167
832.00	123.333
832.30	178.261
832.60	195.833
832.90	151.515
833.20	195.000
833.50	128.947
833.80	105.882
834.10	110.526
834.40	136.842
834.70	130.000
835.00	168.000
835.30	91.892
835.60	150.000
835.90	140.541
836.20	119.231
836.50	181.818
836.80	107.317
837.10	156.522
837.40	261.538
837.70	126.316
838.00	156.667
838.30	162.500
838.60	168.000
838.90	350.000
839.19	193.750
839.49	150.000
839.79	113.793
840.09	103.846
840.39	213.333
840.69	163.158
840.99	114.286
841.29	165.217
841.59	185.000
841.88	176.000
842.18	300.000
842.48	185.714
842.78	174.074
843.08	238.462
843.38	104.545
843.68	228.571
843.97	500.000
844.27	169.565
844.57	1250.000
844.87	278.571
845.17	200.000
845.47	157.143
845.76	204.167
846.06	514.286
846.36	229.412
846.66	292.308
846.96	212.500
847.25	261.538
847.55	131.579
847.85	200.000
848.15	440.000
848.44	272.727
848.74	223.810
849.04	204.167
849.34	188.235
849.63	300.000
849.93	212.500
850.23	966.667
850.53	512.500
850.82	281.818
851.12	176.471
851.42	179.167
851.71	181.250
852.01	0.000
852.31	176.471
852.61	450.000
852.90	158.333
853.20	333.333
853.50	-1800.000
853.79	136.000
854.09	128.125
854.39	134.483
854.68	162.069
854.98	238.095
855.28	93.548
855.57	250.000
855.87	177.778
856.17	144.444
856.46	178.947
856.76	151.613
857.05	235.294
857.35	236.364
857.65	223.077
857.94	220.000
858.24	400.000
858.53	228.571
858.83	700.000
859.13	204.348
859.42	322.222
859.72	337.500
860.01	325.000
860.31	900.000
860.60	380.000
860.90	387.500
861.20	276.923
861.49	414.286
861.79	-3500.000
862.08	485.714
862.38	288.889
862.67	235.714
862.97	400.000
863.26	163.333
863.56	925.000
863.85	315.385
864.15	241.176
864.44	188.889
864.74	333.333
865.03	300.000
865.33	400.000
865.62	186.667
865.92	533.333
866.21	850.000
866.51	520.000
866.80	216.667
867.10	866.667
867.39	2100.000
867.69	460.000
867.98	950.000
868.27	176.190
868.57	260.000
868.86	950.000
869.16	161.905
869.45	3600.000
869.75	-450.000
870.04	775.000
870.33	840.000
870.63	387.500
870.92	188.235
871.22	875.000
871.51	485.714
871.80	350.000
872.10	292.308
>>>>>End Processed Spectral Data<<<<<
