SpectraSuite Data File
++++++++++++++++++++++++++++++++++++
Date: Tue May 12 17:16:59 PDT 2015
User: schluterlab
Dark Spectrum Present: Yes
Reference Spectrum Present: Yes
Number of Sampled Component Spectra: 1
Spectrometers: USB2E3373
Integration Time (usec): 3000 (USB2E3373)
Spectra Averaged: 3 (USB2E3373)
Boxcar Smoothing: 0 (USB2E3373)
Correct for Electrical Dark: No (USB2E3373)
Strobe/Lamp Enabled: No (USB2E3373)
Correct for Detector Non-linearity: No (USB2E3373)
Correct for Stray Light: No (USB2E3373)
Number of Pixels in Processed Spectrum: 2048
>>>>>Begin Processed Spectral Data<<<<<
178.53	0.000
178.91	-241.667
179.29	-700.000
179.67	-4000.000
180.04	-126.667
180.42	700.000
180.80	1950.000
181.18	0.000
181.56	-312.500
181.94	0.000
182.31	766.667
182.69	-2500.000
183.07	600.000
183.45	-3700.000
183.83	-1550.000
184.20	370.000
184.58	485.714
184.96	-161.538
185.34	-208.333
185.72	1600.000
186.09	-600.000
186.47	-3600.000
186.85	1400.000
187.23	680.000
187.61	1800.000
187.98	475.000
188.36	228.571
188.74	408.333
189.12	316.667
189.49	900.000
189.87	0.000
190.25	462.500
190.63	3100.000
191.00	-241.667
191.38	-3400.000
191.76	-575.000
192.14	425.000
192.51	-2900.000
192.89	2050.000
193.27	1066.667
193.65	-966.667
194.02	-680.000
194.40	528.571
194.78	-185.714
195.15	300.000
195.53	-3700.000
195.91	-560.000
196.29	4600.000
196.66	250.000
197.04	725.000
197.42	-1550.000
197.79	675.000
198.17	300.000
198.55	0.000
198.92	542.857
199.30	1366.667
199.68	1650.000
200.05	616.667
200.43	-450.000
200.81	233.333
201.18	3200.000
201.56	291.667
201.94	-700.000
202.31	-325.000
202.69	-480.000
203.07	3900.000
203.44	-466.667
203.82	358.333
204.19	700.000
204.57	-1350.000
204.95	-825.000
205.32	-760.000
205.70	433.333
206.08	800.000
206.45	-800.000
206.83	433.333
207.20	200.000
207.58	283.333
207.96	700.000
208.33	0.000
208.71	485.714
209.08	620.000
209.46	-2700.000
209.84	-850.000
210.21	860.000
210.59	-540.000
210.96	375.000
211.34	-1050.000
211.71	418.182
212.09	775.000
212.46	1700.000
212.84	-566.667
213.22	422.222
213.59	-3800.000
213.97	350.000
214.34	950.000
214.72	1133.333
215.09	933.333
215.47	-2800.000
215.84	-320.000
216.22	-400.000
216.59	0.000
216.97	0.000
217.34	1650.000
217.72	-1500.000
218.09	933.333
218.47	487.500
218.84	850.000
219.22	1100.000
219.59	1066.667
219.97	585.714
220.34	433.333
220.72	1050.000
221.09	3600.000
221.47	233.333
221.84	933.333
222.22	300.000
222.59	216.667
222.97	307.143
223.34	281.250
223.72	-1900.000
224.09	1033.333
224.46	261.538
224.84	-850.000
225.21	355.556
225.59	240.000
225.96	1066.667
226.34	-560.000
226.71	-675.000
227.08	-540.000
227.46	0.000
227.83	-516.667
228.21	-1750.000
228.58	308.333
228.95	925.000
229.33	300.000
229.70	800.000
230.08	323.077
230.45	3600.000
230.82	-775.000
231.20	-833.333
231.57	-833.333
231.95	280.000
232.32	316.667
232.69	433.333
233.07	325.000
233.44	-1450.000
233.81	260.000
234.19	166.667
234.56	162.500
234.93	211.765
235.31	210.000
235.68	250.000
236.05	146.429
236.43	125.926
236.80	285.714
237.17	144.828
237.55	121.875
237.92	95.000
238.29	109.091
238.67	128.125
239.04	85.366
239.41	52.083
239.79	67.500
240.16	60.417
240.53	67.213
240.91	55.072
241.28	50.847
241.65	50.000
242.02	60.563
242.40	44.286
242.77	46.154
243.14	22.785
243.51	42.424
243.89	22.430
244.26	28.972
244.63	19.802
245.00	24.771
245.38	16.102
245.75	24.242
246.12	31.111
246.49	23.404
246.87	18.033
247.24	22.000
247.61	24.375
247.98	23.810
248.36	12.121
248.73	24.490
249.10	13.690
249.47	21.500
249.84	16.418
250.22	16.216
250.59	16.500
250.96	14.346
251.33	12.093
251.70	15.179
252.08	11.765
252.45	11.155
252.82	14.068
253.19	12.648
253.56	12.308
253.94	11.232
254.31	9.302
254.68	16.028
255.05	13.103
255.42	16.058
255.79	12.052
256.16	11.186
256.54	12.662
256.91	10.784
257.28	11.706
257.65	8.464
258.02	11.799
258.39	14.327
258.76	10.725
259.14	7.714
259.51	11.079
259.88	8.815
260.25	7.692
260.62	9.589
260.99	6.336
261.36	8.635
261.73	7.979
262.10	7.853
262.47	11.000
262.85	8.000
263.22	8.226
263.59	8.951
263.96	8.772
264.33	9.136
264.70	10.319
265.07	7.805
265.44	6.881
265.81	8.255
266.18	8.467
266.55	7.329
266.92	7.606
267.29	8.772
267.66	7.175
268.03	6.951
268.40	10.148
268.77	7.048
269.14	5.423
269.51	7.350
269.88	6.531
270.25	3.888
270.62	4.936
270.99	8.519
271.36	8.333
271.73	6.499
272.10	4.444
272.47	5.357
272.84	5.589
273.21	6.818
273.58	9.312
273.95	4.107
274.32	8.366
274.69	7.677
275.06	9.107
275.43	6.897
275.80	4.906
276.17	6.434
276.54	8.785
276.91	8.022
277.28	7.117
277.65	4.982
278.02	5.147
278.39	6.655
278.76	6.897
279.13	6.228
279.50	7.273
279.87	3.166
280.23	4.788
280.60	5.109
280.97	6.379
281.34	6.931
281.71	7.130
282.08	6.838
282.45	5.405
282.82	5.686
283.19	6.677
283.56	6.116
283.92	4.723
284.29	6.489
284.66	5.714
285.03	7.131
285.40	5.124
285.77	4.938
286.14	6.037
286.51	5.828
286.87	4.589
287.24	5.105
287.61	4.407
287.98	5.672
288.35	5.333
288.72	3.642
289.08	4.955
289.45	5.488
289.82	6.406
290.19	5.271
290.56	5.968
290.93	5.036
291.29	5.663
291.66	5.367
292.03	5.891
292.40	5.420
292.77	4.875
293.13	5.421
293.50	4.318
293.87	4.201
294.24	4.336
294.60	6.057
294.97	5.455
295.34	5.046
295.71	4.862
296.08	4.267
296.44	5.464
296.81	5.211
297.18	3.802
297.55	3.941
297.91	3.079
298.28	5.072
298.65	5.521
299.02	5.308
299.38	4.436
299.75	3.902
300.12	4.358
300.48	4.215
300.85	5.125
301.22	4.186
301.59	3.420
301.95	4.201
302.32	3.842
302.69	4.186
303.05	5.387
303.42	4.372
303.79	4.659
304.15	4.290
304.52	3.700
304.89	4.478
305.25	4.004
305.62	4.797
305.99	2.391
306.35	4.105
306.72	4.475
307.09	4.658
307.45	2.746
307.82	4.012
308.19	3.608
308.55	3.400
308.92	5.299
309.29	4.241
309.65	3.469
310.02	4.260
310.38	3.390
310.75	3.857
311.12	4.502
311.48	5.405
311.85	4.771
312.22	5.635
312.58	2.818
312.95	5.049
313.31	4.026
313.68	4.315
314.05	5.128
314.41	4.097
314.78	4.261
315.14	4.834
315.51	4.163
315.87	4.380
316.24	3.735
316.61	4.297
316.97	2.385
317.34	3.953
317.70	4.741
318.07	4.626
318.43	4.394
318.80	5.517
319.16	4.545
319.53	3.628
319.89	4.391
320.26	4.283
320.62	5.037
320.99	3.622
321.35	4.082
321.72	6.072
322.08	3.970
322.45	4.269
322.81	4.117
323.18	4.973
323.54	4.878
323.91	4.170
324.27	4.598
324.64	3.720
325.00	5.259
325.37	5.143
325.73	3.963
326.10	5.468
326.46	5.202
326.83	3.520
327.19	5.783
327.56	4.553
327.92	4.672
328.29	5.319
328.65	5.223
329.01	4.619
329.38	5.245
329.74	4.099
330.11	4.518
330.47	5.286
330.84	3.883
331.20	5.076
331.56	5.440
331.93	3.849
332.29	4.422
332.66	4.422
333.02	4.553
333.38	5.236
333.75	6.422
334.11	5.117
334.48	3.932
334.84	3.970
335.20	4.705
335.57	5.122
335.93	3.869
336.29	4.643
336.66	5.918
337.02	4.619
337.38	5.073
337.75	4.561
338.11	5.232
338.47	4.403
338.84	4.488
339.20	4.156
339.56	4.289
339.93	4.766
340.29	3.361
340.65	4.862
341.02	4.747
341.38	4.351
341.74	4.485
342.11	4.508
342.47	3.610
342.83	5.332
343.20	4.850
343.56	3.733
343.92	3.881
344.28	5.423
344.65	3.993
345.01	4.524
345.37	4.728
345.73	3.810
346.10	4.542
346.46	4.147
346.82	3.781
347.19	4.869
347.55	3.669
347.91	4.381
348.27	2.789
348.63	3.877
349.00	4.341
349.36	4.747
349.72	4.969
350.08	3.882
350.45	4.113
350.81	4.511
351.17	3.544
351.53	4.080
351.89	4.351
352.26	3.855
352.62	4.902
352.98	4.218
353.34	5.085
353.70	3.364
354.07	4.000
354.43	4.224
354.79	3.797
355.15	4.288
355.51	3.852
355.87	4.367
356.24	4.157
356.60	4.186
356.96	4.018
357.32	4.295
357.68	4.258
358.04	4.635
358.40	5.247
358.77	4.583
359.13	4.054
359.49	4.522
359.85	4.542
360.21	3.715
360.57	4.015
360.93	3.968
361.29	3.535
361.66	4.400
362.02	2.983
362.38	4.401
362.74	4.317
363.10	3.787
363.46	2.901
363.82	4.979
364.18	4.125
364.54	3.863
364.90	4.819
365.26	4.164
365.62	3.798
365.98	3.441
366.35	3.379
366.71	3.886
367.07	4.232
367.43	4.567
367.79	4.322
368.15	3.189
368.51	3.653
368.87	3.329
369.23	3.534
369.59	4.518
369.95	4.126
370.31	2.943
370.67	3.609
371.03	5.042
371.39	3.878
371.75	3.699
372.11	4.215
372.47	4.247
372.83	3.739
373.19	4.318
373.55	4.055
373.91	2.762
374.27	4.365
374.63	3.797
374.99	4.313
375.35	3.629
375.71	3.628
376.07	3.581
376.42	3.133
376.78	3.725
377.14	3.473
377.50	3.808
377.86	3.780
378.22	3.534
378.58	3.935
378.94	3.742
379.30	2.729
379.66	3.432
380.02	3.754
380.38	3.162
380.74	4.095
381.09	3.855
381.45	3.295
381.81	2.896
382.17	3.602
382.53	3.059
382.89	4.199
383.25	3.493
383.61	3.977
383.97	3.359
384.32	3.496
384.68	4.635
385.04	3.400
385.40	3.618
385.76	3.569
386.12	3.834
386.48	3.830
386.83	3.240
387.19	3.239
387.55	3.710
387.91	3.811
388.27	3.331
388.62	3.580
388.98	3.382
389.34	3.391
389.70	3.066
390.06	4.512
390.42	3.331
390.77	3.194
391.13	3.561
391.49	3.811
391.85	3.754
392.20	3.874
392.56	4.600
392.92	3.593
393.28	3.195
393.64	2.752
393.99	3.794
394.35	3.296
394.71	3.197
395.07	3.345
395.42	3.044
395.78	4.257
396.14	3.675
396.50	3.670
396.85	4.024
397.21	3.670
397.57	3.407
397.92	3.120
398.28	2.703
398.64	3.723
399.00	2.993
399.35	3.113
399.71	3.698
400.07	3.368
400.42	3.403
400.78	3.343
401.14	3.171
401.49	3.053
401.85	3.360
402.21	2.929
402.57	3.471
402.92	3.758
403.28	3.103
403.63	3.767
403.99	2.835
404.35	4.045
404.70	3.721
405.06	3.481
405.42	2.932
405.77	3.473
406.13	3.471
406.49	2.501
406.84	3.779
407.20	3.082
407.55	3.446
407.91	3.574
408.27	3.578
408.62	2.720
408.98	2.898
409.34	3.156
409.69	3.236
410.05	3.339
410.40	2.709
410.76	2.919
411.11	2.784
411.47	3.333
411.83	2.695
412.18	2.415
412.54	3.003
412.89	3.422
413.25	3.022
413.60	3.329
413.96	3.232
414.31	3.011
414.67	3.290
415.03	3.065
415.38	3.975
415.74	2.969
416.09	4.247
416.45	3.878
416.80	4.105
417.16	3.437
417.51	3.885
417.87	3.692
418.22	3.098
418.58	3.439
418.93	3.569
419.29	2.896
419.64	3.755
420.00	3.938
420.35	2.671
420.71	3.559
421.06	2.884
421.42	2.706
421.77	2.943
422.12	2.756
422.48	3.133
422.83	3.962
423.19	2.862
423.54	3.401
423.90	3.341
424.25	2.752
424.61	2.902
424.96	2.372
425.31	3.010
425.67	3.030
426.02	3.141
426.38	2.684
426.73	3.008
427.09	3.381
427.44	3.095
427.79	2.573
428.15	3.889
428.50	4.229
428.85	3.469
429.21	3.404
429.56	2.991
429.92	3.282
430.27	2.854
430.62	2.594
430.98	3.293
431.33	2.621
431.68	2.321
432.04	3.052
432.39	3.183
432.74	3.396
433.10	2.658
433.45	3.676
433.80	3.420
434.16	3.416
434.51	2.993
434.86	3.811
435.22	2.701
435.57	3.320
435.92	3.586
436.28	3.802
436.63	3.782
436.98	3.829
437.34	3.767
437.69	2.744
438.04	3.065
438.39	3.561
438.75	4.065
439.10	3.346
439.45	3.787
439.81	3.181
440.16	3.577
440.51	3.153
440.86	3.647
441.22	3.030
441.57	3.517
441.92	2.764
442.27	3.196
442.63	2.693
442.98	3.287
443.33	3.642
443.68	3.471
444.03	2.639
444.39	3.202
444.74	3.623
445.09	3.318
445.44	3.560
445.79	3.216
446.15	3.316
446.50	3.639
446.85	3.436
447.20	2.985
447.55	3.208
447.91	3.836
448.26	4.420
448.61	3.538
448.96	3.649
449.31	3.520
449.66	4.540
450.02	3.404
450.37	3.609
450.72	3.857
451.07	4.421
451.42	4.327
451.77	3.780
452.12	3.914
452.47	3.949
452.83	3.493
453.18	4.685
453.53	3.671
453.88	3.829
454.23	3.544
454.58	4.254
454.93	3.985
455.28	3.978
455.63	3.901
455.98	4.230
456.34	3.951
456.69	3.902
457.04	3.580
457.39	3.600
457.74	4.730
458.09	3.537
458.44	4.107
458.79	4.032
459.14	3.437
459.49	4.134
459.84	4.348
460.19	4.237
460.54	4.672
460.89	3.838
461.24	3.436
461.59	4.082
461.94	4.255
462.29	4.233
462.64	4.523
462.99	4.223
463.34	4.537
463.69	5.021
464.04	4.548
464.39	3.663
464.74	3.400
465.09	4.353
465.44	4.189
465.79	3.538
466.14	4.028
466.49	3.418
466.84	4.236
467.19	4.862
467.54	4.204
467.89	4.519
468.24	3.532
468.59	3.512
468.94	4.106
469.29	4.582
469.64	5.080
469.99	5.270
470.34	4.111
470.68	4.069
471.03	4.270
471.38	3.907
471.73	4.246
472.08	4.371
472.43	4.097
472.78	4.545
473.13	4.130
473.48	4.645
473.83	5.183
474.17	4.620
474.52	4.502
474.87	3.468
475.22	4.340
475.57	3.778
475.92	3.577
476.27	3.373
476.61	4.129
476.96	4.232
477.31	3.856
477.66	3.972
478.01	3.868
478.36	3.965
478.70	3.672
479.05	3.504
479.40	3.819
479.75	3.823
480.10	3.872
480.45	3.361
480.79	4.147
481.14	3.709
481.49	3.980
481.84	3.694
482.19	3.712
482.53	3.821
482.88	4.167
483.23	3.473
483.58	3.276
483.92	4.205
484.27	3.767
484.62	4.202
484.97	3.701
485.31	3.209
485.66	2.899
486.01	2.995
486.36	2.967
486.70	2.663
487.05	2.924
487.40	3.324
487.75	3.397
488.09	3.551
488.44	3.410
488.79	3.089
489.13	3.135
489.48	3.516
489.83	3.378
490.17	3.303
490.52	3.575
490.87	3.621
491.22	4.211
491.56	3.953
491.91	3.719
492.26	4.053
492.60	3.462
492.95	4.304
493.30	4.368
493.64	3.774
493.99	4.204
494.34	3.631
494.68	3.630
495.03	3.996
495.37	4.412
495.72	4.196
496.07	3.504
496.41	3.823
496.76	3.504
497.11	4.413
497.45	4.253
497.80	3.614
498.14	3.976
498.49	4.503
498.84	4.626
499.18	4.205
499.53	4.134
499.87	3.774
500.22	3.915
500.56	4.085
500.91	4.824
501.26	4.180
501.60	3.689
501.95	3.763
502.29	4.489
502.64	4.102
502.98	3.646
503.33	3.653
503.67	3.929
504.02	3.672
504.36	4.480
504.71	4.115
505.06	4.223
505.40	3.931
505.75	3.789
506.09	4.573
506.44	4.182
506.78	4.301
507.13	4.120
507.47	4.076
507.82	4.574
508.16	4.704
508.51	4.251
508.85	3.799
509.19	4.112
509.54	4.395
509.88	5.022
510.23	4.265
510.57	3.909
510.92	3.696
511.26	4.618
511.61	4.284
511.95	4.380
512.30	4.050
512.64	4.154
512.98	3.844
513.33	3.996
513.67	4.195
514.02	4.312
514.36	4.050
514.70	4.107
515.05	4.688
515.39	4.112
515.74	5.303
516.08	4.303
516.42	5.137
516.77	4.320
517.11	4.000
517.46	4.634
517.80	3.823
518.14	4.169
518.49	4.796
518.83	4.451
519.17	4.548
519.52	4.806
519.86	4.796
520.20	5.041
520.55	4.862
520.89	5.287
521.23	4.147
521.58	4.532
521.92	4.840
522.26	4.443
522.61	5.110
522.95	4.805
523.29	4.971
523.64	4.046
523.98	4.284
524.32	4.902
524.66	4.928
525.01	4.438
525.35	4.596
525.69	5.238
526.04	5.413
526.38	5.062
526.72	4.773
527.06	4.258
527.41	5.139
527.75	5.052
528.09	4.696
528.43	5.430
528.78	4.532
529.12	4.816
529.46	4.676
529.80	4.147
530.15	4.537
530.49	3.610
530.83	4.692
531.17	4.982
531.51	4.537
531.86	4.952
532.20	4.388
532.54	4.080
532.88	5.059
533.22	4.875
533.57	3.661
533.91	4.196
534.25	4.270
534.59	5.029
534.93	4.608
535.27	4.098
535.62	4.434
535.96	4.255
536.30	5.728
536.64	3.602
536.98	4.279
537.32	5.188
537.66	4.209
538.01	5.015
538.35	4.741
538.69	4.672
539.03	3.918
539.37	3.641
539.71	4.815
540.05	4.000
540.39	5.472
540.73	4.367
541.07	3.513
541.42	4.602
541.76	4.562
542.10	3.822
542.44	4.302
542.78	4.468
543.12	3.988
543.46	4.135
543.80	4.762
544.14	4.334
544.48	3.893
544.82	4.159
545.16	3.825
545.50	4.610
545.84	4.924
546.18	4.681
546.52	4.590
546.86	4.900
547.20	4.522
547.54	5.256
547.88	5.231
548.22	4.311
548.56	4.302
548.90	5.338
549.24	4.485
549.58	4.317
549.92	4.584
550.26	4.936
550.60	4.790
550.94	4.613
551.28	4.897
551.62	5.310
551.96	4.392
552.30	3.757
552.64	5.566
552.98	4.124
553.32	5.122
553.66	4.169
554.00	4.826
554.34	4.860
554.68	5.108
555.02	4.549
555.36	4.388
555.69	4.516
556.03	4.522
556.37	4.716
556.71	5.541
557.05	4.194
557.39	5.133
557.73	5.121
558.07	4.695
558.41	5.209
558.75	5.746
559.08	5.075
559.42	5.011
559.76	5.916
560.10	4.886
560.44	4.446
560.78	4.731
561.12	4.450
561.45	4.255
561.79	4.744
562.13	4.169
562.47	4.283
562.81	4.619
563.15	4.654
563.48	3.789
563.82	4.991
564.16	4.726
564.50	4.702
564.84	4.559
565.17	4.456
565.51	4.002
565.85	4.380
566.19	3.810
566.52	3.670
566.86	4.437
567.20	4.719
567.54	4.258
567.88	4.695
568.21	3.944
568.55	4.329
568.89	4.471
569.23	3.581
569.56	3.794
569.90	3.162
570.24	3.714
570.57	3.342
570.91	3.027
571.25	3.559
571.59	3.046
571.92	2.960
572.26	2.803
572.60	3.194
572.93	3.508
573.27	2.958
573.61	2.870
573.95	3.013
574.28	3.030
574.62	2.678
574.96	2.871
575.29	2.853
575.63	2.827
575.97	2.678
576.30	2.556
576.64	2.773
576.98	2.972
577.31	3.001
577.65	2.999
577.98	2.752
578.32	2.666
578.66	2.760
578.99	2.937
579.33	2.887
579.67	2.977
580.00	2.843
580.34	2.794
580.67	3.177
581.01	3.226
581.35	2.683
581.68	2.423
582.02	2.801
582.35	2.761
582.69	3.012
583.02	2.806
583.36	2.763
583.70	2.997
584.03	3.356
584.37	3.281
584.70	2.737
585.04	3.045
585.37	2.998
585.71	3.281
586.04	3.007
586.38	2.945
586.72	3.012
587.05	3.268
587.39	2.908
587.72	3.074
588.06	2.905
588.39	2.943
588.73	3.105
589.06	3.327
589.40	3.505
589.73	3.343
590.07	3.157
590.40	3.589
590.73	3.966
591.07	3.947
591.40	3.713
591.74	3.815
592.07	3.411
592.41	3.717
592.74	3.881
593.08	3.158
593.41	3.112
593.75	3.192
594.08	3.511
594.41	3.584
594.75	3.596
595.08	3.395
595.42	3.489
595.75	3.422
596.09	3.928
596.42	3.678
596.75	3.526
597.09	4.375
597.42	3.429
597.75	3.448
598.09	4.021
598.42	3.876
598.76	3.547
599.09	3.678
599.42	3.495
599.76	3.901
600.09	3.153
600.42	3.246
600.76	3.535
601.09	3.314
601.42	3.485
601.76	3.652
602.09	3.679
602.42	3.586
602.76	3.681
603.09	3.846
603.42	4.037
603.76	3.507
604.09	3.257
604.42	3.164
604.76	3.753
605.09	3.429
605.42	3.779
605.75	3.553
606.09	3.558
606.42	3.533
606.75	3.498
607.09	3.711
607.42	3.495
607.75	3.623
608.08	3.615
608.42	3.607
608.75	3.081
609.08	3.784
609.41	4.091
609.75	3.938
610.08	3.777
610.41	3.821
610.74	3.896
611.07	4.047
611.41	3.661
611.74	3.728
612.07	3.854
612.40	4.240
612.73	3.994
613.07	4.004
613.40	4.010
613.73	3.844
614.06	3.600
614.39	3.586
614.72	3.867
615.06	3.561
615.39	4.208
615.72	4.066
616.05	4.269
616.38	4.160
616.71	3.418
617.05	4.009
617.38	3.258
617.71	4.274
618.04	3.702
618.37	4.336
618.70	4.157
619.03	3.907
619.36	5.151
619.69	4.222
620.03	5.610
620.36	3.789
620.69	5.236
621.02	4.212
621.35	4.226
621.68	4.646
622.01	5.092
622.34	3.933
622.67	4.986
623.00	4.765
623.33	4.858
623.66	3.925
623.99	3.767
624.32	3.794
624.65	4.477
624.99	4.530
625.32	4.609
625.65	3.310
625.98	3.766
626.31	5.267
626.64	3.948
626.97	4.973
627.30	4.348
627.63	4.239
627.96	3.521
628.29	5.033
628.62	3.593
628.95	4.344
629.28	6.047
629.61	5.097
629.94	4.408
630.26	5.633
630.59	5.142
630.92	5.471
631.25	6.165
631.58	5.400
631.91	4.853
632.24	4.470
632.57	3.733
632.90	4.969
633.23	6.506
633.56	5.058
633.89	5.788
634.22	5.490
634.55	5.699
634.88	6.791
635.20	5.269
635.53	5.226
635.86	7.159
636.19	5.948
636.52	5.514
636.85	4.854
637.18	5.742
637.51	4.804
637.83	5.950
638.16	5.627
638.49	6.108
638.82	5.869
639.15	4.348
639.48	6.635
639.81	5.739
640.13	6.503
640.46	5.436
640.79	4.421
641.12	5.512
641.45	6.210
641.77	5.812
642.10	6.292
642.43	6.543
642.76	5.540
643.09	5.043
643.41	7.433
643.74	6.763
644.07	6.637
644.40	5.178
644.73	8.258
645.05	7.578
645.38	7.657
645.71	5.008
646.04	7.328
646.36	6.260
646.69	5.600
647.02	7.360
647.35	7.402
647.67	7.131
648.00	7.818
648.33	7.820
648.66	6.061
648.98	5.797
649.31	7.018
649.64	4.979
649.96	5.405
650.29	6.857
650.62	7.658
650.94	9.337
651.27	7.337
651.60	6.729
651.92	7.066
652.25	6.929
652.58	5.816
652.90	5.240
653.23	6.352
653.56	6.083
653.88	5.580
654.21	6.745
654.54	7.174
654.86	6.342
655.19	7.520
655.52	4.344
655.84	1.983
656.17	1.994
656.49	2.945
656.82	3.318
657.15	2.664
657.47	2.061
657.80	1.485
658.13	1.383
658.45	1.677
658.78	2.494
659.10	2.496
659.43	2.745
659.75	3.243
660.08	3.195
660.41	4.719
660.73	6.650
661.06	7.508
661.38	8.177
661.71	5.396
662.03	5.703
662.36	6.667
662.68	9.125
663.01	7.928
663.33	7.925
663.66	6.903
663.98	9.127
664.31	10.261
664.63	7.471
664.96	10.694
665.28	7.533
665.61	7.736
665.93	6.604
666.26	6.542
666.58	8.807
666.91	8.301
667.23	10.241
667.56	8.008
667.88	9.544
668.21	7.172
668.53	6.855
668.86	8.617
669.18	7.943
669.50	7.645
669.83	8.419
670.15	7.900
670.48	7.422
670.80	9.163
671.13	8.765
671.45	9.218
671.77	7.792
672.10	8.977
672.42	7.895
672.75	7.753
673.07	6.518
673.39	6.709
673.72	7.266
674.04	7.885
674.37	7.623
674.69	6.320
675.01	6.716
675.34	8.140
675.66	11.133
675.98	8.679
676.31	7.000
676.63	8.748
676.95	8.532
677.28	9.533
677.60	8.451
677.92	7.143
678.25	7.558
678.57	7.263
678.89	8.861
679.22	8.088
679.54	8.541
679.86	7.504
680.18	5.624
680.51	5.970
680.83	7.432
681.15	6.412
681.48	9.896
681.80	7.706
682.12	8.304
682.44	6.667
682.77	9.786
683.09	8.932
683.41	7.143
683.73	10.236
684.06	7.738
684.38	6.783
684.70	8.453
685.02	7.118
685.34	7.746
685.67	8.682
685.99	6.897
686.31	7.858
686.63	6.829
686.96	7.026
687.28	6.711
687.60	7.167
687.92	8.375
688.24	9.483
688.56	8.185
688.89	6.692
689.21	7.322
689.53	9.289
689.85	5.691
690.17	9.903
690.49	8.871
690.82	9.034
691.14	10.707
691.46	8.624
691.78	8.187
692.10	7.252
692.42	6.897
692.74	6.783
693.06	8.333
693.39	9.091
693.71	9.234
694.03	10.651
694.35	9.438
694.67	8.758
694.99	8.869
695.31	8.784
695.63	8.145
695.95	7.466
696.27	11.726
696.59	10.263
696.91	7.848
697.23	7.919
697.56	8.299
697.88	4.591
698.20	7.547
698.52	7.588
698.84	8.830
699.16	10.235
699.48	7.839
699.80	10.893
700.12	10.393
700.44	10.748
700.76	11.217
701.08	9.922
701.40	9.870
701.72	12.032
702.04	13.279
702.36	12.097
702.68	11.702
703.00	9.023
703.32	11.414
703.64	12.846
703.96	9.115
704.28	9.524
704.60	10.423
704.91	8.123
705.23	11.080
705.55	11.573
705.87	9.524
706.19	13.480
706.51	11.912
706.83	8.555
707.15	12.299
707.47	11.864
707.79	8.966
708.11	8.163
708.43	7.640
708.74	9.502
709.06	8.605
709.38	10.422
709.70	8.447
710.02	8.152
710.34	10.497
710.66	11.389
710.98	11.749
711.29	10.585
711.61	11.978
711.93	7.599
712.25	8.133
712.57	9.968
712.89	15.758
713.20	10.224
713.52	14.019
713.84	14.502
714.16	7.536
714.48	6.052
714.80	11.924
715.11	11.170
715.43	9.497
715.75	7.324
716.07	9.538
716.39	10.000
716.70	8.723
717.02	15.488
717.34	14.748
717.66	12.847
717.97	16.288
718.29	15.493
718.61	14.865
718.93	13.841
719.24	16.443
719.56	11.034
719.88	9.236
720.20	10.968
720.51	10.458
720.83	11.706
721.15	13.265
721.46	12.329
721.78	12.544
722.10	14.583
722.42	15.385
722.73	9.747
723.05	17.193
723.37	19.435
723.68	15.234
724.00	12.500
724.32	15.970
724.63	15.385
724.95	17.647
725.27	17.472
725.58	9.559
725.90	9.859
726.22	11.301
726.53	12.709
726.85	13.355
727.16	12.752
727.48	12.625
727.80	13.309
728.11	16.429
728.43	13.768
728.74	12.937
729.06	10.036
729.38	12.632
729.69	14.667
730.01	14.474
730.32	13.423
730.64	11.296
730.96	13.514
731.27	8.869
731.59	6.897
731.90	10.864
732.22	10.857
732.53	10.541
732.85	14.327
733.16	9.337
733.48	11.912
733.80	13.333
734.11	16.871
734.43	7.602
734.74	8.847
735.06	12.169
735.37	10.052
735.69	7.536
736.00	10.092
736.32	13.030
736.63	6.940
736.95	13.043
737.26	11.585
737.58	15.337
737.89	10.843
738.21	8.609
738.52	14.047
738.83	12.454
739.15	17.422
739.46	16.207
739.78	12.245
740.09	9.621
740.41	12.577
740.72	12.381
741.04	13.636
741.35	13.672
741.66	14.229
741.98	13.305
742.29	17.593
742.61	10.619
742.92	10.169
743.23	16.000
743.55	11.698
743.86	9.412
744.18	18.220
744.49	17.769
744.80	9.677
745.12	17.411
745.43	14.953
745.74	15.556
746.06	15.789
746.37	15.814
746.68	16.814
747.00	11.659
747.31	18.487
747.62	11.066
747.94	11.588
748.25	11.673
748.56	13.983
748.88	18.304
749.19	13.953
749.50	9.589
749.82	14.815
750.13	13.439
750.44	11.667
750.75	15.772
751.07	8.553
751.38	10.561
751.69	9.764
752.01	11.189
752.32	13.953
752.63	16.443
752.94	13.986
753.26	13.281
753.57	11.284
753.88	17.603
754.19	13.357
754.51	12.957
754.82	10.738
755.13	12.162
755.44	13.704
755.75	15.464
756.07	12.329
756.38	13.399
756.69	12.813
757.00	14.837
757.31	11.831
757.63	10.468
757.94	10.106
758.25	9.662
758.56	10.297
758.87	11.529
759.18	11.047
759.50	10.942
759.81	12.166
760.12	11.236
760.43	7.283
760.74	10.127
761.05	10.610
761.36	7.292
761.67	10.782
761.99	13.239
762.30	9.968
762.61	10.417
762.92	17.045
763.23	15.472
763.54	13.077
763.85	11.284
764.16	13.194
764.47	13.514
764.78	13.029
765.10	10.671
765.41	9.659
765.72	10.497
766.03	9.366
766.34	10.801
766.65	9.506
766.96	15.385
767.27	17.290
767.58	18.317
767.89	24.309
768.20	20.122
768.51	15.816
768.82	17.544
769.13	15.294
769.44	15.038
769.75	13.858
770.06	15.546
770.37	13.158
770.68	12.889
770.99	16.102
771.30	16.318
771.61	16.538
771.92	12.595
772.23	16.129
772.54	17.778
772.85	18.812
773.16	16.304
773.47	17.222
773.78	22.277
774.09	29.545
774.39	24.242
774.70	18.235
775.01	13.158
775.32	21.739
775.63	24.658
775.94	30.247
776.25	26.207
776.56	22.901
776.87	22.901
777.18	18.939
777.48	22.047
777.79	30.000
778.10	21.970
778.41	22.388
778.72	24.060
779.03	21.795
779.34	20.946
779.65	25.466
779.95	22.360
780.26	23.214
780.57	29.932
780.88	31.206
781.19	23.333
781.50	27.811
781.80	26.230
782.11	21.693
782.42	16.667
782.73	23.729
783.04	19.355
783.34	22.481
783.65	23.810
783.96	25.806
784.27	27.815
784.57	19.737
784.88	22.464
785.19	28.333
785.50	33.621
785.81	40.310
786.11	20.741
786.42	18.898
786.73	27.928
787.04	33.019
787.34	18.699
787.65	42.424
787.96	34.848
788.26	28.346
788.57	29.197
788.88	25.352
789.19	32.824
789.49	27.703
789.80	25.781
790.11	31.405
790.41	27.778
790.72	25.926
791.03	29.808
791.33	29.293
791.64	33.684
791.95	40.000
792.25	28.125
792.56	33.000
792.87	37.805
793.17	30.682
793.48	37.647
793.79	48.276
794.09	32.955
794.40	40.517
794.70	36.508
795.01	22.308
795.32	22.901
795.62	21.368
795.93	31.933
796.23	35.772
796.54	34.694
796.85	37.500
797.15	49.351
797.46	43.902
797.76	28.750
798.07	40.000
798.37	43.750
798.68	48.750
798.99	52.439
799.29	28.000
799.60	34.884
799.90	44.737
800.21	53.030
800.51	45.070
800.82	44.828
801.12	63.077
801.43	53.333
801.73	36.207
802.04	57.143
802.34	47.945
802.65	60.784
802.95	36.957
803.26	67.742
803.56	56.667
803.87	55.224
804.17	42.857
804.48	41.509
804.78	48.611
805.09	59.091
805.39	63.492
805.70	64.912
806.00	42.857
806.30	54.687
806.61	34.118
806.91	47.778
807.22	38.043
807.52	40.789
807.83	57.895
808.13	47.826
808.43	56.452
808.74	41.096
809.04	53.571
809.35	51.471
809.65	42.424
809.95	58.824
810.26	77.778
810.56	78.125
810.86	59.184
811.17	52.632
811.47	63.043
811.77	41.379
812.08	67.241
812.38	54.762
812.69	80.952
812.99	66.667
813.29	68.571
813.59	70.968
813.90	60.345
814.20	63.934
814.50	60.000
814.81	54.386
815.11	74.074
815.41	71.429
815.72	75.000
816.02	72.000
816.32	85.366
816.62	65.517
816.93	118.182
817.23	124.390
817.53	60.714
817.84	68.889
818.14	80.952
818.44	77.083
818.74	81.132
819.04	71.795
819.35	106.061
819.65	82.692
819.95	92.593
820.25	74.468
820.56	113.514
820.86	115.789
821.16	61.702
821.46	113.158
821.76	72.727
822.07	66.667
822.37	81.579
822.67	88.372
822.97	86.842
823.27	80.435
823.57	56.250
823.88	84.615
824.18	60.606
824.48	104.348
824.78	80.556
825.08	139.130
825.38	127.586
825.69	88.235
825.99	65.957
826.29	52.778
826.59	80.000
826.89	93.333
827.19	80.000
827.49	109.677
827.79	76.923
828.09	85.714
828.39	83.333
828.70	56.757
829.00	100.000
829.30	168.750
829.60	105.556
829.90	106.452
830.20	81.818
830.50	100.000
830.80	116.667
831.10	142.308
831.40	138.095
831.70	191.667
832.00	123.333
832.30	169.565
832.60	158.333
832.90	154.545
833.20	190.000
833.50	92.105
833.80	108.824
834.10	81.579
834.40	110.526
834.70	80.000
835.00	120.000
835.30	97.297
835.60	143.750
835.90	89.189
836.20	111.538
836.50	118.182
836.80	92.683
837.10	117.391
837.40	276.923
837.70	142.105
838.00	133.333
838.30	145.833
838.60	172.000
838.90	180.000
839.19	187.500
839.49	133.333
839.79	127.586
840.09	115.385
840.39	186.667
840.69	189.474
840.99	123.810
841.29	152.174
841.59	200.000
841.88	128.000
842.18	344.444
842.48	135.714
842.78	159.259
843.08	269.231
843.38	172.727
843.68	214.286
843.97	371.429
844.27	156.522
844.57	1050.000
844.87	285.714
845.17	150.000
845.47	128.571
845.76	120.833
846.06	314.286
846.36	170.588
846.66	200.000
846.96	187.500
847.25	269.231
847.55	178.947
847.85	261.111
848.15	580.000
848.44	263.636
848.74	161.905
849.04	175.000
849.34	182.353
849.63	162.500
849.93	212.500
850.23	700.000
850.53	425.000
850.82	227.273
851.12	211.765
851.42	183.333
851.71	206.250
852.01	0.000
852.31	194.118
852.61	380.000
852.90	158.333
853.20	200.000
853.50	-2900.000
853.79	156.000
854.09	137.500
854.39	96.552
854.68	131.034
854.98	176.190
855.28	145.161
855.57	250.000
855.87	188.889
856.17	114.815
856.46	147.368
856.76	132.258
857.05	252.941
857.35	281.818
857.65	230.769
857.94	130.000
858.24	322.222
858.53	321.429
858.83	528.571
859.13	208.696
859.42	222.222
859.72	325.000
860.01	258.333
860.31	750.000
860.60	240.000
860.90	300.000
861.20	223.077
861.49	342.857
861.79	-2900.000
862.08	542.857
862.38	400.000
862.67	200.000
862.97	340.000
863.26	143.333
863.56	850.000
863.85	269.231
864.15	211.765
864.44	188.889
864.74	308.333
865.03	327.273
865.33	462.500
865.62	226.667
865.92	666.667
866.21	900.000
866.51	620.000
866.80	238.889
867.10	933.333
867.39	2400.000
867.69	580.000
867.98	650.000
868.27	171.429
868.57	266.667
868.86	975.000
869.16	166.667
869.45	3500.000
869.75	-350.000
870.04	725.000
870.33	680.000
870.63	362.500
870.92	194.118
871.22	825.000
871.51	371.429
871.80	316.667
872.10	276.923
>>>>>End Processed Spectral Data<<<<<
