SpectraSuite Data File
++++++++++++++++++++++++++++++++++++
Date: Tue May 12 17:15:53 PDT 2015
User: schluterlab
Dark Spectrum Present: Yes
Reference Spectrum Present: Yes
Number of Sampled Component Spectra: 1
Spectrometers: USB2E3373
Integration Time (usec): 3000 (USB2E3373)
Spectra Averaged: 3 (USB2E3373)
Boxcar Smoothing: 0 (USB2E3373)
Correct for Electrical Dark: No (USB2E3373)
Strobe/Lamp Enabled: No (USB2E3373)
Correct for Detector Non-linearity: No (USB2E3373)
Correct for Stray Light: No (USB2E3373)
Number of Pixels in Processed Spectrum: 2048
>>>>>Begin Processed Spectral Data<<<<<
178.53	0.000
178.91	-233.333
179.29	-650.000
179.67	-2200.000
180.04	-113.333
180.42	750.000
180.80	1800.000
181.18	0.000
181.56	-312.500
181.94	0.000
182.31	1333.333
182.69	-2900.000
183.07	585.714
183.45	-3200.000
183.83	-1700.000
184.20	310.000
184.58	400.000
184.96	-215.385
185.34	-216.667
185.72	1500.000
186.09	-625.000
186.47	-2700.000
186.85	933.333
187.23	640.000
187.61	1600.000
187.98	550.000
188.36	271.429
188.74	300.000
189.12	350.000
189.49	825.000
189.87	0.000
190.25	437.500
190.63	2200.000
191.00	-241.667
191.38	-2700.000
191.76	-600.000
192.14	500.000
192.51	-2700.000
192.89	1650.000
193.27	1000.000
193.65	-1066.667
194.02	-780.000
194.40	400.000
194.78	-107.143
195.15	213.333
195.53	-2800.000
195.91	-460.000
196.29	3300.000
196.66	212.500
197.04	625.000
197.42	-1300.000
197.79	550.000
198.17	308.333
198.55	0.000
198.92	614.286
199.30	1366.667
199.68	1600.000
200.05	716.667
200.43	-383.333
200.81	200.000
201.18	2600.000
201.56	208.333
201.94	-975.000
202.31	-387.500
202.69	-460.000
203.07	2900.000
203.44	-483.333
203.82	325.000
204.19	600.000
204.57	-1350.000
204.95	-675.000
205.32	-680.000
205.70	400.000
206.08	725.000
206.45	-633.333
206.83	322.222
207.20	173.684
207.58	216.667
207.96	640.000
208.33	0.000
208.71	457.143
209.08	840.000
209.46	-3300.000
209.84	-900.000
210.21	760.000
210.59	-600.000
210.96	225.000
211.34	-750.000
211.71	345.455
212.09	850.000
212.46	1650.000
212.84	-450.000
213.22	422.222
213.59	-2200.000
213.97	320.000
214.34	700.000
214.72	1000.000
215.09	1233.333
215.47	-3300.000
215.84	-350.000
216.22	-275.000
216.59	0.000
216.97	0.000
217.34	900.000
217.72	-900.000
218.09	1100.000
218.47	437.500
218.84	900.000
219.22	1166.667
219.59	866.667
219.97	442.857
220.34	433.333
220.72	1000.000
221.09	2600.000
221.47	225.000
221.84	1200.000
222.22	300.000
222.59	255.556
222.97	128.571
223.34	231.250
223.72	-1000.000
224.09	1066.667
224.46	253.846
224.84	-525.000
225.21	333.333
225.59	220.000
225.96	1100.000
226.34	-580.000
226.71	-675.000
227.08	-580.000
227.46	0.000
227.83	-466.667
228.21	-1300.000
228.58	383.333
228.95	1025.000
229.33	322.222
229.70	850.000
230.08	353.846
230.45	3000.000
230.82	-625.000
231.20	-866.667
231.57	-700.000
231.95	600.000
232.32	216.667
232.69	383.333
233.07	175.000
233.44	-1450.000
233.81	273.333
234.19	148.148
234.56	175.000
234.93	205.882
235.31	165.000
235.68	256.250
236.05	150.000
236.43	118.519
236.80	214.286
237.17	165.517
237.55	87.500
237.92	102.500
238.29	121.212
238.67	103.125
239.04	70.732
239.41	68.750
239.79	85.000
240.16	75.000
240.53	52.459
240.91	53.623
241.28	57.627
241.65	56.061
242.02	57.746
242.40	62.857
242.77	49.451
243.14	39.241
243.51	48.485
243.89	42.991
244.26	32.710
244.63	45.545
245.00	45.872
245.38	36.441
245.75	30.303
246.12	38.519
246.49	33.333
246.87	29.508
247.24	30.667
247.61	30.000
247.98	36.735
248.36	20.000
248.73	32.143
249.10	21.429
249.47	23.500
249.84	27.861
250.22	22.703
250.59	27.000
250.96	27.004
251.33	24.651
251.70	24.107
252.08	22.689
252.45	25.498
252.82	20.152
253.19	20.949
253.56	23.077
253.94	23.188
254.31	20.930
254.68	19.512
255.05	19.310
255.42	18.248
255.79	21.498
256.16	20.678
256.54	21.753
256.91	22.549
257.28	18.395
257.65	14.734
258.02	18.584
258.39	19.484
258.76	18.551
259.14	17.143
259.51	19.534
259.88	20.061
260.25	16.758
260.62	15.342
260.99	17.355
261.36	17.270
261.73	16.223
262.10	19.110
262.47	15.750
262.85	16.533
263.22	16.452
263.59	17.391
263.96	15.288
264.33	15.556
264.70	15.479
265.07	14.390
265.44	15.367
265.81	16.038
266.18	16.476
266.55	14.657
266.92	14.318
267.29	15.351
267.66	14.574
268.03	14.798
268.40	15.856
268.77	16.740
269.14	12.798
269.51	14.031
269.88	15.510
270.25	11.663
270.62	15.021
270.99	15.010
271.36	14.024
271.73	14.885
272.10	15.152
272.47	15.476
272.84	13.373
273.21	13.636
273.58	14.170
273.95	14.374
274.32	16.537
274.69	14.567
275.06	15.118
275.43	13.985
275.80	13.396
276.17	14.154
276.54	14.953
276.91	16.418
277.28	15.511
277.65	13.838
278.02	13.051
278.39	11.511
278.76	14.310
279.13	13.167
279.50	14.727
279.87	13.594
280.23	14.180
280.60	15.693
280.97	13.793
281.34	13.861
281.71	13.913
282.08	14.017
282.45	13.851
282.82	11.873
283.19	14.626
283.56	13.223
283.92	13.029
284.29	12.146
284.66	13.109
285.03	14.096
285.40	12.893
285.77	12.346
286.14	12.539
286.51	13.957
286.87	11.234
287.24	10.661
287.61	14.134
287.98	14.925
288.35	12.296
288.72	12.747
289.08	14.414
289.45	13.567
289.82	14.219
290.19	12.152
290.56	14.119
290.93	14.101
291.29	12.707
291.66	12.712
292.03	13.324
292.40	13.550
292.77	12.256
293.13	12.981
293.50	12.416
293.87	12.737
294.24	14.965
294.60	12.651
294.97	13.427
295.34	13.015
295.71	12.615
296.08	12.133
296.44	13.342
296.81	11.911
297.18	13.054
297.55	14.163
297.91	12.192
298.28	13.647
298.65	13.129
299.02	12.183
299.38	14.508
299.75	12.317
300.12	13.647
300.48	14.169
300.85	12.277
301.22	13.140
301.59	13.915
301.95	12.369
302.32	13.970
302.69	13.462
303.05	14.703
303.42	12.668
303.79	14.085
304.15	13.421
304.52	12.896
304.89	14.499
305.25	15.350
305.62	15.458
305.99	13.043
306.35	14.000
306.72	15.088
307.09	14.079
307.45	14.572
307.82	12.963
308.19	13.711
308.55	13.200
308.92	14.230
309.29	15.779
309.65	13.578
310.02	13.489
310.38	14.955
310.75	14.658
311.12	15.038
311.48	15.830
311.85	15.744
312.22	15.568
312.58	14.674
312.95	14.854
313.31	15.730
313.68	14.916
314.05	15.476
314.41	14.339
314.78	15.246
315.14	16.967
315.51	15.232
315.87	16.423
316.24	15.313
316.61	15.756
316.97	14.771
317.34	15.813
317.70	16.418
318.07	16.904
318.43	15.993
318.80	15.499
319.16	15.822
319.53	16.106
319.89	14.875
320.26	17.598
320.62	17.033
320.99	15.539
321.35	15.863
321.72	16.698
322.08	16.436
322.45	15.804
322.81	17.292
323.18	16.607
323.54	17.770
323.91	16.682
324.27	15.738
324.64	16.090
325.00	16.724
325.37	16.526
325.73	16.695
326.10	17.316
326.46	16.763
326.83	16.160
327.19	17.430
327.56	17.173
327.92	16.803
328.29	16.858
328.65	16.438
329.01	16.852
329.38	17.259
329.74	16.396
330.11	16.855
330.47	16.709
330.84	15.531
331.20	16.413
331.56	17.789
331.93	15.825
332.29	15.306
332.66	16.667
333.02	15.636
333.38	15.969
333.75	16.597
334.11	17.450
334.48	16.068
334.84	15.963
335.20	16.424
335.57	16.121
335.93	15.896
336.29	15.589
336.66	16.552
337.02	16.168
337.38	15.133
337.75	16.554
338.11	16.287
338.47	16.257
338.84	16.427
339.20	15.238
339.56	17.073
339.93	16.304
340.29	14.286
340.65	15.423
341.02	16.171
341.38	14.614
341.74	16.777
342.11	13.356
342.47	15.915
342.83	15.587
343.20	16.087
343.56	14.853
343.92	15.111
344.28	14.593
344.65	15.322
345.01	15.079
345.37	14.663
345.73	15.397
346.10	15.936
346.46	14.753
346.82	14.429
347.19	15.842
347.55	14.598
347.91	15.257
348.27	13.710
348.63	14.953
349.00	14.318
349.36	14.086
349.72	14.908
350.08	15.450
350.45	15.232
350.81	15.138
351.17	14.330
351.53	13.780
351.89	14.918
352.26	13.228
352.62	14.555
352.98	14.264
353.34	15.562
353.70	13.685
354.07	15.308
354.43	14.363
354.79	13.364
355.15	14.855
355.51	14.048
355.87	15.060
356.24	14.781
356.60	13.927
356.96	13.874
357.32	15.072
357.68	14.391
358.04	15.122
358.40	14.318
358.77	15.026
359.13	13.288
359.49	14.826
359.85	13.031
360.21	13.670
360.57	13.796
360.93	14.214
361.29	14.286
361.66	14.019
362.02	12.855
362.38	14.430
362.74	14.225
363.10	14.586
363.46	14.088
363.82	14.165
364.18	14.083
364.54	12.589
364.90	14.458
365.26	13.949
365.62	13.674
365.98	13.283
366.35	13.586
366.71	13.602
367.07	13.242
367.43	13.768
367.79	13.564
368.15	12.347
368.51	13.784
368.87	12.772
369.23	13.514
369.59	12.947
369.95	13.217
370.31	12.936
370.67	13.255
371.03	14.076
371.39	13.504
371.75	13.259
372.11	14.140
372.47	13.973
372.83	12.644
373.19	12.886
373.55	13.471
373.91	13.398
374.27	13.228
374.63	12.881
374.99	12.466
375.35	12.970
375.71	12.797
376.07	12.599
376.42	11.893
376.78	13.552
377.14	12.975
377.50	13.109
377.86	12.876
378.22	13.406
378.58	13.499
378.94	12.674
379.30	12.432
379.66	12.884
380.02	12.903
380.38	12.178
380.74	12.745
381.09	12.266
381.45	12.659
381.81	12.589
382.17	12.088
382.53	12.118
382.89	12.005
383.25	12.493
383.61	13.141
383.97	12.478
384.32	12.779
384.68	13.607
385.04	11.899
385.40	12.278
385.76	12.990
386.12	12.678
386.48	12.827
386.83	11.491
387.19	12.191
387.55	11.955
387.91	12.644
388.27	12.433
388.62	12.735
388.98	11.895
389.34	11.719
389.70	11.203
390.06	11.524
390.42	12.153
390.77	12.285
391.13	12.492
391.49	12.160
391.85	12.185
392.20	11.859
392.56	12.963
392.92	11.230
393.28	11.939
393.64	10.952
393.99	12.152
394.35	11.360
394.71	11.520
395.07	11.922
395.42	11.827
395.78	12.400
396.14	12.229
396.50	11.853
396.85	11.646
397.21	11.492
397.57	11.775
397.92	10.803
398.28	11.252
398.64	11.402
399.00	11.598
399.35	11.272
399.71	11.424
400.07	11.187
400.42	11.164
400.78	11.730
401.14	11.450
401.49	11.290
401.85	11.530
402.21	11.072
402.57	11.730
402.92	11.818
403.28	10.382
403.63	11.477
403.99	11.460
404.35	11.606
404.70	10.927
405.06	10.668
405.42	11.610
405.77	10.419
406.13	11.009
406.49	10.460
406.84	11.224
407.20	11.301
407.55	11.262
407.91	11.295
408.27	11.825
408.62	11.591
408.98	11.591
409.34	10.579
409.69	11.201
410.05	11.926
410.40	10.660
410.76	10.303
411.11	10.308
411.47	10.494
411.83	10.779
412.18	10.628
412.54	11.411
412.89	10.619
413.25	11.231
413.60	10.981
413.96	11.311
414.31	10.744
414.67	11.049
415.03	10.792
415.38	10.789
415.74	11.371
416.09	11.930
416.45	11.829
416.80	11.546
417.16	10.630
417.51	11.146
417.87	10.263
418.22	11.361
418.58	11.338
418.93	10.529
419.29	10.906
419.64	10.297
420.00	11.933
420.35	10.279
420.71	10.327
421.06	10.065
421.42	10.708
421.77	10.661
422.12	10.695
422.48	10.940
422.83	11.551
423.19	10.637
423.54	10.532
423.90	10.306
424.25	11.007
424.61	10.969
424.96	10.277
425.31	10.071
425.67	10.774
426.02	11.497
426.38	9.277
426.73	10.353
427.09	10.380
427.44	9.848
427.79	10.063
428.15	10.784
428.50	11.257
428.85	10.817
429.21	10.319
429.56	10.169
429.92	11.338
430.27	10.402
430.62	9.741
430.98	10.579
431.33	9.778
431.68	9.679
432.04	10.347
432.39	11.032
432.74	10.422
433.10	10.963
433.45	11.660
433.80	11.197
434.16	10.352
434.51	10.320
434.86	11.649
435.22	10.103
435.57	10.136
435.92	10.985
436.28	11.060
436.63	10.697
436.98	10.586
437.34	11.872
437.69	10.302
438.04	12.043
438.39	10.975
438.75	11.526
439.10	10.955
439.45	10.797
439.81	10.758
440.16	10.787
440.51	10.191
440.86	11.453
441.22	10.498
441.57	10.551
441.92	10.711
442.27	10.361
442.63	11.280
442.98	10.830
443.33	10.659
443.68	10.262
444.03	10.462
444.39	10.782
444.74	10.507
445.09	10.585
445.44	10.361
445.79	10.673
446.15	10.368
446.50	10.338
446.85	10.508
447.20	10.149
447.55	10.440
447.91	10.868
448.26	10.383
448.61	11.001
448.96	11.166
449.31	10.506
449.66	11.185
450.02	10.589
450.37	10.827
450.72	10.964
451.07	11.751
451.42	11.737
451.77	11.111
452.12	11.004
452.47	10.936
452.83	11.380
453.18	11.772
453.53	11.368
453.88	11.600
454.23	11.447
454.58	10.956
454.93	10.668
455.28	10.894
455.63	11.525
455.98	11.393
456.34	11.550
456.69	10.976
457.04	10.919
457.39	11.086
457.74	11.824
458.09	11.061
458.44	10.898
458.79	10.663
459.14	10.584
459.49	11.042
459.84	11.685
460.19	10.791
460.54	11.510
460.89	11.141
461.24	9.679
461.59	11.168
461.94	11.643
462.29	11.270
462.64	11.369
462.99	11.900
463.34	11.147
463.69	11.978
464.04	11.572
464.39	11.048
464.74	10.492
465.09	11.317
465.44	10.718
465.79	10.452
466.14	10.122
466.49	11.123
466.84	10.424
467.19	12.302
467.54	11.051
467.89	10.505
468.24	11.060
468.59	10.952
468.94	10.930
469.29	11.057
469.64	11.704
469.99	11.504
470.34	11.195
470.68	12.207
471.03	10.474
471.38	11.656
471.73	11.822
472.08	11.350
472.43	11.235
472.78	11.396
473.13	10.576
473.48	11.308
473.83	11.425
474.17	11.368
474.52	11.730
474.87	10.574
475.22	11.708
475.57	10.860
475.92	11.599
476.27	10.174
476.61	9.651
476.96	10.867
477.31	11.003
477.66	11.218
478.01	11.243
478.36	10.402
478.70	10.323
479.05	10.879
479.40	11.210
479.75	11.619
480.10	10.939
480.45	10.131
480.79	10.876
481.14	10.556
481.49	10.293
481.84	10.378
482.19	10.699
482.53	10.540
482.88	10.887
483.23	10.690
483.58	10.144
483.92	10.969
484.27	10.317
484.62	10.739
484.97	10.674
485.31	9.906
485.66	9.541
486.01	9.152
486.36	8.731
486.70	8.811
487.05	9.218
487.40	9.188
487.75	9.621
488.09	9.886
488.44	10.516
488.79	10.170
489.13	9.780
489.48	10.348
489.83	10.634
490.17	10.157
490.52	10.896
490.87	10.776
491.22	10.904
491.56	10.804
491.91	10.932
492.26	10.735
492.60	11.162
492.95	10.739
493.30	10.737
493.64	10.602
493.99	11.091
494.34	10.085
494.68	10.403
495.03	10.867
495.37	11.301
495.72	11.981
496.07	10.737
496.41	11.121
496.76	10.975
497.11	10.883
497.45	11.092
497.80	10.380
498.14	10.772
498.49	11.142
498.84	11.308
499.18	10.786
499.53	10.841
499.87	10.961
500.22	10.917
500.56	10.956
500.91	10.807
501.26	11.300
501.60	10.383
501.95	10.305
502.29	11.244
502.64	10.631
502.98	10.894
503.33	11.136
503.67	10.773
504.02	10.524
504.36	10.995
504.71	10.927
505.06	10.605
505.40	10.576
505.75	10.945
506.09	11.479
506.44	10.855
506.78	10.870
507.13	10.664
507.47	10.869
507.82	10.998
508.16	11.661
508.51	11.304
508.85	11.159
509.19	11.894
509.54	11.035
509.88	11.537
510.23	10.833
510.57	10.618
510.92	11.189
511.26	11.446
511.61	11.029
511.95	12.145
512.30	11.550
512.64	11.267
512.98	11.328
513.33	11.578
513.67	11.600
514.02	11.065
514.36	10.852
514.70	11.200
515.05	10.336
515.39	12.061
515.74	11.700
516.08	11.057
516.42	11.803
516.77	10.880
517.11	11.680
517.46	11.853
517.80	11.415
518.14	11.324
518.49	11.136
518.83	10.989
519.17	11.536
519.52	11.251
519.86	11.826
520.20	11.068
520.55	11.645
520.89	11.724
521.23	11.799
521.58	11.532
521.92	12.362
522.26	11.611
522.61	10.636
522.95	12.312
523.29	11.813
523.64	11.561
523.98	11.385
524.32	11.822
524.66	11.246
525.01	11.893
525.35	11.786
525.69	11.860
526.04	12.136
526.38	12.419
526.72	11.933
527.06	11.650
527.41	12.576
527.75	12.416
528.09	11.499
528.43	11.592
528.78	11.389
529.12	11.620
529.46	11.397
529.80	11.273
530.15	12.257
530.49	11.131
530.83	12.249
531.17	11.685
531.51	12.385
531.86	10.809
532.20	11.187
532.54	11.551
532.88	11.618
533.22	12.005
533.57	11.348
533.91	10.781
534.25	11.483
534.59	11.813
534.93	11.433
535.27	10.871
535.62	11.435
535.96	11.584
536.30	12.614
536.64	10.870
536.98	11.139
537.32	12.063
537.66	11.352
538.01	11.765
538.35	13.225
538.69	11.044
539.03	11.256
539.37	11.650
539.71	11.605
540.05	10.954
540.39	11.447
540.73	11.709
541.07	10.916
541.42	11.567
541.76	12.084
542.10	11.221
542.44	11.783
542.78	11.013
543.12	11.411
543.46	11.466
543.80	11.717
544.14	12.136
544.48	11.071
544.82	12.110
545.16	11.050
545.50	11.371
545.84	11.742
546.18	12.029
546.52	12.656
546.86	11.928
547.20	10.917
547.54	11.463
547.88	11.983
548.22	11.233
548.56	12.139
548.90	11.684
549.24	11.939
549.58	11.727
549.92	11.853
550.26	11.629
550.60	12.109
550.94	12.076
551.28	12.690
551.62	12.414
551.96	11.622
552.30	11.074
552.64	11.456
552.98	11.276
553.32	11.204
553.66	11.792
554.00	12.033
554.34	12.317
554.68	11.559
555.02	10.998
555.36	11.237
555.69	11.780
556.03	11.656
556.37	11.472
556.71	11.473
557.05	11.533
557.39	11.733
557.73	11.792
558.07	11.804
558.41	11.446
558.75	12.038
559.08	12.009
559.42	11.883
559.76	11.974
560.10	11.493
560.44	10.617
560.78	12.020
561.12	11.380
561.45	10.763
561.79	11.236
562.13	11.118
562.47	11.097
562.81	12.557
563.15	11.312
563.48	11.180
563.82	11.603
564.16	12.500
564.50	11.091
564.84	11.550
565.17	11.527
565.51	12.131
565.85	12.523
566.19	11.310
566.52	11.853
566.86	11.559
567.20	10.730
567.54	11.026
567.88	11.163
568.21	10.384
568.55	10.798
568.89	10.538
569.23	9.836
569.56	9.625
569.90	9.558
570.24	9.438
570.57	9.766
570.91	8.986
571.25	9.312
571.59	8.827
571.92	8.854
572.26	8.652
572.60	8.692
572.93	8.683
573.27	8.960
573.61	8.744
573.95	8.541
574.28	8.677
574.62	7.965
574.96	8.612
575.29	8.377
575.63	8.339
575.97	8.471
576.30	8.049
576.64	8.514
576.98	8.544
577.31	8.533
577.65	8.559
577.98	8.312
578.32	8.203
578.66	8.243
578.99	8.349
579.33	8.548
579.67	8.308
580.00	8.416
580.34	8.069
580.67	8.345
581.01	8.492
581.35	8.348
581.68	7.667
582.02	8.286
582.35	7.746
582.69	8.062
583.02	8.150
583.36	8.226
583.70	8.531
584.03	8.725
584.37	8.859
584.70	8.485
585.04	8.637
585.37	8.115
585.71	8.157
586.04	8.252
586.38	8.355
586.72	8.726
587.05	8.518
587.39	8.420
587.72	8.539
588.06	8.418
588.39	8.291
588.73	8.608
589.06	8.666
589.40	9.014
589.73	8.653
590.07	8.751
590.40	9.338
590.73	9.585
591.07	9.943
591.40	9.182
591.74	9.537
592.07	8.486
592.41	9.153
592.74	9.374
593.08	8.757
593.41	8.797
593.75	8.873
594.08	8.931
594.41	8.407
594.75	8.836
595.08	8.676
595.42	9.743
595.75	9.312
596.09	9.072
596.42	9.104
596.75	9.335
597.09	9.327
597.42	8.939
597.75	9.209
598.09	9.561
598.42	9.098
598.76	9.522
599.09	9.562
599.42	9.170
599.76	9.464
600.09	8.610
600.42	9.289
600.76	8.804
601.09	8.664
601.42	9.011
601.76	8.629
602.09	9.492
602.42	9.353
602.76	8.880
603.09	8.937
603.42	9.431
603.76	8.966
604.09	9.374
604.42	8.663
604.76	9.166
605.09	9.306
605.42	9.630
605.75	9.396
606.09	9.793
606.42	9.094
606.75	8.822
607.09	9.238
607.42	9.000
607.75	9.156
608.08	9.220
608.42	9.606
608.75	8.858
609.08	8.843
609.41	9.545
609.75	9.478
610.08	9.712
610.41	9.706
610.74	10.130
611.07	9.641
611.41	9.824
611.74	9.799
612.07	9.634
612.40	10.136
612.73	9.935
613.07	10.289
613.40	10.175
613.73	8.737
614.06	9.050
614.39	10.202
614.72	10.397
615.06	9.298
615.39	10.000
615.72	10.019
616.05	10.196
616.38	9.893
616.71	9.984
617.05	10.434
617.38	9.101
617.71	10.574
618.04	10.039
618.37	9.783
618.70	10.681
619.03	10.134
619.36	11.746
619.69	10.818
620.03	11.807
620.36	11.111
620.69	11.558
621.02	11.277
621.35	10.530
621.68	10.841
622.01	12.103
622.34	11.216
622.67	11.587
623.00	11.709
623.33	11.471
623.66	10.778
623.99	11.096
624.32	11.382
624.65	11.126
624.99	10.751
625.32	10.755
625.65	10.483
625.98	10.879
626.31	11.128
626.64	11.541
626.97	11.324
627.30	11.025
627.63	12.716
627.96	11.268
628.29	11.551
628.62	11.891
628.95	11.436
629.28	13.322
629.61	12.127
629.94	12.878
630.26	12.565
630.59	12.943
630.92	13.004
631.25	13.418
631.58	13.790
631.91	11.608
632.24	12.148
632.57	11.591
632.90	14.596
633.23	13.746
633.56	13.909
633.89	12.969
634.22	13.563
634.55	11.828
634.88	13.143
635.20	14.238
635.53	13.705
635.86	15.101
636.19	13.692
636.52	14.054
636.85	13.053
637.18	13.651
637.51	12.067
637.83	14.416
638.16	15.006
638.49	13.413
638.82	14.789
639.15	12.338
639.48	14.336
639.81	14.652
640.13	13.865
640.46	14.412
640.79	14.564
641.12	13.255
641.45	14.489
641.77	14.267
642.10	14.190
642.43	16.074
642.76	13.920
643.09	15.562
643.41	15.147
643.74	15.827
644.07	15.487
644.40	14.497
644.73	15.766
645.05	15.899
645.38	16.845
645.71	15.478
646.04	15.725
646.36	15.493
646.69	14.720
647.02	15.200
647.35	14.961
647.67	17.342
648.00	14.169
648.33	16.541
648.66	13.182
648.98	14.493
649.31	13.630
649.64	14.385
649.96	14.651
650.29	15.714
650.62	15.464
650.94	17.018
651.27	15.949
651.60	14.085
651.92	16.283
652.25	16.220
652.58	14.752
652.90	14.671
653.23	14.919
653.56	15.430
653.88	15.272
654.21	16.129
654.54	15.666
654.86	13.864
655.19	13.456
655.52	11.499
655.84	6.668
656.17	7.061
656.49	10.243
656.82	11.669
657.15	9.748
657.47	7.168
657.80	5.279
658.13	4.224
658.45	5.787
658.78	7.185
659.10	7.316
659.43	7.857
659.75	8.940
660.08	9.211
660.41	11.252
660.73	14.178
661.06	15.616
661.38	16.525
661.71	16.367
662.03	16.920
662.36	17.905
662.68	17.505
663.01	16.577
663.33	16.792
663.66	17.949
663.98	18.452
664.31	18.097
664.63	17.625
664.96	18.762
665.28	18.644
665.61	15.849
665.93	16.226
666.26	15.888
666.58	20.917
666.91	17.954
667.23	16.466
667.56	16.427
667.88	19.502
668.21	18.238
668.53	17.944
668.86	19.038
669.18	18.330
669.50	14.463
669.83	20.123
670.15	17.048
670.48	14.648
670.80	16.335
671.13	16.932
671.45	19.038
671.77	18.553
672.10	15.799
672.42	16.283
672.75	16.297
673.07	14.149
673.39	15.335
673.72	16.782
674.04	15.054
674.37	16.878
674.69	15.056
675.01	17.164
675.34	14.922
675.66	19.531
675.98	17.751
676.31	17.400
676.63	14.911
676.95	15.675
677.28	18.053
677.60	18.511
677.92	14.286
678.25	20.155
678.57	17.132
678.89	18.083
679.22	18.015
679.54	16.904
679.86	15.707
680.18	15.817
680.51	13.101
680.83	12.500
681.15	17.504
681.48	17.014
681.80	14.711
682.12	13.149
682.44	14.414
682.77	16.192
683.09	16.699
683.41	16.327
683.73	18.898
684.06	16.468
684.38	17.054
684.70	16.007
685.02	13.542
685.34	15.845
685.67	15.756
685.99	13.136
686.31	14.176
686.63	16.098
686.96	16.176
687.28	13.423
687.60	14.334
687.92	17.420
688.24	17.586
688.56	15.302
688.89	12.237
689.21	16.185
689.53	16.403
689.85	13.618
690.17	14.951
690.49	17.540
690.82	17.857
691.14	17.172
691.46	16.222
691.78	18.324
692.10	14.885
692.42	13.793
692.74	17.248
693.06	17.054
693.39	14.625
693.71	15.521
694.03	17.949
694.35	19.076
694.67	14.257
694.99	15.743
695.31	17.342
695.63	19.457
695.95	18.326
696.27	20.354
696.59	17.900
696.91	16.203
697.23	18.326
697.56	14.108
697.88	13.972
698.20	15.094
698.52	14.591
698.84	14.374
699.16	17.484
699.48	17.585
699.80	18.083
700.12	18.707
700.44	16.355
700.76	18.138
701.08	16.971
701.40	16.883
701.72	22.193
702.04	19.512
702.36	19.355
702.68	24.468
703.00	18.296
703.32	17.370
703.64	18.136
703.96	19.792
704.28	19.841
704.60	20.282
704.91	19.888
705.23	18.182
705.55	18.694
705.87	20.952
706.19	20.690
706.51	20.063
706.83	20.944
707.15	17.112
707.47	18.644
707.79	17.241
708.11	16.100
708.43	17.978
708.74	13.575
709.06	14.884
709.38	17.866
709.70	16.621
710.02	18.750
710.34	16.575
710.66	19.722
710.98	23.224
711.29	19.777
711.61	16.992
711.93	21.581
712.25	17.771
712.57	17.363
712.89	20.303
713.20	20.447
713.52	21.184
713.84	20.544
714.16	15.362
714.48	16.427
714.80	17.615
715.11	18.351
715.43	16.201
715.75	18.873
716.07	20.231
716.39	19.714
716.70	20.249
717.02	22.896
717.34	25.180
717.66	22.917
717.97	25.758
718.29	20.423
718.61	19.932
718.93	19.377
719.24	20.805
719.56	21.724
719.88	19.745
720.20	18.387
720.51	21.895
720.83	20.067
721.15	24.490
721.46	23.630
721.78	20.906
722.10	22.569
722.42	25.418
722.73	21.300
723.05	22.807
723.37	26.148
723.68	23.828
724.00	20.076
724.32	22.814
724.63	22.308
724.95	25.098
725.27	19.703
725.58	25.000
725.90	16.549
726.22	22.945
726.53	19.398
726.85	20.521
727.16	25.839
727.48	20.266
727.80	17.626
728.11	22.857
728.43	22.101
728.74	19.580
729.06	18.638
729.38	25.965
729.69	27.333
730.01	22.368
730.32	20.470
730.64	22.259
730.96	19.820
731.27	14.679
731.59	16.667
731.90	18.106
732.22	14.571
732.53	15.954
732.85	22.807
733.16	19.277
733.48	19.122
733.80	20.290
734.11	19.325
734.43	18.713
734.74	17.426
735.06	19.048
735.37	15.979
735.69	18.841
736.00	22.630
736.32	19.697
736.63	12.303
736.95	19.876
737.26	23.171
737.58	22.086
737.89	21.687
738.21	18.543
738.52	22.742
738.83	21.245
739.15	20.557
739.46	22.414
739.78	22.449
740.09	19.242
740.41	20.245
740.72	21.587
741.04	25.175
741.35	23.828
741.66	23.715
741.98	22.747
742.29	25.463
742.61	23.009
742.92	20.339
743.23	22.800
743.55	23.774
743.86	21.176
744.18	23.305
744.49	26.446
744.80	28.111
745.12	24.107
745.43	27.570
745.74	22.667
746.06	19.298
746.37	27.442
746.68	25.664
747.00	20.179
747.31	28.151
747.62	18.852
747.94	19.313
748.25	20.623
748.56	26.695
748.88	25.446
749.19	26.977
749.50	20.091
749.82	25.103
750.13	21.739
750.44	21.333
750.75	18.121
751.07	20.724
751.38	21.782
751.69	18.855
752.01	18.531
752.32	18.937
752.63	22.819
752.94	22.028
753.26	17.969
753.57	28.016
753.88	22.097
754.19	15.523
754.51	19.269
754.82	20.805
755.13	20.946
755.44	21.111
755.75	21.306
756.07	17.466
756.38	22.222
756.69	16.563
757.00	19.585
757.31	18.873
757.63	18.457
757.94	17.021
758.25	16.908
758.56	16.705
758.87	18.045
759.18	17.442
759.50	19.453
759.81	20.475
760.12	20.225
760.43	15.966
760.74	21.013
761.05	14.854
761.36	16.406
761.67	16.712
761.99	20.563
762.30	16.720
762.61	18.056
762.92	23.864
763.23	22.642
763.54	21.923
763.85	21.012
764.16	22.222
764.47	18.243
764.78	20.521
765.10	19.207
765.41	17.045
765.72	19.890
766.03	17.221
766.34	14.286
766.65	19.772
766.96	22.672
767.27	25.701
767.58	29.703
767.89	29.834
768.20	31.098
768.51	21.939
768.82	26.316
769.13	21.569
769.44	18.797
769.75	19.850
770.06	24.790
770.37	20.614
770.68	18.667
770.99	29.661
771.30	23.849
771.61	20.000
771.92	20.229
772.23	20.565
772.54	27.111
772.85	26.733
773.16	25.000
773.47	26.667
773.78	26.238
774.09	25.000
774.39	33.939
774.70	24.118
775.01	27.632
775.32	27.950
775.63	34.247
775.94	34.568
776.25	30.345
776.56	32.824
776.87	36.641
777.18	28.788
777.48	45.669
777.79	46.154
778.10	32.576
778.41	42.537
778.72	40.602
779.03	29.487
779.34	27.703
779.65	31.677
779.95	32.298
780.26	22.619
780.57	34.694
780.88	34.043
781.19	34.167
781.50	30.178
781.80	23.497
782.11	28.571
782.42	19.540
782.73	27.119
783.04	30.323
783.34	22.481
783.65	31.293
783.96	30.323
784.27	23.179
784.57	32.237
784.88	35.507
785.19	33.333
785.50	44.828
785.81	37.984
786.11	31.852
786.42	33.858
786.73	35.135
787.04	34.906
787.34	31.707
787.65	35.606
787.96	35.606
788.26	33.071
788.57	35.036
788.88	35.915
789.19	29.771
789.49	38.514
789.80	35.156
790.11	33.884
790.41	33.333
790.72	35.185
791.03	37.500
791.33	44.444
791.64	54.737
791.95	45.263
792.25	37.500
792.56	35.000
792.87	35.366
793.17	44.318
793.48	49.412
793.79	47.126
794.09	51.136
794.40	37.931
794.70	35.714
795.01	32.308
795.32	32.061
795.62	33.333
795.93	37.815
796.23	32.520
796.54	39.796
796.85	38.636
797.15	64.935
797.46	45.122
797.76	45.000
798.07	50.667
798.37	56.250
798.68	48.750
798.99	63.415
799.29	57.333
799.60	44.186
799.90	50.000
800.21	63.636
800.51	57.746
800.82	67.241
801.12	52.308
801.43	62.667
801.73	62.069
802.04	51.948
802.34	56.164
802.65	74.510
802.95	65.217
803.26	72.581
803.56	80.000
803.87	73.134
804.17	55.556
804.48	56.604
804.78	66.667
805.09	71.212
805.39	66.667
805.70	71.930
806.00	52.857
806.30	71.875
806.61	55.294
806.91	46.667
807.22	30.435
807.52	48.684
807.83	60.526
808.13	46.377
808.43	74.194
808.74	46.575
809.04	58.929
809.35	67.647
809.65	60.606
809.95	68.627
810.26	92.593
810.56	78.125
810.86	69.388
811.17	77.193
811.47	63.043
811.77	56.897
812.08	44.828
812.38	88.095
812.69	73.810
812.99	66.667
813.29	108.571
813.59	112.903
813.90	55.172
814.20	75.410
814.50	58.000
814.81	57.895
815.11	85.185
815.41	64.286
815.72	67.857
816.02	90.000
816.32	95.122
816.62	86.207
816.93	109.091
817.23	104.878
817.53	67.857
817.84	86.667
818.14	61.905
818.44	77.083
818.74	81.132
819.04	105.128
819.35	121.212
819.65	98.077
819.95	101.852
820.25	87.234
820.56	129.730
820.86	105.263
821.16	59.574
821.46	123.684
821.76	69.091
822.07	50.000
822.37	97.368
822.67	104.651
822.97	94.737
823.27	89.130
823.57	115.625
823.88	79.487
824.18	93.939
824.48	113.043
824.78	119.444
825.08	108.696
825.38	137.931
825.69	100.000
825.99	68.085
826.29	69.444
826.59	137.143
826.89	90.000
827.19	91.429
827.49	77.419
827.79	115.385
828.09	80.952
828.39	108.333
828.70	72.973
829.00	139.286
829.30	187.500
829.60	105.556
829.90	83.871
830.20	93.939
830.50	118.919
830.80	183.333
831.10	138.462
831.40	147.619
831.70	204.167
832.00	123.333
832.30	143.478
832.60	141.667
832.90	106.061
833.20	140.000
833.50	81.579
833.80	97.059
834.10	110.526
834.40	121.053
834.70	130.000
835.00	144.000
835.30	75.676
835.60	121.875
835.90	116.216
836.20	161.538
836.50	113.636
836.80	97.561
837.10	108.696
837.40	276.923
837.70	121.053
838.00	146.667
838.30	183.333
838.60	140.000
838.90	300.000
839.19	168.750
839.49	116.667
839.79	134.483
840.09	161.538
840.39	180.000
840.69	173.684
840.99	133.333
841.29	156.522
841.59	195.000
841.88	152.000
842.18	344.444
842.48	160.714
842.78	166.667
843.08	161.538
843.38	190.909
843.68	207.143
843.97	557.143
844.27	152.174
844.57	850.000
844.87	235.714
845.17	244.444
845.47	128.571
845.76	133.333
846.06	514.286
846.36	205.882
846.66	261.538
846.96	212.500
847.25	153.846
847.55	168.421
847.85	194.444
848.15	600.000
848.44	300.000
848.74	138.095
849.04	191.667
849.34	94.118
849.63	262.500
849.93	212.500
850.23	1033.333
850.53	312.500
850.82	300.000
851.12	241.176
851.42	150.000
851.71	250.000
852.01	0.000
852.31	158.824
852.61	310.000
852.90	166.667
853.20	355.556
853.50	-2100.000
853.79	172.000
854.09	143.750
854.39	127.586
854.68	103.448
854.98	180.952
855.28	103.226
855.57	257.143
855.87	166.667
856.17	137.037
856.46	152.632
856.76	116.129
857.05	276.471
857.35	254.545
857.65	215.385
857.94	135.000
858.24	388.889
858.53	235.714
858.83	514.286
859.13	173.913
859.42	344.444
859.72	387.500
860.01	225.000
860.31	700.000
860.60	290.000
860.90	375.000
861.20	253.846
861.49	400.000
861.79	-3200.000
862.08	542.857
862.38	333.333
862.67	228.571
862.97	320.000
863.26	156.667
863.56	850.000
863.85	300.000
864.15	235.294
864.44	222.222
864.74	225.000
865.03	300.000
865.33	462.500
865.62	233.333
865.92	433.333
866.21	800.000
866.51	540.000
866.80	238.889
867.10	900.000
867.39	4500.000
867.69	520.000
867.98	1075.000
868.27	176.190
868.57	240.000
868.86	650.000
869.16	176.190
869.45	3200.000
869.75	-466.667
870.04	1025.000
870.33	520.000
870.63	375.000
870.92	217.647
871.22	700.000
871.51	457.143
871.80	250.000
872.10	253.846
>>>>>End Processed Spectral Data<<<<<
