SpectraSuite Data File
++++++++++++++++++++++++++++++++++++
Date: Tue May 12 16:52:26 PDT 2015
User: schluterlab
Dark Spectrum Present: Yes
Reference Spectrum Present: Yes
Number of Sampled Component Spectra: 1
Spectrometers: USB2E3373
Integration Time (usec): 3000 (USB2E3373)
Spectra Averaged: 3 (USB2E3373)
Boxcar Smoothing: 0 (USB2E3373)
Correct for Electrical Dark: No (USB2E3373)
Strobe/Lamp Enabled: No (USB2E3373)
Correct for Detector Non-linearity: No (USB2E3373)
Correct for Stray Light: No (USB2E3373)
Number of Pixels in Processed Spectrum: 2048
>>>>>Begin Processed Spectral Data<<<<<
178.53	0.000
178.91	-275.000
179.29	-900.000
179.67	-4300.000
180.04	-140.000
180.42	800.000
180.80	1600.000
181.18	0.000
181.56	-350.000
181.94	0.000
182.31	933.333
182.69	-2700.000
183.07	542.857
183.45	-4100.000
183.83	-1400.000
184.20	380.000
184.58	428.571
184.96	-253.846
185.34	-250.000
185.72	1900.000
186.09	-950.000
186.47	-3300.000
186.85	1066.667
187.23	760.000
187.61	1650.000
187.98	525.000
188.36	292.857
188.74	316.667
189.12	300.000
189.49	900.000
189.87	0.000
190.25	512.500
190.63	2100.000
191.00	-216.667
191.38	-3500.000
191.76	-700.000
192.14	437.500
192.51	-2700.000
192.89	1750.000
193.27	966.667
193.65	-733.333
194.02	-840.000
194.40	385.714
194.78	-171.429
195.15	266.667
195.53	-2900.000
195.91	-540.000
196.29	4500.000
196.66	262.500
197.04	975.000
197.42	-1250.000
197.79	625.000
198.17	325.000
198.55	0.000
198.92	528.571
199.30	1233.333
199.68	1750.000
200.05	700.000
200.43	-533.333
200.81	172.222
201.18	3900.000
201.56	275.000
201.94	-825.000
202.31	-462.500
202.69	-600.000
203.07	3400.000
203.44	-416.667
203.82	350.000
204.19	720.000
204.57	-1700.000
204.95	-725.000
205.32	-560.000
205.70	516.667
206.08	575.000
206.45	-1033.333
206.83	400.000
207.20	205.263
207.58	316.667
207.96	660.000
208.33	0.000
208.71	600.000
209.08	740.000
209.46	-3700.000
209.84	-875.000
210.21	800.000
210.59	-640.000
210.96	375.000
211.34	-650.000
211.71	345.455
212.09	975.000
212.46	1500.000
212.84	-483.333
213.22	488.889
213.59	-2600.000
213.97	370.000
214.34	1075.000
214.72	1133.333
215.09	1233.333
215.47	-3300.000
215.84	-290.000
216.22	-350.000
216.59	0.000
216.97	0.000
217.34	1250.000
217.72	-1550.000
218.09	1200.000
218.47	387.500
218.84	925.000
219.22	1166.667
219.59	1033.333
219.97	500.000
220.34	377.778
220.72	1300.000
221.09	3100.000
221.47	258.333
221.84	1033.333
222.22	340.000
222.59	227.778
222.97	221.429
223.34	193.750
223.72	-1400.000
224.09	1466.667
224.46	323.077
224.84	-875.000
225.21	344.444
225.59	273.333
225.96	1100.000
226.34	-720.000
226.71	-925.000
227.08	-580.000
227.46	0.000
227.83	-433.333
228.21	-1350.000
228.58	400.000
228.95	800.000
229.33	344.444
229.70	1000.000
230.08	330.769
230.45	3000.000
230.82	-675.000
231.20	-400.000
231.57	-966.667
231.95	640.000
232.32	275.000
232.69	500.000
233.07	300.000
233.44	-1000.000
233.81	200.000
234.19	159.259
234.56	243.750
234.93	194.118
235.31	160.000
235.68	287.500
236.05	160.714
236.43	151.852
236.80	200.000
237.17	151.724
237.55	137.500
237.92	117.500
238.29	112.121
238.67	115.625
239.04	85.366
239.41	62.500
239.79	82.500
240.16	91.667
240.53	70.492
240.91	69.565
241.28	79.661
241.65	77.273
242.02	59.155
242.40	67.143
242.77	67.033
243.14	56.962
243.51	55.556
243.89	49.533
244.26	52.336
244.63	51.485
245.00	41.284
245.38	37.288
245.75	47.727
246.12	52.593
246.49	43.262
246.87	40.984
247.24	44.667
247.61	40.000
247.98	50.340
248.36	38.182
248.73	46.429
249.10	39.286
249.47	38.000
249.84	33.831
250.22	35.135
250.59	35.000
250.96	38.819
251.33	31.163
251.70	33.929
252.08	31.933
252.45	30.279
252.82	30.798
253.19	26.087
253.56	29.615
253.94	27.536
254.31	31.783
254.68	28.571
255.05	30.345
255.42	31.022
255.79	30.945
256.16	28.814
256.54	31.494
256.91	27.778
257.28	28.763
257.65	25.705
258.02	29.204
258.39	30.086
258.76	29.565
259.14	23.714
259.51	30.029
259.88	33.131
260.25	26.374
260.62	29.041
260.99	25.069
261.36	28.969
261.73	26.596
262.10	30.366
262.47	27.500
262.85	25.333
263.22	27.506
263.59	26.598
263.96	27.569
264.33	23.704
264.70	27.764
265.07	25.854
265.44	25.229
265.81	27.830
266.18	26.316
266.55	25.296
266.92	23.937
267.29	25.439
267.66	26.233
268.03	24.664
268.40	26.216
268.77	27.313
269.14	21.692
269.51	25.835
269.88	25.918
270.25	22.678
270.62	24.893
270.99	27.181
271.36	25.407
271.73	26.205
272.10	25.657
272.47	23.810
272.84	24.950
273.21	23.140
273.58	25.304
273.95	24.025
274.32	23.735
274.69	27.756
275.06	24.772
275.43	23.372
275.80	24.528
276.17	24.632
276.54	23.364
276.91	25.560
277.28	22.263
277.65	23.063
278.02	23.162
278.39	24.101
278.76	23.966
279.13	22.776
279.50	22.727
279.87	22.719
280.23	23.389
280.60	24.270
280.97	24.483
281.34	22.937
281.71	22.609
282.08	22.906
282.45	21.791
282.82	23.244
283.19	21.145
283.56	22.479
283.92	23.290
284.29	22.795
284.66	22.185
285.03	23.715
285.40	23.140
285.77	22.377
286.14	25.077
286.51	23.160
286.87	21.994
287.24	21.321
287.61	23.252
287.98	23.284
288.35	21.926
288.72	21.396
289.08	24.024
289.45	23.323
289.82	23.125
290.19	21.523
290.56	23.581
290.93	22.014
291.29	22.376
291.66	22.316
292.03	23.422
292.40	21.274
292.77	22.284
293.13	21.113
293.50	21.457
293.87	21.138
294.24	24.056
294.60	24.092
294.97	22.797
295.34	22.311
295.71	21.551
296.08	22.800
296.44	22.999
296.81	21.216
297.18	22.687
297.55	22.167
297.91	21.552
298.28	22.826
298.65	21.350
299.02	22.437
299.38	20.624
299.75	22.683
300.12	22.133
300.48	23.068
300.85	24.553
301.22	21.744
301.59	21.344
301.95	23.221
302.32	23.166
302.69	22.398
303.05	23.906
303.42	21.861
303.79	23.402
304.15	21.122
304.52	22.939
304.89	23.454
305.25	23.693
305.62	23.667
305.99	22.391
306.35	22.000
306.72	23.725
307.09	24.120
307.45	24.076
307.82	24.383
308.19	24.227
308.55	23.800
308.92	23.651
309.29	25.148
309.65	23.984
310.02	23.631
310.38	23.330
310.75	24.301
311.12	24.521
311.48	25.579
311.85	25.286
312.22	25.310
312.58	25.364
312.95	26.311
313.31	25.187
313.68	24.203
314.05	27.656
314.41	26.071
314.78	25.852
315.14	26.351
315.51	25.922
315.87	26.095
316.24	26.050
316.61	26.321
316.97	26.330
317.34	27.493
317.70	27.919
318.07	28.737
318.43	27.504
318.80	28.196
319.16	28.234
319.53	27.699
319.89	26.882
320.26	29.236
320.62	28.388
320.99	28.027
321.35	28.479
321.72	29.412
322.08	28.994
322.45	28.338
322.81	30.192
323.18	29.751
323.54	28.833
323.91	30.100
324.27	29.531
324.64	29.066
325.00	29.828
325.37	30.101
325.73	30.101
326.10	29.909
326.46	29.645
326.83	29.360
327.19	31.406
327.56	29.313
327.92	30.656
328.29	30.524
328.65	30.308
329.01	29.341
329.38	31.557
329.74	29.035
330.11	29.540
330.47	31.202
330.84	29.336
331.20	29.780
331.56	29.793
331.93	29.683
332.29	28.997
332.66	29.847
333.02	28.952
333.38	29.319
333.75	29.358
334.11	30.201
334.48	30.256
334.84	29.476
335.20	28.400
335.57	28.296
335.93	29.941
336.29	27.446
336.66	29.331
337.02	28.400
337.38	30.095
337.75	29.392
338.11	29.283
338.47	28.450
338.84	28.281
339.20	27.532
339.56	28.091
339.93	29.181
340.29	26.723
340.65	28.500
341.02	27.836
341.38	27.094
341.74	27.741
342.11	27.796
342.47	26.743
342.83	28.548
343.20	27.324
343.56	26.132
343.92	26.755
344.28	27.671
344.65	27.873
345.01	25.952
345.37	26.202
345.73	26.587
346.10	25.657
346.46	27.831
346.82	26.235
347.19	27.743
347.55	25.371
347.91	25.604
348.27	27.266
348.63	26.661
349.00	26.428
349.36	27.004
349.72	26.758
350.08	25.854
350.45	27.342
350.81	27.599
351.17	25.963
351.53	26.790
351.89	26.418
352.26	25.170
352.62	25.189
352.98	25.690
353.34	26.425
353.70	24.694
354.07	25.846
354.43	24.808
354.79	25.285
355.15	26.110
355.51	26.208
355.87	25.753
356.24	25.481
356.60	25.114
356.96	25.777
357.32	24.717
357.68	25.771
358.04	25.532
358.40	25.487
358.77	25.995
359.13	25.300
359.49	23.277
359.85	24.348
360.21	24.889
360.57	25.109
360.93	24.170
361.29	25.397
361.66	24.459
362.02	23.935
362.38	24.747
362.74	24.912
363.10	25.245
363.46	22.997
363.82	24.544
364.18	24.040
364.54	24.678
364.90	24.431
365.26	24.774
365.62	23.895
365.98	23.606
366.35	24.345
366.71	24.011
367.07	24.096
367.43	23.304
367.79	23.338
368.15	23.406
368.51	23.915
368.87	23.166
369.23	22.938
369.59	23.196
369.95	22.937
370.31	22.724
370.67	23.803
371.03	23.529
371.39	24.100
371.75	23.378
372.11	23.589
372.47	23.630
372.83	23.589
373.19	24.058
373.55	23.299
373.91	22.721
374.27	23.148
374.63	23.051
374.99	22.911
375.35	22.849
375.71	23.087
376.07	23.939
376.42	22.634
376.78	23.186
377.14	22.936
377.50	22.846
377.86	22.037
378.22	22.182
378.58	23.184
378.94	22.933
379.30	22.559
379.66	22.155
380.02	22.287
380.38	21.956
380.74	22.953
381.09	22.371
381.45	21.156
381.81	22.340
382.17	21.673
382.53	22.016
382.89	21.526
383.25	22.143
383.61	21.326
383.97	21.536
384.32	22.001
384.68	22.400
385.04	21.923
385.40	21.827
385.76	21.065
386.12	20.903
386.48	22.006
386.83	22.188
387.19	22.144
387.55	21.790
387.91	22.229
388.27	22.844
388.62	21.772
388.98	21.341
389.34	20.999
389.70	21.757
390.06	22.134
390.42	20.605
390.77	21.069
391.13	20.640
391.49	21.113
391.85	21.846
392.20	21.275
392.56	21.087
392.92	19.708
393.28	20.235
393.64	20.470
393.99	20.984
394.35	20.895
394.71	21.291
395.07	20.803
395.42	20.375
395.78	21.283
396.14	21.145
396.50	21.059
396.85	19.756
397.21	19.735
397.57	21.040
397.92	19.411
398.28	19.691
398.64	20.244
399.00	19.615
399.35	19.807
399.71	20.475
400.07	19.349
400.42	19.463
400.78	20.352
401.14	20.787
401.49	20.219
401.85	20.452
402.21	19.449
402.57	20.586
402.92	20.788
403.28	19.451
403.63	20.188
403.99	19.903
404.35	20.340
404.70	20.437
405.06	19.147
405.42	19.868
405.77	19.846
406.13	19.794
406.49	18.931
406.84	19.233
407.20	19.806
407.55	18.954
407.91	19.464
408.27	20.073
408.62	19.929
408.98	19.101
409.34	18.469
409.69	19.166
410.05	19.201
410.40	18.846
410.76	18.890
411.11	18.720
411.47	19.815
411.83	18.746
412.18	19.444
412.54	19.520
412.89	18.584
413.25	19.840
413.60	18.692
413.96	18.791
414.31	18.831
414.67	19.863
415.03	18.838
415.38	19.432
415.74	19.078
416.09	18.926
416.45	19.651
416.80	19.564
417.16	19.414
417.51	19.490
417.87	19.149
418.22	19.320
418.58	18.981
418.93	18.858
419.29	19.100
419.64	18.958
420.00	20.107
420.35	19.222
420.71	20.070
421.06	19.305
421.42	18.365
421.77	19.656
422.12	18.467
422.48	18.901
422.83	19.364
423.19	19.060
423.54	18.760
423.90	19.366
424.25	18.602
424.61	19.617
424.96	19.142
425.31	19.212
425.67	19.416
426.02	19.630
426.38	19.253
426.73	19.838
427.09	19.810
427.44	18.683
427.79	19.268
428.15	20.035
428.50	20.229
428.85	20.223
429.21	19.827
429.56	19.392
429.92	19.393
430.27	19.497
430.62	18.747
430.98	19.611
431.33	19.103
431.68	18.469
432.04	19.141
432.39	19.813
432.74	20.550
433.10	19.546
433.45	20.505
433.80	20.960
434.16	20.126
434.51	20.485
434.86	20.142
435.22	19.449
435.57	19.739
435.92	20.433
436.28	20.968
436.63	20.367
436.98	19.989
437.34	20.719
437.69	20.605
438.04	19.892
438.39	20.899
438.75	20.601
439.10	20.507
439.45	20.520
439.81	20.127
440.16	20.418
440.51	20.552
440.86	21.425
441.22	20.563
441.57	20.735
441.92	20.533
442.27	19.433
442.63	20.122
442.98	20.690
443.33	21.050
443.68	20.423
444.03	19.934
444.39	20.810
444.74	20.238
445.09	20.748
445.44	21.573
445.79	20.858
446.15	20.684
446.50	20.939
446.85	21.414
447.20	19.751
447.55	21.207
447.91	21.257
448.26	21.246
448.61	21.227
448.96	21.078
449.31	21.232
449.66	22.591
450.02	20.313
450.37	21.766
450.72	22.755
451.07	21.466
451.42	21.458
451.77	21.879
452.12	22.065
452.47	21.993
452.83	21.521
453.18	21.982
453.53	21.314
453.88	22.571
454.23	22.080
454.58	21.737
454.93	22.624
455.28	22.338
455.63	23.050
455.98	21.940
456.34	23.222
456.69	21.524
457.04	21.539
457.39	21.143
457.74	22.128
458.09	21.392
458.44	21.961
458.79	21.167
459.14	21.877
459.49	21.687
459.84	21.848
460.19	22.768
460.54	22.051
460.89	21.695
461.24	22.337
461.59	21.485
461.94	21.749
462.29	21.796
462.64	22.487
462.99	22.585
463.34	22.424
463.69	22.565
464.04	22.395
464.39	22.095
464.74	20.985
465.09	21.764
465.44	22.035
465.79	21.502
466.14	20.986
466.49	22.246
466.84	22.742
467.19	22.496
467.54	21.201
467.89	23.181
468.24	21.714
468.59	21.726
468.94	22.886
469.29	22.847
469.64	23.215
469.99	23.008
470.34	22.328
470.68	22.483
471.03	22.015
471.38	22.185
471.73	22.534
472.08	22.635
472.43	22.346
472.78	22.983
473.13	22.966
473.48	22.372
473.83	22.615
474.17	22.614
474.52	22.749
474.87	22.115
475.22	22.730
475.57	22.193
475.92	22.688
476.27	22.252
476.61	21.555
476.96	21.891
477.31	21.954
477.66	23.618
478.01	22.331
478.36	21.885
478.70	21.737
479.05	22.437
479.40	21.875
479.75	22.443
480.10	22.701
480.45	22.082
480.79	22.535
481.14	21.541
481.49	21.409
481.84	22.032
482.19	22.052
482.53	21.607
482.88	21.416
483.23	22.373
483.58	22.217
483.92	22.852
484.27	22.303
484.62	21.944
484.97	22.088
485.31	21.102
485.66	20.717
486.01	19.773
486.36	19.652
486.70	19.776
487.05	20.061
487.40	20.228
487.75	20.591
488.09	20.369
488.44	20.554
488.79	20.965
489.13	21.463
489.48	21.774
489.83	21.643
490.17	21.883
490.52	22.351
490.87	21.767
491.22	22.651
491.56	22.530
491.91	22.446
492.26	22.673
492.60	22.551
492.95	22.293
493.30	22.520
493.64	22.686
493.99	21.825
494.34	22.501
494.68	22.178
495.03	23.080
495.37	23.098
495.72	22.517
496.07	22.552
496.41	22.502
496.76	21.992
497.11	22.365
497.45	22.490
497.80	22.243
498.14	22.053
498.49	22.609
498.84	22.710
499.18	22.258
499.53	21.819
499.87	22.552
500.22	22.801
500.56	22.284
500.91	23.145
501.26	22.416
501.60	22.040
501.95	22.491
502.29	22.400
502.64	21.967
502.98	22.099
503.33	22.094
503.67	22.958
504.02	21.764
504.36	22.941
504.71	23.037
505.06	22.337
505.40	22.602
505.75	22.451
506.09	23.285
506.44	22.321
506.78	23.157
507.13	23.219
507.47	23.532
507.82	23.504
508.16	23.175
508.51	22.174
508.85	22.792
509.19	22.271
509.54	22.461
509.88	22.924
510.23	23.676
510.57	23.214
510.92	23.427
511.26	22.942
511.61	22.009
511.95	22.997
512.30	22.600
512.64	23.001
512.98	23.116
513.33	22.797
513.67	23.097
514.02	23.377
514.36	22.586
514.70	23.253
515.05	23.388
515.39	23.684
515.74	24.002
516.08	23.366
516.42	24.645
516.77	22.720
517.11	23.680
517.46	23.653
517.80	23.430
518.14	23.606
518.49	23.098
518.83	22.033
519.17	23.960
519.52	23.594
519.86	22.888
520.20	24.055
520.55	23.120
520.89	23.218
521.23	24.124
521.58	22.834
521.92	22.915
522.26	23.223
522.61	25.074
522.95	25.105
523.29	23.918
523.64	23.179
523.98	23.826
524.32	23.702
524.66	23.304
525.01	24.142
525.35	23.512
525.69	24.804
526.04	25.461
526.38	24.132
526.72	24.224
527.06	23.655
527.41	24.486
527.75	24.224
528.09	23.600
528.43	23.307
528.78	24.270
529.12	24.262
529.46	22.794
529.80	22.897
530.15	23.807
530.49	24.128
530.83	24.132
531.17	24.108
531.51	23.483
531.86	23.007
532.20	23.857
532.54	23.729
532.88	24.672
533.22	24.132
533.57	23.124
533.91	22.844
534.25	22.908
534.59	23.567
534.93	22.526
535.27	22.368
535.62	23.279
535.96	23.582
536.30	23.522
536.64	23.540
536.98	23.348
537.32	23.937
537.66	23.151
538.01	24.025
538.35	24.704
538.69	22.998
539.03	22.761
539.37	23.604
539.71	23.951
540.05	22.338
540.39	23.899
540.73	23.861
541.07	23.338
541.42	22.637
541.76	23.243
542.10	23.181
542.44	23.317
542.78	23.474
543.12	22.945
543.46	23.183
543.80	23.622
544.14	22.353
544.48	23.236
544.82	23.364
545.16	22.587
545.50	23.479
545.84	23.927
546.18	24.967
546.52	23.672
546.86	23.469
547.20	22.933
547.54	23.053
547.88	23.175
548.22	22.708
548.56	22.746
548.90	22.894
549.24	23.816
549.58	23.325
549.92	22.855
550.26	22.853
550.60	23.087
550.94	23.609
551.28	24.345
551.62	23.241
551.96	23.581
552.30	21.951
552.64	23.948
552.98	22.809
553.32	23.880
553.66	23.192
554.00	22.587
554.34	23.369
554.68	23.320
555.02	22.675
555.36	23.338
555.69	23.953
556.03	23.439
556.37	23.072
556.71	23.859
557.05	23.198
557.39	23.600
557.73	23.720
558.07	23.877
558.41	23.578
558.75	23.735
559.08	23.731
559.42	23.193
559.76	24.519
560.10	23.469
560.44	24.353
560.78	23.529
561.12	22.378
561.45	22.778
561.79	22.534
562.13	23.310
562.47	22.583
562.81	22.576
563.15	22.818
563.48	21.988
563.82	23.394
564.16	22.264
564.50	21.640
564.84	22.006
565.17	22.816
565.51	22.845
565.85	22.579
566.19	22.321
566.52	22.623
566.86	21.716
567.20	21.461
567.54	20.688
567.88	22.222
568.21	20.669
568.55	21.449
568.89	21.214
569.23	20.362
569.56	20.248
569.90	19.799
570.24	19.421
570.57	19.403
570.91	18.721
571.25	18.832
571.59	18.528
571.92	18.165
572.26	17.736
572.60	18.717
572.93	18.315
573.27	18.150
573.61	18.002
573.95	18.202
574.28	17.862
574.62	17.746
574.96	17.676
575.29	17.976
575.63	17.362
575.97	17.746
576.30	17.337
576.64	17.684
576.98	17.692
577.31	17.940
577.65	17.264
577.98	17.087
578.32	16.820
578.66	17.321
578.99	17.327
579.33	17.636
579.67	17.378
580.00	17.358
580.34	17.278
580.67	17.271
581.01	17.226
581.35	17.154
581.68	16.727
582.02	16.656
582.35	16.597
582.69	16.855
583.02	17.312
583.36	17.169
583.70	17.893
584.03	17.524
584.37	17.971
584.70	17.243
585.04	17.392
585.37	17.020
585.71	17.596
586.04	17.319
586.38	17.357
586.72	17.735
587.05	18.271
587.39	17.421
587.72	17.492
588.06	17.333
588.39	17.656
588.73	17.761
589.06	17.771
589.40	18.372
589.73	17.994
590.07	18.840
590.40	18.850
590.73	19.243
591.07	19.431
591.40	19.242
591.74	19.440
592.07	18.844
592.41	18.905
592.74	18.565
593.08	17.773
593.41	17.714
593.75	17.804
594.08	18.047
594.41	18.182
594.75	18.356
595.08	18.244
595.42	18.170
595.75	18.065
596.09	18.491
596.42	19.119
596.75	19.071
597.09	18.943
597.42	18.735
597.75	18.621
598.09	18.424
598.42	18.972
598.76	18.080
599.09	18.389
599.42	17.958
599.76	18.385
600.09	17.763
600.42	18.198
600.76	18.117
601.09	18.191
601.42	18.409
601.76	17.830
602.09	17.807
602.42	17.893
602.76	18.748
603.09	18.552
603.42	18.642
603.76	18.510
604.09	18.313
604.42	18.418
604.76	18.570
605.09	18.776
605.42	19.017
605.75	18.160
606.09	18.630
606.42	18.489
606.75	18.616
607.09	18.042
607.42	18.763
607.75	18.232
608.08	18.440
608.42	19.086
608.75	18.828
609.08	18.258
609.41	19.636
609.75	19.048
610.08	19.110
610.41	19.016
610.74	19.134
611.07	18.554
611.41	18.953
611.74	19.551
612.07	19.557
612.40	18.860
612.73	19.920
613.07	20.223
613.40	18.847
613.73	19.471
614.06	19.250
614.39	19.697
614.72	19.488
615.06	19.090
615.39	19.109
615.72	19.313
616.05	19.890
616.38	19.280
616.71	19.859
617.05	19.055
617.38	20.000
617.71	19.629
618.04	19.742
618.37	19.511
618.70	18.880
619.03	19.780
619.36	21.106
619.69	20.844
620.03	21.461
620.36	22.030
620.69	21.456
621.02	22.147
621.35	22.564
621.68	22.198
622.01	22.214
622.34	20.685
622.67	21.980
623.00	21.443
623.33	20.918
623.66	21.224
623.99	20.822
624.32	21.206
624.65	20.869
624.99	21.028
625.32	21.977
625.65	20.138
625.98	21.409
626.31	21.291
626.64	20.653
626.97	22.265
627.30	22.748
627.63	22.292
627.96	21.753
628.29	21.782
628.62	22.156
628.95	23.936
629.28	22.699
629.61	22.583
629.94	22.126
630.26	24.003
630.59	23.848
630.92	22.691
631.25	23.935
631.58	23.915
631.91	22.835
632.24	23.712
632.57	23.674
632.90	24.224
633.23	25.079
633.56	24.447
633.89	23.794
634.22	23.466
634.55	24.086
634.88	24.863
635.20	25.897
635.53	24.971
635.86	25.168
636.19	25.253
636.52	22.595
636.85	24.488
637.18	24.702
637.51	24.693
637.83	23.799
638.16	26.143
638.49	25.269
638.82	25.704
639.15	23.502
639.48	26.303
639.81	26.252
640.13	26.012
640.46	26.296
640.79	26.268
641.12	25.984
641.45	26.261
641.77	25.363
642.10	26.104
642.43	27.738
642.76	25.000
643.09	28.242
643.41	27.910
643.74	27.338
644.07	25.959
644.40	27.663
644.73	27.628
645.05	28.232
645.38	27.718
645.71	27.314
646.04	29.008
646.36	26.917
646.69	27.520
647.02	28.800
647.35	26.772
647.67	27.553
648.00	26.710
648.33	28.571
648.66	24.394
648.98	24.928
649.31	24.831
649.64	26.556
649.96	25.605
650.29	26.286
650.62	28.277
650.94	26.958
651.27	27.751
651.60	25.822
651.92	27.189
652.25	27.244
652.58	27.518
652.90	26.647
653.23	25.258
653.56	28.635
653.88	25.991
654.21	24.340
654.54	26.061
654.86	24.484
655.19	24.934
655.52	20.784
655.84	13.669
656.17	15.412
656.49	21.987
656.82	25.656
657.15	20.523
657.47	15.524
657.80	11.254
658.13	8.847
658.45	11.867
658.78	13.975
659.10	14.607
659.43	15.368
659.75	16.696
660.08	17.607
660.41	21.688
660.73	24.467
661.06	27.027
661.38	29.813
661.71	27.878
662.03	26.996
662.36	28.381
662.68	28.864
663.01	29.189
663.33	28.491
663.66	30.178
663.98	29.960
664.31	31.530
664.63	29.119
664.96	30.394
665.28	28.249
665.61	27.358
665.93	28.113
666.26	27.664
666.58	31.009
666.91	28.958
667.23	26.707
667.56	31.622
667.88	27.593
668.21	29.303
668.53	30.040
668.86	31.263
669.18	29.939
669.50	28.926
669.83	29.774
670.15	28.482
670.48	26.562
670.80	27.291
671.13	29.084
671.45	33.066
671.77	29.128
672.10	29.623
672.42	26.316
672.75	24.684
673.07	26.232
673.39	24.601
673.72	26.298
674.04	27.957
674.37	29.038
674.69	26.766
675.01	27.985
675.34	27.519
675.66	31.055
675.98	31.164
676.31	29.600
676.63	28.231
676.95	28.373
677.28	27.789
677.60	27.364
677.92	29.563
678.25	28.876
678.57	27.933
678.89	28.210
679.22	27.574
679.54	28.648
679.86	25.829
680.18	28.120
680.51	21.725
680.83	24.324
681.15	25.823
681.48	26.389
681.80	27.145
682.12	26.817
682.44	26.667
682.77	25.979
683.09	26.796
683.41	27.959
683.73	28.150
684.06	25.992
684.38	26.938
684.70	26.259
685.02	24.826
685.34	26.408
685.67	24.920
685.99	24.466
686.31	24.499
686.63	24.228
686.96	26.144
687.28	24.497
687.60	26.621
687.92	26.801
688.24	26.552
688.56	25.801
688.89	24.283
689.21	28.516
689.53	30.632
689.85	26.423
690.17	27.767
690.49	30.040
690.82	27.941
691.14	31.717
691.46	28.542
691.78	28.850
692.10	26.336
692.42	25.227
692.74	28.876
693.06	25.969
693.39	27.470
693.71	24.754
694.03	28.600
694.35	30.321
694.67	28.717
694.99	29.047
695.31	29.279
695.63	29.638
695.95	25.792
696.27	30.088
696.59	29.594
696.91	27.595
697.23	29.412
697.56	25.104
697.88	24.152
698.20	26.415
698.52	24.319
698.84	27.721
699.16	28.358
699.48	26.271
699.80	28.540
700.12	30.485
700.44	28.037
700.76	30.310
701.08	31.070
701.40	29.091
701.72	32.353
702.04	32.791
702.36	33.602
702.68	29.255
703.00	29.825
703.32	28.288
703.64	30.227
703.96	32.292
704.28	32.804
704.60	29.577
704.91	29.132
705.23	29.830
705.55	33.531
705.87	33.651
706.19	32.915
706.51	36.364
706.83	33.038
707.15	33.422
707.47	27.361
707.79	27.586
708.11	27.438
708.43	27.416
708.74	23.529
709.06	26.977
709.38	30.521
709.70	27.520
710.02	29.891
710.34	29.006
710.66	32.500
710.98	31.421
711.29	27.298
711.61	29.805
711.93	28.571
712.25	32.530
712.57	32.797
712.89	33.636
713.20	32.268
713.52	31.464
713.84	33.233
714.16	26.667
714.48	25.360
714.80	29.539
715.11	28.989
715.43	26.536
715.75	31.268
716.07	30.058
716.39	29.714
716.70	31.464
717.02	36.700
717.34	34.532
717.66	36.458
717.97	40.152
718.29	33.099
718.61	33.108
718.93	33.218
719.24	34.899
719.56	30.690
719.88	29.936
720.20	32.903
720.51	28.105
720.83	29.766
721.15	31.633
721.46	34.247
721.78	29.965
722.10	33.681
722.42	35.452
722.73	35.740
723.05	34.035
723.37	33.216
723.68	31.250
724.00	36.364
724.32	31.559
724.63	34.231
724.95	34.118
725.27	34.572
725.58	38.235
725.90	27.817
726.22	33.562
726.53	32.776
726.85	31.270
727.16	33.893
727.48	27.575
727.80	30.935
728.11	30.714
728.43	32.971
728.74	33.566
729.06	26.882
729.38	30.877
729.69	32.333
730.01	33.553
730.32	33.893
730.64	29.900
730.96	29.730
731.27	27.217
731.59	25.000
731.90	25.905
732.22	26.286
732.53	27.920
732.85	27.193
733.16	29.217
733.48	28.840
733.80	30.145
734.11	28.221
734.43	26.608
734.74	26.810
735.06	27.513
735.37	25.258
735.69	27.536
736.00	30.275
736.32	27.273
736.63	27.129
736.95	26.398
737.26	28.049
737.58	28.221
737.89	29.518
738.21	26.821
738.52	31.438
738.83	37.363
739.15	31.359
739.46	28.276
739.78	30.952
740.09	26.531
740.41	28.528
740.72	30.476
741.04	31.119
741.35	32.422
741.66	32.411
741.98	34.335
742.29	37.037
742.61	34.956
742.92	30.932
743.23	36.800
743.55	29.811
743.86	31.765
744.18	30.932
744.49	34.298
744.80	36.866
745.12	33.929
745.43	34.579
745.74	34.667
746.06	34.211
746.37	33.023
746.68	36.283
747.00	34.529
747.31	32.773
747.62	29.098
747.94	34.335
748.25	32.296
748.56	41.525
748.88	31.250
749.19	33.953
749.50	38.813
749.82	35.391
750.13	33.202
750.44	27.333
750.75	28.188
751.07	26.316
751.38	26.403
751.69	28.283
752.01	25.524
752.32	28.571
752.63	31.544
752.94	30.769
753.26	33.594
753.57	33.852
753.88	30.337
754.19	30.325
754.51	28.904
754.82	28.523
755.13	30.405
755.44	31.852
755.75	29.553
756.07	28.767
756.38	27.451
756.69	28.750
757.00	30.564
757.31	30.986
757.63	24.793
757.94	24.468
758.25	24.638
758.56	24.714
758.87	26.065
759.18	29.360
759.50	27.052
759.81	27.003
760.12	30.056
760.43	26.050
760.74	27.342
761.05	27.056
761.36	22.917
761.67	25.876
761.99	24.789
762.30	25.723
762.61	26.042
762.92	32.197
763.23	31.698
763.54	31.154
763.85	28.016
764.16	29.861
764.47	28.041
764.78	28.013
765.10	25.305
765.41	25.852
765.72	22.099
766.03	25.680
766.34	26.481
766.65	28.517
766.96	32.794
767.27	31.776
767.58	41.584
767.89	39.779
768.20	38.415
768.51	30.612
768.82	29.386
769.13	30.980
769.44	34.962
769.75	30.712
770.06	29.412
770.37	28.947
770.68	24.889
770.99	33.051
771.30	30.962
771.61	31.923
771.92	27.863
772.23	28.629
772.54	36.000
772.85	35.644
773.16	38.043
773.47	38.889
773.78	38.119
774.09	40.909
774.39	40.000
774.70	38.235
775.01	42.105
775.32	34.161
775.63	45.205
775.94	41.358
776.25	47.586
776.56	47.328
776.87	47.328
777.18	43.182
777.48	51.181
777.79	41.538
778.10	46.212
778.41	50.000
778.72	42.105
779.03	32.051
779.34	42.568
779.65	35.404
779.95	29.814
780.26	44.048
780.57	40.816
780.88	46.099
781.19	50.833
781.50	36.686
781.80	40.437
782.11	38.624
782.42	39.080
782.73	41.808
783.04	41.290
783.34	40.310
783.65	37.415
783.96	42.581
784.27	39.073
784.57	39.474
784.88	36.957
785.19	39.167
785.50	46.552
785.81	48.837
786.11	45.926
786.42	53.543
786.73	37.838
787.04	44.340
787.34	43.089
787.65	56.061
787.96	41.667
788.26	45.669
788.57	49.635
788.88	34.507
789.19	41.221
789.49	45.270
789.80	48.437
790.11	42.149
790.41	49.074
790.72	43.519
791.03	43.269
791.33	56.566
791.64	54.737
791.95	46.316
792.25	41.667
792.56	53.000
792.87	60.976
793.17	59.091
793.48	65.882
793.79	54.023
794.09	57.955
794.40	49.138
794.70	42.063
795.01	42.308
795.32	39.695
795.62	42.735
795.93	56.303
796.23	41.463
796.54	56.122
796.85	69.318
797.15	70.130
797.46	68.293
797.76	62.500
798.07	74.667
798.37	66.250
798.68	72.500
798.99	53.659
799.29	52.000
799.60	41.860
799.90	59.211
800.21	56.061
800.51	74.648
800.82	67.241
801.12	75.385
801.43	73.333
801.73	75.862
802.04	66.234
802.34	49.315
802.65	90.196
802.95	84.783
803.26	72.581
803.56	71.667
803.87	79.104
804.17	80.952
804.48	60.377
804.78	61.111
805.09	75.758
805.39	66.667
805.70	77.193
806.00	72.857
806.30	57.813
806.61	51.765
806.91	54.444
807.22	55.435
807.52	50.000
807.83	63.158
808.13	68.116
808.43	74.194
808.74	61.644
809.04	73.214
809.35	69.118
809.65	74.242
809.95	84.314
810.26	94.444
810.56	82.813
810.86	65.306
811.17	77.193
811.47	84.783
811.77	60.345
812.08	81.034
812.38	54.762
812.69	111.905
812.99	86.667
813.29	97.143
813.59	135.484
813.90	67.241
814.20	75.410
814.50	88.000
814.81	64.912
815.11	75.926
815.41	75.000
815.72	82.143
816.02	92.000
816.32	134.146
816.62	74.138
816.93	121.212
817.23	100.000
817.53	80.357
817.84	75.556
818.14	102.381
818.44	85.417
818.74	86.792
819.04	79.487
819.35	115.152
819.65	98.077
819.95	111.111
820.25	93.617
820.56	127.027
820.86	115.789
821.16	57.447
821.46	107.895
821.76	83.636
822.07	76.190
822.37	84.211
822.67	113.953
822.97	84.211
823.27	97.826
823.57	90.625
823.88	117.949
824.18	100.000
824.48	117.391
824.78	125.000
825.08	147.826
825.38	144.828
825.69	97.059
825.99	91.489
826.29	111.111
826.59	105.714
826.89	120.000
827.19	88.571
827.49	109.677
827.79	146.154
828.09	102.381
828.39	102.778
828.70	121.622
829.00	160.714
829.30	112.500
829.60	113.889
829.90	135.484
830.20	100.000
830.50	108.108
830.80	170.833
831.10	188.462
831.40	166.667
831.70	212.500
832.00	100.000
832.30	169.565
832.60	145.833
832.90	136.364
833.20	175.000
833.50	134.211
833.80	100.000
834.10	105.263
834.40	121.053
834.70	100.000
835.00	112.000
835.30	105.405
835.60	131.250
835.90	110.811
836.20	157.692
836.50	154.545
836.80	114.634
837.10	191.304
837.40	323.077
837.70	121.053
838.00	153.333
838.30	195.833
838.60	184.000
838.90	300.000
839.19	206.250
839.49	133.333
839.79	103.448
840.09	115.385
840.39	180.000
840.69	168.421
840.99	157.143
841.29	191.304
841.59	185.000
841.88	156.000
842.18	388.889
842.48	146.429
842.78	140.741
843.08	169.231
843.38	209.091
843.68	271.429
843.97	557.143
844.27	160.870
844.57	1400.000
844.87	314.286
845.17	261.111
845.47	152.381
845.76	212.500
846.06	428.571
846.36	117.647
846.66	300.000
846.96	225.000
847.25	200.000
847.55	189.474
847.85	161.111
848.15	540.000
848.44	363.636
848.74	166.667
849.04	158.333
849.34	194.118
849.63	187.500
849.93	256.250
850.23	1200.000
850.53	512.500
850.82	263.636
851.12	188.235
851.42	195.833
851.71	293.750
852.01	0.000
852.31	211.765
852.61	450.000
852.90	166.667
853.20	333.333
853.50	-2300.000
853.79	172.000
854.09	134.375
854.39	141.379
854.68	155.172
854.98	152.381
855.28	132.258
855.57	250.000
855.87	183.333
856.17	137.037
856.46	189.474
856.76	145.161
857.05	223.529
857.35	254.545
857.65	238.462
857.94	180.000
858.24	344.444
858.53	314.286
858.83	614.286
859.13	191.304
859.42	433.333
859.72	450.000
860.01	258.333
860.31	875.000
860.60	300.000
860.90	425.000
861.20	315.385
861.49	442.857
861.79	-2700.000
862.08	585.714
862.38	411.111
862.67	207.143
862.97	380.000
863.26	146.667
863.56	725.000
863.85	300.000
864.15	305.882
864.44	222.222
864.74	333.333
865.03	309.091
865.33	400.000
865.62	293.333
865.92	650.000
866.21	800.000
866.51	720.000
866.80	216.667
867.10	900.000
867.39	2700.000
867.69	760.000
867.98	975.000
868.27	171.429
868.57	213.333
868.86	850.000
869.16	166.667
869.45	3800.000
869.75	-616.667
870.04	850.000
870.33	680.000
870.63	375.000
870.92	194.118
871.22	850.000
871.51	542.857
871.80	333.333
872.10	323.077
>>>>>End Processed Spectral Data<<<<<
