SpectraSuite Data File
++++++++++++++++++++++++++++++++++++
Date: Tue May 12 17:24:06 PDT 2015
User: schluterlab
Dark Spectrum Present: Yes
Reference Spectrum Present: Yes
Number of Sampled Component Spectra: 1
Spectrometers: USB2E3373
Integration Time (usec): 3000 (USB2E3373)
Spectra Averaged: 3 (USB2E3373)
Boxcar Smoothing: 0 (USB2E3373)
Correct for Electrical Dark: No (USB2E3373)
Strobe/Lamp Enabled: No (USB2E3373)
Correct for Detector Non-linearity: No (USB2E3373)
Correct for Stray Light: No (USB2E3373)
Number of Pixels in Processed Spectrum: 2048
>>>>>Begin Processed Spectral Data<<<<<
178.53	0.000
178.91	-233.333
179.29	-575.000
179.67	-2800.000
180.04	-133.333
180.42	200.000
180.80	1200.000
181.18	0.000
181.56	-250.000
181.94	0.000
182.31	1300.000
182.69	-2200.000
183.07	628.571
183.45	-3500.000
183.83	-1700.000
184.20	350.000
184.58	485.714
184.96	-184.615
185.34	-166.667
185.72	1300.000
186.09	-825.000
186.47	-2800.000
186.85	1100.000
187.23	500.000
187.61	1600.000
187.98	375.000
188.36	271.429
188.74	316.667
189.12	341.667
189.49	900.000
189.87	0.000
190.25	425.000
190.63	3600.000
191.00	-233.333
191.38	-4100.000
191.76	-600.000
192.14	512.500
192.51	-2600.000
192.89	1600.000
193.27	1200.000
193.65	-1233.333
194.02	-660.000
194.40	514.286
194.78	-207.143
195.15	220.000
195.53	-3100.000
195.91	-680.000
196.29	4400.000
196.66	281.250
197.04	1000.000
197.42	-2000.000
197.79	475.000
198.17	316.667
198.55	0.000
198.92	442.857
199.30	1166.667
199.68	1850.000
200.05	633.333
200.43	-350.000
200.81	272.222
201.18	3800.000
201.56	308.333
201.94	-675.000
202.31	-350.000
202.69	-580.000
203.07	2200.000
203.44	-483.333
203.82	366.667
204.19	760.000
204.57	-1400.000
204.95	-600.000
205.32	-640.000
205.70	466.667
206.08	850.000
206.45	-800.000
206.83	355.556
207.20	194.737
207.58	333.333
207.96	660.000
208.33	0.000
208.71	485.714
209.08	680.000
209.46	-2600.000
209.84	-775.000
210.21	760.000
210.59	-780.000
210.96	366.667
211.34	-800.000
211.71	336.364
212.09	1075.000
212.46	1900.000
212.84	-383.333
213.22	444.444
213.59	-3700.000
213.97	390.000
214.34	1050.000
214.72	1266.667
215.09	1133.333
215.47	-2400.000
215.84	-340.000
216.22	-337.500
216.59	0.000
216.97	0.000
217.34	1400.000
217.72	-1650.000
218.09	1066.667
218.47	300.000
218.84	775.000
219.22	933.333
219.59	933.333
219.97	442.857
220.34	388.889
220.72	1600.000
221.09	2600.000
221.47	191.667
221.84	1166.667
222.22	320.000
222.59	227.778
222.97	228.571
223.34	206.250
223.72	-1450.000
224.09	1200.000
224.46	184.615
224.84	-725.000
225.21	277.778
225.59	306.667
225.96	1133.333
226.34	-720.000
226.71	-500.000
227.08	-620.000
227.46	0.000
227.83	-433.333
228.21	-1300.000
228.58	325.000
228.95	1000.000
229.33	255.556
229.70	850.000
230.08	315.385
230.45	3700.000
230.82	-775.000
231.20	-800.000
231.57	-1100.000
231.95	620.000
232.32	283.333
232.69	650.000
233.07	300.000
233.44	-1550.000
233.81	246.667
234.19	159.259
234.56	256.250
234.93	200.000
235.31	240.000
235.68	268.750
236.05	160.714
236.43	162.963
236.80	185.714
237.17	193.103
237.55	125.000
237.92	135.000
238.29	121.212
238.67	146.875
239.04	126.829
239.41	106.250
239.79	120.000
240.16	85.417
240.53	78.689
240.91	71.014
241.28	94.915
241.65	96.970
242.02	95.775
242.40	78.571
242.77	74.725
243.14	60.759
243.51	79.798
243.89	63.551
244.26	67.290
244.63	72.277
245.00	63.303
245.38	54.237
245.75	59.091
246.12	65.926
246.49	58.865
246.87	56.557
247.24	64.667
247.61	62.500
247.98	59.864
248.36	60.606
248.73	58.163
249.10	63.095
249.47	58.000
249.84	54.726
250.22	60.000
250.59	53.000
250.96	53.165
251.33	53.953
251.70	57.143
252.08	52.101
252.45	45.418
252.82	41.065
253.19	53.360
253.56	45.385
253.94	49.275
254.31	55.039
254.68	48.432
255.05	53.103
255.42	49.635
255.79	52.117
256.16	49.831
256.54	48.377
256.91	45.425
257.28	48.495
257.65	47.022
258.02	47.493
258.39	47.851
258.76	47.246
259.14	46.857
259.51	48.980
259.88	49.848
260.25	47.802
260.62	47.397
260.99	43.526
261.36	46.797
261.73	45.479
262.10	48.429
262.47	45.000
262.85	44.267
263.22	47.815
263.59	47.315
263.96	43.860
264.33	45.185
264.70	47.666
265.07	47.561
265.44	46.560
265.81	46.934
266.18	45.767
266.55	46.099
266.92	45.414
267.29	48.026
267.66	42.825
268.03	47.534
268.40	44.609
268.77	46.476
269.14	43.384
269.51	43.207
269.88	46.122
270.25	41.685
270.62	45.708
270.99	42.799
271.36	45.528
271.73	44.444
272.10	42.828
272.47	42.857
272.84	41.717
273.21	45.661
273.58	43.725
273.95	45.791
274.32	44.163
274.69	46.260
275.06	46.266
275.43	43.295
275.80	43.019
276.17	43.015
276.54	43.738
276.91	43.470
277.28	41.606
277.65	43.542
278.02	41.728
278.39	42.266
278.76	42.414
279.13	41.993
279.50	42.000
279.87	40.596
280.23	42.910
280.60	43.796
280.97	41.379
281.34	40.924
281.71	44.348
282.08	43.248
282.45	42.905
282.82	43.478
283.19	42.130
283.56	41.322
283.92	42.182
284.29	40.433
284.66	40.168
285.03	42.289
285.40	40.496
285.77	39.352
286.14	40.712
286.51	39.571
286.87	40.823
287.24	38.288
287.61	39.362
287.98	40.299
288.35	40.296
288.72	37.026
289.08	40.991
289.45	40.244
289.82	40.156
290.19	38.507
290.56	40.466
290.93	38.561
291.29	36.602
291.66	37.006
292.03	35.484
292.40	38.618
292.77	35.655
293.13	36.091
293.50	36.572
293.87	36.179
294.24	35.105
294.60	34.859
294.97	36.783
295.34	32.935
295.71	34.166
296.08	36.267
296.44	36.213
296.81	34.491
297.18	32.446
297.55	33.744
297.91	33.374
298.28	32.609
298.65	33.742
299.02	33.534
299.38	34.772
299.75	31.585
300.12	32.913
300.48	34.426
300.85	33.015
301.22	33.256
301.59	31.250
301.95	32.205
302.32	32.829
302.69	31.448
303.05	33.333
303.42	31.502
303.79	32.828
304.15	31.023
304.52	29.915
304.89	31.770
305.25	32.369
305.62	32.623
305.99	32.065
306.35	30.105
306.72	31.009
307.09	30.952
307.45	31.785
307.82	31.070
308.19	31.443
308.55	30.900
308.92	30.913
309.29	33.136
309.65	31.615
310.02	32.454
310.38	31.406
310.75	30.665
311.12	31.322
311.48	33.205
311.85	32.347
312.22	31.710
312.58	31.778
312.95	32.136
313.31	32.678
313.68	33.396
314.05	34.066
314.41	33.054
314.78	35.511
315.14	35.355
315.51	34.532
315.87	35.036
316.24	35.387
316.61	34.020
316.97	34.862
317.34	35.669
317.70	37.313
318.07	38.523
318.43	39.016
318.80	38.441
319.16	38.374
319.53	38.673
319.89	39.068
320.26	39.851
320.62	41.300
320.99	41.754
321.35	42.301
321.72	42.600
322.08	44.137
322.45	43.324
322.81	43.824
323.18	43.783
323.54	45.296
323.91	47.688
324.27	46.242
324.64	46.367
325.00	48.190
325.37	47.555
325.73	47.723
326.10	48.302
326.46	48.720
326.83	49.520
327.19	50.683
327.56	52.236
327.92	52.541
328.29	52.373
328.65	52.312
329.01	52.866
329.38	53.892
329.74	52.946
330.11	53.606
330.47	54.135
330.84	51.337
331.20	53.553
331.56	54.491
331.93	57.228
332.29	53.316
332.66	55.272
333.02	52.148
333.38	57.068
333.75	56.464
334.11	55.705
334.48	57.265
334.84	54.899
335.20	55.603
335.57	54.408
335.93	55.845
336.29	55.556
336.66	57.118
337.02	56.801
337.38	55.546
337.75	58.277
338.11	57.722
338.47	57.155
338.84	56.139
339.20	56.364
339.56	55.845
339.93	56.104
340.29	54.370
340.65	56.999
341.02	55.833
341.38	56.568
341.74	56.395
342.11	56.678
342.47	57.260
342.83	58.326
343.20	56.508
343.56	55.282
343.92	57.721
344.28	57.496
344.65	57.376
345.01	56.667
345.37	56.410
345.73	57.540
346.10	57.211
346.46	56.938
346.82	55.710
347.19	57.110
347.55	56.753
347.91	58.610
348.27	57.707
348.63	57.437
349.00	57.578
349.36	59.611
349.72	57.875
350.08	59.783
350.45	58.264
350.81	58.716
351.17	57.935
351.53	57.891
351.89	58.042
352.26	56.311
352.62	59.050
352.98	58.512
353.34	59.630
353.70	57.722
354.07	59.000
354.43	58.756
354.79	57.403
355.15	58.729
355.51	58.006
355.87	57.982
356.24	58.814
356.60	57.610
356.96	58.681
357.32	58.252
357.68	58.223
358.04	59.422
358.40	58.771
358.77	58.978
359.13	58.258
359.49	59.970
359.85	59.047
360.21	58.990
360.57	58.905
360.93	59.163
361.29	59.812
361.66	59.135
362.02	58.239
362.38	60.173
362.74	59.731
363.10	58.626
363.46	58.564
363.82	60.098
364.18	60.242
364.54	60.515
364.90	60.107
365.26	61.485
365.62	60.290
365.98	58.981
366.35	59.724
366.71	60.583
367.07	60.887
367.43	59.570
367.79	60.705
368.15	59.701
368.51	60.786
368.87	59.647
369.23	61.608
369.59	59.744
369.95	61.748
370.31	59.890
370.67	61.138
371.03	61.204
371.39	61.911
371.75	62.526
372.11	60.231
372.47	62.055
372.83	61.387
373.19	61.343
373.55	62.337
373.91	60.635
374.27	61.839
374.63	62.169
374.99	62.668
375.35	61.962
375.71	62.797
376.07	61.804
376.42	61.637
376.78	62.492
377.14	62.779
377.50	61.361
377.86	61.691
378.22	62.035
378.58	63.378
378.94	62.100
379.30	63.008
379.66	64.178
380.02	62.874
380.38	62.119
380.74	63.322
381.09	62.734
381.45	63.642
381.81	60.757
382.17	63.004
382.53	63.587
382.89	64.518
383.25	62.877
383.61	62.709
383.97	62.687
384.32	63.532
384.68	64.112
385.04	63.540
385.40	63.998
385.76	62.434
386.12	63.884
386.48	64.377
386.83	64.242
387.19	63.722
387.55	64.134
387.91	63.222
388.27	63.236
388.62	63.263
388.98	62.974
389.34	63.415
389.70	63.620
390.06	63.902
390.42	63.048
390.77	63.391
391.13	63.669
391.49	62.795
391.85	63.323
392.20	63.588
392.56	62.605
392.92	62.268
393.28	63.173
393.64	63.704
393.99	63.900
394.35	63.331
394.71	63.269
395.07	62.956
395.42	63.759
395.78	63.726
396.14	63.976
396.50	63.418
396.85	62.744
397.21	63.538
397.57	63.299
397.92	62.161
398.28	63.376
398.64	62.769
399.00	62.694
399.35	62.158
399.71	63.631
400.07	63.927
400.42	62.209
400.78	63.402
401.14	63.124
401.49	61.924
401.85	62.746
402.21	61.921
402.57	63.615
402.92	61.818
403.28	60.859
403.63	60.918
403.99	61.701
404.35	61.547
404.70	63.556
405.06	61.089
405.42	61.041
405.77	61.246
406.13	60.466
406.49	61.057
406.84	61.252
407.20	61.301
407.55	61.538
407.91	60.498
408.27	61.795
408.62	62.034
408.98	60.852
409.34	60.199
409.69	60.672
410.05	60.405
410.40	59.658
410.76	59.702
411.11	60.249
411.47	60.432
411.83	59.402
412.18	59.843
412.54	60.781
412.89	60.000
413.25	61.117
413.60	59.171
413.96	60.144
414.31	59.858
414.67	61.266
415.03	60.473
415.38	62.019
415.74	60.455
416.09	58.838
416.45	60.375
416.80	62.348
417.16	60.216
417.51	61.083
417.87	59.324
418.22	60.024
418.58	60.382
418.93	61.154
419.29	60.136
419.64	60.872
420.00	61.158
420.35	61.266
420.71	61.085
421.06	59.976
421.42	60.737
421.77	61.466
422.12	59.482
422.48	60.349
422.83	60.491
423.19	61.285
423.54	60.230
423.90	62.118
424.25	61.970
424.61	61.579
424.96	61.152
425.31	62.178
425.67	61.448
426.02	61.638
426.38	60.793
426.73	61.596
427.09	62.218
427.44	61.058
427.79	63.007
428.15	63.877
428.50	62.743
428.85	61.670
429.21	61.156
429.56	63.011
429.92	60.965
430.27	60.716
430.62	60.059
430.98	60.778
431.33	61.038
431.68	60.543
432.04	60.321
432.39	63.008
432.74	62.119
433.10	63.344
433.45	63.756
433.80	62.659
434.16	62.165
434.51	62.848
434.86	63.146
435.22	64.452
435.57	62.063
435.92	62.721
436.28	62.673
436.63	63.749
436.98	64.471
437.34	62.957
437.69	62.262
438.04	61.290
438.39	62.230
438.75	61.804
439.10	62.547
439.45	61.673
439.81	62.175
440.16	62.741
440.51	60.980
440.86	63.020
441.22	61.905
441.57	62.415
441.92	62.389
442.27	62.577
442.63	61.890
442.98	60.237
443.33	62.667
443.68	62.676
444.03	61.970
444.39	63.041
444.74	62.578
445.09	62.612
445.44	61.955
445.79	62.963
446.15	62.737
446.50	62.342
446.85	63.297
447.20	62.040
447.55	62.643
447.91	63.612
448.26	61.768
448.61	63.350
448.96	63.344
449.31	62.321
449.66	63.289
450.02	61.696
450.37	64.464
450.72	63.306
451.07	62.536
451.42	63.545
451.77	62.371
452.12	61.656
452.47	63.487
452.83	61.972
453.18	62.763
453.53	61.456
453.88	62.743
454.23	63.393
454.58	61.364
454.93	61.864
455.28	62.791
455.63	62.825
455.98	61.985
456.34	63.708
456.69	62.683
457.04	62.649
457.39	61.543
457.74	61.712
458.09	61.651
458.44	61.939
458.79	62.387
459.14	62.739
459.49	60.872
459.84	62.826
460.19	62.429
460.54	62.222
460.89	61.194
461.24	61.054
461.59	62.868
461.94	61.229
462.29	62.185
462.64	63.631
462.99	61.292
463.34	62.281
463.69	62.311
464.04	62.464
464.39	61.763
464.74	59.965
465.09	61.869
465.44	60.718
465.79	61.677
466.14	61.102
466.49	61.367
466.84	61.204
467.19	60.223
467.54	60.420
467.89	62.383
468.24	60.741
468.59	61.310
468.94	60.990
469.29	61.759
469.64	60.772
469.99	61.311
470.34	60.342
470.68	60.621
471.03	62.175
471.38	60.464
471.73	61.332
472.08	62.753
472.43	62.322
472.78	62.356
473.13	59.199
473.48	61.002
473.83	60.954
474.17	61.763
474.52	62.322
474.87	61.455
475.22	61.508
475.57	60.703
475.92	60.347
476.27	60.773
476.61	60.804
476.96	60.763
477.31	60.720
477.66	61.889
478.01	60.289
478.36	61.071
478.70	60.943
479.05	59.519
479.40	59.921
479.75	61.271
480.10	61.084
480.45	60.084
480.79	60.737
481.14	61.246
481.49	59.469
481.84	58.751
482.19	59.869
482.53	59.684
482.88	59.409
483.23	59.450
483.58	59.381
483.92	60.878
484.27	58.476
484.62	59.465
484.97	58.707
485.31	59.016
485.66	58.645
486.01	58.296
486.36	58.474
486.70	58.524
487.05	58.416
487.40	58.096
487.75	58.013
488.09	57.955
488.44	58.477
488.79	59.285
489.13	59.351
489.48	58.330
489.83	58.924
490.17	58.092
490.52	59.475
490.87	58.966
491.22	58.777
491.56	59.376
491.91	58.871
492.26	59.332
492.60	58.861
492.95	58.858
493.30	59.509
493.64	59.075
493.99	58.229
494.34	58.673
494.68	59.008
495.03	59.452
495.37	59.568
495.72	58.881
496.07	59.973
496.41	58.645
496.76	59.181
497.11	58.440
497.45	58.746
497.80	58.665
498.14	59.639
498.49	58.171
498.84	59.626
499.18	58.547
499.53	59.302
499.87	58.670
500.22	59.420
500.56	59.656
500.91	60.111
501.26	59.394
501.60	59.016
501.95	59.453
502.29	58.756
502.64	58.536
502.98	59.004
503.33	58.619
503.67	58.985
504.02	58.397
504.36	58.643
504.71	59.839
505.06	58.799
505.40	59.289
505.75	58.606
506.09	58.283
506.44	59.352
506.78	58.507
507.13	59.719
507.47	59.195
507.82	60.049
508.16	60.804
508.51	60.338
508.85	59.069
509.19	60.303
509.54	59.912
509.88	59.423
510.23	59.314
510.57	58.591
510.92	60.789
511.26	59.940
511.61	58.493
511.95	59.333
512.30	59.450
512.64	59.865
512.98	59.969
513.33	60.451
513.67	59.762
514.02	60.883
514.36	59.657
514.70	60.427
515.05	60.469
515.39	61.020
515.74	61.400
516.08	61.057
516.42	61.694
516.77	61.280
517.11	60.480
517.46	60.614
517.80	60.131
518.14	60.676
518.49	60.419
518.83	59.011
519.17	59.956
519.52	61.169
519.86	60.599
520.20	59.890
520.55	61.278
520.89	61.379
521.23	61.332
521.58	61.159
521.92	61.341
522.26	61.493
522.61	62.805
522.95	61.922
523.29	61.111
523.64	60.405
523.98	61.972
524.32	61.765
524.66	60.696
525.01	60.769
525.35	60.813
525.69	60.927
526.04	60.738
526.38	62.390
526.72	60.621
527.06	60.142
527.41	62.515
527.75	61.108
528.09	60.506
528.43	60.647
528.78	61.777
529.12	63.034
529.46	61.368
529.80	61.916
530.15	60.695
530.49	61.011
530.83	62.645
531.17	62.300
531.51	61.557
531.86	61.775
532.20	60.630
532.54	61.268
532.88	61.961
533.22	61.487
533.57	61.745
533.91	60.723
534.25	60.762
534.59	62.047
534.93	59.841
535.27	59.590
535.62	61.727
535.96	61.348
536.30	62.645
536.64	61.677
536.98	61.926
537.32	61.875
537.66	60.714
538.01	60.495
538.35	62.009
538.69	61.590
539.03	60.386
539.37	60.740
539.71	61.173
540.05	61.108
540.39	61.635
540.73	61.962
541.07	62.422
541.42	61.692
541.76	61.652
542.10	61.282
542.44	61.347
542.78	60.730
543.12	60.491
543.46	61.153
543.80	61.591
544.14	60.805
544.48	61.314
544.82	62.324
545.16	60.170
545.50	61.278
545.84	61.932
546.18	64.239
546.52	61.639
546.86	62.863
547.20	61.951
547.54	60.925
547.88	62.348
548.22	62.720
548.56	61.167
548.90	61.388
549.24	60.897
549.58	61.147
549.92	62.083
550.26	63.692
550.60	62.209
550.94	63.365
551.28	61.586
551.62	62.483
551.96	63.446
552.30	62.030
552.64	63.689
552.98	60.503
553.32	61.972
553.66	61.238
554.00	61.261
554.34	63.382
554.68	63.105
555.02	63.204
555.36	61.303
555.69	61.387
556.03	61.401
556.37	62.078
556.71	61.213
557.05	60.485
557.39	61.467
557.73	61.995
558.07	61.972
558.41	62.988
558.75	61.354
559.08	62.902
559.42	62.276
559.76	63.934
560.10	61.046
560.44	62.376
560.78	62.212
561.12	63.318
561.45	62.140
561.79	61.923
562.13	61.529
562.47	62.557
562.81	62.459
563.15	62.056
563.48	59.503
563.82	63.693
564.16	63.806
564.50	60.579
564.84	62.614
565.17	61.260
565.51	62.685
565.85	63.233
566.19	61.369
566.52	62.214
566.86	61.705
567.20	61.461
567.54	61.572
567.88	61.920
568.21	61.108
568.55	62.062
568.89	60.447
569.23	60.052
569.56	61.062
569.90	60.115
570.24	60.375
570.57	60.123
570.91	59.282
571.25	59.609
571.59	58.347
571.92	57.696
572.26	58.032
572.60	58.428
572.93	59.201
573.27	59.161
573.61	58.717
573.95	58.740
574.28	59.331
574.62	58.477
574.96	58.409
575.29	57.822
575.63	58.092
575.97	57.692
576.30	57.327
576.64	58.404
576.98	57.883
577.31	59.462
577.65	59.329
577.98	58.784
578.32	57.744
578.66	58.806
578.99	57.751
579.33	58.886
579.67	57.558
580.00	58.060
580.34	58.069
580.67	58.389
581.01	59.447
581.35	58.279
581.68	58.119
582.02	58.003
582.35	58.658
582.69	58.245
583.02	58.561
583.36	58.426
583.70	57.897
584.03	59.011
584.37	59.339
584.70	58.895
585.04	58.910
585.37	58.476
585.71	59.551
586.04	58.603
586.38	59.205
586.72	59.048
587.05	58.312
587.39	59.292
587.72	58.917
588.06	59.623
588.39	59.596
588.73	58.649
589.06	59.965
589.40	59.969
589.73	59.816
590.07	61.187
590.40	60.732
590.73	61.550
591.07	60.645
591.40	60.998
591.74	59.740
592.07	60.358
592.41	60.472
592.74	59.575
593.08	59.375
593.41	60.203
593.75	59.122
594.08	59.593
594.41	59.661
594.75	59.897
595.08	59.945
595.42	59.151
595.75	59.954
596.09	60.688
596.42	60.160
596.75	61.258
597.09	60.586
597.42	60.735
597.75	59.310
598.09	59.828
598.42	59.853
598.76	59.291
599.09	60.647
599.42	59.827
599.76	59.396
600.09	58.780
600.42	60.152
600.76	59.279
601.09	60.235
601.42	59.556
601.76	60.580
602.09	60.044
602.42	59.335
602.76	59.658
603.09	60.030
603.42	59.890
603.76	59.870
604.09	60.043
604.42	60.452
604.76	60.016
605.09	59.959
605.42	59.610
605.75	59.889
606.09	60.520
606.42	59.188
606.75	60.941
607.09	59.337
607.42	59.381
607.75	58.997
608.08	59.464
608.42	60.403
608.75	59.777
609.08	60.801
609.41	60.500
609.75	60.989
610.08	60.791
610.41	59.596
610.74	60.346
611.07	61.164
611.41	61.121
611.74	61.807
612.07	60.983
612.40	59.795
612.73	61.608
613.07	60.669
613.40	61.303
613.73	60.459
614.06	60.250
614.39	59.646
614.72	60.874
615.06	59.149
615.39	59.752
615.72	59.487
616.05	61.326
616.38	60.680
616.71	60.716
617.05	60.406
617.38	60.337
617.71	61.024
618.04	61.301
618.37	60.978
618.70	60.566
619.03	61.294
619.36	62.814
619.69	61.412
620.03	62.818
620.36	63.198
620.69	62.835
621.02	62.976
621.35	61.748
621.68	62.758
622.01	63.690
622.34	62.928
622.67	62.219
623.00	60.449
623.33	61.741
623.66	62.675
623.99	63.493
624.32	63.144
624.65	62.014
624.99	63.895
625.32	61.389
625.65	60.759
625.98	61.785
626.31	63.427
626.64	63.174
626.97	61.591
627.30	61.025
627.63	63.422
627.96	61.424
628.29	64.439
628.62	61.677
628.95	63.564
629.28	64.768
629.61	64.148
629.94	63.181
630.26	63.865
630.59	64.273
630.92	62.152
631.25	63.826
631.58	65.863
631.91	63.559
632.24	63.946
632.57	62.770
632.90	66.874
633.23	65.373
633.56	65.121
633.89	64.523
634.22	65.124
634.55	65.054
634.88	65.170
635.20	64.462
635.53	66.667
635.86	64.430
636.19	63.300
636.52	62.378
636.85	65.372
637.18	64.355
637.51	64.581
637.83	64.073
638.16	65.885
638.49	65.509
638.82	65.610
639.15	62.045
639.48	64.810
639.81	66.667
640.13	64.663
640.46	67.509
640.79	66.710
641.12	65.354
641.45	65.847
641.77	65.786
642.10	64.659
642.43	67.852
642.76	65.483
643.09	67.003
643.41	65.638
643.74	67.050
644.07	69.322
644.40	65.089
644.73	66.216
645.05	67.013
645.38	67.075
645.71	66.920
646.04	67.481
646.36	68.232
646.69	67.840
647.02	66.080
647.35	62.992
647.67	66.775
648.00	65.961
648.33	64.662
648.66	66.212
648.98	66.957
649.31	64.238
649.64	62.102
649.96	65.007
650.29	63.571
650.62	66.421
650.94	66.566
651.27	68.262
651.60	66.510
651.92	64.209
652.25	68.504
652.58	65.816
652.90	66.766
653.23	64.845
653.56	63.501
653.88	64.023
654.21	63.636
654.54	63.397
654.86	63.717
655.19	64.380
655.52	60.051
655.84	53.255
656.17	61.309
656.49	87.712
656.82	99.457
657.15	81.946
657.47	60.477
657.80	44.364
658.13	34.396
658.45	47.176
658.78	56.730
659.10	57.059
659.43	57.936
659.75	60.254
660.08	61.905
660.41	64.428
660.73	67.127
661.06	62.613
661.38	67.462
661.71	66.187
662.03	67.110
662.36	64.571
662.68	65.363
663.01	65.586
663.33	66.038
663.66	69.428
663.98	65.278
664.31	66.418
664.63	69.349
664.96	69.043
665.28	64.783
665.61	63.962
665.93	68.302
666.26	63.738
666.58	66.422
666.91	66.216
667.23	63.454
667.56	65.298
667.88	68.257
668.21	65.984
668.53	65.524
668.86	68.136
669.18	66.395
669.50	66.116
669.83	67.146
670.15	66.736
670.48	61.914
670.80	67.928
671.13	64.542
671.45	67.134
671.77	67.347
672.10	64.632
672.42	61.513
672.75	63.449
673.07	62.957
673.39	61.821
673.72	67.820
674.04	62.366
674.37	64.065
674.69	64.498
675.01	61.940
675.34	63.372
675.66	65.820
675.98	66.272
676.31	67.400
676.63	61.630
676.95	63.294
677.28	65.314
677.60	62.777
677.92	63.690
678.25	64.922
678.57	64.432
678.89	64.919
679.22	62.500
679.54	62.456
679.86	63.002
680.18	62.566
680.51	62.189
680.83	60.135
681.15	64.645
681.48	63.542
681.80	63.923
682.12	63.149
682.44	63.243
682.77	61.566
683.09	64.660
683.41	62.857
683.73	63.386
684.06	63.294
684.38	67.829
684.70	61.691
685.02	60.417
685.34	63.556
685.67	60.932
685.99	61.905
686.31	60.092
686.63	62.114
686.96	60.458
687.28	61.242
687.60	63.652
687.92	61.977
688.24	61.897
688.56	62.456
688.89	61.377
689.21	63.776
689.53	66.403
689.85	61.179
690.17	61.942
690.49	63.710
690.82	64.496
691.14	61.616
691.46	64.682
691.78	63.353
692.10	61.260
692.42	57.895
692.74	62.209
693.06	61.240
693.39	61.858
693.71	61.493
694.03	62.130
694.35	63.454
694.67	60.896
694.99	64.745
695.31	68.018
695.63	63.122
695.95	58.824
696.27	65.265
696.59	64.200
696.91	64.304
697.23	64.480
697.56	56.846
697.88	60.878
698.20	60.377
698.52	56.615
698.84	62.834
699.16	62.473
699.48	64.195
699.80	66.013
700.12	63.972
700.44	65.421
700.76	62.530
701.08	65.274
701.40	62.857
701.72	66.310
702.04	64.228
702.36	62.366
702.68	69.947
703.00	62.155
703.32	64.020
703.64	64.484
703.96	64.062
704.28	62.434
704.60	65.915
704.91	62.185
705.23	64.773
705.55	66.172
705.87	65.714
706.19	63.323
706.51	69.592
706.83	68.732
707.15	63.102
707.47	63.680
707.79	62.989
708.11	60.998
708.43	61.798
708.74	60.181
709.06	60.698
709.38	60.298
709.70	62.670
710.02	64.402
710.34	63.260
710.66	63.889
710.98	61.202
711.29	63.510
711.61	64.067
711.93	65.046
712.25	65.964
712.57	67.524
712.89	60.909
713.20	69.968
713.52	65.109
713.84	63.444
714.16	60.290
714.48	59.942
714.80	60.976
715.11	59.574
715.43	62.011
715.75	65.070
716.07	63.295
716.39	62.000
716.70	60.748
717.02	68.687
717.34	67.986
717.66	60.417
717.97	68.182
718.29	63.028
718.61	61.149
718.93	68.166
719.24	65.772
719.56	61.379
719.88	57.643
720.20	65.161
720.51	64.379
720.83	60.870
721.15	63.265
721.46	65.068
721.78	64.808
722.10	63.194
722.42	64.548
722.73	66.065
723.05	66.316
723.37	62.898
723.68	67.188
724.00	65.530
724.32	68.061
724.63	64.615
724.95	65.882
725.27	63.569
725.58	65.074
725.90	59.507
726.22	56.507
726.53	64.214
726.85	62.215
727.16	65.101
727.48	58.140
727.80	71.583
728.11	63.214
728.43	64.855
728.74	64.336
729.06	58.065
729.38	64.912
729.69	66.000
730.01	60.526
730.32	62.416
730.64	67.442
730.96	62.763
731.27	55.657
731.59	57.471
731.90	59.331
732.22	61.429
732.53	54.131
732.85	64.327
733.16	60.542
733.48	58.934
733.80	56.812
734.11	61.963
734.43	59.357
734.74	60.322
735.06	59.259
735.37	56.701
735.69	62.319
736.00	64.832
736.32	58.485
736.63	59.306
736.95	59.006
737.26	57.622
737.58	62.883
737.89	59.940
738.21	65.563
738.52	59.197
738.83	60.806
739.15	63.066
739.46	58.966
739.78	62.245
740.09	58.601
740.41	61.350
740.72	62.222
741.04	61.538
741.35	66.406
741.66	60.870
741.98	65.236
742.29	66.204
742.61	58.407
742.92	62.288
743.23	60.800
743.55	59.623
743.86	63.137
744.18	60.169
744.49	60.744
744.80	67.281
745.12	65.179
745.43	68.692
745.74	71.111
746.06	65.789
746.37	69.302
746.68	65.044
747.00	66.368
747.31	64.706
747.62	56.557
747.94	66.953
748.25	59.922
748.56	67.797
748.88	68.750
749.19	66.512
749.50	64.840
749.82	63.786
750.13	62.846
750.44	58.333
750.75	59.396
751.07	54.605
751.38	57.096
751.69	61.279
752.01	62.238
752.32	57.807
752.63	58.389
752.94	60.839
753.26	64.063
753.57	64.981
753.88	61.049
754.19	62.094
754.51	58.804
754.82	56.040
755.13	57.432
755.44	61.481
755.75	62.887
756.07	62.329
756.38	57.843
756.69	52.813
757.00	56.380
757.31	54.648
757.63	56.749
757.94	53.989
758.25	53.382
758.56	54.005
758.87	56.642
759.18	56.977
759.50	57.447
759.81	60.237
760.12	57.865
760.43	57.143
760.74	56.203
761.05	55.703
761.36	53.125
761.67	59.838
761.99	56.620
762.30	60.129
762.61	54.861
762.92	58.712
763.23	56.981
763.54	59.231
763.85	59.922
764.16	56.597
764.47	56.081
764.78	56.678
765.10	55.183
765.41	53.977
765.72	55.801
766.03	57.402
766.34	57.840
766.65	61.597
766.96	63.563
767.27	63.084
767.58	62.871
767.89	70.166
768.20	71.341
768.51	60.714
768.82	62.719
769.13	58.431
769.44	54.511
769.75	56.180
770.06	61.345
770.37	60.088
770.68	58.222
770.99	64.407
771.30	60.669
771.61	59.615
771.92	54.962
772.23	57.661
772.54	62.222
772.85	68.812
773.16	57.065
773.47	65.556
773.78	61.881
774.09	65.909
774.39	66.667
774.70	61.176
775.01	65.132
775.32	63.354
775.63	69.863
775.94	72.222
776.25	66.207
776.56	71.756
776.87	70.992
777.18	66.667
777.48	85.827
777.79	78.462
778.10	69.697
778.41	74.627
778.72	64.662
779.03	58.974
779.34	68.243
779.65	65.839
779.95	70.807
780.26	63.690
780.57	72.789
780.88	72.340
781.19	77.500
781.50	66.864
781.80	66.120
782.11	60.847
782.42	63.218
782.73	63.842
783.04	63.226
783.34	67.442
783.65	57.143
783.96	65.806
784.27	66.887
784.57	56.579
784.88	68.841
785.19	64.167
785.50	75.862
785.81	73.643
786.11	65.926
786.42	74.016
786.73	72.973
787.04	76.415
787.34	66.667
787.65	65.152
787.96	70.455
788.26	78.740
788.57	68.613
788.88	61.972
789.19	68.702
789.49	72.973
789.80	75.000
790.11	71.074
790.41	72.222
790.72	61.111
791.03	75.000
791.33	74.747
791.64	84.211
791.95	81.053
792.25	83.333
792.56	77.000
792.87	90.244
793.17	64.773
793.48	94.118
793.79	89.655
794.09	84.091
794.40	74.138
794.70	77.778
795.01	69.231
795.32	64.122
795.62	71.795
795.93	74.790
796.23	76.423
796.54	86.735
796.85	89.773
797.15	97.403
797.46	86.585
797.76	75.000
798.07	100.000
798.37	85.000
798.68	102.500
798.99	95.122
799.29	86.667
799.60	77.907
799.90	80.263
800.21	100.000
800.51	95.775
800.82	84.483
801.12	100.000
801.43	93.333
801.73	108.621
802.04	83.117
802.34	84.932
802.65	98.039
802.95	115.217
803.26	114.516
803.56	111.667
803.87	91.045
804.17	111.111
804.48	83.019
804.78	88.889
805.09	92.424
805.39	92.063
805.70	100.000
806.00	91.429
806.30	98.437
806.61	81.176
806.91	78.889
807.22	66.304
807.52	105.263
807.83	94.737
808.13	113.043
808.43	106.452
808.74	91.781
809.04	98.214
809.35	95.588
809.65	100.000
809.95	123.529
810.26	124.074
810.56	106.250
810.86	104.082
811.17	114.035
811.47	95.652
811.77	108.621
812.08	93.103
812.38	109.524
812.69	130.952
812.99	93.333
813.29	125.714
813.59	148.387
813.90	96.552
814.20	108.197
814.50	106.000
814.81	92.982
815.11	118.519
815.41	107.143
815.72	105.357
816.02	94.000
816.32	114.634
816.62	89.655
816.93	148.485
817.23	134.146
817.53	89.286
817.84	111.111
818.14	114.286
818.44	122.917
818.74	111.321
819.04	123.077
819.35	145.455
819.65	100.000
819.95	135.185
820.25	121.277
820.56	124.324
820.86	121.053
821.16	85.106
821.46	121.053
821.76	110.909
822.07	85.714
822.37	139.474
822.67	132.558
822.97	123.684
823.27	139.130
823.57	137.500
823.88	128.205
824.18	154.545
824.48	147.826
824.78	144.444
825.08	213.043
825.38	141.379
825.69	155.882
825.99	89.362
826.29	94.444
826.59	125.714
826.89	153.333
827.19	100.000
827.49	154.839
827.79	180.769
828.09	133.333
828.39	158.333
828.70	124.324
829.00	153.571
829.30	212.500
829.60	144.444
829.90	170.968
830.20	136.364
830.50	145.946
830.80	137.500
831.10	173.077
831.40	176.190
831.70	212.500
832.00	153.333
832.30	213.043
832.60	179.167
832.90	169.697
833.20	185.000
833.50	160.526
833.80	123.529
834.10	115.789
834.40	168.421
834.70	116.667
835.00	156.000
835.30	124.324
835.60	156.250
835.90	159.459
836.20	146.154
836.50	186.364
836.80	114.634
837.10	178.261
837.40	323.077
837.70	163.158
838.00	153.333
838.30	183.333
838.60	164.000
838.90	390.000
839.19	187.500
839.49	153.333
839.79	137.931
840.09	157.692
840.39	193.333
840.69	163.158
840.99	157.143
841.29	195.652
841.59	270.000
841.88	168.000
842.18	377.778
842.48	153.571
842.78	170.370
843.08	261.538
843.38	190.909
843.68	257.143
843.97	557.143
844.27	191.304
844.57	1450.000
844.87	357.143
845.17	211.111
845.47	176.190
845.76	166.667
846.06	442.857
846.36	235.294
846.66	307.692
846.96	262.500
847.25	261.538
847.55	163.158
847.85	216.667
848.15	560.000
848.44	336.364
848.74	204.762
849.04	154.167
849.34	223.529
849.63	256.250
849.93	262.500
850.23	966.667
850.53	537.500
850.82	245.455
851.12	205.882
851.42	204.167
851.71	281.250
852.01	0.000
852.31	258.824
852.61	360.000
852.90	137.500
853.20	377.778
853.50	-2900.000
853.79	144.000
854.09	150.000
854.39	162.069
854.68	175.862
854.98	228.571
855.28	158.065
855.57	235.714
855.87	238.889
856.17	129.630
856.46	215.789
856.76	132.258
857.05	211.765
857.35	363.636
857.65	307.692
857.94	180.000
858.24	333.333
858.53	314.286
858.83	585.714
859.13	191.304
859.42	277.778
859.72	450.000
860.01	258.333
860.31	825.000
860.60	400.000
860.90	375.000
861.20	323.077
861.49	414.286
861.79	-3200.000
862.08	485.714
862.38	377.778
862.67	207.143
862.97	430.000
863.26	153.333
863.56	625.000
863.85	330.769
864.15	252.941
864.44	211.111
864.74	308.333
865.03	263.636
865.33	337.500
865.62	253.333
865.92	750.000
866.21	1075.000
866.51	720.000
866.80	277.778
867.10	900.000
867.39	4100.000
867.69	660.000
867.98	625.000
868.27	190.476
868.57	246.667
868.86	825.000
869.16	147.619
869.45	3400.000
869.75	-450.000
870.04	775.000
870.33	560.000
870.63	462.500
870.92	241.176
871.22	925.000
871.51	528.571
871.80	333.333
872.10	315.385
>>>>>End Processed Spectral Data<<<<<
