SpectraSuite Data File
++++++++++++++++++++++++++++++++++++
Date: Tue May 12 17:18:54 PDT 2015
User: schluterlab
Dark Spectrum Present: Yes
Reference Spectrum Present: Yes
Number of Sampled Component Spectra: 1
Spectrometers: USB2E3373
Integration Time (usec): 3000 (USB2E3373)
Spectra Averaged: 3 (USB2E3373)
Boxcar Smoothing: 0 (USB2E3373)
Correct for Electrical Dark: No (USB2E3373)
Strobe/Lamp Enabled: No (USB2E3373)
Correct for Detector Non-linearity: No (USB2E3373)
Correct for Stray Light: No (USB2E3373)
Number of Pixels in Processed Spectrum: 2048
>>>>>Begin Processed Spectral Data<<<<<
178.53	0.000
178.91	-191.667
179.29	-875.000
179.67	-3600.000
180.04	-106.667
180.42	625.000
180.80	1650.000
181.18	0.000
181.56	-275.000
181.94	0.000
182.31	1200.000
182.69	-3100.000
183.07	600.000
183.45	-3100.000
183.83	-1500.000
184.20	350.000
184.58	542.857
184.96	-223.077
185.34	-275.000
185.72	1800.000
186.09	-950.000
186.47	-3000.000
186.85	1000.000
187.23	700.000
187.61	1650.000
187.98	525.000
188.36	235.714
188.74	316.667
189.12	391.667
189.49	925.000
189.87	0.000
190.25	487.500
190.63	2400.000
191.00	-275.000
191.38	-4000.000
191.76	-700.000
192.14	512.500
192.51	-3700.000
192.89	1500.000
193.27	1200.000
193.65	-1066.667
194.02	-660.000
194.40	528.571
194.78	-250.000
195.15	220.000
195.53	-3600.000
195.91	-720.000
196.29	4400.000
196.66	306.250
197.04	900.000
197.42	-1600.000
197.79	550.000
198.17	266.667
198.55	0.000
198.92	457.143
199.30	1200.000
199.68	2200.000
200.05	716.667
200.43	-550.000
200.81	227.778
201.18	4000.000
201.56	333.333
201.94	-925.000
202.31	-412.500
202.69	-500.000
203.07	3800.000
203.44	-500.000
203.82	325.000
204.19	580.000
204.57	-1450.000
204.95	-825.000
205.32	-820.000
205.70	516.667
206.08	725.000
206.45	-966.667
206.83	333.333
207.20	147.368
207.58	216.667
207.96	740.000
208.33	0.000
208.71	542.857
209.08	680.000
209.46	-3200.000
209.84	-750.000
210.21	980.000
210.59	-520.000
210.96	316.667
211.34	-1000.000
211.71	400.000
212.09	700.000
212.46	1750.000
212.84	-400.000
213.22	522.222
213.59	-2900.000
213.97	250.000
214.34	1050.000
214.72	1100.000
215.09	1133.333
215.47	-3600.000
215.84	-300.000
216.22	-387.500
216.59	0.000
216.97	0.000
217.34	1650.000
217.72	-1200.000
218.09	966.667
218.47	537.500
218.84	850.000
219.22	1233.333
219.59	733.333
219.97	571.429
220.34	411.111
220.72	1350.000
221.09	2800.000
221.47	291.667
221.84	666.667
222.22	360.000
222.59	250.000
222.97	264.286
223.34	293.750
223.72	-1750.000
224.09	1433.333
224.46	292.308
224.84	-950.000
225.21	444.444
225.59	246.667
225.96	1266.667
226.34	-560.000
226.71	-725.000
227.08	-580.000
227.46	0.000
227.83	-533.333
228.21	-1450.000
228.58	350.000
228.95	1050.000
229.33	366.667
229.70	1000.000
230.08	430.769
230.45	3200.000
230.82	-900.000
231.20	-800.000
231.57	-933.333
231.95	400.000
232.32	258.333
232.69	466.667
233.07	141.667
233.44	-1450.000
233.81	280.000
234.19	159.259
234.56	206.250
234.93	129.412
235.31	195.000
235.68	212.500
236.05	135.714
236.43	103.704
236.80	214.286
237.17	103.448
237.55	121.875
237.92	95.000
238.29	112.121
238.67	165.625
239.04	104.878
239.41	58.333
239.79	72.500
240.16	62.500
240.53	63.934
240.91	53.623
241.28	62.712
241.65	51.515
242.02	60.563
242.40	50.000
242.77	43.956
243.14	41.772
243.51	45.455
243.89	44.860
244.26	40.187
244.63	36.634
245.00	32.110
245.38	27.966
245.75	34.091
246.12	37.778
246.49	39.007
246.87	26.230
247.24	31.333
247.61	27.500
247.98	20.408
248.36	26.061
248.73	30.612
249.10	20.833
249.47	23.500
249.84	23.383
250.22	22.703
250.59	23.500
250.96	23.207
251.33	24.651
251.70	24.554
252.08	23.109
252.45	15.139
252.82	20.913
253.19	17.787
253.56	16.154
253.94	19.203
254.31	15.891
254.68	16.028
255.05	17.931
255.42	18.613
255.79	21.498
256.16	19.661
256.54	19.805
256.91	16.667
257.28	21.405
257.65	13.793
258.02	17.109
258.39	19.771
258.76	16.232
259.14	14.286
259.51	14.869
259.88	17.021
260.25	14.560
260.62	14.795
260.99	12.672
261.36	15.877
261.73	15.160
262.10	18.586
262.47	14.000
262.85	12.267
263.22	11.825
263.59	17.647
263.96	15.288
264.33	12.593
264.70	14.496
265.07	12.927
265.44	14.679
265.81	12.264
266.18	16.705
266.55	15.366
266.92	11.857
267.29	14.035
267.66	11.883
268.03	12.556
268.40	15.222
268.77	16.079
269.14	11.497
269.51	13.140
269.88	15.918
270.25	10.151
270.62	13.519
270.99	15.213
271.36	14.024
271.73	12.159
272.10	9.495
272.47	11.706
272.84	11.577
273.21	11.157
273.58	13.158
273.95	12.115
274.32	11.673
274.69	14.173
275.06	13.661
275.43	12.261
275.80	11.698
276.17	13.051
276.54	13.271
276.91	13.433
277.28	14.599
277.65	11.993
278.02	12.684
278.39	11.511
278.76	14.138
279.13	11.210
279.50	11.091
279.87	13.035
280.23	10.497
280.60	12.226
280.97	12.759
281.34	11.056
281.71	12.348
282.08	13.333
282.45	13.176
282.82	11.371
283.19	12.083
283.56	12.066
283.92	11.401
284.29	11.647
284.66	10.420
285.03	13.101
285.40	12.231
285.77	10.802
286.14	14.087
286.51	9.816
286.87	10.601
287.24	11.562
287.61	9.726
287.98	11.791
288.35	11.259
288.72	10.167
289.08	11.562
289.45	11.280
289.82	12.656
290.19	10.542
290.56	12.518
290.93	11.223
291.29	10.912
291.66	11.582
292.03	10.799
292.40	11.247
292.77	11.281
293.13	9.700
293.50	11.471
293.87	10.027
294.24	10.909
294.60	10.902
294.97	13.007
295.34	11.952
295.71	13.009
296.08	12.933
296.44	12.706
296.81	10.794
297.18	11.660
297.55	10.468
297.91	12.931
298.28	12.077
298.65	11.902
299.02	11.339
299.38	13.070
299.75	12.073
300.12	12.385
300.48	12.998
300.85	11.442
301.22	12.093
301.59	11.085
301.95	11.085
302.32	13.388
302.69	13.688
303.05	12.570
303.42	11.435
303.79	12.893
304.15	11.881
304.52	13.636
304.89	13.006
305.25	13.348
305.62	13.646
305.99	13.152
306.35	11.789
306.72	13.007
307.09	13.458
307.45	13.411
307.82	12.140
308.19	14.227
308.55	12.400
308.92	13.641
309.29	16.174
309.65	15.164
310.02	15.010
310.38	13.858
310.75	13.404
311.12	15.230
311.48	15.251
311.85	15.172
312.22	14.804
312.58	16.424
312.95	15.243
313.31	16.105
313.68	17.167
314.05	18.407
314.41	17.132
314.78	17.992
315.14	18.294
315.51	18.354
315.87	18.431
316.24	18.768
316.61	19.158
316.97	18.716
317.34	19.856
317.70	19.491
318.07	21.441
318.43	21.002
318.80	19.965
319.16	20.892
319.53	22.035
319.89	20.341
320.26	23.091
320.62	22.253
320.99	24.881
321.35	23.655
321.72	24.763
322.08	24.100
322.45	24.705
322.81	25.801
323.18	25.666
323.54	27.700
323.91	26.836
324.27	27.675
324.64	26.644
325.00	27.241
325.37	29.595
325.73	27.993
326.10	29.329
326.46	30.388
326.83	30.240
327.19	30.924
327.56	30.511
327.92	30.328
328.29	31.588
328.65	33.219
329.01	32.421
329.38	33.672
329.74	33.305
330.11	32.754
330.47	32.481
330.84	31.665
331.20	32.995
331.56	33.938
331.93	33.961
332.29	33.078
332.66	34.269
333.02	33.935
333.38	34.031
333.75	35.530
334.11	33.977
334.48	35.214
334.84	33.699
335.20	34.902
335.57	34.005
335.93	34.819
336.29	33.416
336.66	37.393
337.02	34.388
337.38	35.254
337.75	36.064
338.11	36.034
338.47	36.410
338.84	35.224
339.20	34.719
339.56	33.810
339.93	35.870
340.29	34.370
340.65	36.211
341.02	36.122
341.38	35.632
341.74	36.379
342.11	34.975
342.47	36.095
342.83	36.669
343.20	35.893
343.56	34.790
343.92	34.930
344.28	35.407
344.65	37.245
345.01	36.429
345.37	36.058
345.73	34.365
346.10	34.900
346.46	36.124
346.82	36.034
347.19	36.708
347.55	35.675
347.91	36.405
348.27	35.012
348.63	37.342
349.00	36.938
349.36	37.198
349.72	36.239
350.08	37.034
350.45	36.938
350.81	37.462
351.17	34.900
351.53	36.413
351.89	35.820
352.26	36.054
352.62	36.350
352.98	36.963
353.34	37.442
353.70	35.550
354.07	37.615
354.43	36.636
354.79	36.219
355.15	36.753
355.51	37.085
355.87	37.199
356.24	36.875
356.60	36.606
356.96	36.619
357.32	36.247
357.68	37.445
358.04	37.006
358.40	36.432
358.77	38.693
359.13	36.036
359.49	36.546
359.85	37.230
360.21	37.221
360.57	37.956
360.93	36.941
361.29	37.302
361.66	37.733
362.02	36.293
362.38	37.807
362.74	36.660
363.10	38.008
363.46	36.809
363.82	36.325
364.18	37.482
364.54	37.911
364.90	37.550
365.26	37.613
365.62	36.119
365.98	35.650
366.35	36.138
366.71	37.960
367.07	36.382
367.43	36.333
367.79	37.234
368.15	36.364
368.51	37.422
368.87	37.092
369.23	37.214
369.59	37.492
369.95	37.413
370.31	37.166
370.67	37.682
371.03	36.555
371.39	38.019
371.75	36.497
372.11	37.458
372.47	38.219
372.83	36.846
373.19	37.560
373.55	36.632
373.91	35.290
374.27	36.243
374.63	36.746
374.99	36.927
375.35	36.895
375.71	36.148
376.07	36.804
376.42	34.655
376.78	36.609
377.14	36.632
377.50	36.954
377.86	36.643
378.22	36.624
378.58	37.349
378.94	36.814
379.30	35.415
379.66	36.665
380.02	36.950
380.38	36.358
380.74	36.563
381.09	36.157
381.45	35.260
381.81	35.875
382.17	35.653
382.53	34.793
382.89	35.600
383.25	35.702
383.61	34.640
383.97	34.793
384.32	35.925
384.68	35.888
385.04	36.049
385.40	36.299
385.76	34.465
386.12	36.116
386.48	35.137
386.83	35.391
387.19	35.512
387.55	34.335
387.91	35.508
388.27	35.217
388.62	35.681
388.98	33.644
389.34	34.325
389.70	33.491
390.06	36.037
390.42	34.732
390.77	35.811
391.13	35.063
391.49	34.785
391.85	35.815
392.20	34.565
392.56	34.110
392.92	32.734
393.28	33.352
393.64	33.658
393.99	34.084
394.35	34.491
394.71	33.715
395.07	33.698
395.42	33.782
395.78	33.868
396.14	33.855
396.50	33.514
396.85	33.537
397.21	32.852
397.57	33.293
397.92	32.582
398.28	32.432
398.64	33.333
399.00	32.710
399.35	32.045
399.71	31.843
400.07	32.991
400.42	32.955
400.78	32.727
401.14	32.942
401.49	32.604
401.85	32.966
402.21	31.927
402.57	32.735
402.92	31.576
403.28	31.921
403.63	31.842
403.99	31.604
404.35	32.415
404.70	32.723
405.06	30.769
405.42	31.598
405.77	31.863
406.13	30.911
406.49	30.927
406.84	30.344
407.20	31.564
407.55	31.508
407.91	32.674
408.27	30.988
408.62	30.988
408.98	30.988
409.34	30.041
409.69	32.047
410.05	30.590
410.40	30.035
410.76	30.223
411.11	31.398
411.47	30.556
411.83	29.467
412.18	29.710
412.54	30.571
412.89	28.968
413.25	30.445
413.60	29.790
413.96	30.102
414.31	29.398
414.67	30.850
415.03	29.183
415.38	30.662
415.74	30.259
416.09	29.856
416.45	30.058
416.80	29.250
417.16	29.599
417.51	30.446
417.87	29.599
418.22	29.405
418.58	29.236
418.93	29.268
419.29	29.513
419.64	28.952
420.00	29.773
420.35	29.152
420.71	29.522
421.06	28.605
421.42	29.419
421.77	28.817
422.12	29.272
422.48	28.300
422.83	29.018
423.19	28.456
423.54	28.799
423.90	28.652
424.25	29.114
424.61	29.774
424.96	28.233
425.31	28.462
425.67	29.012
426.02	29.277
426.38	28.005
426.73	29.323
427.09	29.478
427.44	29.263
427.79	28.588
428.15	28.992
428.50	28.857
428.85	29.512
429.21	28.255
429.56	29.212
429.92	27.897
430.27	28.350
430.62	27.802
430.98	28.244
431.33	28.125
431.68	27.358
432.04	27.884
432.39	28.156
432.74	29.625
433.10	28.128
433.45	28.834
433.80	28.902
434.16	28.166
434.51	28.638
434.86	28.743
435.22	28.903
435.57	29.520
435.92	28.913
436.28	29.724
436.63	28.795
436.98	29.223
437.34	28.253
437.69	27.940
438.04	28.978
438.39	28.722
438.75	29.343
439.10	28.980
439.45	28.999
439.81	28.514
440.16	28.674
440.51	28.322
440.86	29.231
441.22	27.976
441.57	28.819
441.92	27.789
442.27	28.196
442.63	28.150
442.98	28.394
443.33	28.227
443.68	27.515
444.03	27.992
444.39	28.814
444.74	27.847
445.09	27.541
445.44	27.365
445.79	27.680
446.15	27.789
446.50	27.901
446.85	27.141
447.20	27.214
447.55	27.569
447.91	27.704
448.26	28.168
448.61	27.695
448.96	28.431
449.31	28.548
449.66	28.350
450.02	27.661
450.37	28.262
450.72	27.824
451.07	27.923
451.42	27.801
451.77	28.351
452.12	28.361
452.47	28.068
452.83	27.437
453.18	28.468
453.53	27.649
453.88	28.743
454.23	27.600
454.58	28.497
454.93	28.081
455.28	28.580
455.63	27.719
455.98	26.509
456.34	28.267
456.69	27.622
457.04	26.850
457.39	26.286
457.74	28.322
458.09	26.614
458.44	26.889
458.79	27.268
459.14	27.441
459.49	27.123
459.84	28.207
460.19	26.780
460.54	27.236
460.89	26.866
461.24	25.888
461.59	26.927
461.94	27.423
462.29	27.174
462.64	27.701
462.99	27.127
463.34	27.544
463.69	28.554
464.04	27.807
464.39	26.331
464.74	25.850
465.09	26.872
465.44	26.115
465.79	25.749
466.14	25.543
466.49	26.587
466.84	25.808
467.19	26.421
467.54	26.847
467.89	25.939
468.24	25.536
468.59	26.786
468.94	27.717
469.29	27.978
469.64	26.302
469.99	25.835
470.34	27.198
470.68	25.862
471.03	26.684
471.38	26.689
471.73	26.715
472.08	26.941
472.43	26.878
472.78	27.017
473.13	25.782
473.48	25.428
473.83	26.914
474.17	25.775
474.52	27.014
474.87	25.185
475.22	25.128
475.57	24.974
475.92	25.396
476.27	24.701
476.61	25.040
476.96	24.817
477.31	25.861
477.66	26.033
478.01	25.529
478.36	25.541
478.70	24.566
479.05	24.686
479.40	25.347
479.75	25.422
480.10	24.927
480.45	24.323
480.79	24.470
481.14	24.774
481.49	23.925
481.84	24.055
482.19	24.410
482.53	24.374
482.88	24.821
483.23	24.222
483.58	24.506
483.92	25.503
484.27	24.229
484.62	24.915
484.97	23.919
485.31	23.265
485.66	22.298
486.01	21.540
486.36	21.423
486.70	21.289
487.05	21.868
487.40	21.985
487.75	22.303
488.09	22.699
488.44	22.785
488.79	22.770
489.13	23.031
489.48	23.212
489.83	23.269
490.17	23.121
490.52	23.773
490.87	23.966
491.22	23.582
491.56	24.023
491.91	23.880
492.26	24.633
492.60	23.872
492.95	24.060
493.30	24.067
493.64	23.405
493.99	24.061
494.34	23.487
494.68	23.417
495.03	23.529
495.37	24.899
495.72	23.730
496.07	23.944
496.41	23.632
496.76	23.639
497.11	23.608
497.45	23.192
497.80	23.355
498.14	23.717
498.49	23.955
498.84	24.626
499.18	22.989
499.53	23.702
499.87	23.495
500.22	22.847
500.56	22.981
500.91	23.887
501.26	24.024
501.60	23.179
501.95	22.357
502.29	23.556
502.64	22.497
502.98	22.944
503.33	22.851
503.67	22.958
504.02	22.033
504.36	22.262
504.71	22.942
505.06	23.041
505.40	22.789
505.75	22.825
506.09	22.399
506.44	22.979
506.78	22.968
507.13	22.734
507.47	22.804
507.82	22.676
508.16	23.175
508.51	23.285
508.85	23.172
509.19	23.348
509.54	23.047
509.88	22.277
510.23	23.235
510.57	22.153
510.92	23.526
511.26	22.942
511.61	22.501
511.95	22.797
512.30	22.400
512.64	22.741
512.98	22.604
513.33	22.439
513.67	22.372
514.02	22.805
514.36	22.586
514.70	22.720
515.05	22.536
515.39	22.917
515.74	23.510
516.08	22.495
516.42	24.153
516.77	23.520
517.11	22.933
517.46	23.438
517.80	22.174
518.14	23.493
518.49	23.925
518.83	21.703
519.17	23.295
519.52	22.884
519.86	23.324
520.20	23.288
520.55	23.516
520.89	23.391
521.23	23.598
521.58	22.719
521.92	22.682
522.26	22.571
522.61	23.767
522.95	22.823
523.29	23.392
523.64	22.601
523.98	22.711
524.32	22.434
524.66	23.072
525.01	22.249
525.35	22.569
525.69	23.299
526.04	22.903
526.38	22.543
526.72	23.568
527.06	21.821
527.41	23.156
527.75	22.276
528.09	22.336
528.43	22.758
528.78	22.540
529.12	22.878
529.46	22.092
529.80	22.839
530.15	22.628
530.49	21.420
530.83	22.669
531.17	23.001
531.51	23.115
531.86	22.343
532.20	21.879
532.54	22.097
532.88	22.174
533.22	22.182
533.57	22.575
533.91	22.145
534.25	21.004
534.59	21.871
534.93	21.445
535.27	21.116
535.62	20.828
535.96	21.336
536.30	21.938
536.64	21.056
536.98	22.026
537.32	22.250
537.66	21.429
538.01	22.291
538.35	21.585
538.69	21.299
539.03	21.393
539.37	21.723
539.71	21.728
540.05	21.785
540.39	22.201
540.73	22.468
541.07	21.644
541.42	21.580
541.76	21.270
542.10	21.085
542.44	22.195
542.78	21.271
543.12	21.288
543.46	20.927
543.80	21.303
544.14	21.981
544.48	21.290
544.82	21.040
545.16	21.433
545.50	21.266
545.84	20.896
546.18	22.042
546.52	21.508
546.86	21.792
547.20	21.447
547.54	21.279
547.88	20.742
548.22	20.036
548.56	20.507
548.90	20.937
549.24	20.846
549.58	20.747
549.92	22.135
550.26	21.366
550.60	22.023
550.94	21.506
551.28	21.931
551.62	22.345
551.96	21.892
552.30	20.501
552.64	21.165
552.98	21.198
553.32	20.230
553.66	20.456
554.00	21.042
554.34	21.704
554.68	20.968
555.02	21.521
555.36	20.878
555.69	20.550
556.03	21.465
556.37	21.033
556.71	20.600
557.05	19.790
557.39	22.000
557.73	21.092
558.07	20.255
558.41	20.493
558.75	19.973
559.08	21.730
559.42	20.902
559.76	20.884
560.10	21.955
560.44	20.770
560.78	21.419
561.12	21.233
561.45	19.587
561.79	19.725
562.13	20.025
562.47	19.273
562.81	20.169
563.15	20.556
563.48	19.565
563.82	20.961
564.16	21.144
564.50	20.133
564.84	20.547
565.17	19.905
565.51	20.874
565.85	20.543
566.19	19.405
566.52	20.758
566.86	19.965
567.20	19.607
567.54	19.651
567.88	19.614
568.21	18.872
568.55	18.969
568.89	18.750
569.23	18.507
569.56	18.171
569.90	17.535
570.24	17.751
570.57	17.002
570.91	16.474
571.25	16.637
571.59	16.328
571.92	15.985
572.26	16.119
572.60	16.051
572.93	16.331
573.27	16.255
573.61	16.243
573.95	15.936
574.28	16.481
574.62	15.533
574.96	15.665
575.29	15.237
575.63	15.548
575.97	15.628
576.30	15.464
576.64	15.860
576.98	15.626
577.31	15.655
577.65	15.577
577.98	15.163
578.32	15.299
578.66	15.319
578.99	15.020
579.33	15.539
579.67	15.370
580.00	15.295
580.34	15.422
580.67	15.213
581.01	15.844
581.35	15.385
581.68	14.521
582.02	15.138
582.35	14.807
582.69	15.079
583.02	15.079
583.36	15.123
583.70	16.002
584.03	15.933
584.37	15.926
584.70	15.103
585.04	15.227
585.37	15.059
585.71	15.326
586.04	15.374
586.38	15.609
586.72	15.418
587.05	15.697
587.39	15.525
587.72	15.931
588.06	16.091
588.39	15.737
588.73	15.827
589.06	15.670
589.40	16.056
589.73	16.093
590.07	16.507
590.40	16.934
590.73	16.930
591.07	16.964
591.40	16.447
591.74	17.045
592.07	16.389
592.41	16.387
592.74	16.111
593.08	16.048
593.41	15.919
593.75	15.520
594.08	15.984
594.41	15.934
594.75	16.233
595.08	16.187
595.42	16.261
595.75	16.157
596.09	15.989
596.42	16.278
596.75	16.747
597.09	16.343
597.42	16.531
597.75	16.024
598.09	16.126
598.42	16.524
598.76	16.114
599.09	15.999
599.42	15.640
599.76	15.807
600.09	16.102
600.42	15.815
600.76	15.840
601.09	16.293
601.42	15.734
601.76	15.539
602.09	16.115
602.42	15.453
602.76	16.129
603.09	15.988
603.42	16.183
603.76	16.016
604.09	15.273
604.42	15.669
604.76	15.804
605.09	16.204
605.42	16.172
605.75	16.226
606.09	16.259
606.42	15.558
606.75	16.595
607.09	15.871
607.42	15.910
607.75	16.202
608.08	16.003
608.42	16.191
608.75	15.704
609.08	15.794
609.41	16.091
609.75	16.621
610.08	16.457
610.41	16.337
610.74	16.364
611.07	16.508
611.41	16.450
611.74	16.969
612.07	16.570
612.40	16.326
612.73	16.575
613.07	16.624
613.40	16.842
613.73	16.525
614.06	16.650
614.39	16.616
614.72	16.323
615.06	16.469
615.39	16.782
615.72	15.779
616.05	17.027
616.38	16.743
616.71	16.820
617.05	16.969
617.38	17.135
617.71	17.379
618.04	16.657
618.37	16.398
618.70	17.321
619.03	16.911
619.36	17.588
619.69	17.282
620.03	19.113
620.36	17.277
620.69	18.710
621.02	18.342
621.35	18.266
621.68	17.994
622.01	18.598
622.34	17.626
622.67	18.750
623.00	17.359
623.33	17.139
623.66	17.631
623.99	18.219
624.32	18.157
624.65	17.841
624.99	18.188
625.32	18.838
625.65	17.793
625.98	17.364
626.31	19.139
626.64	17.768
626.97	17.521
627.30	18.323
627.63	18.917
627.96	18.075
628.29	18.234
628.62	18.648
628.95	20.213
629.28	18.580
629.61	19.069
629.94	19.101
630.26	20.191
630.59	20.390
630.92	19.641
631.25	19.492
631.58	19.479
631.91	20.266
632.24	19.242
632.57	20.236
632.90	20.290
633.23	20.357
633.56	19.705
633.89	19.829
634.22	20.237
634.55	19.247
634.88	21.139
635.20	21.749
635.53	21.487
635.86	20.694
636.19	19.080
636.52	19.568
636.85	20.173
637.18	20.585
637.51	20.112
637.83	20.366
638.16	21.805
638.49	21.078
638.82	20.892
639.15	21.387
639.48	21.209
639.81	21.612
640.13	21.472
640.46	21.997
640.79	22.107
641.12	19.554
641.45	21.475
641.77	22.457
642.10	21.954
642.43	22.902
642.76	20.739
643.09	22.190
643.41	22.721
643.74	23.885
644.07	22.271
644.40	20.710
644.73	21.321
645.05	21.991
645.38	24.043
645.71	21.851
646.04	23.969
646.36	23.005
646.69	22.560
647.02	25.280
647.35	20.945
647.67	21.880
648.00	23.127
648.33	21.504
648.66	21.515
648.98	21.014
649.31	21.053
649.64	20.055
649.96	20.768
650.29	20.714
650.62	22.828
650.94	23.795
651.27	24.561
651.60	20.031
651.92	25.038
652.25	21.102
652.58	21.277
652.90	21.407
653.23	21.713
653.56	21.217
653.88	19.090
654.21	21.994
654.54	20.791
654.86	23.009
655.19	20.844
655.52	16.695
655.84	11.458
656.17	12.527
656.49	18.169
656.82	20.878
657.15	16.858
657.47	12.886
657.80	9.481
658.13	7.583
658.45	10.232
658.78	12.431
659.10	12.772
659.43	13.411
659.75	13.935
660.08	15.602
660.41	17.060
660.73	21.205
661.06	20.871
661.38	23.169
661.71	21.763
662.03	24.144
662.36	23.429
662.68	23.091
663.01	24.865
663.33	22.830
663.66	24.655
663.98	23.810
664.31	25.933
664.63	24.713
664.96	24.390
665.28	22.976
665.61	23.774
665.93	22.830
666.26	22.991
666.58	25.138
666.91	22.973
667.23	23.092
667.56	26.283
667.88	26.971
668.21	23.770
668.53	24.597
668.86	25.050
669.18	24.236
669.50	24.380
669.83	24.025
670.15	23.077
670.48	22.852
670.80	23.904
671.13	22.112
671.45	25.451
671.77	23.191
672.10	22.980
672.42	19.737
672.75	22.310
673.07	22.893
673.39	19.489
673.72	21.280
674.04	21.505
674.37	24.682
674.69	22.305
675.01	21.642
675.34	20.930
675.66	26.563
675.98	23.077
676.31	23.400
676.63	20.477
676.95	24.008
677.28	24.544
677.60	21.127
677.92	22.421
678.25	24.225
678.57	23.277
678.89	25.136
679.22	23.529
679.54	21.886
679.86	22.688
680.18	20.562
680.51	19.237
680.83	20.608
681.15	23.224
681.48	23.090
681.80	22.067
682.12	21.107
682.44	20.000
682.77	22.064
683.09	22.136
683.41	23.265
683.73	25.394
684.06	21.627
684.38	21.318
684.70	20.324
685.02	19.444
685.34	20.246
685.67	19.775
685.99	21.839
686.31	19.414
686.63	20.163
686.96	20.098
687.28	20.302
687.60	21.843
687.92	20.101
688.24	22.759
688.56	19.217
688.89	19.312
689.21	20.809
689.53	20.949
689.85	22.154
690.17	21.942
690.49	22.379
690.82	20.798
691.14	23.838
691.46	24.230
691.78	21.248
692.10	20.992
692.42	20.327
692.74	21.899
693.06	22.287
693.39	21.542
693.71	20.236
694.03	23.077
694.35	24.498
694.67	22.200
694.99	23.503
695.31	22.748
695.63	22.172
695.95	20.588
696.27	23.894
696.59	26.253
696.91	25.823
697.23	22.624
697.56	20.747
697.88	19.760
698.20	20.566
698.52	22.374
698.84	20.945
699.16	25.160
699.48	22.458
699.80	23.312
700.12	23.557
700.44	22.897
700.76	26.014
701.08	24.543
701.40	23.636
701.72	30.481
702.04	23.577
702.36	24.194
702.68	25.266
703.00	24.311
703.32	24.566
703.64	23.929
703.96	22.135
704.28	23.545
704.60	25.634
704.91	24.930
705.23	26.136
705.55	23.442
705.87	25.397
706.19	28.527
706.51	29.154
706.83	28.909
707.15	22.727
707.47	23.002
707.79	24.138
708.11	22.449
708.43	20.674
708.74	21.493
709.06	23.023
709.38	26.303
709.70	23.433
710.02	22.826
710.34	25.414
710.66	24.167
710.98	27.049
711.29	25.905
711.61	25.627
711.93	24.012
712.25	21.988
712.57	27.331
712.89	25.758
713.20	26.837
713.52	27.726
713.84	25.982
714.16	22.609
714.48	22.478
714.80	22.222
715.11	20.745
715.43	23.464
715.75	23.662
716.07	24.277
716.39	23.429
716.70	23.988
717.02	27.273
717.34	25.899
717.66	26.389
717.97	29.545
718.29	28.169
718.61	23.986
718.93	26.298
719.24	26.510
719.56	26.897
719.88	25.159
720.20	26.452
720.51	24.510
720.83	30.769
721.15	24.490
721.46	26.370
721.78	25.436
722.10	29.514
722.42	25.418
722.73	24.188
723.05	27.368
723.37	27.562
723.68	22.266
724.00	28.409
724.32	30.418
724.63	25.769
724.95	27.451
725.27	26.022
725.58	27.574
725.90	25.704
726.22	23.973
726.53	25.084
726.85	25.081
727.16	27.517
727.48	19.601
727.80	27.698
728.11	24.286
728.43	27.536
728.74	27.273
729.06	22.581
729.38	27.368
729.69	29.000
730.01	25.658
730.32	22.148
730.64	27.907
730.96	25.526
731.27	20.795
731.59	22.126
731.90	22.006
732.22	26.000
732.53	22.507
732.85	25.439
733.16	24.398
733.48	22.571
733.80	25.507
734.11	24.847
734.43	20.760
734.74	20.643
735.06	24.074
735.37	19.072
735.69	20.000
736.00	24.771
736.32	23.636
736.63	20.189
736.95	22.360
737.26	26.220
737.58	21.472
737.89	22.289
738.21	25.166
738.52	25.084
738.83	29.670
739.15	24.042
739.46	26.552
739.78	26.190
740.09	24.490
740.41	23.926
740.72	26.349
741.04	27.273
741.35	28.516
741.66	23.320
741.98	32.618
742.29	30.556
742.61	29.204
742.92	23.729
743.23	26.000
743.55	27.170
743.86	25.098
744.18	28.390
744.49	30.579
744.80	33.641
745.12	34.375
745.43	30.841
745.74	29.333
746.06	27.193
746.37	28.837
746.68	30.088
747.00	26.906
747.31	34.034
747.62	24.180
747.94	27.039
748.25	28.405
748.56	27.542
748.88	29.911
749.19	31.163
749.50	23.744
749.82	26.749
750.13	28.458
750.44	20.333
750.75	25.839
751.07	26.316
751.38	21.782
751.69	24.916
752.01	23.776
752.32	24.252
752.63	20.134
752.94	30.070
753.26	26.563
753.57	28.016
753.88	25.468
754.19	25.993
754.51	23.588
754.82	24.832
755.13	25.338
755.44	24.815
755.75	28.179
756.07	21.918
756.38	23.856
756.69	21.562
757.00	25.519
757.31	21.972
757.63	19.284
757.94	19.947
758.25	20.290
758.56	20.595
758.87	20.301
759.18	22.093
759.50	19.453
759.81	23.442
760.12	24.438
760.43	23.249
760.74	24.557
761.05	20.690
761.36	20.833
761.67	21.024
761.99	19.437
762.30	21.865
762.61	21.875
762.92	26.136
763.23	29.057
763.54	27.308
763.85	24.903
764.16	23.611
764.47	27.365
764.78	24.104
765.10	22.561
765.41	20.170
765.72	20.166
766.03	18.127
766.34	21.254
766.65	23.574
766.96	26.721
767.27	32.710
767.58	30.198
767.89	29.834
768.20	35.366
768.51	29.082
768.82	32.018
769.13	25.882
769.44	22.556
769.75	18.727
770.06	23.950
770.37	25.439
770.68	26.222
770.99	28.814
771.30	26.778
771.61	28.462
771.92	28.626
772.23	22.984
772.54	34.222
772.85	35.149
773.16	28.804
773.47	29.444
773.78	34.653
774.09	39.773
774.39	40.000
774.70	32.941
775.01	30.263
775.32	34.161
775.63	41.781
775.94	40.741
776.25	38.621
776.56	47.328
776.87	40.458
777.18	40.909
777.48	44.882
777.79	43.077
778.10	43.939
778.41	41.791
778.72	35.338
779.03	33.974
779.34	41.216
779.65	29.814
779.95	32.298
780.26	33.929
780.57	44.218
780.88	43.262
781.19	40.000
781.50	33.728
781.80	32.240
782.11	28.042
782.42	25.862
782.73	36.723
783.04	30.323
783.34	31.008
783.65	35.374
783.96	36.774
784.27	30.464
784.57	30.921
784.88	36.232
785.19	31.667
785.50	44.828
785.81	43.411
786.11	33.333
786.42	40.157
786.73	39.640
787.04	37.736
787.34	36.585
787.65	43.182
787.96	43.182
788.26	42.520
788.57	35.766
788.88	34.507
789.19	35.115
789.49	42.568
789.80	34.375
790.11	42.149
790.41	38.889
790.72	48.148
791.03	50.962
791.33	49.495
791.64	47.368
791.95	41.053
792.25	39.583
792.56	37.000
792.87	50.000
793.17	51.136
793.48	57.647
793.79	43.678
794.09	56.818
794.40	50.862
794.70	31.746
795.01	28.462
795.32	36.641
795.62	35.043
795.93	39.496
796.23	45.528
796.54	57.143
796.85	39.773
797.15	66.234
797.46	53.659
797.76	45.000
798.07	62.667
798.37	57.500
798.68	63.750
798.99	57.317
799.29	49.333
799.60	44.186
799.90	52.632
800.21	56.061
800.51	50.704
800.82	44.828
801.12	70.769
801.43	74.667
801.73	56.897
802.04	59.740
802.34	54.795
802.65	82.353
802.95	80.435
803.26	85.484
803.56	81.667
803.87	65.672
804.17	66.667
804.48	64.151
804.78	59.722
805.09	56.061
805.39	61.905
805.70	70.175
806.00	50.000
806.30	70.312
806.61	49.412
806.91	52.222
807.22	46.739
807.52	61.842
807.83	57.895
808.13	66.667
808.43	77.419
808.74	65.753
809.04	62.500
809.35	61.765
809.65	77.273
809.95	92.157
810.26	66.667
810.56	78.125
810.86	77.551
811.17	75.439
811.47	76.087
811.77	65.517
812.08	39.655
812.38	85.714
812.69	57.143
812.99	80.000
813.29	94.286
813.59	93.548
813.90	89.655
814.20	70.492
814.50	70.000
814.81	61.404
815.11	79.630
815.41	62.500
815.72	55.357
816.02	92.000
816.32	121.951
816.62	98.276
816.93	118.182
817.23	117.073
817.53	83.929
817.84	53.333
818.14	97.619
818.44	83.333
818.74	96.226
819.04	84.615
819.35	115.152
819.65	73.077
819.95	101.852
820.25	117.021
820.56	108.108
820.86	92.105
821.16	59.574
821.46	84.211
821.76	83.636
822.07	83.333
822.37	84.211
822.67	109.302
822.97	89.474
823.27	113.043
823.57	59.375
823.88	94.872
824.18	106.061
824.48	147.826
824.78	119.444
825.08	134.783
825.38	113.793
825.69	120.588
825.99	89.362
826.29	97.222
826.59	111.429
826.89	120.000
827.19	105.714
827.49	125.806
827.79	134.615
828.09	78.571
828.39	83.333
828.70	81.081
829.00	135.714
829.30	200.000
829.60	63.889
829.90	125.806
830.20	124.242
830.50	118.919
830.80	133.333
831.10	130.769
831.40	195.238
831.70	150.000
832.00	106.667
832.30	178.261
832.60	150.000
832.90	145.455
833.20	180.000
833.50	128.947
833.80	85.294
834.10	81.579
834.40	200.000
834.70	90.000
835.00	156.000
835.30	102.703
835.60	128.125
835.90	110.811
836.20	107.692
836.50	136.364
836.80	112.195
837.10	126.087
837.40	323.077
837.70	152.632
838.00	126.667
838.30	150.000
838.60	164.000
838.90	320.000
839.19	156.250
839.49	123.333
839.79	137.931
840.09	138.462
840.39	173.333
840.69	205.263
840.99	147.619
841.29	173.913
841.59	235.000
841.88	196.000
842.18	311.111
842.48	125.000
842.78	155.556
843.08	261.538
843.38	172.727
843.68	271.429
843.97	400.000
844.27	143.478
844.57	600.000
844.87	271.429
845.17	200.000
845.47	119.048
845.76	191.667
846.06	457.143
846.36	217.647
846.66	253.846
846.96	212.500
847.25	330.769
847.55	152.632
847.85	161.111
848.15	620.000
848.44	309.091
848.74	133.333
849.04	137.500
849.34	188.235
849.63	218.750
849.93	225.000
850.23	1233.333
850.53	475.000
850.82	345.455
851.12	170.588
851.42	158.333
851.71	281.250
852.01	0.000
852.31	205.882
852.61	490.000
852.90	145.833
853.20	300.000
853.50	-2500.000
853.79	124.000
854.09	162.500
854.39	96.552
854.68	131.034
854.98	204.762
855.28	138.710
855.57	228.571
855.87	183.333
856.17	137.037
856.46	157.895
856.76	116.129
857.05	223.529
857.35	290.909
857.65	192.308
857.94	155.000
858.24	400.000
858.53	250.000
858.83	571.429
859.13	204.348
859.42	300.000
859.72	375.000
860.01	325.000
860.31	700.000
860.60	330.000
860.90	387.500
861.20	238.462
861.49	514.286
861.79	-3000.000
862.08	485.714
862.38	455.556
862.67	207.143
862.97	410.000
863.26	113.333
863.56	575.000
863.85	323.077
864.15	211.765
864.44	183.333
864.74	358.333
865.03	263.636
865.33	225.000
865.62	213.333
865.92	550.000
866.21	600.000
866.51	660.000
866.80	222.222
867.10	966.667
867.39	2300.000
867.69	740.000
867.98	725.000
868.27	180.952
868.57	233.333
868.86	725.000
869.16	161.905
869.45	3200.000
869.75	-433.333
870.04	825.000
870.33	620.000
870.63	475.000
870.92	223.529
871.22	525.000
871.51	400.000
871.80	316.667
872.10	361.538
>>>>>End Processed Spectral Data<<<<<
