SpectraSuite Data File
++++++++++++++++++++++++++++++++++++
Date: Tue May 12 17:24:34 PDT 2015
User: schluterlab
Dark Spectrum Present: Yes
Reference Spectrum Present: Yes
Number of Sampled Component Spectra: 1
Spectrometers: USB2E3373
Integration Time (usec): 3000 (USB2E3373)
Spectra Averaged: 3 (USB2E3373)
Boxcar Smoothing: 0 (USB2E3373)
Correct for Electrical Dark: No (USB2E3373)
Strobe/Lamp Enabled: No (USB2E3373)
Correct for Detector Non-linearity: No (USB2E3373)
Correct for Stray Light: No (USB2E3373)
Number of Pixels in Processed Spectrum: 2048
>>>>>Begin Processed Spectral Data<<<<<
178.53	0.000
178.91	-233.333
179.29	-950.000
179.67	-3700.000
180.04	-113.333
180.42	750.000
180.80	1350.000
181.18	0.000
181.56	-187.500
181.94	0.000
182.31	933.333
182.69	-3200.000
183.07	657.143
183.45	-3400.000
183.83	-1500.000
184.20	410.000
184.58	557.143
184.96	-184.615
185.34	-216.667
185.72	1650.000
186.09	-825.000
186.47	-3100.000
186.85	900.000
187.23	800.000
187.61	1550.000
187.98	437.500
188.36	257.143
188.74	341.667
189.12	350.000
189.49	825.000
189.87	0.000
190.25	412.500
190.63	1500.000
191.00	-166.667
191.38	-3100.000
191.76	-625.000
192.14	475.000
192.51	-2200.000
192.89	1500.000
193.27	1166.667
193.65	-1133.333
194.02	-700.000
194.40	642.857
194.78	-207.143
195.15	246.667
195.53	-3200.000
195.91	-560.000
196.29	3600.000
196.66	243.750
197.04	825.000
197.42	-1500.000
197.79	575.000
198.17	308.333
198.55	0.000
198.92	600.000
199.30	1066.667
199.68	1600.000
200.05	650.000
200.43	-516.667
200.81	205.556
201.18	3000.000
201.56	300.000
201.94	-925.000
202.31	-412.500
202.69	-720.000
203.07	3300.000
203.44	-500.000
203.82	333.333
204.19	800.000
204.57	-1350.000
204.95	-925.000
205.32	-640.000
205.70	433.333
206.08	825.000
206.45	-666.667
206.83	300.000
207.20	189.474
207.58	300.000
207.96	640.000
208.33	0.000
208.71	542.857
209.08	580.000
209.46	-2700.000
209.84	-725.000
210.21	800.000
210.59	-680.000
210.96	308.333
211.34	-750.000
211.71	336.364
212.09	700.000
212.46	1850.000
212.84	-483.333
213.22	388.889
213.59	-3500.000
213.97	420.000
214.34	950.000
214.72	1033.333
215.09	1133.333
215.47	-3300.000
215.84	-310.000
216.22	-387.500
216.59	0.000
216.97	0.000
217.34	1450.000
217.72	-1150.000
218.09	1333.333
218.47	400.000
218.84	625.000
219.22	1333.333
219.59	833.333
219.97	400.000
220.34	311.111
220.72	1450.000
221.09	3300.000
221.47	241.667
221.84	1300.000
222.22	360.000
222.59	238.889
222.97	250.000
223.34	206.250
223.72	-1500.000
224.09	1200.000
224.46	284.615
224.84	-875.000
225.21	411.111
225.59	286.667
225.96	1166.667
226.34	-740.000
226.71	-450.000
227.08	-520.000
227.46	0.000
227.83	-600.000
228.21	-1800.000
228.58	441.667
228.95	1075.000
229.33	377.778
229.70	1175.000
230.08	353.846
230.45	3400.000
230.82	-700.000
231.20	-766.667
231.57	-1100.000
231.95	540.000
232.32	300.000
232.69	416.667
233.07	225.000
233.44	-1050.000
233.81	260.000
234.19	177.778
234.56	200.000
234.93	252.941
235.31	220.000
235.68	237.500
236.05	185.714
236.43	151.852
236.80	242.857
237.17	172.414
237.55	162.500
237.92	125.000
238.29	130.303
238.67	156.250
239.04	119.512
239.41	89.583
239.79	127.500
240.16	95.833
240.53	93.443
240.91	84.058
241.28	105.085
241.65	87.879
242.02	92.958
242.40	90.000
242.77	81.319
243.14	73.418
243.51	82.828
243.89	79.439
244.26	71.028
244.63	75.248
245.00	75.229
245.38	66.102
245.75	73.485
246.12	70.370
246.49	66.667
246.87	65.574
247.24	65.333
247.61	64.375
247.98	70.748
248.36	61.212
248.73	59.184
249.10	64.881
249.47	61.500
249.84	65.672
250.22	68.649
250.59	62.500
250.96	56.962
251.33	57.209
251.70	62.946
252.08	61.765
252.45	51.793
252.82	52.471
253.19	58.103
253.56	56.538
253.94	56.159
254.31	60.078
254.68	55.052
255.05	57.586
255.42	58.029
255.79	52.443
256.16	57.966
256.54	58.117
256.91	51.961
257.28	57.860
257.65	52.978
258.02	54.277
258.39	54.441
258.76	54.493
259.14	52.857
259.51	56.560
259.88	57.751
260.25	51.374
260.62	52.877
260.99	50.964
261.36	52.646
261.73	53.723
262.10	53.403
262.47	50.750
262.85	52.800
263.22	52.185
263.59	54.987
263.96	52.882
264.33	53.333
264.70	51.351
265.07	52.439
265.44	51.835
265.81	52.358
266.18	55.149
266.55	53.428
266.92	48.993
267.29	50.219
267.66	51.794
268.03	48.430
268.40	50.529
268.77	51.322
269.14	50.108
269.51	51.225
269.88	51.633
270.25	46.652
270.62	52.146
270.99	50.507
271.36	50.407
271.73	50.314
272.10	48.485
272.47	50.397
272.84	46.507
273.21	47.314
273.58	49.190
273.95	46.201
274.32	46.304
274.69	50.197
275.06	50.273
275.43	47.701
275.80	46.226
276.17	47.978
276.54	51.963
276.91	47.948
277.28	48.358
277.65	46.863
278.02	45.956
278.39	47.482
278.76	48.448
279.13	47.153
279.50	46.000
279.87	47.672
280.23	46.593
280.60	48.175
280.97	46.552
281.34	46.205
281.71	47.130
282.08	46.496
282.45	44.257
282.82	46.823
283.19	46.264
283.56	45.289
283.92	46.091
284.29	44.592
284.66	46.723
285.03	44.776
285.40	44.132
285.77	43.981
286.14	44.892
286.51	46.472
286.87	42.880
287.24	43.844
287.61	42.249
287.98	42.687
288.35	41.481
288.72	40.971
289.08	41.291
289.45	44.207
289.82	44.063
290.19	39.239
290.56	40.757
290.93	41.583
291.29	40.746
291.66	37.994
292.03	39.832
292.40	37.805
292.77	39.276
293.13	37.375
293.50	38.596
293.87	38.618
294.24	38.462
294.60	38.896
294.97	39.441
295.34	38.114
295.71	36.399
296.08	37.600
296.44	36.595
296.81	35.484
297.18	36.122
297.55	37.685
297.91	33.251
298.28	34.662
298.65	35.706
299.02	35.585
299.38	35.252
299.75	34.756
300.12	34.404
300.48	35.714
300.85	35.757
301.22	35.465
301.59	34.906
301.95	33.139
302.32	34.459
302.69	34.502
303.05	34.792
303.42	32.848
303.79	34.345
304.15	34.323
304.52	32.558
304.89	33.262
305.25	33.593
305.62	34.542
305.99	35.000
306.35	33.579
306.72	33.299
307.09	32.919
307.45	32.735
307.82	32.613
308.19	34.124
308.55	32.000
308.92	33.170
309.29	33.925
309.65	32.904
310.02	34.280
310.38	34.197
310.75	32.305
311.12	32.950
311.48	35.232
311.85	34.733
312.22	35.339
312.58	34.694
312.95	34.369
313.31	35.112
313.68	35.272
314.05	36.264
314.41	35.382
314.78	37.121
315.14	36.967
315.51	37.654
315.87	36.040
316.24	38.095
316.61	37.422
316.97	38.807
317.34	38.544
317.70	38.894
318.07	39.680
318.43	39.455
318.80	40.718
319.16	40.647
319.53	41.593
319.89	40.771
320.26	42.644
320.62	41.484
320.99	43.565
321.35	41.837
321.72	43.548
322.08	43.952
322.45	43.960
322.81	43.733
323.18	44.050
323.54	45.470
323.91	47.960
324.27	47.569
324.64	47.924
325.00	48.793
325.37	48.314
325.73	49.157
326.10	49.461
326.46	48.142
326.83	49.120
327.19	50.281
327.56	49.760
327.92	51.066
328.29	51.473
328.65	52.055
329.01	52.267
329.38	51.777
329.74	51.580
330.11	52.476
330.47	52.344
330.84	51.251
331.20	51.523
331.56	52.850
331.93	51.326
332.29	52.636
332.66	52.891
333.02	50.601
333.38	53.578
333.75	51.626
334.11	51.007
334.48	50.598
334.84	50.169
335.20	51.497
335.57	52.057
335.93	52.397
336.29	51.493
336.66	53.087
337.02	51.583
337.38	51.591
337.75	52.872
338.11	51.899
338.47	51.566
338.84	51.651
339.20	52.035
339.56	52.397
339.93	51.923
340.29	50.756
340.65	53.143
341.02	52.293
341.38	51.232
341.74	52.409
342.11	50.668
342.47	52.010
342.83	52.256
343.20	50.687
343.56	50.040
343.92	51.445
344.28	49.841
344.65	50.611
345.01	49.206
345.37	50.160
345.73	50.397
346.10	48.207
346.46	52.233
346.82	48.997
347.19	50.850
347.55	50.976
347.91	49.622
348.27	49.419
348.63	50.633
349.00	49.200
349.36	50.584
349.72	50.765
350.08	51.165
350.45	49.581
350.81	50.076
351.17	48.382
351.53	49.500
351.89	49.495
352.26	50.038
352.62	48.718
352.98	49.387
353.34	50.308
353.70	49.312
354.07	50.000
354.43	50.538
354.79	48.519
355.15	50.536
355.51	50.000
355.87	50.452
356.24	49.115
356.60	49.924
356.96	49.356
357.32	48.832
357.68	50.294
358.04	50.076
358.40	49.325
358.77	49.437
359.13	49.024
359.49	49.444
359.85	50.186
360.21	49.108
360.57	50.000
360.93	49.206
361.29	49.784
361.66	49.963
362.02	50.000
362.38	49.567
362.74	49.752
363.10	49.719
363.46	47.445
363.82	50.351
364.18	50.213
364.54	50.930
364.90	47.323
365.26	48.994
365.62	50.207
365.98	48.176
366.35	48.828
366.71	49.896
367.07	49.761
367.43	49.429
367.79	49.934
368.15	48.982
368.51	49.690
368.87	49.660
369.23	49.619
369.59	50.506
369.95	50.350
370.31	48.460
370.67	50.104
371.03	49.790
371.39	50.693
371.75	50.872
372.11	50.170
372.47	49.521
372.83	50.918
373.19	50.034
373.55	50.447
373.91	50.345
374.27	49.603
374.63	49.220
374.99	50.404
375.35	51.546
375.71	50.330
376.07	50.464
376.42	49.808
376.78	51.188
377.14	51.769
377.50	51.061
377.86	51.057
378.22	50.762
378.58	51.513
378.94	51.056
379.30	50.334
379.66	50.572
380.02	50.381
380.38	50.585
380.74	50.288
381.09	51.460
381.45	50.983
381.81	50.827
382.17	50.122
382.53	50.990
382.89	51.508
383.25	51.332
383.61	50.259
383.97	50.270
384.32	50.874
384.68	52.228
385.04	51.524
385.40	50.593
385.76	50.205
386.12	51.763
386.48	52.158
386.83	52.139
387.19	52.179
387.55	51.060
387.91	50.577
388.27	52.052
388.62	51.585
388.98	51.487
389.34	51.041
389.70	51.002
390.06	52.927
390.42	51.820
390.77	51.843
391.13	51.780
391.49	50.756
391.85	52.123
392.20	51.549
392.56	50.836
392.92	50.983
393.28	51.962
393.64	51.032
393.99	51.097
394.35	50.736
394.71	51.870
395.07	52.007
395.42	52.166
395.78	52.745
396.14	53.434
396.50	51.805
396.85	51.646
397.21	52.407
397.57	50.926
397.92	51.878
398.28	50.910
398.64	51.076
399.00	50.935
399.35	50.778
399.71	51.049
400.07	52.226
400.42	52.955
400.78	52.258
401.14	52.378
401.49	51.728
401.85	51.622
402.21	52.138
402.57	52.783
402.92	52.182
403.28	51.432
403.63	51.501
403.99	52.533
404.35	52.169
404.70	51.861
405.06	50.365
405.42	51.885
405.77	51.158
406.13	50.976
406.49	50.540
406.84	51.382
407.20	51.884
407.55	52.369
407.91	51.627
408.27	52.213
408.62	51.449
408.98	51.035
409.34	50.847
409.69	51.649
410.05	50.447
410.40	50.648
410.76	50.544
411.11	51.066
411.47	50.494
411.83	50.381
412.18	51.268
412.54	52.072
412.89	51.209
413.25	52.109
413.60	51.869
413.96	50.928
414.31	50.059
414.67	52.390
415.03	52.043
415.38	51.356
415.74	51.358
416.09	51.468
416.45	52.230
416.80	53.047
417.16	50.159
417.51	51.083
417.87	52.253
418.22	51.154
418.58	51.656
418.93	49.613
419.29	49.969
419.64	51.181
420.00	51.432
420.35	51.220
420.71	50.000
421.06	51.913
421.42	50.432
421.77	51.749
422.12	50.827
422.48	50.437
422.83	50.391
423.19	48.650
423.54	50.192
423.90	50.906
424.25	51.513
424.61	51.364
424.96	51.553
425.31	50.465
425.67	51.964
426.02	50.645
426.38	48.950
426.73	51.359
427.09	51.601
427.44	50.591
427.79	50.658
428.15	51.915
428.50	51.543
428.85	50.970
429.21	51.162
429.56	49.601
429.92	50.671
430.27	49.250
430.62	49.682
430.98	50.050
431.33	49.093
431.68	49.284
432.04	48.474
432.39	50.878
432.74	50.878
433.10	50.388
433.45	50.086
433.80	50.579
434.16	50.236
434.51	50.206
434.86	49.809
435.22	50.837
435.57	50.860
435.92	52.077
436.28	51.728
436.63	51.594
436.98	51.689
437.34	50.685
437.69	49.608
438.04	49.355
438.39	50.555
438.75	50.891
439.10	51.538
439.45	49.406
439.81	51.533
440.16	52.174
440.51	50.338
440.86	51.282
441.22	49.946
441.57	50.289
441.92	49.556
442.27	50.103
442.63	49.339
442.98	50.216
443.33	50.027
443.68	51.157
444.03	49.670
444.39	50.282
444.74	49.793
445.09	51.395
445.44	51.488
445.79	50.828
446.15	49.211
446.50	48.681
446.85	50.448
447.20	49.801
447.55	50.517
447.91	50.613
448.26	51.118
448.61	50.470
448.96	51.198
449.31	51.430
449.66	50.554
450.02	50.135
450.37	50.472
450.72	52.066
451.07	50.611
451.42	51.097
451.77	51.203
452.12	50.425
452.47	51.762
452.83	51.437
453.18	50.450
453.53	51.095
453.88	52.686
454.23	50.901
454.58	50.350
454.93	49.724
455.28	50.734
455.63	50.532
455.98	50.705
456.34	51.793
456.69	51.707
457.04	50.597
457.39	50.400
457.74	50.788
458.09	50.253
458.44	50.931
458.79	51.034
459.14	49.536
459.49	49.207
459.84	50.380
460.19	50.395
460.54	50.142
460.89	50.426
461.24	50.344
461.59	51.587
461.94	50.118
462.29	51.373
462.64	52.387
462.99	51.376
463.34	51.329
463.69	51.180
464.04	51.180
464.39	50.944
464.74	50.117
465.09	50.609
465.44	50.381
465.79	50.082
466.14	48.967
466.49	50.624
466.84	50.613
467.19	50.615
467.54	50.511
467.89	50.646
468.24	50.840
468.59	50.000
468.94	51.208
469.29	50.825
469.64	50.868
469.99	50.771
470.34	50.980
470.68	51.379
471.03	50.767
471.38	51.523
471.73	50.751
472.08	52.381
472.43	52.390
472.78	50.896
473.13	50.876
473.48	51.589
473.83	50.707
474.17	51.489
474.52	50.178
474.87	49.233
475.22	50.371
475.57	50.210
475.92	49.974
476.27	50.054
476.61	50.349
476.96	50.836
477.31	50.180
477.66	50.617
478.01	51.160
478.36	50.051
478.70	49.826
479.05	49.843
479.40	49.554
479.75	50.199
480.10	50.774
480.45	49.953
480.79	50.092
481.14	49.643
481.49	49.497
481.84	48.725
482.19	48.865
482.53	48.880
482.88	49.507
483.23	49.887
483.58	49.641
483.92	50.229
484.27	49.272
484.62	50.297
484.97	47.955
485.31	47.262
485.66	46.863
486.01	46.187
486.36	45.456
486.70	46.079
487.05	46.579
487.40	46.866
487.75	47.510
488.09	47.074
488.44	47.610
488.79	47.761
489.13	48.451
489.48	49.021
489.83	48.999
490.17	48.431
490.52	48.579
490.87	49.095
491.22	49.734
491.56	49.583
491.91	49.238
492.26	49.131
492.60	50.433
492.95	49.162
493.30	48.999
493.64	49.416
493.99	49.061
494.34	48.723
494.68	49.181
495.03	49.439
495.37	49.977
495.72	49.277
496.07	49.102
496.41	47.871
496.76	48.206
497.11	49.100
497.45	49.277
497.80	50.046
498.14	49.838
498.49	48.793
498.84	49.159
499.18	47.943
499.53	49.931
499.87	48.967
500.22	49.056
500.56	49.489
500.91	50.464
501.26	49.196
501.60	49.317
501.95	48.477
502.29	47.689
502.64	48.081
502.98	47.932
503.33	48.018
503.67	48.653
504.02	48.231
504.36	48.643
504.71	49.527
505.06	48.334
505.40	49.181
505.75	48.690
506.09	48.390
506.44	48.684
506.78	49.480
507.13	49.443
507.47	50.218
507.82	50.219
508.16	50.122
508.51	49.758
508.85	49.525
509.19	49.584
509.54	49.561
509.88	49.528
510.23	49.167
510.57	48.263
510.92	49.351
511.26	49.849
511.61	48.351
511.95	49.826
512.30	49.550
512.64	49.481
512.98	50.077
513.33	49.283
513.67	50.285
514.02	50.026
514.36	50.208
514.70	50.293
515.05	50.080
515.39	50.713
515.74	51.011
516.08	51.362
516.42	52.732
516.77	50.133
517.11	49.387
517.46	50.700
517.80	50.901
518.14	51.211
518.49	50.717
518.83	50.659
519.17	50.915
519.52	51.065
519.86	51.717
520.20	51.342
520.55	50.537
520.89	50.862
521.23	52.103
521.58	51.463
521.92	50.904
522.26	51.836
522.61	51.872
522.95	52.553
523.29	51.930
523.64	50.925
523.98	52.993
524.32	50.519
524.66	51.420
525.01	51.479
525.35	51.385
525.69	52.077
526.04	51.160
526.38	50.441
526.72	50.776
527.06	50.680
527.41	52.539
527.75	52.343
528.09	50.813
528.43	51.922
528.78	51.461
529.12	51.656
529.46	50.672
529.80	51.168
530.15	51.738
530.49	51.925
530.83	51.066
531.17	52.030
531.51	50.153
531.86	50.000
532.20	49.753
532.54	52.166
532.88	51.031
533.22	51.005
533.57	50.763
533.91	50.699
534.25	49.856
534.59	50.877
534.93	49.317
535.27	49.061
535.62	49.475
535.96	50.650
536.30	51.980
536.64	50.062
536.98	49.591
537.32	51.062
537.66	50.191
538.01	50.526
538.35	50.530
538.69	49.333
539.03	50.684
539.37	48.544
539.71	51.914
540.05	49.231
540.39	50.629
540.73	50.759
541.07	49.122
541.42	49.378
541.76	50.062
542.10	50.000
542.44	50.436
542.78	49.339
543.12	49.264
543.46	49.812
543.80	49.561
544.14	49.164
544.48	49.209
544.82	49.174
545.16	48.998
545.50	50.338
545.84	48.927
546.18	50.780
546.52	49.115
546.86	48.807
547.20	49.612
547.54	49.398
547.88	47.202
548.22	49.605
548.56	47.319
548.90	47.094
549.24	50.347
549.58	48.582
549.92	49.705
550.26	49.696
550.60	49.434
550.94	50.882
551.28	49.310
551.62	51.310
551.96	50.068
552.30	49.110
552.64	48.997
552.98	48.003
553.32	48.656
553.66	49.055
554.00	48.005
554.34	50.333
554.68	48.387
555.02	48.608
555.36	48.870
555.69	47.644
556.03	48.025
556.37	48.056
556.71	49.218
557.05	48.362
557.39	48.867
557.73	47.642
558.07	48.692
558.41	49.006
558.75	49.111
559.08	50.036
559.42	49.177
559.76	49.109
560.10	48.451
560.44	46.583
560.78	48.913
561.12	48.061
561.45	47.372
561.79	47.441
562.13	46.936
562.47	48.151
562.81	47.495
563.15	48.093
563.48	45.652
563.82	49.220
564.16	46.642
564.50	47.197
564.84	47.538
565.17	46.168
565.51	47.906
565.85	48.180
566.19	46.607
566.52	46.751
566.86	46.935
567.20	46.517
567.54	46.670
567.88	46.479
568.21	45.931
568.55	46.012
568.89	45.255
569.23	44.219
569.56	44.529
569.90	43.442
570.24	43.543
570.57	43.511
570.91	42.808
571.25	42.467
571.59	41.709
571.92	41.765
572.26	41.509
572.60	41.766
572.93	42.898
573.27	42.619
573.61	41.743
573.95	42.231
574.28	41.808
574.62	41.244
574.96	40.461
575.29	40.729
575.63	40.777
575.97	41.066
576.30	40.673
576.64	40.988
576.98	40.840
577.31	40.896
577.65	40.608
577.98	40.485
578.32	40.360
578.66	40.669
578.99	40.675
579.33	40.550
579.67	41.311
580.00	40.518
580.34	40.568
580.67	40.336
581.01	40.970
581.35	40.052
581.68	39.476
582.02	39.797
582.35	39.903
582.69	40.136
583.02	40.103
583.36	40.582
583.70	41.157
584.03	41.536
584.37	40.535
584.70	40.682
585.04	40.661
585.37	40.149
585.71	40.562
586.04	39.498
586.38	39.622
586.72	40.644
587.05	40.710
587.39	40.051
587.72	40.790
588.06	40.626
588.39	39.790
588.73	40.915
589.06	41.552
589.40	41.315
589.73	40.544
590.07	41.867
590.40	41.463
590.73	42.196
591.07	42.011
591.40	41.876
591.74	41.721
592.07	40.890
592.41	41.207
592.74	40.095
593.08	39.909
593.41	40.275
593.75	39.619
594.08	40.283
594.41	39.980
594.75	40.514
595.08	40.672
595.42	39.993
595.75	40.276
596.09	41.015
596.42	40.823
596.75	41.747
597.09	41.065
597.42	40.408
597.75	40.000
598.09	41.116
598.42	41.085
598.76	40.517
599.09	41.081
599.42	40.138
599.76	39.349
600.09	39.254
600.42	39.434
600.76	39.633
601.09	39.834
601.42	39.564
601.76	39.778
602.09	40.397
602.42	39.187
602.76	40.266
603.09	41.252
603.42	39.706
603.76	39.516
604.09	39.305
604.42	39.887
604.76	40.300
605.09	39.633
605.42	39.862
605.75	39.203
606.09	39.862
606.42	39.647
606.75	40.264
607.09	39.716
607.42	39.213
607.75	39.132
608.08	39.602
608.42	39.975
608.75	39.623
609.08	39.463
609.41	39.864
609.75	40.385
610.08	40.243
610.41	39.833
610.74	40.216
611.07	40.473
611.41	39.944
611.74	39.818
612.07	40.703
612.40	40.789
612.73	41.188
613.07	41.054
613.40	39.499
613.73	40.489
614.06	38.800
614.39	39.747
614.72	40.030
615.06	39.219
615.39	40.594
615.72	38.529
616.05	40.231
616.38	40.183
616.71	39.067
617.05	40.967
617.38	40.337
617.71	40.439
618.04	40.998
618.37	40.634
618.70	41.166
619.03	40.842
619.36	42.274
619.69	40.369
620.03	42.401
620.36	41.426
620.69	42.656
621.02	42.255
621.35	41.619
621.68	42.478
622.01	41.993
622.34	41.733
622.67	42.065
623.00	40.640
623.33	41.161
623.66	41.317
623.99	41.096
624.32	40.786
624.65	41.475
624.99	41.176
625.32	39.880
625.65	40.897
625.98	39.888
626.31	42.804
626.64	40.699
626.97	41.393
627.30	42.158
627.63	42.543
627.96	41.471
628.29	42.739
628.62	41.403
628.95	43.085
629.28	44.259
629.61	42.004
629.94	42.956
630.26	42.374
630.59	43.617
630.92	41.883
631.25	43.608
631.58	42.623
631.91	41.865
632.24	42.274
632.57	41.847
632.90	44.099
633.23	45.016
633.56	43.098
633.89	43.623
634.22	43.057
634.55	43.333
634.88	45.126
635.20	44.058
635.53	45.064
635.86	44.295
636.19	43.098
636.52	43.243
636.85	41.424
637.18	44.095
637.51	43.575
637.83	43.478
638.16	44.197
638.49	43.713
638.82	43.779
639.15	42.421
639.48	44.194
639.81	44.444
640.13	42.699
640.46	45.133
640.79	45.514
641.12	44.357
641.45	43.726
641.77	45.575
642.10	43.373
642.43	44.950
642.76	44.034
643.09	43.804
643.41	46.143
643.74	46.906
644.07	45.870
644.40	45.858
644.73	46.246
645.05	45.171
645.38	44.717
645.71	45.675
646.04	46.870
646.36	44.914
646.69	46.880
647.02	47.520
647.35	43.780
647.67	44.408
648.00	46.743
648.33	44.060
648.66	46.667
648.98	45.652
649.31	42.645
649.64	42.600
649.96	42.959
650.29	40.000
650.62	43.888
650.94	44.729
651.27	45.614
651.60	44.757
651.92	43.625
652.25	46.457
652.58	42.695
652.90	41.617
653.23	43.722
653.56	43.769
653.88	42.731
654.21	45.015
654.54	41.288
654.86	41.740
655.19	41.689
655.52	35.605
655.84	30.795
656.17	35.585
656.49	50.662
656.82	58.041
657.15	46.127
657.47	35.103
657.80	26.328
658.13	20.918
658.45	28.152
658.78	33.630
659.10	33.325
659.43	34.333
659.75	34.794
660.08	35.965
660.41	38.113
660.73	42.158
661.06	40.991
661.38	44.123
661.71	42.626
662.03	43.536
662.36	44.762
662.68	44.693
663.01	46.306
663.33	42.830
663.66	46.548
663.98	46.825
664.31	47.015
664.63	45.211
664.96	45.403
665.28	43.315
665.61	41.509
665.93	43.396
666.26	44.860
666.58	45.138
666.91	42.857
667.23	48.193
667.56	46.407
667.88	46.058
668.21	43.033
668.53	42.137
668.86	46.493
669.18	42.974
669.50	45.868
669.83	45.791
670.15	43.451
670.48	41.797
670.80	43.825
671.13	42.032
671.45	43.287
671.77	43.414
672.10	43.447
672.42	38.322
672.75	40.665
673.07	41.494
673.39	40.096
673.72	42.215
674.04	43.011
674.37	41.379
674.69	41.264
675.01	41.418
675.34	42.248
675.66	43.359
675.98	42.998
676.31	42.600
676.63	40.557
676.95	44.444
677.28	43.611
677.60	43.863
677.92	42.460
678.25	43.798
678.57	40.782
678.89	41.591
679.22	40.257
679.54	41.459
679.86	42.583
680.18	40.246
680.51	38.972
680.83	39.696
681.15	39.515
681.48	42.882
681.80	40.455
682.12	41.176
682.44	41.441
682.77	40.747
683.09	40.000
683.41	44.082
683.73	42.913
684.06	41.270
684.38	42.054
684.70	41.906
685.02	38.889
685.34	41.021
685.67	40.032
685.99	39.245
686.31	39.599
686.63	41.951
686.96	39.869
687.28	39.094
687.60	39.761
687.92	40.034
688.24	40.517
688.56	40.925
688.89	37.859
689.21	40.077
689.53	41.107
689.85	40.650
690.17	38.252
690.49	42.540
690.82	41.176
691.14	41.212
691.46	41.684
691.78	42.495
692.10	42.176
692.42	40.109
692.74	41.473
693.06	42.054
693.39	37.549
693.71	40.472
694.03	42.801
694.35	41.968
694.67	39.511
694.99	40.576
695.31	40.541
695.63	43.213
695.95	41.629
696.27	41.814
696.59	42.243
696.91	39.747
697.23	41.629
697.56	37.137
697.88	38.124
698.20	38.679
698.52	37.938
698.84	42.094
699.16	40.512
699.48	40.466
699.80	40.523
700.12	40.416
700.44	42.056
700.76	38.902
701.08	44.386
701.40	45.455
701.72	44.920
702.04	41.734
702.36	44.892
702.68	43.617
703.00	42.105
703.32	41.191
703.64	40.554
703.96	43.229
704.28	41.799
704.60	44.225
704.91	42.297
705.23	41.761
705.55	45.104
705.87	45.714
706.19	45.141
706.51	44.828
706.83	44.838
707.15	44.652
707.47	42.373
707.79	41.379
708.11	38.322
708.43	41.124
708.74	37.557
709.06	38.372
709.38	40.447
709.70	38.965
710.02	39.946
710.34	40.608
710.66	43.611
710.98	44.262
711.29	41.504
711.61	44.290
711.93	44.377
712.25	41.566
712.57	43.730
712.89	46.667
713.20	46.326
713.52	40.810
713.84	43.807
714.16	37.391
714.48	38.040
714.80	40.379
715.11	39.096
715.43	40.782
715.75	43.380
716.07	43.064
716.39	39.143
716.70	42.991
717.02	43.434
717.34	47.482
717.66	43.750
717.97	48.485
718.29	48.944
718.61	34.459
718.93	44.291
719.24	44.631
719.56	42.069
719.88	43.631
720.20	42.903
720.51	40.523
720.83	40.134
721.15	43.537
721.46	46.575
721.78	47.038
722.10	42.708
722.42	45.485
722.73	40.794
723.05	42.105
723.37	43.816
723.68	46.484
724.00	47.727
724.32	48.289
724.63	43.462
724.95	50.196
725.27	46.840
725.58	42.279
725.90	36.268
726.22	43.151
726.53	42.809
726.85	45.277
727.16	39.933
727.48	40.199
727.80	48.561
728.11	43.571
728.43	38.043
728.74	45.455
729.06	36.918
729.38	47.368
729.69	44.667
730.01	45.066
730.32	43.624
730.64	43.522
730.96	41.441
731.27	33.945
731.59	36.207
731.90	36.490
732.22	39.714
732.53	40.741
732.85	40.643
733.16	38.253
733.48	42.947
733.80	38.551
734.11	41.718
734.43	36.550
734.74	37.802
735.06	41.270
735.37	36.856
735.69	38.261
736.00	40.673
736.32	38.485
736.63	41.956
736.95	40.062
737.26	39.939
737.58	39.571
737.89	36.747
738.21	38.742
738.52	41.472
738.83	44.322
739.15	43.554
739.46	42.759
739.78	43.197
740.09	40.525
740.41	39.264
740.72	41.270
741.04	46.154
741.35	43.359
741.66	42.292
741.98	46.352
742.29	45.833
742.61	41.150
742.92	42.373
743.23	43.200
743.55	43.019
743.86	40.000
744.18	42.373
744.49	42.149
744.80	44.700
745.12	43.750
745.43	42.991
745.74	44.889
746.06	39.912
746.37	52.093
746.68	48.230
747.00	46.188
747.31	41.176
747.62	41.393
747.94	39.914
748.25	37.743
748.56	45.339
748.88	45.536
749.19	41.860
749.50	42.922
749.82	49.383
750.13	43.478
750.44	37.667
750.75	41.611
751.07	37.171
751.38	39.274
751.69	38.047
752.01	38.811
752.32	36.877
752.63	42.953
752.94	43.357
753.26	43.750
753.57	41.245
753.88	39.700
754.19	41.877
754.51	42.193
754.82	38.255
755.13	40.541
755.44	40.741
755.75	42.268
756.07	43.151
756.38	37.582
756.69	36.562
757.00	37.982
757.31	40.000
757.63	36.364
757.94	35.106
758.25	35.990
758.56	36.384
758.87	36.341
759.18	38.372
759.50	38.298
759.81	36.499
760.12	39.045
760.43	35.574
760.74	37.468
761.05	36.340
761.36	35.156
761.67	36.388
761.99	35.493
762.30	38.907
762.61	36.806
762.92	40.152
763.23	43.019
763.54	40.000
763.85	37.743
764.16	44.444
764.47	40.203
764.78	35.179
765.10	35.976
765.41	37.500
765.72	37.293
766.03	34.743
766.34	36.237
766.65	41.825
766.96	44.130
767.27	41.121
767.58	43.564
767.89	42.541
768.20	52.439
768.51	44.898
768.82	42.544
769.13	38.039
769.44	37.970
769.75	34.831
770.06	37.815
770.37	38.158
770.68	38.222
770.99	41.525
771.30	43.933
771.61	38.462
771.92	37.405
772.23	35.484
772.54	40.444
772.85	47.525
773.16	41.304
773.47	40.000
773.78	42.574
774.09	44.318
774.39	54.545
774.70	40.000
775.01	48.684
775.32	47.826
775.63	42.466
775.94	52.469
776.25	51.034
776.56	54.962
776.87	48.092
777.18	53.788
777.48	59.843
777.79	50.000
778.10	59.091
778.41	46.269
778.72	50.376
779.03	41.026
779.34	50.000
779.65	49.689
779.95	42.236
780.26	44.048
780.57	51.020
780.88	48.936
781.19	54.167
781.50	45.562
781.80	50.820
782.11	41.799
782.42	40.805
782.73	49.718
783.04	49.032
783.34	51.163
783.65	48.980
783.96	45.806
784.27	41.060
784.57	53.947
784.88	47.826
785.19	44.167
785.50	56.034
785.81	58.915
786.11	54.815
786.42	42.520
786.73	56.757
787.04	53.774
787.34	43.089
787.65	59.848
787.96	50.758
788.26	52.756
788.57	52.555
788.88	42.958
789.19	48.092
789.49	52.027
789.80	44.531
790.11	49.587
790.41	53.704
790.72	50.926
791.03	58.654
791.33	62.626
791.64	66.316
791.95	70.526
792.25	62.500
792.56	55.000
792.87	59.756
793.17	67.045
793.48	62.353
793.79	66.667
794.09	64.773
794.40	65.517
794.70	54.762
795.01	52.308
795.32	42.748
795.62	48.718
795.93	52.941
796.23	57.724
796.54	57.143
796.85	56.818
797.15	76.623
797.46	69.512
797.76	57.500
798.07	66.667
798.37	71.250
798.68	71.250
798.99	76.829
799.29	54.667
799.60	47.674
799.90	65.789
800.21	81.818
800.51	61.972
800.82	77.586
801.12	80.000
801.43	78.667
801.73	67.241
802.04	62.338
802.34	79.452
802.65	74.510
802.95	102.174
803.26	88.710
803.56	78.333
803.87	65.672
804.17	69.841
804.48	79.245
804.78	62.500
805.09	83.333
805.39	71.429
805.70	94.737
806.00	64.286
806.30	96.875
806.61	68.235
806.91	68.889
807.22	60.870
807.52	69.737
807.83	78.947
808.13	82.609
808.43	69.355
808.74	79.452
809.04	76.786
809.35	82.353
809.65	74.242
809.95	92.157
810.26	87.037
810.56	70.313
810.86	93.878
811.17	96.491
811.47	84.783
811.77	75.862
812.08	72.414
812.38	76.190
812.69	102.381
812.99	73.333
813.29	108.571
813.59	122.581
813.90	67.241
814.20	88.525
814.50	98.000
814.81	64.912
815.11	98.148
815.41	82.143
815.72	82.143
816.02	84.000
816.32	85.366
816.62	94.828
816.93	130.303
817.23	92.683
817.53	73.214
817.84	95.556
818.14	73.810
818.44	87.500
818.74	103.774
819.04	100.000
819.35	130.303
819.65	94.231
819.95	105.556
820.25	102.128
820.56	108.108
820.86	97.368
821.16	76.596
821.46	110.526
821.76	89.091
822.07	78.571
822.37	102.632
822.67	90.698
822.97	113.158
823.27	95.652
823.57	134.375
823.88	89.744
824.18	109.091
824.48	173.913
824.78	100.000
825.08	134.783
825.38	131.034
825.69	126.471
825.99	76.596
826.29	77.778
826.59	105.714
826.89	110.000
827.19	91.429
827.49	132.258
827.79	184.615
828.09	107.143
828.39	122.222
828.70	110.811
829.00	107.143
829.30	137.500
829.60	91.667
829.90	106.452
830.20	90.909
830.50	124.324
830.80	137.500
831.10	123.077
831.40	209.524
831.70	183.333
832.00	100.000
832.30	113.043
832.60	162.500
832.90	133.333
833.20	195.000
833.50	123.684
833.80	105.882
834.10	100.000
834.40	147.368
834.70	113.333
835.00	156.000
835.30	81.081
835.60	140.625
835.90	124.324
836.20	161.538
836.50	122.727
836.80	95.122
837.10	134.783
837.40	353.846
837.70	126.316
838.00	156.667
838.30	170.833
838.60	156.000
838.90	350.000
839.19	200.000
839.49	130.000
839.79	127.586
840.09	130.769
840.39	213.333
840.69	236.842
840.99	123.810
841.29	178.261
841.59	200.000
841.88	156.000
842.18	233.333
842.48	139.286
842.78	155.556
843.08	276.923
843.38	168.182
843.68	307.143
843.97	514.286
844.27	186.957
844.57	1200.000
844.87	307.143
845.17	155.556
845.47	166.667
845.76	162.500
846.06	557.143
846.36	200.000
846.66	238.462
846.96	256.250
847.25	223.077
847.55	110.526
847.85	238.889
848.15	500.000
848.44	290.909
848.74	204.762
849.04	179.167
849.34	158.824
849.63	200.000
849.93	256.250
850.23	933.333
850.53	337.500
850.82	254.545
851.12	217.647
851.42	166.667
851.71	187.500
852.01	0.000
852.31	211.765
852.61	350.000
852.90	150.000
853.20	266.667
853.50	-1700.000
853.79	168.000
854.09	134.375
854.39	96.552
854.68	141.379
854.98	195.238
855.28	125.806
855.57	285.714
855.87	183.333
856.17	111.111
856.46	126.316
856.76	125.806
857.05	223.529
857.35	236.364
857.65	307.692
857.94	145.000
858.24	366.667
858.53	185.714
858.83	542.857
859.13	230.435
859.42	200.000
859.72	387.500
860.01	283.333
860.31	725.000
860.60	290.000
860.90	537.500
861.20	284.615
861.49	428.571
861.79	-2800.000
862.08	528.571
862.38	322.222
862.67	271.429
862.97	390.000
863.26	143.333
863.56	1050.000
863.85	276.923
864.15	223.529
864.44	183.333
864.74	283.333
865.03	254.545
865.33	325.000
865.62	226.667
865.92	533.333
866.21	775.000
866.51	620.000
866.80	205.556
867.10	866.667
867.39	3300.000
867.69	620.000
867.98	825.000
868.27	123.810
868.57	260.000
868.86	850.000
869.16	142.857
869.45	3000.000
869.75	-533.333
870.04	575.000
870.33	680.000
870.63	287.500
870.92	176.471
871.22	850.000
871.51	457.143
871.80	291.667
872.10	292.308
>>>>>End Processed Spectral Data<<<<<
