SpectraSuite Data File
++++++++++++++++++++++++++++++++++++
Date: Tue May 12 17:18:32 PDT 2015
User: schluterlab
Dark Spectrum Present: Yes
Reference Spectrum Present: Yes
Number of Sampled Component Spectra: 1
Spectrometers: USB2E3373
Integration Time (usec): 3000 (USB2E3373)
Spectra Averaged: 3 (USB2E3373)
Boxcar Smoothing: 0 (USB2E3373)
Correct for Electrical Dark: No (USB2E3373)
Strobe/Lamp Enabled: No (USB2E3373)
Correct for Detector Non-linearity: No (USB2E3373)
Correct for Stray Light: No (USB2E3373)
Number of Pixels in Processed Spectrum: 2048
>>>>>Begin Processed Spectral Data<<<<<
178.53	0.000
178.91	-250.000
179.29	-700.000
179.67	-2900.000
180.04	-160.000
180.42	725.000
180.80	1700.000
181.18	0.000
181.56	-362.500
181.94	0.000
182.31	1466.667
182.69	-2900.000
183.07	571.429
183.45	-3700.000
183.83	-1600.000
184.20	290.000
184.58	342.857
184.96	-253.846
185.34	-216.667
185.72	1700.000
186.09	-875.000
186.47	-3800.000
186.85	1033.333
187.23	640.000
187.61	2000.000
187.98	550.000
188.36	185.714
188.74	300.000
189.12	316.667
189.49	950.000
189.87	0.000
190.25	387.500
190.63	2800.000
191.00	-308.333
191.38	-3000.000
191.76	-875.000
192.14	600.000
192.51	-3600.000
192.89	1700.000
193.27	866.667
193.65	-1066.667
194.02	-620.000
194.40	385.714
194.78	-214.286
195.15	206.667
195.53	-3300.000
195.91	-660.000
196.29	3400.000
196.66	237.500
197.04	750.000
197.42	-1550.000
197.79	600.000
198.17	350.000
198.55	0.000
198.92	500.000
199.30	1166.667
199.68	1850.000
200.05	600.000
200.43	-516.667
200.81	266.667
201.18	3100.000
201.56	283.333
201.94	-775.000
202.31	-412.500
202.69	-500.000
203.07	3200.000
203.44	-533.333
203.82	325.000
204.19	700.000
204.57	-1050.000
204.95	-700.000
205.32	-540.000
205.70	450.000
206.08	725.000
206.45	-900.000
206.83	333.333
207.20	184.211
207.58	258.333
207.96	660.000
208.33	0.000
208.71	542.857
209.08	700.000
209.46	-2100.000
209.84	-575.000
210.21	880.000
210.59	-620.000
210.96	283.333
211.34	-750.000
211.71	372.727
212.09	850.000
212.46	1450.000
212.84	-483.333
213.22	366.667
213.59	-2500.000
213.97	340.000
214.34	1025.000
214.72	900.000
215.09	766.667
215.47	-3100.000
215.84	-190.000
216.22	-450.000
216.59	0.000
216.97	0.000
217.34	1400.000
217.72	-1550.000
218.09	1333.333
218.47	412.500
218.84	825.000
219.22	766.667
219.59	1066.667
219.97	457.143
220.34	422.222
220.72	1500.000
221.09	3200.000
221.47	258.333
221.84	966.667
222.22	270.000
222.59	183.333
222.97	235.714
223.34	250.000
223.72	-1200.000
224.09	833.333
224.46	315.385
224.84	-725.000
225.21	377.778
225.59	253.333
225.96	833.333
226.34	-560.000
226.71	-850.000
227.08	-420.000
227.46	0.000
227.83	-466.667
228.21	-1900.000
228.58	308.333
228.95	850.000
229.33	411.111
229.70	925.000
230.08	338.462
230.45	3300.000
230.82	-750.000
231.20	-600.000
231.57	-900.000
231.95	540.000
232.32	266.667
232.69	516.667
233.07	191.667
233.44	-1550.000
233.81	266.667
234.19	151.852
234.56	200.000
234.93	147.059
235.31	145.000
235.68	193.750
236.05	121.429
236.43	140.741
236.80	228.571
237.17	127.586
237.55	100.000
237.92	97.500
238.29	118.182
238.67	128.125
239.04	75.610
239.41	50.000
239.79	75.000
240.16	72.917
240.53	60.656
240.91	57.971
241.28	71.186
241.65	46.970
242.02	54.930
242.40	44.286
242.77	31.868
243.14	34.177
243.51	40.404
243.89	40.187
244.26	30.841
244.63	19.802
245.00	32.110
245.38	24.576
245.75	21.970
246.12	30.370
246.49	25.532
246.87	16.393
247.24	24.000
247.61	25.625
247.98	26.531
248.36	19.394
248.73	25.510
249.10	14.881
249.47	19.500
249.84	18.905
250.22	20.000
250.59	20.000
250.96	17.722
251.33	17.674
251.70	15.179
252.08	16.807
252.45	13.546
252.82	14.068
253.19	9.881
253.56	12.692
253.94	10.507
254.31	13.953
254.68	12.195
255.05	11.379
255.42	10.949
255.79	12.704
256.16	11.186
256.54	15.260
256.91	14.052
257.28	14.716
257.65	9.091
258.02	10.619
258.39	10.602
258.76	15.942
259.14	8.286
259.51	11.662
259.88	11.550
260.25	7.692
260.62	11.233
260.99	8.815
261.36	10.585
261.73	9.574
262.10	10.209
262.47	9.750
262.85	8.267
263.22	10.540
263.59	8.184
263.96	11.028
264.33	3.951
264.70	8.354
265.07	8.293
265.44	10.780
265.81	9.670
266.18	10.069
266.55	7.565
266.92	5.817
267.29	10.746
267.66	7.848
268.03	7.175
268.40	9.725
268.77	9.031
269.14	5.423
269.51	7.350
269.88	7.755
270.25	3.888
270.62	7.511
270.99	9.736
271.36	10.163
271.73	7.966
272.10	5.253
272.47	5.952
272.84	5.788
273.21	7.025
273.58	8.097
273.95	6.571
274.32	8.171
274.69	7.087
275.06	8.379
275.43	4.981
275.80	8.491
276.17	7.721
276.54	7.850
276.91	8.955
277.28	6.569
277.65	7.565
278.02	7.904
278.39	6.295
278.76	8.966
279.13	7.829
279.50	5.636
279.87	5.773
280.23	5.709
280.60	5.474
280.97	6.379
281.34	8.086
281.71	7.652
282.08	7.521
282.45	6.081
282.82	6.856
283.19	6.677
283.56	5.950
283.92	5.863
284.29	6.988
284.66	6.050
285.03	7.131
285.40	5.785
285.77	5.556
286.14	7.430
286.51	5.061
286.87	4.905
287.24	5.856
287.61	5.775
287.98	6.567
288.35	5.778
288.72	5.159
289.08	5.105
289.45	5.335
289.82	5.625
290.19	5.271
290.56	8.151
290.93	5.612
291.29	5.663
291.66	5.085
292.03	6.311
292.40	5.962
292.77	5.153
293.13	4.565
293.50	4.858
293.87	5.285
294.24	4.755
294.60	4.441
294.97	5.734
295.34	5.046
295.71	5.388
296.08	5.333
296.44	5.083
296.81	4.467
297.18	4.816
297.55	6.527
297.91	3.325
298.28	5.193
298.65	5.276
299.02	4.463
299.38	5.036
299.75	4.512
300.12	6.995
300.48	6.089
300.85	4.887
301.22	4.535
301.59	3.892
301.95	3.151
302.32	5.239
302.69	5.882
303.05	5.612
303.42	3.924
303.79	5.525
304.15	3.190
304.52	4.334
304.89	5.330
305.25	4.227
305.62	4.478
305.99	3.804
306.35	3.474
306.72	4.370
307.09	3.623
307.45	3.907
307.82	2.572
308.19	4.536
308.55	3.700
308.92	4.809
309.29	5.621
309.65	4.460
310.02	4.158
310.38	3.988
310.75	4.147
311.12	4.502
311.48	5.695
311.85	4.866
312.22	4.871
312.58	3.790
312.95	4.660
313.31	4.588
313.68	3.752
314.05	5.220
314.41	3.911
314.78	3.693
315.14	4.360
315.51	4.636
315.87	4.106
316.24	4.575
316.61	4.387
316.97	4.037
317.34	4.672
317.70	5.180
318.07	4.004
318.43	5.097
318.80	5.604
319.16	4.720
319.53	3.982
319.89	4.211
320.26	6.145
320.62	6.319
320.99	4.385
321.35	5.937
321.72	5.693
322.08	6.187
322.45	4.541
322.81	5.215
323.18	4.352
323.54	6.359
323.91	5.077
324.27	5.305
324.64	4.066
325.00	5.431
325.37	5.902
325.73	4.975
326.10	6.048
326.46	5.615
326.83	4.640
327.19	5.703
327.56	5.431
327.92	5.902
328.29	6.465
328.65	5.651
329.01	5.817
329.38	5.922
329.74	4.953
330.11	6.255
330.47	6.564
330.84	5.263
331.20	5.499
331.56	6.390
331.93	7.015
332.29	4.932
332.66	5.782
333.02	4.725
333.38	4.625
333.75	6.505
334.11	5.956
334.48	5.983
334.84	6.250
335.20	6.330
335.57	5.626
335.93	5.803
336.29	5.804
336.66	5.146
337.02	5.218
337.38	5.933
337.75	4.899
338.11	5.654
338.47	5.927
338.84	6.266
339.20	4.242
339.56	6.812
339.93	5.351
340.29	4.958
340.65	6.203
341.02	7.080
341.38	5.583
341.74	4.983
342.11	5.008
342.47	5.414
342.83	6.317
343.20	5.578
343.56	5.163
343.92	5.202
344.28	4.944
344.65	5.216
345.01	5.238
345.37	5.128
345.73	5.556
346.10	5.498
346.46	5.901
346.82	5.170
347.19	6.569
347.55	5.230
347.91	4.607
348.27	4.648
348.63	5.775
349.00	5.179
349.36	5.058
349.72	6.346
350.08	4.814
350.45	5.255
350.81	5.657
351.17	4.777
351.53	4.311
351.89	5.517
352.26	5.291
352.62	4.977
352.98	5.368
353.34	5.470
353.70	4.511
354.07	4.692
354.43	4.608
354.79	4.632
355.15	5.054
355.51	4.834
355.87	5.346
356.24	5.466
356.60	4.947
356.96	4.473
357.32	5.727
357.68	5.286
358.04	4.863
358.40	5.397
358.77	5.334
359.13	4.580
359.49	5.041
359.85	4.914
360.21	4.903
360.57	4.891
360.93	4.978
361.29	5.195
361.66	4.996
362.02	3.693
362.38	4.257
362.74	5.732
363.10	5.119
363.46	4.903
363.82	5.049
364.18	4.908
364.54	4.435
364.90	5.756
365.26	4.858
365.62	4.213
365.98	3.854
366.35	3.103
366.71	4.997
367.07	4.983
367.43	4.567
367.79	4.854
368.15	4.342
368.51	4.686
368.87	4.416
369.23	4.089
369.59	4.788
369.95	4.406
370.31	3.765
370.67	5.135
371.03	5.392
371.39	4.294
371.75	4.327
372.11	4.895
372.47	4.932
372.83	4.419
373.19	5.552
373.55	4.330
373.91	4.213
374.27	4.828
374.63	5.153
374.99	4.447
375.35	4.032
375.71	4.749
376.07	4.377
376.42	3.517
376.78	5.010
377.14	4.456
377.50	4.182
377.86	4.933
378.22	4.327
378.58	4.722
378.94	4.466
379.30	4.488
379.66	4.214
380.02	4.927
380.38	3.630
380.74	4.729
381.09	4.614
381.45	4.162
381.81	3.664
382.17	3.785
382.53	3.719
382.89	3.312
383.25	3.612
383.61	3.862
383.97	3.599
384.32	4.521
384.68	4.456
385.04	4.045
385.40	4.508
385.76	4.447
386.12	4.205
386.48	3.769
386.83	4.340
387.19	3.828
387.55	4.476
387.91	4.965
388.27	4.283
388.62	4.049
388.98	3.790
389.34	4.462
389.70	3.479
390.06	3.902
390.42	4.380
390.77	3.808
391.13	3.802
391.49	4.658
391.85	4.677
392.20	4.708
392.56	5.556
392.92	4.155
393.28	4.316
393.64	3.612
393.99	4.090
394.35	3.708
394.71	3.679
395.07	4.075
395.42	4.567
395.78	4.010
396.14	5.181
396.50	4.031
396.85	3.780
397.21	3.971
397.57	4.304
397.92	3.004
398.28	3.309
398.64	4.130
399.00	3.421
399.35	3.650
399.71	4.029
400.07	3.824
400.42	3.642
400.78	3.636
401.14	3.817
401.49	3.456
401.85	4.403
402.21	3.281
402.57	3.950
402.92	3.697
403.28	3.103
403.63	4.120
403.99	3.920
404.35	5.041
404.70	4.076
405.06	4.043
405.42	3.950
405.77	3.583
406.13	3.905
406.49	2.899
406.84	4.230
407.20	3.596
407.55	4.246
407.91	3.765
408.27	4.002
408.62	3.844
408.98	3.785
409.34	3.565
409.69	3.111
410.05	3.637
410.40	2.886
410.76	3.377
411.11	3.791
411.47	3.889
411.83	3.632
412.18	3.140
412.54	3.003
412.89	3.068
413.25	3.535
413.60	3.621
413.96	3.411
414.31	3.070
414.67	3.973
415.03	3.448
415.38	3.785
415.74	3.601
416.09	4.497
416.45	3.814
416.80	3.977
417.16	3.628
417.51	3.949
417.87	3.817
418.22	4.131
418.58	3.567
418.93	3.331
419.29	3.450
419.64	4.361
420.00	4.296
420.35	3.368
420.71	3.034
421.06	3.237
421.42	3.224
421.77	3.276
422.12	3.473
422.48	3.955
422.83	3.460
423.19	3.132
423.54	3.566
423.90	4.417
424.25	3.577
424.61	3.772
424.96	2.880
425.31	3.777
425.67	3.479
426.02	3.982
426.38	2.742
426.73	3.702
427.09	3.203
427.44	3.433
427.79	2.859
428.15	4.420
428.50	3.714
428.85	3.821
429.21	3.674
429.56	4.038
429.92	3.033
430.27	3.532
430.62	3.231
430.98	3.443
431.33	2.974
431.68	2.370
432.04	3.311
432.39	3.568
432.74	3.689
433.10	3.488
433.45	3.791
433.80	3.530
434.16	3.573
434.51	3.457
434.86	4.464
435.22	2.701
435.57	3.497
435.92	4.155
436.28	4.032
436.63	3.566
436.98	3.491
437.34	3.938
437.69	3.583
438.04	4.140
438.39	4.262
438.75	4.343
439.10	4.047
439.45	4.014
439.81	3.875
440.16	3.467
440.51	3.435
440.86	4.729
441.22	3.788
441.57	3.622
441.92	3.208
442.27	3.041
442.63	3.100
442.98	3.879
443.33	3.749
443.68	3.974
444.03	3.487
444.39	4.143
444.74	3.675
445.09	3.739
445.44	4.198
445.79	3.460
446.15	4.053
446.50	3.586
446.85	3.984
447.20	3.035
447.55	2.610
447.91	3.942
448.26	4.153
448.61	3.648
448.96	4.248
449.31	3.245
449.66	4.208
450.02	3.241
450.37	3.720
450.72	3.967
451.07	4.363
451.42	3.734
451.77	4.009
452.12	4.141
452.47	3.645
452.83	3.775
453.18	4.084
453.53	4.559
453.88	4.457
454.23	4.590
454.58	4.312
454.93	4.108
455.28	4.345
455.63	3.664
455.98	3.440
456.34	4.802
456.69	3.598
457.04	3.998
457.39	3.429
457.74	4.561
458.09	3.200
458.44	4.107
458.79	4.350
459.14	4.201
459.49	3.851
459.84	3.859
460.19	3.729
460.54	4.387
460.89	4.158
461.24	3.895
461.59	4.082
461.94	4.078
462.29	4.519
462.64	4.334
462.99	4.095
463.34	5.185
463.69	4.840
464.04	4.375
464.39	4.751
464.74	4.103
465.09	4.643
465.44	4.353
465.79	4.627
466.14	4.081
466.49	3.364
466.84	4.292
467.19	4.569
467.54	4.204
467.89	4.284
468.24	4.864
468.59	4.167
468.94	4.469
469.29	5.131
469.64	4.887
469.99	4.692
470.34	4.364
470.68	4.138
471.03	4.403
471.38	4.834
471.73	4.376
472.08	4.697
472.43	4.221
472.78	4.994
473.13	4.693
473.48	4.768
473.83	4.535
474.17	4.559
474.52	4.680
474.87	3.980
475.22	4.512
475.57	4.040
475.92	3.628
476.27	3.645
476.61	4.075
476.96	4.650
477.31	3.907
477.66	4.240
478.01	4.332
478.36	4.583
478.70	3.821
479.05	3.504
479.40	3.968
479.75	4.767
480.10	4.211
480.45	3.735
480.79	4.424
481.14	3.994
481.49	3.522
481.84	4.002
482.19	3.624
482.53	3.996
482.88	4.077
483.23	3.699
483.58	4.129
483.92	4.707
484.27	3.896
484.62	3.650
484.97	3.935
485.31	3.523
485.66	3.084
486.01	3.125
486.36	2.734
486.70	2.811
487.05	2.863
487.40	3.134
487.75	3.553
488.09	3.523
488.44	3.378
488.79	3.297
489.13	3.621
489.48	3.875
489.83	4.003
490.17	3.757
490.52	3.704
490.87	3.966
491.22	4.034
491.56	3.645
491.91	3.495
492.26	4.143
492.60	3.781
492.95	3.987
493.30	3.867
493.64	4.043
493.99	3.846
494.34	3.362
494.68	4.073
495.03	3.862
495.37	4.007
495.72	4.615
496.07	3.819
496.41	3.649
496.76	4.517
497.11	4.113
497.45	4.603
497.80	4.078
498.14	4.115
498.49	4.410
498.84	4.206
499.18	4.479
499.53	3.629
499.87	4.133
500.22	3.501
500.56	3.946
500.91	4.731
501.26	4.364
501.60	4.007
501.95	3.853
502.29	4.178
502.64	4.146
502.98	4.135
503.33	3.653
503.67	4.106
504.02	4.030
504.36	4.525
504.71	4.068
505.06	3.097
505.40	4.165
505.75	3.835
506.09	4.526
506.44	4.511
506.78	4.726
507.13	4.266
507.47	3.833
507.82	4.769
508.16	4.949
508.51	4.203
508.85	4.416
509.19	3.720
509.54	4.102
509.88	4.724
510.23	5.049
510.57	4.199
510.92	3.996
511.26	4.267
511.61	4.382
511.95	4.480
512.30	4.500
512.64	3.583
512.98	3.947
513.33	4.816
513.67	5.230
514.02	4.468
514.36	4.413
514.70	4.640
515.05	3.570
515.39	4.441
515.74	4.483
516.08	4.575
516.42	4.317
516.77	4.853
517.11	4.107
517.46	4.687
517.80	4.205
518.14	4.451
518.49	4.355
518.83	3.901
519.17	4.104
519.52	5.243
519.86	4.632
520.20	5.096
520.55	4.692
520.89	4.655
521.23	4.381
521.58	4.532
521.92	4.140
522.26	4.562
522.61	4.753
522.95	4.084
523.29	4.854
523.64	4.335
523.98	4.812
524.32	4.383
524.66	4.928
525.01	3.846
525.35	4.773
525.69	4.335
526.04	5.057
526.38	4.238
526.72	4.714
527.06	4.317
527.41	4.716
527.75	3.956
528.09	3.733
528.43	4.881
528.78	5.188
529.12	4.816
529.46	4.617
529.80	5.199
530.15	4.950
530.49	4.392
530.83	5.180
531.17	4.428
531.51	4.169
531.86	4.408
532.20	4.326
532.54	3.766
532.88	4.934
533.22	4.266
533.57	4.454
533.91	3.613
534.25	4.559
534.59	4.678
534.93	5.063
535.27	3.870
535.62	4.551
535.96	4.728
536.30	4.509
536.64	3.789
536.98	4.468
537.32	5.437
537.66	4.273
538.01	4.768
538.35	4.242
538.69	3.883
539.03	3.731
539.37	3.823
539.71	4.630
540.05	4.000
540.39	4.906
540.73	4.241
541.07	4.266
541.42	4.104
541.76	4.624
542.10	5.302
542.44	4.302
542.78	4.216
543.12	4.601
543.46	4.637
543.80	4.887
544.14	4.396
544.48	3.528
544.82	4.404
545.16	4.189
545.50	5.040
545.84	4.356
546.18	4.811
546.52	4.197
546.86	4.578
547.20	3.811
547.54	4.877
547.88	4.440
548.22	4.493
548.56	4.773
548.90	4.626
549.24	4.422
549.58	4.381
549.92	4.584
550.26	4.801
550.60	4.657
550.94	4.478
551.28	5.655
551.62	5.517
551.96	4.730
552.30	4.680
552.64	4.725
552.98	4.446
553.32	4.417
553.66	4.691
554.00	4.698
554.34	5.393
554.68	4.704
555.02	4.616
555.36	4.388
555.69	5.105
556.03	4.904
556.37	4.780
556.71	4.694
557.05	3.473
557.39	4.933
557.73	4.717
558.07	4.561
558.41	4.387
558.75	5.267
559.08	4.861
559.42	5.297
559.76	5.203
560.10	4.749
560.44	5.043
560.78	4.923
561.12	4.832
561.45	3.504
561.79	4.432
562.13	4.548
562.47	4.413
562.81	4.164
563.15	4.654
563.48	4.161
563.82	4.803
564.16	4.851
564.50	4.461
564.84	4.316
565.17	4.159
565.51	4.372
565.85	4.318
566.19	3.988
566.52	3.791
566.86	5.254
567.20	4.551
567.54	4.094
567.88	4.278
568.21	3.145
568.55	3.745
568.89	4.060
569.23	3.840
569.56	3.355
569.90	3.593
570.24	3.748
570.57	3.537
570.91	3.058
571.25	3.440
571.59	3.243
571.92	3.041
572.26	2.642
572.60	3.055
572.93	3.163
573.27	3.102
573.61	2.491
573.95	3.038
574.28	3.054
574.62	2.911
574.96	2.667
575.29	2.943
575.63	2.874
575.97	2.702
576.30	3.037
576.64	2.943
576.98	2.833
577.31	2.912
577.65	2.936
577.98	2.655
578.32	2.797
578.66	2.760
578.99	2.895
579.33	3.248
579.67	3.023
580.00	2.843
580.34	2.816
580.67	3.177
581.01	3.182
581.35	2.882
581.68	2.441
582.02	2.701
582.35	2.761
582.69	2.594
583.02	2.730
583.36	2.911
583.70	2.836
584.03	2.958
584.37	2.903
584.70	2.812
585.04	2.570
585.37	2.750
585.71	2.944
586.04	3.030
586.38	2.657
586.72	3.140
587.05	3.397
587.39	3.338
587.72	2.781
588.06	2.930
588.39	2.994
588.73	2.779
589.06	3.006
589.40	3.161
589.73	3.441
590.07	2.848
590.40	3.693
590.73	4.113
591.07	4.250
591.40	3.792
591.74	3.734
592.07	3.245
592.41	3.597
592.74	3.515
593.08	3.223
593.41	2.992
593.75	2.899
594.08	3.511
594.41	3.128
594.75	2.979
595.08	3.567
595.42	3.292
595.75	3.389
596.09	3.580
596.42	3.496
596.75	3.766
597.09	3.921
597.42	3.510
597.75	3.448
598.09	3.529
598.42	3.550
598.76	3.701
599.09	4.082
599.42	2.941
599.76	3.494
600.09	3.559
600.42	3.349
600.76	3.535
601.09	3.141
601.42	3.520
601.76	3.151
602.09	3.606
602.42	3.771
602.76	3.340
603.09	3.846
603.42	3.963
603.76	3.181
604.09	3.149
604.42	3.390
604.76	3.556
605.09	3.143
605.42	3.982
605.75	3.514
606.09	3.481
606.42	3.420
606.75	3.576
607.09	3.632
607.42	2.893
607.75	3.463
608.08	3.371
608.42	3.817
608.75	3.252
609.08	3.564
609.41	3.773
609.75	3.755
610.08	3.642
610.41	3.601
610.74	3.723
611.07	3.956
611.41	3.707
611.74	3.537
612.07	4.046
612.40	3.850
612.73	3.844
613.07	4.359
613.40	3.559
613.73	4.094
614.06	3.000
614.39	4.091
614.72	3.616
615.06	3.808
615.39	4.158
615.72	3.630
616.05	3.918
616.38	3.907
616.71	3.310
617.05	3.899
617.38	3.483
617.71	3.768
618.04	3.477
618.37	4.336
618.70	3.580
619.03	3.846
619.36	4.460
619.69	3.430
620.03	4.631
620.36	4.110
620.69	4.853
621.02	4.620
621.35	4.298
621.68	4.351
622.01	4.649
622.34	4.079
622.67	4.635
623.00	4.901
623.33	4.858
623.66	3.659
623.99	4.178
624.32	3.997
624.65	3.884
624.99	3.719
625.32	4.142
625.65	3.655
625.98	4.463
626.31	4.006
626.64	4.556
626.97	4.667
627.30	4.736
627.63	4.867
627.96	3.130
628.29	4.373
628.62	4.277
628.95	5.053
629.28	4.908
629.61	5.536
629.94	4.581
630.26	6.499
630.59	5.053
630.92	4.933
631.25	5.349
631.58	5.400
631.91	5.138
632.24	5.637
632.57	4.912
632.90	5.590
633.23	6.925
633.56	5.163
633.89	5.466
634.22	6.781
634.55	6.129
634.88	6.243
635.20	6.614
635.53	5.226
635.86	6.488
636.19	4.602
636.52	5.730
636.85	4.315
637.18	6.284
637.51	5.587
637.83	5.835
638.16	6.448
638.49	6.108
638.82	6.573
639.15	5.993
639.48	6.280
639.81	5.006
640.13	5.767
640.46	7.332
640.79	6.242
641.12	5.249
641.45	7.762
641.77	6.077
642.10	5.489
642.43	6.401
642.76	5.398
643.09	4.899
643.41	7.714
643.74	7.050
644.07	6.490
644.40	5.473
644.73	7.207
645.05	8.618
645.38	5.972
645.71	7.132
646.04	8.702
646.36	7.199
646.69	5.440
647.02	7.360
647.35	5.984
647.67	6.807
648.00	6.352
648.33	7.368
648.66	6.970
648.98	4.058
649.31	5.263
649.64	4.288
649.96	7.112
650.29	8.143
650.62	8.542
650.94	7.982
651.27	6.539
651.60	5.634
651.92	7.527
652.25	6.614
652.58	7.092
652.90	7.036
653.23	5.170
653.56	6.528
653.88	6.461
654.21	6.891
654.54	6.442
654.86	6.342
655.19	6.069
655.52	4.429
655.84	2.228
656.17	2.147
656.49	2.826
656.82	3.183
657.15	2.647
657.47	2.121
657.80	1.460
658.13	1.306
658.45	1.733
658.78	2.534
659.10	2.300
659.43	2.935
659.75	3.199
660.08	3.446
660.41	5.354
660.73	6.650
661.06	7.207
661.38	8.518
661.71	6.655
662.03	9.125
662.36	8.381
662.68	7.449
663.01	9.189
663.33	8.302
663.66	9.073
663.98	8.532
664.31	11.754
664.63	8.046
664.96	9.193
665.28	8.098
665.61	7.547
665.93	7.736
666.26	7.850
666.58	11.743
666.91	9.073
667.23	7.831
667.56	8.008
667.88	8.299
668.21	9.426
668.53	8.065
668.86	10.220
669.18	7.332
669.50	7.851
669.83	10.267
670.15	9.563
670.48	8.008
670.80	7.371
671.13	7.371
671.45	10.621
671.77	9.647
672.10	6.463
672.42	8.553
672.75	7.120
673.07	6.359
673.39	7.348
673.72	7.958
674.04	8.244
674.37	8.167
674.69	7.435
675.01	7.090
675.34	7.364
675.66	10.547
675.98	10.256
676.31	9.400
676.63	7.555
676.95	10.119
677.28	8.316
677.60	6.640
677.92	6.349
678.25	9.496
678.57	7.449
678.89	10.307
679.22	8.640
679.54	9.075
679.86	8.726
680.18	7.557
680.51	6.633
680.83	6.588
681.15	7.106
681.48	9.201
681.80	9.107
682.12	9.516
682.44	6.306
682.77	9.253
683.09	8.544
683.41	6.939
683.73	8.465
684.06	7.738
684.38	8.721
684.70	7.014
685.02	7.639
685.34	8.099
685.67	9.164
685.99	7.718
686.31	6.317
686.63	9.268
686.96	8.824
687.28	8.389
687.60	8.191
687.92	8.040
688.24	10.690
688.56	7.829
688.89	5.927
689.21	9.441
689.53	10.079
689.85	6.911
690.17	8.544
690.49	9.274
690.82	6.933
691.14	9.697
691.46	7.392
691.78	8.187
692.10	6.679
692.42	7.804
692.74	9.496
693.06	6.589
693.39	7.115
693.71	6.287
694.03	11.243
694.35	11.044
694.67	8.554
694.99	7.982
695.31	9.234
695.63	9.729
695.95	7.014
696.27	10.398
696.59	10.501
696.91	7.342
697.23	9.502
697.56	8.714
697.88	6.786
698.20	8.491
698.52	7.198
698.84	9.856
699.16	9.168
699.48	9.110
699.80	12.854
700.12	10.162
700.44	8.411
700.76	10.979
701.08	10.705
701.40	11.948
701.72	11.765
702.04	12.737
702.36	9.677
702.68	10.904
703.00	7.769
703.32	9.677
703.64	10.327
703.96	9.115
704.28	10.582
704.60	9.296
704.91	11.485
705.23	10.511
705.55	15.430
705.87	10.159
706.19	15.361
706.51	15.361
706.83	10.324
707.15	12.032
707.47	12.591
707.79	11.034
708.11	8.390
708.43	9.213
708.74	8.145
709.06	9.767
709.38	9.677
709.70	11.989
710.02	8.696
710.34	9.945
710.66	11.944
710.98	12.295
711.29	11.142
711.61	13.649
711.93	10.942
712.25	10.843
712.57	12.219
712.89	13.333
713.20	15.655
713.52	14.953
713.84	11.178
714.16	8.696
714.48	7.493
714.80	11.111
715.11	7.713
715.43	11.173
715.75	9.859
716.07	11.561
716.39	12.857
716.70	13.396
717.02	14.478
717.34	15.108
717.66	15.278
717.97	18.182
718.29	16.197
718.61	11.824
718.93	16.609
719.24	12.752
719.56	10.000
719.88	11.783
720.20	9.032
720.51	9.804
720.83	13.712
721.15	12.585
721.46	13.356
721.78	12.544
722.10	13.194
722.42	13.378
722.73	10.108
723.05	12.632
723.37	14.841
723.68	9.766
724.00	13.636
724.32	14.449
724.63	12.692
724.95	14.902
725.27	17.100
725.58	14.338
725.90	11.620
726.22	12.671
726.53	13.712
726.85	14.658
727.16	16.107
727.48	14.618
727.80	16.547
728.11	14.286
728.43	15.580
728.74	10.839
729.06	5.735
729.38	16.491
729.69	19.000
730.01	15.789
730.32	13.087
730.64	12.292
730.96	14.114
731.27	7.645
731.59	9.770
731.90	12.813
732.22	12.857
732.53	11.966
732.85	16.374
733.16	11.747
733.48	13.480
733.80	12.464
734.11	11.656
734.43	9.064
734.74	9.115
735.06	12.169
735.37	10.309
735.69	10.145
736.00	12.538
736.32	10.606
736.63	9.148
736.95	9.627
737.26	14.939
737.58	14.110
737.89	13.855
738.21	10.927
738.52	11.037
738.83	12.454
739.15	15.331
739.46	13.103
739.78	11.905
740.09	12.828
740.41	10.123
740.72	15.873
741.04	15.035
741.35	14.062
741.66	17.391
741.98	18.026
742.29	16.667
742.61	10.619
742.92	12.712
743.23	14.800
743.55	12.075
743.86	12.941
744.18	17.373
744.49	14.876
744.80	14.286
745.12	20.536
745.43	16.355
745.74	11.556
746.06	13.158
746.37	12.558
746.68	22.566
747.00	14.350
747.31	11.765
747.62	11.885
747.94	12.017
748.25	17.510
748.56	19.915
748.88	18.304
749.19	16.744
749.50	17.808
749.82	16.461
750.13	9.881
750.44	13.667
750.75	14.094
751.07	14.145
751.38	13.531
751.69	11.111
752.01	15.035
752.32	13.621
752.63	11.409
752.94	14.336
753.26	16.797
753.57	11.284
753.88	12.734
754.19	16.245
754.51	15.615
754.82	12.081
755.13	12.838
755.44	12.593
755.75	16.151
756.07	13.356
756.38	9.804
756.69	11.563
757.00	14.243
757.31	12.113
757.63	9.091
757.94	8.777
758.25	11.111
758.56	10.755
758.87	11.278
759.18	10.756
759.50	11.246
759.81	15.727
760.12	10.674
760.43	11.765
760.74	12.405
761.05	11.671
761.36	8.333
761.67	9.434
761.99	13.803
762.30	10.932
762.61	11.458
762.92	12.500
763.23	15.472
763.54	13.077
763.85	11.673
764.16	15.278
764.47	13.851
764.78	10.098
765.10	10.671
765.41	9.943
765.72	10.221
766.03	9.366
766.34	12.195
766.65	12.928
766.96	16.599
767.27	18.692
767.58	19.802
767.89	20.442
768.20	20.732
768.51	16.327
768.82	19.737
769.13	14.510
769.44	13.534
769.75	14.232
770.06	17.647
770.37	10.526
770.68	14.222
770.99	18.220
771.30	16.318
771.61	18.846
771.92	13.359
772.23	14.919
772.54	22.222
772.85	18.317
773.16	16.848
773.47	15.556
773.78	18.317
774.09	22.727
774.39	18.182
774.70	7.647
775.01	13.158
775.32	21.118
775.63	31.507
775.94	29.012
776.25	20.690
776.56	28.244
776.87	31.298
777.18	25.758
777.48	37.795
777.79	30.000
778.10	20.455
778.41	29.104
778.72	25.564
779.03	23.077
779.34	16.216
779.65	21.739
779.95	24.224
780.26	17.262
780.57	33.333
780.88	24.823
781.19	29.167
781.50	23.669
781.80	22.951
782.11	23.810
782.42	13.218
782.73	19.774
783.04	23.226
783.34	20.155
783.65	17.687
783.96	25.806
784.27	22.517
784.57	21.711
784.88	25.362
785.19	30.000
785.50	22.414
785.81	30.233
786.11	20.741
786.42	25.197
786.73	32.432
787.04	16.038
787.34	22.764
787.65	34.848
787.96	25.758
788.26	22.835
788.57	29.197
788.88	26.056
789.19	31.298
789.49	28.378
789.80	30.469
790.11	26.446
790.41	34.259
790.72	19.444
791.03	32.692
791.33	38.384
791.64	41.053
791.95	31.579
792.25	34.375
792.56	31.000
792.87	37.805
793.17	44.318
793.48	40.000
793.79	44.828
794.09	32.955
794.40	38.793
794.70	31.746
795.01	26.923
795.32	33.588
795.62	27.350
795.93	28.571
796.23	37.398
796.54	29.592
796.85	46.591
797.15	55.844
797.46	43.902
797.76	32.500
798.07	46.667
798.37	50.000
798.68	48.750
798.99	52.439
799.29	41.333
799.60	40.698
799.90	43.421
800.21	59.091
800.51	45.070
800.82	46.552
801.12	64.615
801.43	48.000
801.73	58.621
802.04	58.442
802.34	50.685
802.65	64.706
802.95	43.478
803.26	59.677
803.56	68.333
803.87	58.209
804.17	57.143
804.48	52.830
804.78	50.000
805.09	56.061
805.39	55.556
805.70	45.614
806.00	35.714
806.30	65.625
806.61	51.765
806.91	42.222
807.22	44.565
807.52	47.368
807.83	56.579
808.13	56.522
808.43	50.000
808.74	32.877
809.04	32.143
809.35	64.706
809.65	51.515
809.95	66.667
810.26	70.370
810.56	68.750
810.86	67.347
811.17	56.140
811.47	71.739
811.77	68.966
812.08	67.241
812.38	64.286
812.69	71.429
812.99	55.556
813.29	80.000
813.59	116.129
813.90	62.069
814.20	57.377
814.50	54.000
814.81	42.105
815.11	79.630
815.41	53.571
815.72	69.643
816.02	78.000
816.32	90.244
816.62	63.793
816.93	109.091
817.23	95.122
817.53	58.929
817.84	55.556
818.14	83.333
818.44	72.917
818.74	90.566
819.04	87.179
819.35	90.909
819.65	92.308
819.95	75.926
820.25	70.213
820.56	100.000
820.86	110.526
821.16	74.468
821.46	97.368
821.76	76.364
822.07	64.286
822.37	55.263
822.67	118.605
822.97	89.474
823.27	80.435
823.57	109.375
823.88	89.744
824.18	84.848
824.48	156.522
824.78	94.444
825.08	126.087
825.38	100.000
825.69	105.882
825.99	82.979
826.29	58.333
826.59	102.857
826.89	120.000
827.19	74.286
827.49	96.774
827.79	107.692
828.09	100.000
828.39	61.111
828.70	81.081
829.00	128.571
829.30	125.000
829.60	75.000
829.90	125.806
830.20	81.818
830.50	94.595
830.80	137.500
831.10	107.692
831.40	109.524
831.70	166.667
832.00	106.667
832.30	152.174
832.60	104.167
832.90	127.273
833.20	200.000
833.50	102.632
833.80	97.059
834.10	102.632
834.40	100.000
834.70	103.333
835.00	140.000
835.30	59.459
835.60	121.875
835.90	86.486
836.20	115.385
836.50	86.364
836.80	80.488
837.10	117.391
837.40	307.692
837.70	152.632
838.00	140.000
838.30	183.333
838.60	140.000
838.90	240.000
839.19	212.500
839.49	153.333
839.79	100.000
840.09	130.769
840.39	160.000
840.69	163.158
840.99	80.952
841.29	169.565
841.59	175.000
841.88	164.000
842.18	388.889
842.48	139.286
842.78	122.222
843.08	215.385
843.38	172.727
843.68	242.857
843.97	385.714
844.27	169.565
844.57	1150.000
844.87	250.000
845.17	216.667
845.47	104.762
845.76	154.167
846.06	571.429
846.36	200.000
846.66	300.000
846.96	262.500
847.25	207.692
847.55	178.947
847.85	138.889
848.15	520.000
848.44	254.545
848.74	190.476
849.04	166.667
849.34	152.941
849.63	231.250
849.93	193.750
850.23	900.000
850.53	425.000
850.82	318.182
851.12	176.471
851.42	208.333
851.71	237.500
852.01	0.000
852.31	205.882
852.61	330.000
852.90	133.333
853.20	322.222
853.50	-1600.000
853.79	136.000
854.09	103.125
854.39	110.345
854.68	120.690
854.98	161.905
855.28	106.452
855.57	221.429
855.87	166.667
856.17	133.333
856.46	147.368
856.76	100.000
857.05	194.118
857.35	336.364
857.65	223.077
857.94	125.000
858.24	433.333
858.53	257.143
858.83	557.143
859.13	178.261
859.42	177.778
859.72	262.500
860.01	291.667
860.31	675.000
860.60	380.000
860.90	437.500
861.20	230.769
861.49	385.714
861.79	-3900.000
862.08	471.429
862.38	233.333
862.67	178.571
862.97	360.000
863.26	133.333
863.56	825.000
863.85	361.538
864.15	252.941
864.44	238.889
864.74	266.667
865.03	309.091
865.33	450.000
865.62	213.333
865.92	433.333
866.21	700.000
866.51	540.000
866.80	238.889
867.10	866.667
867.39	3300.000
867.69	480.000
867.98	775.000
868.27	214.286
868.57	260.000
868.86	975.000
869.16	176.190
869.45	2900.000
869.75	-366.667
870.04	775.000
870.33	720.000
870.63	437.500
870.92	176.471
871.22	850.000
871.51	514.286
871.80	308.333
872.10	323.077
>>>>>End Processed Spectral Data<<<<<
