SpectraSuite Data File
++++++++++++++++++++++++++++++++++++
Date: Tue May 12 17:08:39 PDT 2015
User: schluterlab
Dark Spectrum Present: Yes
Reference Spectrum Present: Yes
Number of Sampled Component Spectra: 1
Spectrometers: USB2E3373
Integration Time (usec): 3000 (USB2E3373)
Spectra Averaged: 3 (USB2E3373)
Boxcar Smoothing: 0 (USB2E3373)
Correct for Electrical Dark: No (USB2E3373)
Strobe/Lamp Enabled: No (USB2E3373)
Correct for Detector Non-linearity: No (USB2E3373)
Correct for Stray Light: No (USB2E3373)
Number of Pixels in Processed Spectrum: 2048
>>>>>Begin Processed Spectral Data<<<<<
178.53	0.000
178.91	-200.000
179.29	-875.000
179.67	-3600.000
180.04	-153.333
180.42	825.000
180.80	1550.000
181.18	0.000
181.56	-287.500
181.94	0.000
182.31	1400.000
182.69	-3000.000
183.07	642.857
183.45	-3600.000
183.83	-1200.000
184.20	410.000
184.58	614.286
184.96	-284.615
185.34	-241.667
185.72	1650.000
186.09	-1000.000
186.47	-2500.000
186.85	900.000
187.23	640.000
187.61	1750.000
187.98	475.000
188.36	264.286
188.74	275.000
189.12	325.000
189.49	1100.000
189.87	0.000
190.25	387.500
190.63	2400.000
191.00	-116.667
191.38	-3400.000
191.76	-550.000
192.14	587.500
192.51	-2800.000
192.89	1350.000
193.27	833.333
193.65	-566.667
194.02	-560.000
194.40	542.857
194.78	-178.571
195.15	286.667
195.53	-3000.000
195.91	-740.000
196.29	3800.000
196.66	300.000
197.04	800.000
197.42	-1600.000
197.79	500.000
198.17	275.000
198.55	0.000
198.92	442.857
199.30	1200.000
199.68	1850.000
200.05	566.667
200.43	-516.667
200.81	205.556
201.18	3500.000
201.56	316.667
201.94	-575.000
202.31	-300.000
202.69	-620.000
203.07	3300.000
203.44	-350.000
203.82	283.333
204.19	560.000
204.57	-1150.000
204.95	-650.000
205.32	-640.000
205.70	483.333
206.08	800.000
206.45	-966.667
206.83	300.000
207.20	136.842
207.58	283.333
207.96	620.000
208.33	0.000
208.71	557.143
209.08	640.000
209.46	-3400.000
209.84	-625.000
210.21	680.000
210.59	-600.000
210.96	291.667
211.34	-1025.000
211.71	381.818
212.09	900.000
212.46	1600.000
212.84	-383.333
213.22	422.222
213.59	-2000.000
213.97	330.000
214.34	1025.000
214.72	1133.333
215.09	666.667
215.47	-2400.000
215.84	-250.000
216.22	-337.500
216.59	0.000
216.97	0.000
217.34	1000.000
217.72	-1550.000
218.09	1166.667
218.47	450.000
218.84	975.000
219.22	900.000
219.59	666.667
219.97	414.286
220.34	411.111
220.72	1500.000
221.09	3500.000
221.47	291.667
221.84	900.000
222.22	340.000
222.59	211.111
222.97	250.000
223.34	243.750
223.72	-1650.000
224.09	833.333
224.46	284.615
224.84	-625.000
225.21	433.333
225.59	240.000
225.96	1100.000
226.34	-580.000
226.71	-725.000
227.08	-540.000
227.46	0.000
227.83	-700.000
228.21	-1750.000
228.58	375.000
228.95	1000.000
229.33	377.778
229.70	975.000
230.08	276.923
230.45	3500.000
230.82	-1025.000
231.20	-1033.333
231.57	-800.000
231.95	500.000
232.32	275.000
232.69	616.667
233.07	258.333
233.44	-1400.000
233.81	253.333
234.19	181.481
234.56	212.500
234.93	211.765
235.31	210.000
235.68	187.500
236.05	135.714
236.43	140.741
236.80	271.429
237.17	134.483
237.55	106.250
237.92	152.500
238.29	163.636
238.67	115.625
239.04	97.561
239.41	83.333
239.79	85.000
240.16	56.250
240.53	57.377
240.91	63.768
241.28	84.746
241.65	56.061
242.02	67.606
242.40	78.571
242.77	52.747
243.14	44.304
243.51	60.606
243.89	52.336
244.26	42.991
244.63	52.475
245.00	45.872
245.38	42.373
245.75	40.909
246.12	38.519
246.49	35.461
246.87	27.049
247.24	38.000
247.61	38.750
247.98	36.054
248.36	31.515
248.73	36.735
249.10	32.738
249.47	29.500
249.84	33.333
250.22	33.514
250.59	34.000
250.96	30.802
251.33	32.558
251.70	28.571
252.08	31.933
252.45	27.490
252.82	25.095
253.19	28.854
253.56	27.308
253.94	28.986
254.31	27.907
254.68	28.571
255.05	27.931
255.42	24.088
255.79	24.104
256.16	27.119
256.54	26.299
256.91	22.222
257.28	24.080
257.65	21.944
258.02	23.894
258.39	21.203
258.76	23.188
259.14	20.000
259.51	27.405
259.88	24.924
260.25	19.780
260.62	23.014
260.99	22.039
261.36	22.284
261.73	25.798
262.10	24.869
262.47	23.500
262.85	23.200
263.22	25.707
263.59	22.251
263.96	21.805
264.33	22.963
264.70	21.376
265.07	21.707
265.44	22.706
265.81	23.821
266.18	20.824
266.55	21.749
266.92	21.924
267.29	22.368
267.66	20.179
268.03	19.731
268.40	20.296
268.77	23.128
269.14	19.523
269.51	18.486
269.88	21.224
270.25	20.734
270.62	21.030
270.99	21.095
271.36	19.715
271.73	18.239
272.10	21.616
272.47	19.643
272.84	19.361
273.21	20.041
273.58	19.838
273.95	20.123
274.32	23.735
274.69	23.031
275.06	20.219
275.43	19.923
275.80	20.377
276.17	20.588
276.54	22.804
276.91	20.896
277.28	18.796
277.65	19.557
278.02	19.301
278.39	19.065
278.76	20.000
279.13	19.217
279.50	19.818
279.87	17.691
280.23	19.337
280.60	20.438
280.97	21.552
281.34	18.152
281.71	19.826
282.08	19.829
282.45	18.412
282.82	19.064
283.19	19.555
283.56	18.843
283.92	19.055
284.29	18.469
284.66	18.151
285.03	19.237
285.40	16.860
285.77	19.290
286.14	18.885
286.51	19.325
286.87	17.880
287.24	18.018
287.61	19.149
287.98	19.851
288.35	17.185
288.72	18.513
289.08	17.267
289.45	20.122
289.82	16.406
290.19	18.009
290.56	20.378
290.93	16.691
291.29	17.956
291.66	16.384
292.03	18.794
292.40	17.480
292.77	17.409
293.13	19.401
293.50	15.655
293.87	18.564
294.24	20.140
294.60	18.439
294.97	18.182
295.34	18.194
295.71	17.214
296.08	18.133
296.44	18.679
296.81	15.881
297.18	18.124
297.55	18.966
297.91	18.473
298.28	17.391
298.65	18.037
299.02	18.818
299.38	18.465
299.75	16.951
300.12	19.037
300.48	18.501
300.85	17.163
301.22	18.837
301.59	17.335
301.95	17.036
302.32	18.044
302.69	18.552
303.05	18.519
303.42	17.601
303.79	17.660
304.15	18.042
304.52	17.336
304.89	18.763
305.25	18.910
305.62	18.763
305.99	18.370
306.35	17.789
306.72	18.626
307.09	17.805
307.45	17.846
307.82	17.593
308.19	19.897
308.55	17.800
308.92	17.959
309.29	19.034
309.65	17.740
310.02	17.444
310.38	17.747
310.75	17.261
311.12	17.433
311.48	19.112
311.85	17.748
312.22	19.198
312.58	17.784
312.95	19.417
313.31	18.352
313.68	18.856
314.05	19.139
314.41	18.250
314.78	18.939
315.14	19.336
315.51	19.016
315.87	18.978
316.24	19.701
316.61	19.696
316.97	18.073
317.34	19.946
317.70	19.491
318.07	20.907
318.43	19.420
318.80	20.053
319.16	18.881
319.53	19.027
319.89	17.921
320.26	20.857
320.62	20.330
320.99	20.210
321.35	18.924
321.72	20.968
322.08	20.314
322.45	19.709
322.81	20.037
323.18	19.183
323.54	21.341
323.91	21.215
324.27	18.568
324.64	18.945
325.00	19.914
325.37	20.742
325.73	19.983
326.10	19.718
326.46	20.809
326.83	20.080
327.19	20.241
327.56	19.888
327.92	20.738
328.29	21.522
328.65	20.205
329.01	19.760
329.38	20.135
329.74	19.044
330.11	20.330
330.47	20.546
330.84	19.672
331.20	20.051
331.56	19.344
331.93	20.701
332.29	19.218
332.66	19.643
333.02	19.502
333.38	19.634
333.75	21.351
334.11	19.631
334.48	19.658
334.84	19.679
335.20	19.504
335.57	19.647
335.93	19.008
336.29	19.652
336.66	18.954
337.02	19.162
337.38	19.690
337.75	19.257
338.11	20.591
338.47	19.221
338.84	18.544
339.20	19.048
339.56	18.419
339.93	19.064
340.29	18.571
340.65	19.028
341.02	19.630
341.38	19.869
341.74	19.850
342.11	17.947
342.47	19.688
342.83	19.606
343.20	18.998
343.56	18.110
343.92	18.002
344.28	18.501
344.65	18.256
345.01	18.175
345.37	18.429
345.73	18.492
346.10	18.088
346.46	19.537
346.82	17.438
347.19	19.165
347.55	17.955
347.91	17.900
348.27	16.886
348.63	18.117
349.00	17.974
349.36	18.366
349.72	18.119
350.08	20.109
350.45	18.888
350.81	18.425
351.17	17.720
351.53	17.706
351.89	18.337
352.26	17.687
352.62	17.873
352.98	17.945
353.34	18.259
353.70	16.667
354.07	17.538
354.43	17.358
354.79	17.236
355.15	18.070
355.51	17.447
355.87	17.620
356.24	18.168
356.60	17.580
356.96	17.286
357.32	17.709
357.68	17.401
358.04	17.629
358.40	17.691
358.77	17.355
359.13	18.318
359.49	17.124
359.85	16.828
360.21	16.493
360.57	17.956
360.93	17.172
361.29	18.110
361.66	17.524
362.02	16.690
362.38	17.532
362.74	17.056
363.10	17.672
363.46	16.644
363.82	17.321
364.18	17.425
364.54	17.167
364.90	17.805
365.26	17.557
365.62	17.680
365.98	16.793
366.35	16.552
366.71	17.627
367.07	17.543
367.43	17.126
367.79	17.819
368.15	17.232
368.51	16.471
368.87	16.848
369.23	16.909
369.59	17.397
369.95	17.063
370.31	16.359
370.67	16.794
371.03	17.017
371.39	17.036
371.75	15.980
372.11	16.995
372.47	17.329
372.83	16.587
373.19	17.958
373.55	16.770
373.91	16.298
374.27	17.130
374.63	16.610
374.99	16.712
375.35	16.868
375.71	17.546
376.07	16.446
376.42	15.345
376.78	17.341
377.14	16.579
377.50	16.479
377.86	16.528
378.22	17.002
378.58	17.070
378.94	16.958
379.30	16.192
379.66	16.315
380.02	17.713
380.38	15.574
380.74	16.551
381.09	17.056
381.45	15.954
381.81	16.548
382.17	15.934
382.53	15.957
382.89	16.440
383.25	15.690
383.61	16.657
383.97	16.017
384.32	16.215
384.68	16.578
385.04	16.647
385.40	16.370
385.76	16.091
386.12	16.141
386.48	16.231
386.83	16.381
387.19	16.667
387.55	16.490
387.91	16.166
388.27	17.014
388.62	16.608
388.98	16.560
389.34	15.467
389.70	15.861
390.06	16.341
390.42	16.471
390.77	16.400
391.13	16.174
391.49	16.394
391.85	17.169
392.20	16.031
392.56	16.368
392.92	15.834
393.28	16.200
393.64	15.826
393.99	15.531
394.35	15.303
394.71	15.501
395.07	15.146
395.42	15.808
395.78	16.471
396.14	16.928
396.50	15.884
396.85	15.610
397.21	16.245
397.57	15.780
397.92	14.847
398.28	15.720
398.64	16.579
399.00	14.965
399.35	15.352
399.71	14.956
400.07	16.324
400.42	15.284
400.78	15.836
401.14	15.502
401.49	15.265
401.85	16.222
402.21	15.173
402.57	15.799
402.92	15.697
403.28	15.155
403.63	15.127
403.99	15.742
404.35	16.178
404.70	15.475
405.06	14.542
405.42	15.081
405.77	15.270
406.13	14.371
406.49	15.293
406.84	15.285
407.20	15.639
407.55	15.754
407.91	15.763
408.27	15.646
408.62	15.376
408.98	15.435
409.34	15.020
409.69	14.872
410.05	14.550
410.40	14.782
410.76	14.081
411.11	14.455
411.47	15.185
411.83	14.411
412.18	15.157
412.54	15.796
412.89	14.985
413.25	14.823
413.60	14.486
413.96	14.782
414.31	15.466
414.67	15.394
415.03	14.432
415.38	15.079
415.74	14.656
416.09	15.553
416.45	15.385
416.80	15.330
417.16	15.341
417.51	15.223
417.87	14.330
418.22	15.371
418.58	14.841
418.93	15.110
419.29	13.802
419.64	14.779
420.00	15.215
420.35	14.866
420.71	14.644
421.06	13.832
421.42	15.371
421.77	15.269
422.12	14.112
422.48	15.562
422.83	15.346
423.19	13.931
423.54	15.140
423.90	15.459
424.25	15.190
424.61	15.206
424.96	15.133
425.31	14.943
425.67	15.264
426.02	15.143
426.38	14.702
426.73	15.385
427.09	14.828
427.44	15.250
427.79	14.008
428.15	15.557
428.50	15.257
428.85	15.109
429.21	14.803
429.56	15.503
429.92	15.863
430.27	14.949
430.62	14.880
430.98	14.371
431.33	14.466
431.68	13.679
432.04	14.434
432.39	15.148
432.74	15.047
433.10	14.452
433.45	15.393
433.80	14.948
434.16	15.292
434.51	14.912
434.86	14.916
435.22	14.533
435.57	14.760
435.92	15.709
436.28	14.977
436.63	14.857
436.98	14.752
437.34	14.726
437.69	14.614
438.04	14.839
438.39	15.353
438.75	15.145
439.10	14.841
439.45	14.698
439.81	14.864
440.16	14.309
440.51	14.809
440.86	15.442
441.22	14.773
441.57	14.961
441.92	14.462
442.27	15.052
442.63	14.837
442.98	15.032
443.33	14.837
443.68	14.839
444.03	14.892
444.39	15.395
444.74	14.803
445.09	14.692
445.44	15.143
445.79	15.205
446.15	14.632
446.50	14.557
446.85	14.691
447.20	14.876
447.55	14.954
447.91	15.823
448.26	15.868
448.61	15.202
448.96	15.468
449.31	14.796
449.66	15.338
450.02	15.073
450.37	14.936
450.72	16.198
451.07	15.067
451.42	14.997
451.77	15.808
452.12	15.315
452.47	15.310
452.83	15.944
453.18	16.336
453.53	15.216
453.88	15.943
454.23	15.282
454.58	15.268
454.93	15.389
455.28	15.239
455.63	15.248
455.98	15.398
456.34	15.076
456.69	15.122
457.04	14.618
457.39	14.857
457.74	15.878
458.09	13.925
458.44	15.279
458.79	15.066
459.14	14.730
459.49	15.629
459.84	15.217
460.19	14.859
460.54	15.840
460.89	15.565
461.24	15.578
461.59	15.306
461.94	15.662
462.29	14.874
462.64	15.327
462.99	15.547
463.34	15.360
463.69	15.789
464.04	15.314
464.39	15.283
464.74	14.771
465.09	14.974
465.44	14.962
465.79	15.133
466.14	15.792
466.49	14.596
466.84	15.608
467.19	15.231
467.54	14.474
467.89	15.258
468.24	15.345
468.59	15.357
468.94	16.063
469.29	15.272
469.64	15.498
469.99	16.003
470.34	15.686
470.68	14.897
471.03	14.276
471.38	15.695
471.73	14.762
472.08	15.329
472.43	15.270
472.78	15.429
473.13	14.518
473.48	14.242
473.83	15.724
474.17	15.137
474.52	14.573
474.87	14.156
475.22	15.134
475.57	15.635
475.92	14.563
476.27	14.363
476.61	14.531
476.96	14.786
477.31	14.807
477.66	15.459
478.01	14.905
478.36	14.418
478.70	14.541
479.05	14.644
479.40	14.931
479.75	15.541
480.10	14.763
480.45	13.632
480.79	14.101
481.14	14.456
481.49	13.998
481.84	14.732
482.19	14.410
482.53	13.966
482.88	13.844
483.23	14.073
483.58	14.138
483.92	15.448
484.27	14.683
484.62	14.856
484.97	13.829
485.31	13.987
485.66	13.574
486.01	13.504
486.36	13.593
486.70	13.250
487.05	13.320
487.40	13.462
487.75	12.941
488.09	13.722
488.44	13.448
488.79	13.676
489.13	13.960
489.48	13.943
489.83	13.595
490.17	13.708
490.52	13.824
490.87	13.793
491.22	14.761
491.56	14.361
491.91	14.113
492.26	13.808
492.60	13.804
492.95	13.910
493.30	13.330
493.64	13.747
493.99	14.445
494.34	13.761
494.68	13.944
495.03	14.459
495.37	14.453
495.72	14.266
496.07	13.747
496.41	13.727
496.76	13.888
497.11	14.010
497.45	14.029
497.80	13.994
498.14	14.332
498.49	14.067
498.84	14.673
499.18	13.711
499.53	13.872
499.87	14.106
500.22	14.417
500.56	14.020
500.91	14.518
501.26	14.883
501.60	13.752
501.95	13.799
502.29	13.644
502.64	13.630
502.98	13.962
503.33	13.898
503.67	13.819
504.02	13.927
504.36	14.525
504.71	14.286
505.06	14.313
505.40	14.085
505.75	13.938
506.09	13.999
506.44	14.239
506.78	14.319
507.13	14.203
507.47	13.197
507.82	13.966
508.16	14.209
508.51	13.913
508.85	14.055
509.19	13.167
509.54	13.428
509.88	14.818
510.23	14.167
510.57	13.562
510.92	13.437
511.26	14.408
511.61	14.180
511.95	13.489
512.30	14.200
512.64	13.292
512.98	13.634
513.33	14.242
513.67	13.931
514.02	13.922
514.36	14.382
514.70	13.653
515.05	12.999
515.39	14.254
515.74	14.161
516.08	13.780
516.42	14.918
516.77	13.440
517.11	14.453
517.46	14.386
517.80	14.418
518.14	13.746
518.49	14.333
518.83	13.846
519.17	13.644
519.52	14.145
519.86	14.496
520.20	14.685
520.55	13.906
520.89	13.736
521.23	14.486
521.58	13.196
521.92	13.703
522.26	13.981
522.61	14.557
522.95	14.474
523.29	13.743
523.64	13.237
523.98	14.554
524.32	14.302
524.66	14.493
525.01	13.254
525.35	13.612
525.69	14.931
526.04	14.277
526.38	14.597
526.72	14.200
527.06	13.601
527.41	14.752
527.75	14.181
528.09	13.847
528.43	14.582
528.78	13.715
529.12	14.931
529.46	13.442
529.80	13.610
530.15	14.555
530.49	12.635
530.83	13.467
531.17	14.145
531.51	13.918
531.86	14.251
532.20	14.339
532.54	13.873
532.88	15.053
533.22	14.991
533.57	13.972
533.91	13.636
534.25	12.695
534.59	13.977
534.93	13.993
535.27	13.318
535.62	13.477
535.96	13.712
536.30	13.894
536.64	12.981
536.98	13.216
537.32	14.750
537.66	13.457
538.01	13.622
538.35	14.161
538.69	13.046
539.03	13.557
539.37	14.260
539.71	13.889
540.05	13.477
540.39	14.843
540.73	13.101
541.07	13.551
541.42	13.682
541.76	14.118
542.10	12.330
542.44	12.781
542.78	13.656
543.12	12.945
543.46	13.283
543.80	12.970
544.14	13.808
544.48	13.504
544.82	14.067
545.16	13.722
545.50	14.567
545.84	13.826
546.18	13.979
546.52	14.361
546.86	14.313
547.20	13.114
547.54	14.440
547.88	13.929
548.22	13.236
548.56	13.200
548.90	13.760
549.24	14.214
549.58	12.822
549.92	13.687
550.26	14.266
550.60	13.639
550.94	14.043
551.28	13.655
551.62	14.552
551.96	13.514
552.30	13.118
552.64	14.239
552.98	13.273
553.32	13.700
553.66	12.964
554.00	14.028
554.34	13.648
554.68	14.046
555.02	13.646
555.36	13.630
555.69	13.743
556.03	13.567
556.37	14.085
556.71	13.233
557.05	12.385
557.39	13.400
557.73	13.275
558.07	14.688
558.41	13.708
558.75	13.269
559.08	14.153
559.42	12.956
559.76	13.471
560.10	13.558
560.44	13.537
560.78	14.003
561.12	13.477
561.45	12.829
561.79	13.171
562.13	12.887
562.47	12.784
562.81	13.533
563.15	13.445
563.48	12.919
563.82	13.600
564.16	14.614
564.50	13.562
564.84	13.799
565.17	13.904
565.51	13.916
565.85	13.140
566.19	13.155
566.52	12.996
566.86	14.011
567.20	13.539
567.54	12.773
567.88	13.302
568.21	12.731
568.55	12.840
568.89	13.549
569.23	12.554
569.56	12.899
569.90	12.828
570.24	12.879
570.57	12.719
570.91	12.012
571.25	12.544
571.59	12.042
571.92	11.787
572.26	12.129
572.60	12.136
572.93	12.478
573.27	12.206
573.61	11.965
573.95	11.828
574.28	12.312
574.62	11.574
574.96	11.777
575.29	11.909
575.63	11.896
575.97	11.855
576.30	11.288
576.64	11.822
576.98	12.120
577.31	11.960
577.65	12.120
577.98	11.911
578.32	11.864
578.66	11.800
578.99	11.936
579.33	12.404
579.67	11.516
580.00	11.488
580.34	11.734
580.67	11.857
581.01	12.201
581.35	11.807
581.68	11.374
582.02	11.754
582.35	11.762
582.69	11.823
583.02	11.510
583.36	11.643
583.70	11.782
584.03	11.683
584.37	11.913
584.70	12.018
585.04	11.397
585.37	11.812
585.71	12.292
586.04	11.757
586.38	11.683
586.72	11.660
587.05	11.863
587.39	11.833
587.72	11.735
588.06	11.994
588.39	12.103
588.73	11.795
589.06	11.876
589.40	12.144
589.73	12.029
590.07	12.217
590.40	12.334
590.73	12.523
591.07	12.903
591.40	12.056
591.74	12.825
592.07	11.897
592.41	11.831
592.74	12.120
593.08	12.012
593.41	11.670
593.75	11.772
594.08	12.103
594.41	12.023
594.75	12.089
595.08	12.003
595.42	12.409
595.75	12.241
596.09	12.339
596.42	12.309
596.75	11.899
597.09	12.010
597.42	11.714
597.75	11.968
598.09	12.146
598.42	12.118
598.76	12.182
599.09	12.174
599.42	11.903
599.76	12.483
600.09	12.339
600.42	12.051
600.76	11.591
601.09	11.874
601.42	11.616
601.76	11.923
602.09	12.215
602.42	12.089
602.76	12.258
603.09	12.707
603.42	12.257
603.76	11.461
604.09	11.980
604.42	12.241
604.76	12.169
605.09	11.959
605.42	12.759
605.75	12.199
606.09	12.089
606.42	12.552
606.75	12.243
607.09	12.120
607.42	12.415
607.75	12.182
608.08	12.023
608.42	11.661
608.75	12.067
609.08	12.319
609.41	12.000
609.75	12.317
610.08	13.399
610.41	12.736
610.74	12.771
611.07	12.779
611.41	12.280
611.74	12.380
612.07	12.476
612.40	12.573
612.73	13.080
613.07	12.772
613.40	13.033
613.73	11.982
614.06	12.300
614.39	12.071
614.72	12.506
615.06	12.512
615.39	12.525
615.72	12.439
616.05	12.757
616.38	12.430
616.71	12.425
617.05	11.971
617.38	11.910
617.71	11.699
618.04	13.012
618.37	12.451
618.70	12.067
619.03	12.882
619.36	13.003
619.69	12.533
620.03	13.960
620.36	13.102
620.69	13.985
621.02	13.723
621.35	12.751
621.68	13.569
622.01	13.579
622.34	12.527
622.67	13.413
623.00	13.206
623.33	12.618
623.66	13.174
623.99	13.425
624.32	13.279
624.65	12.574
624.99	13.387
625.32	12.826
625.65	12.276
625.98	13.040
626.31	12.389
626.64	13.516
626.97	12.548
627.30	13.276
627.63	13.579
627.96	12.989
628.29	12.871
628.62	12.489
628.95	13.741
629.28	14.198
629.61	13.093
629.94	13.829
630.26	14.905
630.59	15.603
630.92	13.094
631.25	14.506
631.58	14.368
631.91	14.653
632.24	13.994
632.57	14.342
632.90	14.182
633.23	13.641
633.56	15.279
633.89	14.148
634.22	13.994
634.55	13.656
634.88	14.786
635.20	13.677
635.53	14.402
635.86	15.213
636.19	14.590
636.52	13.730
636.85	14.239
637.18	14.735
637.51	13.631
637.83	13.158
638.16	15.358
638.49	14.132
638.82	15.023
639.15	14.454
639.48	15.166
639.81	14.530
640.13	14.969
640.46	15.044
640.79	13.134
641.12	14.436
641.45	15.783
641.77	16.116
642.10	13.387
642.43	16.358
642.76	14.489
643.09	15.130
643.41	14.727
643.74	15.683
644.07	16.077
644.40	14.053
644.73	16.066
645.05	15.750
645.38	16.692
645.71	15.933
646.04	15.725
646.36	14.397
646.69	14.560
647.02	16.320
647.35	14.961
647.67	14.425
648.00	15.309
648.33	14.887
648.66	16.212
648.98	14.058
649.31	14.575
649.64	14.108
649.96	12.945
650.29	14.143
650.62	16.053
650.94	16.265
651.27	15.949
651.60	15.180
651.92	15.515
652.25	17.480
652.58	14.752
652.90	16.617
653.23	15.214
653.56	14.540
653.88	15.419
654.21	15.836
654.54	16.252
654.86	14.307
655.19	14.908
655.52	13.203
655.84	10.177
656.17	11.440
656.49	16.819
656.82	19.672
657.15	16.018
657.47	11.910
657.80	8.530
658.13	6.718
658.45	8.778
658.78	11.045
659.10	10.644
659.43	11.549
659.75	11.744
660.08	12.281
660.41	14.247
660.73	16.186
661.06	15.616
661.38	18.058
661.71	15.827
662.03	15.209
662.36	15.238
662.68	14.711
663.01	16.396
663.33	16.792
663.66	15.385
663.98	17.460
664.31	18.284
664.63	18.966
664.96	17.261
665.28	16.761
665.61	14.906
665.93	14.906
666.26	16.636
666.58	16.514
666.91	16.409
667.23	17.068
667.56	16.632
667.88	17.635
668.21	17.828
668.53	17.540
668.86	20.441
669.18	16.701
669.50	17.562
669.83	18.070
670.15	16.632
670.48	14.648
670.80	18.924
671.13	15.737
671.45	16.633
671.77	18.182
672.10	15.978
672.42	15.296
672.75	17.405
673.07	15.580
673.39	15.815
673.72	16.263
674.04	15.412
674.37	16.515
674.69	17.658
675.01	17.537
675.34	12.791
675.66	16.602
675.98	16.765
676.31	17.400
676.63	15.905
676.95	18.452
677.28	13.996
677.60	16.298
677.92	15.476
678.25	16.085
678.57	16.946
678.89	16.456
679.22	16.728
679.54	18.149
679.86	16.405
680.18	14.587
680.51	15.257
680.83	14.358
681.15	15.945
681.48	16.493
681.80	15.762
682.12	15.571
682.44	13.874
682.77	19.039
683.09	17.087
683.41	16.122
683.73	16.535
684.06	16.865
684.38	17.442
684.70	17.266
685.02	15.799
685.34	15.669
685.67	16.881
685.99	17.077
686.31	15.562
686.63	14.472
686.96	14.869
687.28	15.436
687.60	13.993
687.92	16.415
688.24	17.069
688.56	15.836
688.89	13.958
689.21	16.956
689.53	18.577
689.85	15.041
690.17	16.893
690.49	16.935
690.82	16.387
691.14	16.970
691.46	17.659
691.78	16.179
692.10	15.649
692.42	14.882
692.74	18.023
693.06	16.473
693.39	17.984
693.71	15.717
694.03	17.160
694.35	19.277
694.67	15.479
694.99	18.404
695.31	16.892
695.63	16.516
695.95	16.968
696.27	19.912
696.59	17.900
696.91	14.684
697.23	18.100
697.56	15.145
697.88	13.772
698.20	14.906
698.52	17.121
698.84	18.275
699.16	15.778
699.48	16.737
699.80	18.083
700.12	18.014
700.44	15.187
700.76	18.138
701.08	18.016
701.40	17.403
701.72	22.460
702.04	21.409
702.36	19.624
702.68	21.277
703.00	17.544
703.32	21.588
703.64	20.151
703.96	14.844
704.28	20.106
704.60	21.127
704.91	15.686
705.23	17.330
705.55	21.365
705.87	17.143
706.19	22.257
706.51	25.392
706.83	21.829
707.15	20.856
707.47	17.918
707.79	20.230
708.11	17.914
708.43	17.753
708.74	21.041
709.06	16.744
709.38	22.581
709.70	17.984
710.02	18.478
710.34	16.298
710.66	20.833
710.98	21.038
711.29	20.056
711.61	22.284
711.93	16.413
712.25	18.373
712.57	19.293
712.89	20.606
713.20	21.086
713.52	19.626
713.84	19.940
714.16	15.362
714.48	12.680
714.80	18.428
715.11	17.287
715.43	16.201
715.75	17.183
716.07	18.497
716.39	17.714
716.70	20.249
717.02	22.222
717.34	21.942
717.66	25.000
717.97	26.515
718.29	27.113
718.61	19.257
718.93	21.799
719.24	23.154
719.56	17.586
719.88	16.561
720.20	22.581
720.51	16.667
720.83	16.722
721.15	20.748
721.46	22.260
721.78	19.164
722.10	23.611
722.42	24.749
722.73	19.134
723.05	22.456
723.37	22.968
723.68	19.141
724.00	21.212
724.32	20.532
724.63	22.692
724.95	23.137
725.27	21.933
725.58	23.162
725.90	17.606
726.22	20.205
726.53	21.739
726.85	21.498
727.16	24.497
727.48	21.927
727.80	24.820
728.11	23.571
728.43	23.188
728.74	19.231
729.06	20.430
729.38	22.105
729.69	25.333
730.01	22.697
730.32	22.148
730.64	23.588
730.96	23.123
731.27	16.208
731.59	14.655
731.90	20.334
732.22	21.143
732.53	16.524
732.85	22.222
733.16	20.783
733.48	18.495
733.80	21.159
734.11	21.472
734.43	18.421
734.74	18.231
735.06	20.106
735.37	16.237
735.69	16.812
736.00	18.654
736.32	17.273
736.63	14.196
736.95	15.528
737.26	21.646
737.58	17.791
737.89	20.783
738.21	18.874
738.52	20.736
738.83	23.077
739.15	24.390
739.46	21.379
739.78	17.007
740.09	19.242
740.41	21.166
740.72	22.540
741.04	25.874
741.35	23.047
741.66	20.158
741.98	24.034
742.29	26.852
742.61	23.009
742.92	20.339
743.23	20.800
743.55	18.868
743.86	19.608
744.18	22.881
744.49	28.099
744.80	21.198
745.12	24.554
745.43	24.766
745.74	24.000
746.06	16.667
746.37	21.860
746.68	26.991
747.00	23.318
747.31	26.050
747.62	21.721
747.94	25.751
748.25	18.288
748.56	23.305
748.88	26.339
749.19	26.047
749.50	21.461
749.82	19.753
750.13	22.530
750.44	18.000
750.75	22.148
751.07	13.487
751.38	16.832
751.69	22.559
752.01	22.028
752.32	20.266
752.63	23.490
752.94	19.580
753.26	21.875
753.57	22.568
753.88	19.101
754.19	19.495
754.51	22.259
754.82	19.128
755.13	19.932
755.44	22.593
755.75	22.680
756.07	22.260
756.38	20.261
756.69	21.250
757.00	21.662
757.31	23.380
757.63	18.457
757.94	18.085
758.25	17.391
758.56	16.247
758.87	18.045
759.18	18.895
759.50	20.061
759.81	21.068
760.12	19.101
760.43	17.087
760.74	20.506
761.05	19.629
761.36	16.406
761.67	18.868
761.99	21.972
762.30	21.222
762.61	20.486
762.92	20.076
763.23	23.774
763.54	20.385
763.85	18.677
764.16	23.611
764.47	19.257
764.78	18.567
765.10	18.293
765.41	17.898
765.72	17.956
766.03	17.221
766.34	16.376
766.65	22.433
766.96	27.126
767.27	29.439
767.58	23.267
767.89	28.729
768.20	33.537
768.51	25.510
768.82	24.561
769.13	23.922
769.44	20.301
769.75	23.221
770.06	22.269
770.37	17.544
770.68	23.111
770.99	25.000
771.30	24.268
771.61	21.538
771.92	24.809
772.23	21.774
772.54	30.222
772.85	31.683
773.16	27.717
773.47	27.778
773.78	26.733
774.09	29.545
774.39	27.273
774.70	29.412
775.01	32.895
775.32	27.950
775.63	30.822
775.94	37.037
776.25	35.172
776.56	34.351
776.87	39.695
777.18	31.061
777.48	34.646
777.79	40.769
778.10	37.879
778.41	42.537
778.72	30.075
779.03	32.051
779.34	31.757
779.65	31.056
779.95	32.919
780.26	30.357
780.57	31.973
780.88	37.589
781.19	35.833
781.50	30.178
781.80	28.415
782.11	31.217
782.42	21.839
782.73	35.028
783.04	24.516
783.34	24.806
783.65	36.054
783.96	27.742
784.27	27.815
784.57	35.526
784.88	30.435
785.19	30.833
785.50	38.793
785.81	34.884
786.11	30.370
786.42	33.071
786.73	40.541
787.04	40.566
787.34	28.455
787.65	42.424
787.96	37.121
788.26	34.646
788.57	39.416
788.88	34.507
789.19	42.748
789.49	31.081
789.80	35.938
790.11	38.017
790.41	48.148
790.72	47.222
791.03	45.192
791.33	48.485
791.64	37.895
791.95	52.632
792.25	40.625
792.56	44.000
792.87	47.561
793.17	38.636
793.48	43.529
793.79	37.931
794.09	40.909
794.40	41.379
794.70	42.063
795.01	37.692
795.32	32.824
795.62	35.897
795.93	39.496
796.23	42.276
796.54	34.694
796.85	55.682
797.15	55.844
797.46	56.098
797.76	37.500
798.07	58.667
798.37	53.750
798.68	55.000
798.99	51.220
799.29	57.333
799.60	50.000
799.90	48.684
800.21	69.697
800.51	57.746
800.82	60.345
801.12	69.231
801.43	66.667
801.73	51.724
802.04	51.948
802.34	50.685
802.65	80.392
802.95	78.261
803.26	80.645
803.56	58.333
803.87	62.687
804.17	71.429
804.48	64.151
804.78	51.389
805.09	66.667
805.39	68.254
805.70	71.930
806.00	48.571
806.30	64.062
806.61	47.059
806.91	50.000
807.22	42.391
807.52	46.053
807.83	69.737
808.13	52.174
808.43	72.581
808.74	52.055
809.04	75.000
809.35	50.000
809.65	72.727
809.95	86.275
810.26	81.481
810.56	70.313
810.86	69.388
811.17	64.912
811.47	86.957
811.77	77.586
812.08	50.000
812.38	78.571
812.69	76.190
812.99	62.222
813.29	105.714
813.59	106.452
813.90	53.448
814.20	57.377
814.50	64.000
814.81	50.877
815.11	62.963
815.41	73.214
815.72	67.857
816.02	92.000
816.32	92.683
816.62	82.759
816.93	109.091
817.23	85.366
817.53	71.429
817.84	60.000
818.14	80.952
818.44	85.417
818.74	84.906
819.04	71.795
819.35	103.030
819.65	92.308
819.95	94.444
820.25	102.128
820.56	89.189
820.86	76.316
821.16	76.596
821.46	86.842
821.76	96.364
822.07	80.952
822.37	60.526
822.67	97.674
822.97	68.421
823.27	93.478
823.57	109.375
823.88	89.744
824.18	81.818
824.48	134.783
824.78	83.333
825.08	134.783
825.38	124.138
825.69	94.118
825.99	72.340
826.29	94.444
826.59	100.000
826.89	106.667
827.19	85.714
827.49	174.194
827.79	146.154
828.09	83.333
828.39	88.889
828.70	72.973
829.00	150.000
829.30	150.000
829.60	88.889
829.90	116.129
830.20	93.939
830.50	94.595
830.80	112.500
831.10	126.923
831.40	133.333
831.70	179.167
832.00	126.667
832.30	130.435
832.60	125.000
832.90	160.606
833.20	135.000
833.50	107.895
833.80	88.235
834.10	81.579
834.40	152.632
834.70	103.333
835.00	168.000
835.30	108.108
835.60	118.750
835.90	110.811
836.20	130.769
836.50	104.545
836.80	97.561
837.10	134.783
837.40	269.231
837.70	168.421
838.00	150.000
838.30	150.000
838.60	132.000
838.90	310.000
839.19	193.750
839.49	140.000
839.79	131.034
840.09	119.231
840.39	173.333
840.69	178.947
840.99	90.476
841.29	182.609
841.59	220.000
841.88	156.000
842.18	222.222
842.48	103.571
842.78	170.370
843.08	184.615
843.38	150.000
843.68	228.571
843.97	571.429
844.27	139.130
844.57	1300.000
844.87	235.714
845.17	200.000
845.47	90.476
845.76	125.000
846.06	414.286
846.36	141.176
846.66	238.462
846.96	150.000
847.25	246.154
847.55	136.842
847.85	138.889
848.15	600.000
848.44	236.364
848.74	119.048
849.04	145.833
849.34	229.412
849.63	243.750
849.93	237.500
850.23	966.667
850.53	325.000
850.82	200.000
851.12	258.824
851.42	187.500
851.71	262.500
852.01	0.000
852.31	188.235
852.61	270.000
852.90	166.667
853.20	288.889
853.50	-1100.000
853.79	140.000
854.09	146.875
854.39	100.000
854.68	137.931
854.98	147.619
855.28	109.677
855.57	257.143
855.87	144.444
856.17	114.815
856.46	163.158
856.76	141.935
857.05	247.059
857.35	227.273
857.65	261.538
857.94	190.000
858.24	366.667
858.53	264.286
858.83	457.143
859.13	152.174
859.42	300.000
859.72	362.500
860.01	283.333
860.31	875.000
860.60	370.000
860.90	425.000
861.20	307.692
861.49	314.286
861.79	-2700.000
862.08	400.000
862.38	333.333
862.67	242.857
862.97	320.000
863.26	130.000
863.56	850.000
863.85	323.077
864.15	241.176
864.44	205.556
864.74	416.667
865.03	300.000
865.33	325.000
865.62	186.667
865.92	583.333
866.21	925.000
866.51	860.000
866.80	200.000
867.10	900.000
867.39	2700.000
867.69	540.000
867.98	975.000
868.27	180.952
868.57	240.000
868.86	900.000
869.16	209.524
869.45	3200.000
869.75	-400.000
870.04	575.000
870.33	580.000
870.63	387.500
870.92	188.235
871.22	775.000
871.51	485.714
871.80	408.333
872.10	338.462
>>>>>End Processed Spectral Data<<<<<
