SpectraSuite Data File
++++++++++++++++++++++++++++++++++++
Date: Tue May 12 17:05:29 PDT 2015
User: schluterlab
Dark Spectrum Present: Yes
Reference Spectrum Present: Yes
Number of Sampled Component Spectra: 1
Spectrometers: USB2E3373
Integration Time (usec): 3000 (USB2E3373)
Spectra Averaged: 3 (USB2E3373)
Boxcar Smoothing: 0 (USB2E3373)
Correct for Electrical Dark: No (USB2E3373)
Strobe/Lamp Enabled: No (USB2E3373)
Correct for Detector Non-linearity: No (USB2E3373)
Correct for Stray Light: No (USB2E3373)
Number of Pixels in Processed Spectrum: 2048
>>>>>Begin Processed Spectral Data<<<<<
178.53	0.000
178.91	-250.000
179.29	-825.000
179.67	-4000.000
180.04	-93.333
180.42	525.000
180.80	1900.000
181.18	0.000
181.56	-462.500
181.94	0.000
182.31	1500.000
182.69	-3800.000
183.07	614.286
183.45	-3600.000
183.83	-2150.000
184.20	330.000
184.58	500.000
184.96	-223.077
185.34	-258.333
185.72	2300.000
186.09	-875.000
186.47	-3100.000
186.85	1033.333
187.23	760.000
187.61	1600.000
187.98	512.500
188.36	228.571
188.74	366.667
189.12	391.667
189.49	1025.000
189.87	0.000
190.25	462.500
190.63	3000.000
191.00	-266.667
191.38	-3900.000
191.76	-700.000
192.14	475.000
192.51	-2800.000
192.89	1850.000
193.27	1133.333
193.65	-1000.000
194.02	-800.000
194.40	600.000
194.78	-192.857
195.15	326.667
195.53	-3400.000
195.91	-660.000
196.29	4400.000
196.66	243.750
197.04	700.000
197.42	-1300.000
197.79	900.000
198.17	241.667
198.55	0.000
198.92	428.571
199.30	1066.667
199.68	1600.000
200.05	666.667
200.43	-300.000
200.81	205.556
201.18	3400.000
201.56	308.333
201.94	-1025.000
202.31	-325.000
202.69	-580.000
203.07	3600.000
203.44	-566.667
203.82	400.000
204.19	840.000
204.57	-1300.000
204.95	-1050.000
205.32	-700.000
205.70	516.667
206.08	825.000
206.45	-1000.000
206.83	422.222
207.20	242.105
207.58	350.000
207.96	760.000
208.33	0.000
208.71	528.571
209.08	720.000
209.46	-2800.000
209.84	-875.000
210.21	760.000
210.59	-780.000
210.96	325.000
211.34	-1000.000
211.71	454.545
212.09	1000.000
212.46	1500.000
212.84	-366.667
213.22	500.000
213.59	-3800.000
213.97	280.000
214.34	1000.000
214.72	1266.667
215.09	900.000
215.47	-3600.000
215.84	-430.000
216.22	-400.000
216.59	0.000
216.97	0.000
217.34	1650.000
217.72	-1600.000
218.09	1233.333
218.47	462.500
218.84	725.000
219.22	1366.667
219.59	900.000
219.97	614.286
220.34	300.000
220.72	2000.000
221.09	4100.000
221.47	233.333
221.84	866.667
222.22	360.000
222.59	288.889
222.97	214.286
223.34	293.750
223.72	-2050.000
224.09	1300.000
224.46	276.923
224.84	-650.000
225.21	377.778
225.59	260.000
225.96	1300.000
226.34	-780.000
226.71	-550.000
227.08	-680.000
227.46	0.000
227.83	-716.667
228.21	-1800.000
228.58	341.667
228.95	825.000
229.33	344.444
229.70	1000.000
230.08	361.538
230.45	3200.000
230.82	-1025.000
231.20	-900.000
231.57	-1066.667
231.95	540.000
232.32	266.667
232.69	616.667
233.07	275.000
233.44	-1350.000
233.81	266.667
234.19	159.259
234.56	125.000
234.93	217.647
235.31	195.000
235.68	218.750
236.05	146.429
236.43	111.111
236.80	214.286
237.17	162.069
237.55	78.125
237.92	87.500
238.29	109.091
238.67	103.125
239.04	73.171
239.41	58.333
239.79	62.500
240.16	70.833
240.53	72.131
240.91	68.116
241.28	74.576
241.65	56.061
242.02	59.155
242.40	58.571
242.77	43.956
243.14	41.772
243.51	55.556
243.89	36.449
244.26	34.579
244.63	34.653
245.00	37.615
245.38	31.356
245.75	30.303
246.12	40.741
246.49	31.915
246.87	27.049
247.24	34.667
247.61	28.750
247.98	25.850
248.36	22.424
248.73	31.122
249.10	27.976
249.47	18.500
249.84	24.378
250.22	24.324
250.59	24.000
250.96	25.738
251.33	24.186
251.70	20.982
252.08	18.908
252.45	21.514
252.82	17.110
253.19	19.368
253.56	15.385
253.94	19.565
254.31	18.605
254.68	20.557
255.05	22.069
255.42	16.423
255.79	15.961
256.16	18.644
256.54	18.182
256.91	18.627
257.28	15.050
257.65	13.480
258.02	14.749
258.39	19.484
258.76	17.971
259.14	10.857
259.51	18.950
259.88	18.541
260.25	14.011
260.62	18.082
260.99	11.019
261.36	13.928
261.73	13.830
262.10	15.969
262.47	14.250
262.85	13.867
263.22	13.882
263.59	16.880
263.96	16.291
264.33	14.568
264.70	12.285
265.07	13.902
265.44	16.284
265.81	15.802
266.18	15.103
266.55	12.766
266.92	11.409
267.29	14.693
267.66	13.004
268.03	11.211
268.40	15.645
268.77	15.198
269.14	11.714
269.51	13.363
269.88	13.673
270.25	9.719
270.62	12.017
270.99	14.604
271.36	14.024
271.73	9.853
272.10	13.333
272.47	13.294
272.84	9.980
273.21	10.124
273.58	13.563
273.95	10.267
274.32	14.981
274.69	13.976
275.06	12.022
275.43	12.261
275.80	11.698
276.17	13.051
276.54	14.393
276.91	13.806
277.28	11.679
277.65	11.255
278.02	13.051
278.39	10.971
278.76	12.931
279.13	10.320
279.50	13.455
279.87	10.987
280.23	10.681
280.60	12.044
280.97	10.862
281.34	11.716
281.71	12.696
282.08	12.821
282.45	9.459
282.82	13.043
283.19	12.083
283.56	10.744
283.92	12.215
284.29	12.479
284.66	12.437
285.03	12.935
285.40	11.074
285.77	10.185
286.14	12.384
286.51	13.344
286.87	11.234
287.24	9.760
287.61	10.486
287.98	12.090
288.35	11.407
288.72	10.774
289.08	10.811
289.45	10.823
289.82	10.625
290.19	10.542
290.56	12.082
290.93	8.777
291.29	10.635
291.66	9.605
292.03	10.379
292.40	10.569
292.77	10.167
293.13	10.842
293.50	9.042
293.87	8.537
294.24	10.629
294.60	10.363
294.97	10.350
295.34	9.429
295.71	9.855
296.08	10.133
296.44	9.276
296.81	10.174
297.18	8.999
297.55	9.606
297.91	6.404
298.28	8.816
298.65	8.834
299.02	9.891
299.38	9.592
299.75	8.293
300.12	9.977
300.48	8.431
300.85	9.058
301.22	9.419
301.59	8.373
301.95	8.285
302.32	9.080
302.69	9.502
303.05	10.662
303.42	8.408
303.79	8.776
304.15	7.261
304.52	8.034
304.89	9.275
305.25	9.677
305.62	8.635
305.99	7.717
306.35	9.368
306.72	8.325
307.09	7.971
307.45	8.870
307.82	7.407
308.19	8.557
308.55	7.200
308.92	8.342
309.29	8.876
309.65	9.217
310.02	8.722
310.38	7.178
310.75	7.232
311.12	7.759
311.48	8.108
311.85	8.397
312.22	9.265
312.58	7.677
312.95	8.447
313.31	8.895
313.68	8.349
314.05	8.700
314.41	8.566
314.78	6.534
315.14	9.005
315.51	8.325
315.87	7.391
316.24	7.470
316.61	8.505
316.97	7.339
317.34	8.086
317.70	8.604
318.07	9.253
318.43	8.524
318.80	8.494
319.16	8.479
319.53	7.611
319.89	7.079
320.26	9.125
320.62	9.066
320.99	8.008
321.35	8.905
321.72	10.057
322.08	9.603
322.45	9.173
322.81	8.966
323.18	8.792
323.54	9.843
323.91	10.879
324.27	8.753
324.64	9.170
325.00	9.224
325.37	8.600
325.73	9.528
326.10	8.782
326.46	9.827
326.83	9.120
327.19	8.916
327.56	9.505
327.92	9.180
328.29	9.902
328.65	10.188
329.01	10.094
329.38	9.645
329.74	8.796
330.11	9.904
330.47	10.401
330.84	8.714
331.20	8.799
331.56	9.758
331.93	9.752
332.29	9.354
332.66	10.119
333.02	8.677
333.38	8.901
333.75	10.008
334.11	8.725
334.48	9.573
334.84	8.784
335.20	8.896
335.57	9.236
335.93	9.504
336.29	8.872
336.66	9.520
337.02	8.982
337.38	9.372
337.75	8.953
338.11	9.451
338.47	8.975
338.84	9.822
339.20	7.965
339.56	9.083
339.93	8.863
340.29	8.403
340.65	8.969
341.02	9.735
341.38	9.442
341.74	8.721
342.11	7.679
342.47	8.203
342.83	9.270
343.20	9.378
343.56	7.784
343.92	8.340
344.28	9.011
344.65	9.943
345.01	8.889
345.37	7.933
345.73	8.333
346.10	8.127
346.46	8.054
346.82	7.639
347.19	9.505
347.55	8.821
347.91	8.912
348.27	7.823
348.63	9.494
349.00	9.063
349.36	8.482
349.72	9.327
350.08	8.773
350.45	8.530
350.81	9.021
351.17	8.475
351.53	7.313
351.89	8.314
352.26	8.088
352.62	9.050
352.98	8.512
353.34	8.398
353.70	6.957
354.07	8.385
354.43	7.911
354.79	8.428
355.15	8.499
355.51	7.402
355.87	8.283
356.24	8.237
356.60	7.458
356.96	8.340
357.32	8.968
357.68	8.517
358.04	7.903
358.40	8.546
358.77	8.490
359.13	7.808
359.49	7.487
359.85	8.637
360.21	7.875
360.57	8.613
360.93	8.081
361.29	9.163
361.66	8.054
362.02	6.605
362.38	7.431
362.74	8.493
363.10	8.485
363.46	8.080
363.82	8.485
364.18	7.326
364.54	8.369
364.90	8.099
365.26	8.466
365.62	8.218
365.98	7.295
366.35	7.448
366.71	8.189
367.07	7.918
367.43	8.865
367.79	7.912
368.15	7.123
368.51	7.857
368.87	6.318
369.23	8.108
369.59	7.755
369.95	7.902
370.31	7.255
370.67	8.119
371.03	8.193
371.39	7.687
371.75	7.118
372.11	8.294
372.47	8.699
372.83	8.022
373.19	8.019
373.55	8.041
373.91	7.528
374.27	7.606
374.63	7.864
374.99	8.558
375.35	7.594
375.71	8.641
376.07	8.355
376.42	6.777
376.78	8.863
377.14	7.995
377.50	7.678
377.86	7.944
378.22	8.288
378.58	7.869
378.94	8.570
379.30	7.156
379.66	7.526
380.02	7.859
380.38	8.138
380.74	8.881
381.09	7.886
381.45	7.630
381.81	7.388
382.17	7.692
382.53	8.518
382.89	7.865
383.25	7.993
383.61	8.127
383.97	8.278
384.32	8.620
384.68	8.497
385.04	8.382
385.40	8.126
385.76	7.899
386.12	7.792
386.48	8.146
386.83	8.007
387.19	7.951
387.55	7.538
387.91	7.910
388.27	8.269
388.62	8.803
388.98	8.280
389.34	8.031
389.70	8.314
390.06	8.049
390.42	8.328
390.77	9.152
391.13	7.544
391.49	8.530
391.85	7.877
392.20	8.641
392.56	9.080
392.92	7.524
393.28	8.016
393.64	7.798
393.99	8.180
394.35	8.358
394.71	8.444
395.07	7.786
395.42	7.904
395.78	9.315
396.14	9.096
396.50	8.063
396.85	8.476
397.21	7.581
397.57	8.129
397.92	7.799
398.28	7.722
398.64	8.668
399.00	8.124
399.35	7.568
399.71	8.002
400.07	7.591
400.42	7.701
400.78	8.211
401.14	8.045
401.49	7.719
401.85	8.169
402.21	7.206
402.57	8.618
402.92	8.121
403.28	8.115
403.63	8.770
403.99	8.142
404.35	8.441
404.70	7.974
405.06	7.580
405.42	7.840
405.77	7.938
406.13	7.104
406.49	7.220
406.84	7.840
407.20	8.676
407.55	7.631
407.91	8.615
408.27	8.854
408.62	8.338
408.98	8.043
409.34	7.072
409.69	7.965
410.05	7.871
410.40	7.303
410.76	6.697
411.11	8.116
411.47	7.654
411.83	8.084
412.18	8.092
412.54	8.168
412.89	8.201
413.25	8.723
413.60	7.886
413.96	7.840
414.31	8.087
414.67	7.883
415.03	7.407
415.38	8.202
415.74	7.265
416.09	8.682
416.45	8.662
416.80	8.916
417.16	7.638
417.51	8.025
417.87	7.822
418.22	7.290
418.58	7.325
418.93	8.328
419.29	7.209
419.64	8.601
420.00	8.532
420.35	7.433
420.71	7.060
421.06	7.416
421.42	8.290
421.77	8.717
422.12	7.883
422.48	8.218
422.83	8.426
423.19	7.505
423.54	7.899
423.90	8.267
424.25	7.595
424.61	8.648
424.96	7.679
425.31	7.499
425.67	8.418
426.02	8.188
426.38	7.293
426.73	7.924
427.09	7.948
427.44	7.766
427.79	7.376
428.15	8.250
428.50	8.286
428.85	8.407
429.21	8.050
429.56	7.926
429.92	7.757
430.27	6.821
430.62	7.636
430.98	7.984
431.33	7.409
431.68	7.358
432.04	7.553
432.39	8.013
432.74	8.080
433.10	7.807
433.45	7.754
433.80	7.887
434.16	8.145
434.51	7.792
434.86	8.274
435.22	7.185
435.57	8.358
435.92	8.765
436.28	8.065
436.63	8.536
436.98	8.221
437.34	8.333
437.69	7.783
438.04	8.495
438.39	8.581
438.75	7.739
439.10	7.663
439.45	7.801
439.81	8.213
440.16	8.145
440.51	7.376
440.86	8.262
441.22	8.117
441.57	8.346
441.92	8.045
442.27	7.474
442.63	7.724
442.98	7.058
443.33	7.445
443.68	8.199
444.03	7.681
444.39	7.863
444.74	7.143
445.09	7.846
445.44	8.077
445.79	7.651
446.15	7.684
446.50	7.700
446.85	7.520
447.20	7.512
447.55	7.667
447.91	8.524
448.26	8.253
448.61	8.181
448.96	7.298
449.31	7.591
449.66	8.250
450.02	7.672
450.37	8.162
450.72	8.154
451.07	8.261
451.42	8.714
451.77	8.305
452.12	8.395
452.47	8.445
452.83	7.944
453.18	7.988
453.53	8.171
453.88	8.686
454.23	8.193
454.58	7.984
454.93	8.093
455.28	7.895
455.63	8.215
455.98	8.347
456.34	8.693
456.69	8.598
457.04	8.055
457.39	7.829
457.74	9.122
458.09	8.422
458.44	8.269
458.79	8.011
459.14	7.747
459.49	8.607
459.84	7.989
460.19	8.305
460.54	8.661
460.89	8.049
461.24	8.190
461.59	8.503
461.94	7.979
462.29	8.295
462.64	8.103
462.99	8.893
463.34	8.879
463.69	9.558
464.04	8.117
464.39	8.071
464.74	7.093
465.09	8.706
465.44	8.433
465.79	8.002
466.14	8.479
466.49	7.596
466.84	7.915
467.19	9.022
467.54	8.108
467.89	8.568
468.24	8.107
468.59	8.214
468.94	8.454
469.29	9.163
469.64	9.196
469.99	8.676
470.34	8.855
470.68	8.483
471.03	9.073
471.38	8.609
471.73	8.230
472.08	8.741
472.43	8.442
472.78	9.283
473.13	8.573
473.48	8.557
473.83	8.245
474.17	8.085
474.52	8.294
474.87	7.902
475.22	8.395
475.57	8.132
475.92	8.074
476.27	7.943
476.61	7.828
476.96	8.150
477.31	8.072
477.66	8.535
478.01	8.045
478.36	8.084
478.70	7.891
479.05	6.799
479.40	7.490
479.75	8.739
480.10	8.180
480.45	7.610
480.79	7.972
481.14	7.323
481.49	7.365
481.84	8.267
482.19	7.860
482.53	8.169
482.88	7.796
483.23	7.848
483.58	7.496
483.92	8.135
484.27	7.534
484.62	7.767
484.97	7.480
485.31	7.255
485.66	7.011
486.01	6.548
486.36	6.369
486.70	6.658
487.05	6.822
487.40	6.553
487.75	7.210
488.09	7.074
488.44	7.011
488.79	7.116
489.13	7.055
489.48	7.511
489.83	7.256
490.17	7.556
490.52	7.881
490.87	7.371
491.22	7.934
491.56	7.554
491.91	8.289
492.26	7.795
492.60	7.699
492.95	8.020
493.30	7.871
493.64	7.951
493.99	7.737
494.34	7.889
494.68	7.658
495.03	8.172
495.37	7.744
495.72	7.786
496.07	7.727
496.41	8.341
496.76	7.894
497.11	7.969
497.45	8.023
497.80	7.831
498.14	7.675
498.49	7.939
498.84	8.505
499.18	7.267
499.53	7.901
499.87	7.907
500.22	8.107
500.56	7.103
500.91	8.302
501.26	8.130
501.60	7.377
501.95	7.572
502.29	7.689
502.64	7.146
502.98	7.070
503.33	7.706
503.67	7.726
504.02	7.658
504.36	7.919
504.71	7.994
505.06	7.790
505.40	7.674
505.75	7.811
506.09	8.913
506.44	7.848
506.78	8.412
507.13	7.222
507.47	7.375
507.82	8.564
508.16	8.525
508.51	8.116
508.85	8.025
509.19	8.517
509.54	8.398
509.88	9.150
510.23	8.627
510.57	7.867
510.92	8.292
511.26	8.283
511.61	7.927
511.95	8.412
512.30	8.500
512.64	7.788
512.98	8.713
513.33	8.453
513.67	8.752
514.02	8.312
514.36	8.100
514.70	8.107
515.05	7.778
515.39	8.169
515.74	8.857
516.08	8.333
516.42	8.962
516.77	8.533
517.11	8.320
517.46	8.244
517.80	8.083
518.14	8.620
518.49	8.655
518.83	7.912
519.17	8.874
519.52	8.575
519.86	8.338
520.20	9.096
520.55	7.631
520.89	8.736
521.23	8.586
521.58	8.548
521.92	8.338
522.26	8.294
522.61	8.616
522.95	8.889
523.29	9.064
523.64	8.324
523.98	8.744
524.32	8.420
524.66	8.696
525.01	8.343
525.35	8.427
525.69	9.272
526.04	9.161
526.38	8.888
526.72	8.771
527.06	7.806
527.41	8.948
527.75	9.191
528.09	7.766
528.43	8.603
528.78	9.004
529.12	9.272
529.46	8.416
529.80	8.470
530.15	9.134
530.49	8.123
530.83	8.897
531.17	8.733
531.51	8.400
531.86	8.998
532.20	8.653
532.54	8.475
532.88	8.495
533.22	9.445
533.57	8.725
533.91	7.343
534.25	8.425
534.59	8.363
534.93	8.305
535.27	8.025
535.62	8.110
535.96	8.333
536.30	9.141
536.64	8.509
536.98	8.370
537.32	8.438
537.66	8.227
538.01	9.474
538.35	8.921
538.69	8.070
539.03	9.017
539.37	8.434
539.71	8.642
540.05	8.185
540.39	8.553
540.73	9.114
541.07	8.156
541.42	8.458
541.76	8.693
542.10	8.446
542.44	8.541
542.78	8.370
543.12	8.344
543.46	8.897
543.80	9.023
544.14	8.173
544.48	7.908
544.82	8.257
545.16	8.015
545.50	8.666
545.84	9.028
546.18	8.908
546.52	8.656
546.86	9.155
547.20	8.140
547.54	8.676
547.88	8.090
548.22	7.832
548.56	8.544
548.90	8.837
549.24	8.339
549.58	8.441
549.92	8.906
550.26	8.114
550.60	8.450
550.94	7.734
551.28	10.276
551.62	9.034
551.96	8.446
552.30	7.779
552.64	9.385
552.98	9.021
553.32	7.875
553.66	8.795
554.00	9.202
554.34	8.389
554.68	9.409
555.02	7.671
555.36	9.242
555.69	9.031
556.03	8.535
556.37	8.795
556.71	9.257
557.05	8.257
557.39	9.000
557.73	9.164
558.07	9.323
558.41	8.773
558.75	8.687
559.08	9.149
559.42	9.449
559.76	9.337
560.10	9.291
560.44	9.157
560.78	8.696
561.12	9.409
561.45	8.198
561.79	8.552
562.13	9.097
562.47	7.592
562.81	8.393
563.15	7.757
563.48	7.640
563.82	9.170
564.16	8.147
564.50	8.318
564.84	8.267
565.17	8.497
565.51	8.867
565.85	8.143
566.19	7.976
566.52	7.702
566.86	8.348
567.20	8.764
567.54	7.642
567.88	8.868
568.21	7.788
568.55	7.733
568.89	8.394
569.23	7.334
569.56	7.428
569.90	7.258
570.24	7.359
570.57	7.138
570.91	6.615
571.25	6.613
571.59	6.486
571.92	7.051
572.26	6.199
572.60	6.526
572.93	6.527
573.27	6.605
573.61	6.768
573.95	6.723
574.28	6.665
574.62	6.451
574.96	6.216
575.29	6.294
575.63	6.148
575.97	6.426
576.30	6.176
576.64	6.179
576.98	6.524
577.31	6.629
577.65	6.581
577.98	6.157
578.32	5.988
578.66	6.299
578.99	6.377
579.33	6.405
579.67	6.416
580.00	6.122
580.34	6.549
580.67	6.264
581.01	6.693
581.35	6.301
581.68	5.913
582.02	6.152
582.35	6.190
582.69	6.373
583.02	6.146
583.36	6.518
583.70	6.571
584.03	6.786
584.37	6.739
584.70	6.469
585.04	6.329
585.37	6.177
585.71	6.697
586.04	6.421
586.38	6.201
586.72	6.564
587.05	6.639
587.39	6.675
587.72	6.587
588.06	6.258
588.39	6.141
588.73	6.674
589.06	6.828
589.40	6.823
589.73	6.752
590.07	7.447
590.40	7.805
590.73	7.749
591.07	7.476
591.40	6.786
591.74	7.143
592.07	6.697
592.41	6.635
592.74	6.445
593.08	7.031
593.41	6.463
593.75	6.618
594.08	6.806
594.41	7.006
594.75	6.404
595.08	6.859
595.42	6.814
595.75	7.009
596.09	6.813
596.42	6.883
596.75	7.612
597.09	6.934
597.42	7.306
597.75	6.694
598.09	7.427
598.42	7.222
598.76	7.170
599.09	7.319
599.42	6.540
599.76	7.259
600.09	6.915
600.42	7.113
600.76	6.628
601.09	6.835
601.42	6.653
601.76	6.839
602.09	7.285
602.42	7.135
602.76	7.249
603.09	7.391
603.42	7.266
603.76	7.231
604.09	6.913
604.42	7.006
604.76	6.835
605.09	7.224
605.42	6.989
605.75	7.462
606.09	7.039
606.42	6.877
606.75	7.268
607.09	6.869
607.42	6.951
607.75	7.205
608.08	6.702
608.42	7.047
608.75	6.461
609.08	6.863
609.41	7.409
609.75	7.189
610.08	7.194
610.41	7.686
610.74	7.273
611.07	7.594
611.41	7.646
611.74	6.883
612.07	7.659
612.40	7.066
612.73	7.239
613.07	7.603
613.40	7.469
613.73	7.539
614.06	6.450
614.39	7.980
614.72	7.333
615.06	7.270
615.39	7.475
615.72	7.309
616.05	7.333
616.38	7.357
616.71	7.108
617.05	7.194
617.38	7.079
617.71	7.593
618.04	7.628
618.37	7.838
618.70	7.852
619.03	7.265
619.36	7.726
619.69	8.245
620.03	9.132
620.36	8.028
620.69	8.621
621.02	8.424
621.35	7.378
621.68	8.850
622.01	8.635
622.34	6.628
622.67	8.497
623.00	8.033
623.33	7.557
623.66	8.117
623.99	8.151
624.32	8.401
624.65	8.097
624.99	7.573
625.32	8.550
625.65	7.931
625.98	6.974
626.31	8.531
626.64	7.289
626.97	8.340
627.30	8.540
627.63	8.791
627.96	8.059
628.29	8.828
628.62	8.127
628.95	9.752
629.28	8.940
629.61	8.436
629.94	8.124
630.26	10.139
630.59	9.574
630.92	8.520
631.25	9.882
631.58	9.450
631.91	8.373
632.24	7.483
632.57	7.957
632.90	10.145
633.23	9.444
633.56	8.851
633.89	9.861
634.22	9.257
634.55	8.387
634.88	10.515
635.20	10.762
635.53	8.943
635.86	10.179
636.19	10.550
636.52	8.432
636.85	9.385
637.18	10.076
637.51	8.603
637.83	8.581
638.16	8.675
638.49	9.341
638.82	10.563
639.15	9.871
639.48	10.782
639.81	9.646
640.13	9.693
640.46	11.252
640.79	9.103
641.12	9.843
641.45	10.608
641.77	10.832
642.10	11.379
642.43	8.677
642.76	9.091
643.09	10.519
643.41	9.537
643.74	9.784
644.07	10.914
644.40	9.320
644.73	12.763
645.05	11.293
645.38	10.873
645.71	11.077
646.04	10.840
646.36	12.363
646.69	10.080
647.02	11.680
647.35	10.709
647.67	10.697
648.00	11.889
648.33	10.677
648.66	10.455
648.98	10.145
649.31	9.177
649.64	9.959
649.96	10.100
650.29	9.714
650.62	12.666
650.94	12.349
651.27	12.281
651.60	11.581
651.92	10.906
652.25	10.551
652.58	9.929
652.90	10.928
653.23	10.783
653.56	10.831
653.88	9.985
654.21	11.437
654.54	9.370
654.86	12.094
655.19	10.290
655.52	8.603
655.84	5.229
656.17	5.508
656.49	8.079
656.82	9.420
657.15	7.924
657.47	5.641
657.80	4.244
658.13	3.240
658.45	4.515
658.78	5.562
659.10	5.652
659.43	6.374
659.75	5.784
660.08	7.018
660.41	8.711
660.73	10.790
661.06	10.811
661.38	10.392
661.71	11.331
662.03	12.357
662.36	10.667
662.68	11.173
663.01	15.676
663.33	11.698
663.66	10.848
663.98	13.294
664.31	13.433
664.63	13.027
664.96	13.884
665.28	12.994
665.61	10.377
665.93	10.755
666.26	10.841
666.58	14.862
666.91	13.514
667.23	13.454
667.56	13.552
667.88	16.805
668.21	11.475
668.53	11.895
668.86	15.030
669.18	12.627
669.50	12.810
669.83	14.579
670.15	12.682
670.48	11.914
670.80	11.554
671.13	13.546
671.45	12.024
671.77	14.100
672.10	13.106
672.42	10.197
672.75	11.709
673.07	11.288
673.39	11.661
673.72	11.073
674.04	11.470
674.37	11.615
674.69	11.896
675.01	13.060
675.34	12.791
675.66	13.867
675.98	11.440
676.31	13.000
676.63	11.332
676.95	13.095
677.28	11.156
677.60	12.475
677.92	10.913
678.25	12.597
678.57	11.918
678.89	12.658
679.22	12.868
679.54	12.456
679.86	12.740
680.18	11.599
680.51	9.453
680.83	9.797
681.15	10.745
681.48	12.847
681.80	12.960
682.12	13.322
682.44	9.730
682.77	12.811
683.09	10.485
683.41	11.429
683.73	12.992
684.06	9.722
684.38	13.178
684.70	11.871
685.02	9.201
685.34	11.092
685.67	12.701
685.99	10.673
686.31	9.091
686.63	10.894
686.96	12.255
687.28	9.396
687.60	10.239
687.92	10.385
688.24	11.034
688.56	11.566
688.89	9.369
689.21	10.983
689.53	15.020
689.85	11.992
690.17	13.592
690.49	12.500
690.82	12.815
691.14	13.535
691.46	10.883
691.78	14.815
692.10	11.260
692.42	11.978
692.74	13.760
693.06	11.822
693.39	12.253
693.71	10.020
694.03	11.243
694.35	14.458
694.67	12.831
694.99	12.195
695.31	13.739
695.63	12.670
695.95	10.633
696.27	13.717
696.59	12.888
696.91	13.671
697.23	13.348
697.56	11.826
697.88	8.782
698.20	12.264
698.52	12.451
698.84	14.990
699.16	13.859
699.48	12.288
699.80	13.943
700.12	10.393
700.44	11.916
700.76	14.797
701.08	12.794
701.40	11.948
701.72	18.449
702.04	16.531
702.36	19.892
702.68	14.894
703.00	13.784
703.32	13.151
703.64	12.343
703.96	14.844
704.28	13.228
704.60	15.211
704.91	15.686
705.23	16.193
705.55	15.430
705.87	14.603
706.19	19.749
706.51	17.555
706.83	12.684
707.15	16.310
707.47	16.465
707.79	14.483
708.11	12.472
708.43	13.034
708.74	12.670
709.06	13.023
709.38	15.136
709.70	12.534
710.02	14.402
710.34	15.746
710.66	14.722
710.98	16.940
711.29	15.320
711.61	16.435
711.93	13.070
712.25	16.867
712.57	16.077
712.89	19.697
713.20	16.933
713.52	14.642
713.84	15.408
714.16	12.754
714.48	10.375
714.80	14.634
715.11	11.170
715.43	12.570
715.75	14.085
716.07	14.740
716.39	14.286
716.70	13.084
717.02	15.825
717.34	17.626
717.66	17.361
717.97	16.667
718.29	20.423
718.61	14.865
718.93	12.803
719.24	16.107
719.56	13.793
719.88	12.420
720.20	18.065
720.51	13.399
720.83	16.054
721.15	16.667
721.46	14.041
721.78	18.118
722.10	15.278
722.42	19.398
722.73	14.079
723.05	20.000
723.37	20.141
723.68	14.453
724.00	17.045
724.32	16.350
724.63	17.692
724.95	18.824
725.27	17.844
725.58	16.912
725.90	13.732
726.22	14.041
726.53	17.391
726.85	17.590
727.16	18.121
727.48	15.947
727.80	16.187
728.11	16.786
728.43	15.217
728.74	19.231
729.06	11.828
729.38	20.000
729.69	20.667
730.01	19.079
730.32	17.450
730.64	19.269
730.96	20.721
731.27	13.456
731.59	14.080
731.90	15.042
732.22	14.571
732.53	17.094
732.85	16.959
733.16	16.566
733.48	15.361
733.80	19.420
734.11	16.564
734.43	12.573
734.74	15.282
735.06	15.873
735.37	13.918
735.69	16.522
736.00	17.431
736.32	12.121
736.63	14.826
736.95	16.149
737.26	16.463
737.58	17.791
737.89	18.675
738.21	11.258
738.52	13.712
738.83	18.315
739.15	18.467
739.46	15.172
739.78	14.286
740.09	16.618
740.41	16.564
740.72	15.873
741.04	20.629
741.35	18.750
741.66	17.391
741.98	15.021
742.29	21.759
742.61	19.027
742.92	16.949
743.23	19.200
743.55	16.226
743.86	19.216
744.18	19.915
744.49	22.727
744.80	22.581
745.12	22.321
745.43	19.626
745.74	18.222
746.06	16.667
746.37	23.256
746.68	19.027
747.00	18.834
747.31	21.008
747.62	13.525
747.94	22.747
748.25	21.012
748.56	19.915
748.88	20.982
749.19	17.674
749.50	13.699
749.82	19.753
750.13	17.787
750.44	15.333
750.75	17.114
751.07	17.105
751.38	16.172
751.69	16.162
752.01	19.580
752.32	16.611
752.63	22.148
752.94	18.531
753.26	19.922
753.57	18.677
753.88	15.356
754.19	12.996
754.51	21.262
754.82	12.081
755.13	18.243
755.44	16.667
755.75	19.588
756.07	17.466
756.38	13.725
756.69	16.250
757.00	17.507
757.31	17.746
757.63	14.325
757.94	12.234
758.25	13.768
758.56	12.815
758.87	15.038
759.18	15.407
759.50	18.237
759.81	16.024
760.12	14.607
760.43	13.165
760.74	13.671
761.05	13.263
761.36	13.021
761.67	16.981
761.99	16.338
762.30	16.077
762.61	16.319
762.92	18.939
763.23	18.491
763.54	17.692
763.85	12.840
764.16	20.486
764.47	19.257
764.78	16.938
765.10	13.415
765.41	13.636
765.72	14.365
766.03	11.178
766.34	16.725
766.65	17.490
766.96	22.267
767.27	23.364
767.58	28.713
767.89	32.597
768.20	26.829
768.51	20.918
768.82	18.860
769.13	19.216
769.44	18.421
769.75	15.730
770.06	21.429
770.37	13.158
770.68	19.556
770.99	17.797
771.30	23.849
771.61	18.462
771.92	20.992
772.23	17.742
772.54	20.889
772.85	27.228
773.16	21.196
773.47	22.222
773.78	27.723
774.09	28.977
774.39	24.242
774.70	21.765
775.01	19.737
775.32	32.919
775.63	32.192
775.94	32.716
776.25	31.034
776.56	29.771
776.87	34.351
777.18	28.788
777.48	40.945
777.79	26.923
778.10	33.333
778.41	36.567
778.72	27.068
779.03	21.795
779.34	23.649
779.65	22.981
779.95	27.950
780.26	26.786
780.57	37.415
780.88	32.624
781.19	32.500
781.50	32.544
781.80	22.404
782.11	28.571
782.42	18.966
782.73	24.294
783.04	30.323
783.34	17.829
783.65	24.490
783.96	35.484
784.27	23.841
784.57	28.947
784.88	31.884
785.19	26.667
785.50	44.828
785.81	35.659
786.11	35.556
786.42	29.134
786.73	30.631
787.04	33.019
787.34	30.894
787.65	39.394
787.96	34.091
788.26	33.858
788.57	36.496
788.88	31.690
789.19	31.298
789.49	34.459
789.80	30.469
790.11	39.669
790.41	36.111
790.72	30.556
791.03	41.346
791.33	40.404
791.64	45.263
791.95	45.263
792.25	35.417
792.56	40.000
792.87	37.805
793.17	40.909
793.48	41.176
793.79	42.529
794.09	37.500
794.40	39.655
794.70	30.952
795.01	32.308
795.32	34.351
795.62	29.915
795.93	35.294
796.23	34.146
796.54	43.878
796.85	48.864
797.15	57.143
797.46	63.415
797.76	45.000
798.07	58.667
798.37	38.750
798.68	42.500
798.99	52.439
799.29	46.667
799.60	38.372
799.90	52.632
800.21	59.091
800.51	63.380
800.82	55.172
801.12	64.615
801.43	50.667
801.73	55.172
802.04	45.455
802.34	50.685
802.65	74.510
802.95	52.174
803.26	74.194
803.56	85.000
803.87	44.776
804.17	63.492
804.48	66.038
804.78	61.111
805.09	69.697
805.39	66.667
805.70	75.439
806.00	50.000
806.30	53.125
806.61	57.647
806.91	42.222
807.22	45.652
807.52	42.105
807.83	64.474
808.13	53.623
808.43	62.903
808.74	65.753
809.04	67.857
809.35	48.529
809.65	72.727
809.95	86.275
810.26	72.222
810.56	70.313
810.86	73.469
811.17	70.175
811.47	69.565
811.77	60.345
812.08	43.103
812.38	76.190
812.69	90.476
812.99	55.556
813.29	111.429
813.59	112.903
813.90	68.966
814.20	65.574
814.50	56.000
814.81	50.877
815.11	90.741
815.41	64.286
815.72	85.714
816.02	84.000
816.32	92.683
816.62	79.310
816.93	81.818
817.23	100.000
817.53	85.714
817.84	73.333
818.14	64.286
818.44	68.750
818.74	81.132
819.04	76.923
819.35	142.424
819.65	71.154
819.95	111.111
820.25	89.362
820.56	105.405
820.86	86.842
821.16	85.106
821.46	89.474
821.76	70.909
822.07	64.286
822.37	92.105
822.67	100.000
822.97	81.579
823.27	100.000
823.57	93.750
823.88	100.000
824.18	78.788
824.48	139.130
824.78	105.556
825.08	143.478
825.38	110.345
825.69	111.765
825.99	85.106
826.29	88.889
826.59	102.857
826.89	116.667
827.19	94.286
827.49	90.323
827.79	119.231
828.09	76.190
828.39	80.556
828.70	86.486
829.00	167.857
829.30	256.250
829.60	97.222
829.90	109.677
830.20	121.212
830.50	113.514
830.80	158.333
831.10	146.154
831.40	152.381
831.70	158.333
832.00	136.667
832.30	108.696
832.60	154.167
832.90	145.455
833.20	185.000
833.50	94.737
833.80	108.824
834.10	102.632
834.40	126.316
834.70	106.667
835.00	144.000
835.30	113.514
835.60	128.125
835.90	127.027
836.20	126.923
836.50	136.364
836.80	95.122
837.10	139.130
837.40	215.385
837.70	152.632
838.00	153.333
838.30	162.500
838.60	176.000
838.90	300.000
839.19	237.500
839.49	113.333
839.79	89.655
840.09	161.538
840.39	200.000
840.69	200.000
840.99	161.905
841.29	169.565
841.59	215.000
841.88	160.000
842.18	333.333
842.48	142.857
842.78	159.259
843.08	215.385
843.38	181.818
843.68	235.714
843.97	357.143
844.27	143.478
844.57	1350.000
844.87	242.857
845.17	172.222
845.47	123.810
845.76	187.500
846.06	528.571
846.36	188.235
846.66	300.000
846.96	237.500
847.25	230.769
847.55	173.684
847.85	183.333
848.15	660.000
848.44	227.273
848.74	185.714
849.04	170.833
849.34	176.471
849.63	181.250
849.93	256.250
850.23	1033.333
850.53	400.000
850.82	263.636
851.12	188.235
851.42	175.000
851.71	243.750
852.01	0.000
852.31	205.882
852.61	440.000
852.90	179.167
853.20	344.444
853.50	-2400.000
853.79	148.000
854.09	137.500
854.39	131.034
854.68	137.931
854.98	228.571
855.28	109.677
855.57	207.143
855.87	194.444
856.17	92.593
856.46	184.211
856.76	164.516
857.05	194.118
857.35	209.091
857.65	292.308
857.94	145.000
858.24	311.111
858.53	235.714
858.83	614.286
859.13	178.261
859.42	344.444
859.72	362.500
860.01	308.333
860.31	800.000
860.60	420.000
860.90	500.000
861.20	269.231
861.49	428.571
861.79	-2800.000
862.08	442.857
862.38	366.667
862.67	264.286
862.97	410.000
863.26	170.000
863.56	650.000
863.85	238.462
864.15	247.059
864.44	161.111
864.74	341.667
865.03	390.909
865.33	362.500
865.62	213.333
865.92	466.667
866.21	1075.000
866.51	760.000
866.80	183.333
867.10	1166.667
867.39	3100.000
867.69	680.000
867.98	900.000
868.27	180.952
868.57	220.000
868.86	825.000
869.16	133.333
869.45	3400.000
869.75	-483.333
870.04	625.000
870.33	520.000
870.63	425.000
870.92	252.941
871.22	800.000
871.51	542.857
871.80	266.667
872.10	376.923
>>>>>End Processed Spectral Data<<<<<
