SpectraSuite Data File
++++++++++++++++++++++++++++++++++++
Date: Tue May 12 17:20:05 PDT 2015
User: schluterlab
Dark Spectrum Present: Yes
Reference Spectrum Present: Yes
Number of Sampled Component Spectra: 1
Spectrometers: USB2E3373
Integration Time (usec): 3000 (USB2E3373)
Spectra Averaged: 3 (USB2E3373)
Boxcar Smoothing: 0 (USB2E3373)
Correct for Electrical Dark: No (USB2E3373)
Strobe/Lamp Enabled: No (USB2E3373)
Correct for Detector Non-linearity: No (USB2E3373)
Correct for Stray Light: No (USB2E3373)
Number of Pixels in Processed Spectrum: 2048
>>>>>Begin Processed Spectral Data<<<<<
178.53	0.000
178.91	-225.000
179.29	-525.000
179.67	-4100.000
180.04	-126.667
180.42	725.000
180.80	1400.000
181.18	0.000
181.56	-487.500
181.94	0.000
182.31	1100.000
182.69	-3700.000
183.07	485.714
183.45	-3700.000
183.83	-1500.000
184.20	330.000
184.58	428.571
184.96	-215.385
185.34	-183.333
185.72	1900.000
186.09	-925.000
186.47	-2500.000
186.85	733.333
187.23	680.000
187.61	1650.000
187.98	487.500
188.36	307.143
188.74	250.000
189.12	341.667
189.49	900.000
189.87	0.000
190.25	362.500
190.63	3000.000
191.00	-200.000
191.38	-4300.000
191.76	-475.000
192.14	487.500
192.51	-3100.000
192.89	1900.000
193.27	1200.000
193.65	-833.333
194.02	-600.000
194.40	428.571
194.78	-157.143
195.15	240.000
195.53	-2900.000
195.91	-520.000
196.29	4400.000
196.66	281.250
197.04	825.000
197.42	-1800.000
197.79	550.000
198.17	325.000
198.55	0.000
198.92	442.857
199.30	1266.667
199.68	1750.000
200.05	633.333
200.43	-533.333
200.81	238.889
201.18	2800.000
201.56	341.667
201.94	-925.000
202.31	-387.500
202.69	-500.000
203.07	2500.000
203.44	-416.667
203.82	400.000
204.19	480.000
204.57	-950.000
204.95	-675.000
205.32	-680.000
205.70	583.333
206.08	550.000
206.45	-833.333
206.83	355.556
207.20	194.737
207.58	308.333
207.96	600.000
208.33	0.000
208.71	600.000
209.08	780.000
209.46	-3000.000
209.84	-925.000
210.21	880.000
210.59	-560.000
210.96	241.667
211.34	-975.000
211.71	427.273
212.09	1025.000
212.46	1650.000
212.84	-366.667
213.22	511.111
213.59	-2700.000
213.97	260.000
214.34	1200.000
214.72	1433.333
215.09	1233.333
215.47	-3300.000
215.84	-330.000
216.22	-412.500
216.59	0.000
216.97	0.000
217.34	1750.000
217.72	-1300.000
218.09	1166.667
218.47	525.000
218.84	975.000
219.22	800.000
219.59	1133.333
219.97	485.714
220.34	411.111
220.72	1750.000
221.09	2900.000
221.47	225.000
221.84	1133.333
222.22	320.000
222.59	244.444
222.97	242.857
223.34	250.000
223.72	-1500.000
224.09	1000.000
224.46	276.923
224.84	-825.000
225.21	333.333
225.59	233.333
225.96	1200.000
226.34	-600.000
226.71	-725.000
227.08	-620.000
227.46	0.000
227.83	-483.333
228.21	-1500.000
228.58	325.000
228.95	950.000
229.33	255.556
229.70	1225.000
230.08	376.923
230.45	2800.000
230.82	-1075.000
231.20	-833.333
231.57	-966.667
231.95	420.000
232.32	266.667
232.69	450.000
233.07	250.000
233.44	-800.000
233.81	186.667
234.19	166.667
234.56	212.500
234.93	217.647
235.31	145.000
235.68	287.500
236.05	107.143
236.43	96.296
236.80	142.857
237.17	148.276
237.55	103.125
237.92	110.000
238.29	127.273
238.67	96.875
239.04	56.098
239.41	70.833
239.79	80.000
240.16	58.333
240.53	59.016
240.91	59.420
241.28	37.288
241.65	36.364
242.02	42.254
242.40	58.571
242.77	39.560
243.14	37.975
243.51	43.434
243.89	38.318
244.26	23.364
244.63	37.624
245.00	33.945
245.38	21.186
245.75	20.455
246.12	38.519
246.49	24.113
246.87	12.295
247.24	25.333
247.61	21.250
247.98	21.088
248.36	16.364
248.73	21.939
249.10	17.262
249.47	17.500
249.84	13.433
250.22	22.703
250.59	16.500
250.96	19.831
251.33	14.884
251.70	16.964
252.08	17.227
252.45	13.944
252.82	16.350
253.19	10.672
253.56	13.462
253.94	16.304
254.31	12.791
254.68	12.544
255.05	11.034
255.42	10.949
255.79	13.681
256.16	9.831
256.54	13.961
256.91	11.111
257.28	11.706
257.65	8.777
258.02	11.209
258.39	11.748
258.76	14.203
259.14	10.000
259.51	13.120
259.88	11.854
260.25	7.418
260.62	10.685
260.99	9.917
261.36	10.306
261.73	10.372
262.10	10.733
262.47	12.500
262.85	9.067
263.22	8.740
263.59	12.020
263.96	11.278
264.33	8.889
264.70	12.285
265.07	7.805
265.44	10.321
265.81	7.783
266.18	7.551
266.55	6.619
266.92	8.277
267.29	9.649
267.66	10.762
268.03	6.502
268.40	9.514
268.77	7.709
269.14	6.291
269.51	8.686
269.88	9.184
270.25	6.911
270.62	6.438
270.99	10.751
271.36	8.333
271.73	6.080
272.10	6.465
272.47	7.341
272.84	7.186
273.21	8.678
273.58	9.919
273.95	6.571
274.32	7.393
274.69	8.268
275.06	8.197
275.43	4.789
275.80	3.774
276.17	6.801
276.54	8.598
276.91	8.582
277.28	7.117
277.65	6.458
278.02	6.801
278.39	8.453
278.76	9.138
279.13	5.160
279.50	6.000
279.87	4.097
280.23	6.077
280.60	6.387
280.97	7.069
281.34	9.406
281.71	8.000
282.08	7.863
282.45	4.223
282.82	6.187
283.19	7.631
283.56	6.777
283.92	6.840
284.29	4.659
284.66	6.555
285.03	6.302
285.40	7.603
285.77	6.019
286.14	7.276
286.51	5.828
286.87	5.222
287.24	4.655
287.61	6.383
287.98	6.269
288.35	5.037
288.72	5.766
289.08	5.255
289.45	5.488
289.82	7.344
290.19	5.710
290.56	6.841
290.93	6.475
291.29	6.630
291.66	6.215
292.03	6.171
292.40	6.640
292.77	5.292
293.13	6.277
293.50	5.263
293.87	5.149
294.24	6.154
294.60	5.922
294.97	5.734
295.34	4.515
295.71	5.388
296.08	6.000
296.44	6.099
296.81	4.094
297.18	4.309
297.55	6.034
297.91	4.803
298.28	6.280
298.65	5.031
299.02	6.031
299.38	4.556
299.75	5.366
300.12	6.881
300.48	6.323
300.85	5.483
301.22	4.186
301.59	4.009
301.95	3.501
302.32	5.122
302.69	5.204
303.05	5.499
303.42	4.036
303.79	4.550
304.15	4.180
304.52	5.285
304.89	5.224
305.25	5.895
305.62	5.544
305.99	4.783
306.35	4.211
306.72	3.642
307.09	4.658
307.45	4.541
307.82	4.835
308.19	5.361
308.55	4.800
308.92	5.397
309.29	6.114
309.65	5.748
310.02	4.361
310.38	3.589
310.75	4.050
311.12	3.831
311.48	5.695
311.85	5.057
312.22	5.062
312.58	4.179
312.95	4.466
313.31	4.869
313.68	4.128
314.05	4.487
314.41	3.818
314.78	3.598
315.14	5.403
315.51	5.771
315.87	4.471
316.24	4.015
316.61	4.924
316.97	3.945
317.34	4.582
317.70	5.180
318.07	4.448
318.43	5.009
318.80	4.466
319.16	4.545
319.53	3.628
319.89	3.674
320.26	5.121
320.62	3.938
320.99	4.671
321.35	4.638
321.72	5.503
322.08	4.524
322.45	4.905
322.81	4.300
323.18	3.996
323.54	5.662
323.91	5.802
324.27	5.040
324.64	2.855
325.00	4.741
325.37	4.722
325.73	4.637
326.10	4.308
326.46	5.202
326.83	3.520
327.19	4.980
327.56	4.153
327.92	5.246
328.29	5.319
328.65	5.394
329.01	5.817
329.38	5.076
329.74	4.782
330.11	4.865
330.47	5.030
330.84	4.228
331.20	4.992
331.56	6.131
331.93	5.817
332.29	4.762
332.66	4.847
333.02	4.124
333.38	4.363
333.75	5.922
334.11	5.201
334.48	4.530
334.84	4.476
335.20	4.534
335.57	5.038
335.93	4.289
336.29	4.726
336.66	4.631
337.02	4.534
337.38	4.901
337.75	5.152
338.11	5.316
338.47	4.657
338.84	4.826
339.20	4.242
339.56	4.542
339.93	4.933
340.29	4.874
340.65	5.365
341.02	5.551
341.38	5.419
341.74	4.402
342.11	4.007
342.47	4.758
342.83	5.496
343.20	4.770
343.56	3.892
343.92	3.716
344.28	5.024
344.65	4.645
345.01	4.603
345.37	3.926
345.73	3.810
346.10	3.586
346.46	5.263
346.82	4.321
347.19	4.482
347.55	4.215
347.91	4.381
348.27	2.789
348.63	4.747
349.00	4.874
349.36	4.981
349.72	4.740
350.08	4.348
350.45	4.874
350.81	4.740
351.17	4.083
351.53	3.849
351.89	3.963
352.26	4.157
352.62	4.072
352.98	5.138
353.34	5.008
353.70	4.052
354.07	3.846
354.43	4.301
354.79	3.872
355.15	4.518
355.51	4.154
355.87	4.819
356.24	4.311
356.60	3.805
356.96	3.867
357.32	5.124
357.68	4.479
358.04	5.319
358.40	4.423
358.77	4.808
359.13	4.580
359.49	3.706
359.85	4.914
360.21	3.938
360.57	3.723
360.93	4.040
361.29	4.473
361.66	3.803
362.02	3.977
362.38	4.040
362.74	4.529
363.10	4.839
363.46	3.108
363.82	4.418
364.18	4.339
364.54	3.791
364.90	4.618
365.26	5.135
365.62	3.384
365.98	4.061
366.35	4.069
366.71	4.441
367.07	4.983
367.43	3.962
367.79	3.923
368.15	3.935
368.51	4.342
368.87	3.533
369.23	4.089
369.59	4.383
369.95	4.406
370.31	3.285
370.67	4.164
371.03	4.552
371.39	4.501
371.75	4.187
372.11	4.827
372.47	4.521
372.83	3.807
373.19	4.866
373.55	3.849
373.91	3.315
374.27	4.960
374.63	4.136
374.99	4.447
375.35	4.503
375.71	4.485
376.07	4.178
376.42	3.645
376.78	3.982
377.14	3.604
377.50	3.995
377.86	4.164
378.22	4.266
378.58	4.964
378.94	3.802
379.30	4.002
379.66	4.275
380.02	3.930
380.38	3.630
380.74	4.325
381.09	3.914
381.45	4.046
381.81	3.428
382.17	3.663
382.53	4.139
382.89	3.666
383.25	4.085
383.61	3.977
383.97	4.199
384.32	4.039
384.68	5.051
385.04	4.220
385.40	4.270
385.76	3.862
386.12	4.082
386.48	3.891
386.83	4.156
387.19	4.711
387.55	3.887
387.91	4.619
388.27	4.581
388.62	4.695
388.98	4.431
389.34	3.629
389.70	3.715
390.06	3.902
390.42	4.380
390.77	3.563
391.13	4.466
391.49	4.356
391.85	4.738
392.20	4.410
392.56	4.600
392.92	4.099
393.28	3.700
393.64	3.612
393.99	4.268
394.35	4.179
394.71	4.463
395.07	4.745
395.42	3.630
395.78	4.812
396.14	5.482
396.50	4.332
396.85	4.146
397.21	4.994
397.57	3.825
397.92	3.466
398.28	3.640
398.64	4.654
399.00	3.688
399.35	3.596
399.71	3.587
400.07	3.938
400.42	4.060
400.78	3.812
401.14	4.110
401.49	4.435
401.85	4.809
402.21	4.452
402.57	4.010
402.92	4.606
403.28	3.580
403.63	4.179
403.99	3.679
404.35	4.807
404.70	4.784
405.06	4.155
405.42	4.249
405.77	3.473
406.13	4.664
406.49	4.207
406.84	3.948
407.20	3.995
407.55	4.246
407.91	4.212
408.27	4.124
408.62	4.494
408.98	4.199
409.34	4.091
409.69	4.045
410.05	4.114
410.40	3.475
410.76	3.492
411.11	3.851
411.47	4.136
411.83	3.925
412.18	3.744
412.54	3.784
412.89	3.363
413.25	4.447
413.60	4.089
413.96	4.069
414.31	4.132
414.67	4.407
415.03	3.768
415.38	4.290
415.74	3.411
416.09	3.998
416.45	5.042
416.80	4.490
417.16	3.947
417.51	5.032
417.87	4.631
418.22	4.739
418.58	3.885
418.93	4.045
419.29	3.081
419.64	4.300
420.00	4.654
420.35	4.239
420.71	4.317
421.06	3.178
421.42	4.088
421.77	4.775
422.12	3.638
422.48	4.109
422.83	4.576
423.19	3.348
423.54	3.620
423.90	4.417
424.25	3.357
424.61	4.005
424.96	4.009
425.31	4.324
425.67	3.704
426.02	4.487
426.38	3.151
426.73	3.239
427.09	4.211
427.44	4.108
427.79	3.373
428.15	3.830
428.50	4.686
428.85	4.586
429.21	3.890
429.56	4.487
429.92	3.879
430.27	3.628
430.62	3.818
430.98	4.042
431.33	3.024
431.68	3.012
432.04	3.880
432.39	4.061
432.74	4.098
433.10	3.821
433.45	4.078
433.80	4.357
434.16	3.731
434.51	3.767
434.86	4.137
435.22	3.458
435.57	3.794
435.92	3.813
436.28	4.032
436.63	4.700
436.98	3.998
437.34	4.338
437.69	3.303
438.04	4.355
438.39	4.145
438.75	3.563
439.10	3.832
439.45	4.014
439.81	3.644
440.16	4.128
440.51	3.547
440.86	4.274
441.22	3.680
441.57	3.727
441.92	3.899
442.27	3.144
442.63	3.963
442.98	3.394
443.33	3.856
443.68	3.974
444.03	3.629
444.39	3.625
444.74	3.986
445.09	3.528
445.44	3.719
445.79	3.314
446.15	4.000
446.50	4.061
446.85	3.586
447.20	2.935
447.55	3.317
447.91	4.582
448.26	4.473
448.61	4.533
448.96	4.575
449.31	3.850
449.66	3.821
450.02	3.512
450.37	4.109
450.72	3.912
451.07	4.828
451.42	3.912
451.77	4.009
452.12	4.424
452.47	4.921
452.83	3.831
453.18	4.144
453.53	3.967
453.88	4.914
454.23	5.404
454.58	4.545
454.93	4.353
455.28	4.529
455.63	4.374
455.98	4.061
456.34	4.255
456.69	4.085
457.04	4.296
457.39	3.657
457.74	4.673
458.09	3.762
458.44	4.326
458.79	4.297
459.14	2.946
459.49	4.983
459.84	4.511
460.19	4.068
460.54	4.103
460.89	4.371
461.24	4.181
461.59	4.308
461.94	4.374
462.29	4.405
462.64	4.837
462.99	4.543
463.34	5.314
463.69	4.295
464.04	4.836
464.39	4.350
464.74	3.634
465.09	4.063
465.44	4.081
465.79	3.484
466.14	4.028
466.49	4.124
466.84	3.679
467.19	4.687
467.54	4.384
467.89	4.284
468.24	3.648
468.59	4.107
468.94	5.435
469.29	4.948
469.64	5.080
469.99	4.884
470.34	4.111
470.68	4.759
471.03	3.936
471.38	4.702
471.73	4.180
472.08	4.631
472.43	4.283
472.78	5.314
473.13	4.005
473.48	3.667
473.83	4.653
474.17	4.620
474.52	4.443
474.87	3.525
475.22	3.826
475.57	4.145
475.92	3.832
476.27	4.189
476.61	3.753
476.96	4.911
477.31	4.062
477.66	4.885
478.01	4.281
478.36	3.708
478.70	3.970
479.05	3.295
479.40	4.315
479.75	4.022
480.10	4.308
480.45	3.782
480.79	4.516
481.14	3.519
481.49	3.431
481.84	3.562
482.19	4.061
482.53	3.821
482.88	3.763
483.23	3.473
483.58	3.321
483.92	4.022
484.27	3.296
484.62	3.735
484.97	4.012
485.31	3.104
485.66	2.794
486.01	2.902
486.36	2.874
486.70	2.663
487.05	2.863
487.40	3.110
487.75	3.242
488.09	3.437
488.44	3.474
488.79	3.471
489.13	3.583
489.48	3.556
489.83	3.795
490.17	4.046
490.52	3.359
490.87	4.181
491.22	4.211
491.56	4.084
491.91	3.539
492.26	3.875
492.60	3.508
492.95	4.169
493.30	3.640
493.64	3.414
493.99	4.025
494.34	3.407
494.68	3.763
495.03	4.311
495.37	4.593
495.72	4.149
496.07	3.639
496.41	3.649
496.76	3.757
497.11	4.584
497.45	4.121
497.80	3.985
498.14	3.699
498.49	3.760
498.84	4.019
499.18	4.113
499.53	3.950
499.87	3.953
500.22	3.685
500.56	3.575
500.91	4.128
501.26	4.961
501.60	3.552
501.95	4.167
502.29	4.356
502.64	4.146
502.98	4.135
503.33	4.143
503.67	4.283
504.02	3.986
504.36	3.756
504.71	4.163
505.06	4.317
505.40	3.931
505.75	4.069
506.09	4.760
506.44	4.088
506.78	4.017
507.13	3.975
507.47	4.027
507.82	4.866
508.16	4.557
508.51	3.961
508.85	4.321
509.19	4.405
509.54	4.834
509.88	4.674
510.23	4.608
510.57	3.668
510.92	4.246
511.26	4.518
511.61	4.628
511.95	4.579
512.30	4.300
512.64	3.634
512.98	4.305
513.33	4.406
513.67	4.764
514.02	4.675
514.36	4.206
514.70	4.480
515.05	3.516
515.39	4.496
515.74	4.866
516.08	4.684
516.42	5.410
516.77	4.427
517.11	4.587
517.46	4.849
517.80	4.478
518.14	4.958
518.49	4.190
518.83	3.956
519.17	4.493
519.52	5.025
519.86	4.632
520.20	4.877
520.55	4.918
520.89	4.828
521.23	4.965
521.58	3.729
521.92	4.257
522.26	4.147
522.61	4.575
522.95	4.024
523.29	4.327
523.64	4.566
523.98	4.812
524.32	4.498
524.66	4.638
525.01	4.497
525.35	4.655
525.69	4.696
526.04	5.354
526.38	4.120
526.72	4.236
527.06	4.790
527.41	5.623
527.75	5.173
528.09	4.515
528.43	5.064
528.78	4.770
529.12	5.057
529.46	4.325
529.80	5.199
530.15	5.362
530.49	4.693
530.83	5.180
531.17	4.674
531.51	5.457
531.86	4.891
532.20	4.141
532.54	4.645
532.88	5.184
533.22	5.545
533.57	4.393
533.91	4.604
534.25	3.924
534.59	4.737
534.93	5.404
535.27	4.439
535.62	4.376
535.96	4.314
536.30	5.363
536.64	4.286
536.98	4.783
537.32	5.812
537.66	4.209
538.01	5.387
538.35	5.303
538.69	4.551
539.03	4.664
539.37	4.490
539.71	5.370
540.05	4.492
540.39	5.346
540.73	4.684
541.07	3.701
541.42	4.602
541.76	4.624
542.10	5.302
542.44	5.362
542.78	4.657
543.12	4.601
543.46	5.326
543.80	4.699
544.14	4.644
544.48	5.109
544.82	4.893
545.16	4.554
545.50	4.794
545.84	5.303
546.18	5.722
546.52	5.443
546.86	5.416
547.20	4.651
547.54	5.193
547.88	5.596
548.22	4.857
548.56	5.068
548.90	4.686
549.24	4.801
549.58	4.897
549.92	5.043
550.26	4.665
550.60	5.323
550.94	5.088
551.28	6.552
551.62	5.310
551.96	5.405
552.30	4.483
552.64	5.631
552.98	4.510
553.32	5.186
553.66	4.951
554.00	4.891
554.34	5.326
554.68	5.376
555.02	5.024
555.36	5.253
555.69	5.301
556.03	4.841
556.37	5.163
556.71	4.694
557.05	3.801
557.39	4.867
557.73	5.054
558.07	4.963
558.41	5.003
558.75	5.198
559.08	5.147
559.42	5.011
559.76	4.918
560.10	4.680
560.44	5.109
560.78	5.691
561.12	5.467
561.45	4.881
561.79	4.557
562.13	4.043
562.47	4.348
562.81	4.619
563.15	4.590
563.48	4.534
563.82	4.866
564.16	5.100
564.50	5.244
564.84	4.802
565.17	4.694
565.51	4.310
565.85	4.688
566.19	4.702
566.52	5.054
566.86	5.079
567.20	4.888
567.54	4.203
567.88	4.799
568.21	3.744
568.55	4.377
568.89	4.699
569.23	3.753
569.56	3.794
569.90	3.953
570.24	4.361
570.57	3.861
570.91	3.557
571.25	3.677
571.59	3.751
571.92	3.310
572.26	3.127
572.60	3.443
572.93	3.565
573.27	3.532
573.61	3.276
573.95	3.486
574.28	3.393
574.62	3.260
574.96	3.165
575.29	3.351
575.63	3.510
575.97	3.238
576.30	3.442
576.64	3.405
576.98	3.761
577.31	3.337
577.65	3.561
577.98	3.117
578.32	3.285
578.66	3.383
578.99	3.545
579.33	3.473
579.67	3.439
580.00	3.004
580.34	3.442
580.67	3.333
581.01	3.906
581.35	3.160
581.68	3.020
582.02	3.251
582.35	3.045
582.69	3.186
583.02	3.092
583.36	3.586
583.70	3.366
584.03	3.729
584.37	3.635
584.70	3.384
585.04	3.307
585.37	3.201
585.71	3.573
586.04	3.663
586.38	3.519
586.72	3.449
587.05	3.603
587.39	3.110
587.72	3.415
588.06	3.477
588.39	3.480
588.73	3.296
589.06	3.443
589.40	3.881
589.73	4.064
590.07	3.535
590.40	4.355
590.73	4.554
591.07	4.554
591.40	3.952
591.74	4.018
592.07	3.619
592.41	4.037
592.74	4.028
593.08	3.451
593.41	3.621
593.75	3.133
594.08	3.449
594.41	3.877
594.75	3.733
595.08	3.601
595.42	4.115
595.75	3.883
596.09	3.650
596.42	3.751
596.75	4.046
597.09	4.705
597.42	3.837
597.75	3.854
598.09	3.734
598.42	4.080
598.76	3.701
599.09	4.377
599.42	3.702
599.76	4.240
600.09	3.559
600.42	4.075
600.76	3.331
601.09	3.935
601.42	3.766
601.76	3.580
602.09	4.047
602.42	3.845
602.76	4.137
603.09	4.148
603.42	4.587
603.76	3.796
604.09	3.909
604.42	3.804
604.76	3.911
605.09	4.327
605.42	3.779
605.75	3.948
606.09	3.787
606.42	4.059
606.75	3.614
607.09	4.106
607.42	3.777
607.75	4.180
608.08	4.346
608.42	4.320
608.75	3.466
609.08	3.916
609.41	4.000
609.75	4.350
610.08	4.811
610.41	3.953
610.74	3.939
611.07	4.457
611.41	4.495
611.74	3.872
612.07	4.335
612.40	3.996
612.73	4.493
613.07	3.953
613.40	4.160
613.73	4.493
614.06	4.100
614.39	4.394
614.72	4.470
615.06	4.303
615.39	4.851
615.72	3.727
616.05	4.721
616.38	5.023
616.71	3.744
617.05	4.503
617.38	4.045
617.71	4.556
618.04	3.421
618.37	4.725
618.70	4.677
619.03	4.579
619.36	5.465
619.69	5.277
620.03	5.871
620.36	4.496
620.69	5.556
621.02	5.299
621.35	4.513
621.68	4.794
622.01	5.683
622.34	4.880
622.67	5.126
623.00	5.310
623.33	5.601
623.66	5.456
623.99	5.205
624.32	5.014
624.65	4.806
624.99	5.003
625.32	5.812
625.65	3.862
625.98	4.393
626.31	4.822
626.64	4.328
626.97	5.050
627.30	4.814
627.63	6.750
627.96	5.321
628.29	5.446
628.62	5.218
628.95	5.319
629.28	6.836
629.61	5.009
629.94	5.532
630.26	6.759
630.59	6.826
630.92	5.291
631.25	5.712
631.58	5.689
631.91	6.089
632.24	5.539
632.57	5.108
632.90	5.694
633.23	6.401
633.56	6.849
633.89	7.181
634.22	6.459
634.55	5.914
634.88	8.215
635.20	7.175
635.53	6.504
635.86	7.271
636.19	6.734
636.52	6.162
636.85	6.257
637.18	7.259
637.51	5.922
637.83	5.378
638.16	7.620
638.49	5.868
638.82	6.925
639.15	6.345
639.48	7.109
639.81	6.227
640.13	7.239
640.46	7.712
640.79	6.892
641.12	6.299
641.45	7.374
641.77	7.398
642.10	7.095
642.43	7.681
642.76	7.102
643.09	6.916
643.41	8.275
643.74	9.353
644.07	7.817
644.40	7.988
644.73	9.009
645.05	8.618
645.38	8.270
645.71	8.801
646.04	11.298
646.36	6.886
646.69	6.720
647.02	8.640
647.35	8.346
647.67	8.590
648.00	8.958
648.33	8.271
648.66	6.970
648.98	6.667
649.31	5.803
649.64	5.809
649.96	7.539
650.29	5.286
650.62	6.922
650.94	9.187
651.27	8.453
651.60	8.451
651.92	8.141
652.25	7.402
652.58	8.369
652.90	8.234
653.23	6.647
653.56	7.864
653.88	7.930
654.21	7.038
654.54	8.931
654.86	6.785
655.19	7.916
655.52	5.877
655.84	2.755
656.17	2.962
656.49	4.039
656.82	4.608
657.15	3.699
657.47	2.944
657.80	2.181
658.13	1.824
658.45	2.432
658.78	3.187
659.10	3.181
659.43	3.345
659.75	3.944
660.08	4.135
660.41	6.352
660.73	8.281
661.06	9.159
661.38	7.325
661.71	8.633
662.03	7.795
662.36	10.286
662.68	10.801
663.01	8.829
663.33	8.113
663.66	8.284
663.98	8.532
664.31	11.381
664.63	10.920
664.96	9.756
665.28	7.533
665.61	6.792
665.93	10.377
666.26	8.224
666.58	11.743
666.91	8.301
667.23	7.229
667.56	8.419
667.88	9.959
668.21	8.811
668.53	12.097
668.86	12.024
669.18	9.165
669.50	7.025
669.83	9.856
670.15	9.563
670.48	8.594
670.80	8.765
671.13	8.367
671.45	10.220
671.77	11.874
672.10	9.336
672.42	8.388
672.75	7.120
673.07	7.949
673.39	8.307
673.72	7.439
674.04	6.452
674.37	9.256
674.69	6.877
675.01	7.836
675.34	7.752
675.66	11.523
675.98	11.440
676.31	8.000
676.63	7.356
676.95	10.516
677.28	9.128
677.60	7.847
677.92	8.532
678.25	8.140
678.57	8.007
678.89	10.850
679.22	7.904
679.54	8.719
679.86	8.551
680.18	6.854
680.51	6.302
680.83	7.264
681.15	8.492
681.48	9.549
681.80	8.932
682.12	10.381
682.44	6.126
682.77	11.566
683.09	10.291
683.41	8.776
683.73	10.433
684.06	8.730
684.38	7.946
684.70	7.374
685.02	6.597
685.34	8.803
685.67	8.360
685.99	8.210
686.31	7.550
686.63	7.967
686.96	6.373
687.28	8.725
687.60	6.826
687.92	7.873
688.24	11.724
688.56	8.719
688.89	8.604
689.21	8.285
689.53	10.079
689.85	9.146
690.17	8.544
690.49	7.661
690.82	9.874
691.14	9.293
691.46	9.035
691.78	10.526
692.10	7.443
692.42	9.074
692.74	9.302
693.06	9.496
693.39	8.498
693.71	7.073
694.03	11.243
694.35	12.048
694.67	8.758
694.99	9.756
695.31	12.838
695.63	9.502
695.95	8.824
696.27	10.841
696.59	12.888
696.91	9.620
697.23	11.765
697.56	7.469
697.88	8.184
698.20	8.679
698.52	8.560
698.84	9.035
699.16	8.742
699.48	11.864
699.80	12.636
700.12	10.624
700.44	10.047
700.76	11.695
701.08	9.922
701.40	11.169
701.72	14.973
702.04	11.653
702.36	10.753
702.68	11.170
703.00	8.521
703.32	13.648
703.64	11.335
703.96	9.896
704.28	12.434
704.60	10.423
704.91	11.204
705.23	11.932
705.55	12.760
705.87	10.476
706.19	15.047
706.51	16.614
706.83	12.389
707.15	13.369
707.47	11.864
707.79	10.115
708.11	9.297
708.43	9.888
708.74	8.371
709.06	11.628
709.38	14.640
709.70	11.444
710.02	10.870
710.34	11.326
710.66	13.611
710.98	12.568
711.29	11.699
711.61	13.370
711.93	10.334
712.25	12.349
712.57	12.862
712.89	13.030
713.20	15.335
713.52	14.642
713.84	13.897
714.16	10.145
714.48	6.916
714.80	13.008
715.11	11.436
715.43	12.570
715.75	9.296
716.07	9.249
716.39	11.714
716.70	9.034
717.02	13.131
717.34	16.187
717.66	15.278
717.97	16.667
718.29	15.141
718.61	10.473
718.93	10.381
719.24	14.430
719.56	9.655
719.88	13.057
720.20	13.548
720.51	11.765
720.83	11.037
721.15	14.286
721.46	15.068
721.78	12.544
722.10	16.667
722.42	15.050
722.73	10.830
723.05	14.035
723.37	14.841
723.68	11.719
724.00	14.015
724.32	19.392
724.63	18.077
724.95	16.078
725.27	13.755
725.58	14.706
725.90	12.676
726.22	13.356
726.53	15.385
726.85	17.264
727.16	16.779
727.48	12.957
727.80	17.986
728.11	15.357
728.43	15.580
728.74	13.287
729.06	11.828
729.38	15.439
729.69	17.333
730.01	16.447
730.32	13.423
730.64	12.625
730.96	15.315
731.27	5.810
731.59	10.920
731.90	10.585
732.22	11.429
732.53	9.687
732.85	15.205
733.16	14.157
733.48	9.404
733.80	14.203
734.11	13.190
734.43	11.988
734.74	11.260
735.06	12.434
735.37	11.082
735.69	10.725
736.00	12.844
736.32	10.606
736.63	9.148
736.95	12.112
737.26	12.195
737.58	12.270
737.89	15.060
738.21	10.927
738.52	13.043
738.83	14.652
739.15	14.286
739.46	14.828
739.78	13.265
740.09	18.076
740.41	15.031
740.72	16.190
741.04	15.734
741.35	12.891
741.66	14.229
741.98	17.597
742.29	19.444
742.61	11.062
742.92	11.441
743.23	12.800
743.55	15.849
743.86	14.510
744.18	19.492
744.49	19.421
744.80	16.129
745.12	17.411
745.43	20.561
745.74	17.778
746.06	15.789
746.37	17.209
746.68	20.354
747.00	17.040
747.31	15.126
747.62	12.705
747.94	11.159
748.25	17.121
748.56	18.220
748.88	19.643
749.19	14.884
749.50	18.265
749.82	20.165
750.13	11.462
750.44	12.667
750.75	15.101
751.07	13.816
751.38	13.531
751.69	11.448
752.01	11.538
752.32	12.957
752.63	15.772
752.94	12.587
753.26	17.578
753.57	17.899
753.88	13.109
754.19	11.552
754.51	12.292
754.82	11.409
755.13	14.189
755.44	10.741
755.75	14.433
756.07	14.041
756.38	16.013
756.69	11.563
757.00	15.430
757.31	14.366
757.63	12.121
757.94	10.372
758.25	11.111
758.56	9.153
758.87	12.281
759.18	12.791
759.50	13.678
759.81	15.430
760.12	13.202
760.43	12.045
760.74	11.899
761.05	11.406
761.36	9.896
761.67	11.590
761.99	12.676
762.30	11.254
762.61	12.153
762.92	12.879
763.23	14.717
763.54	13.077
763.85	11.673
764.16	18.056
764.47	16.216
764.78	14.007
765.10	14.939
765.41	11.932
765.72	12.707
766.03	11.178
766.34	11.498
766.65	12.928
766.96	20.648
767.27	19.159
767.58	17.327
767.89	27.624
768.20	25.000
768.51	14.796
768.82	16.228
769.13	15.686
769.44	15.414
769.75	14.981
770.06	15.546
770.37	13.158
770.68	14.222
770.99	21.186
771.30	18.828
771.61	20.000
771.92	14.885
772.23	15.323
772.54	20.000
772.85	22.277
773.16	20.652
773.47	17.222
773.78	21.287
774.09	21.023
774.39	16.364
774.70	14.706
775.01	18.421
775.32	22.360
775.63	23.973
775.94	35.185
776.25	28.276
776.56	26.718
776.87	32.824
777.18	28.788
777.48	40.945
777.79	31.538
778.10	25.000
778.41	33.582
778.72	21.805
779.03	19.872
779.34	23.649
779.65	22.360
779.95	19.255
780.26	22.619
780.57	30.612
780.88	31.206
781.19	22.500
781.50	27.219
781.80	28.415
782.11	24.339
782.42	19.540
782.73	18.079
783.04	19.355
783.34	16.279
783.65	22.449
783.96	25.161
784.27	17.881
784.57	28.947
784.88	20.290
785.19	20.833
785.50	31.034
785.81	43.411
786.11	24.444
786.42	33.071
786.73	35.135
787.04	30.189
787.34	26.829
787.65	30.303
787.96	35.606
788.26	32.283
788.57	29.197
788.88	21.831
789.19	31.298
789.49	29.054
789.80	33.594
790.11	38.017
790.41	35.185
790.72	29.630
791.03	29.808
791.33	37.374
791.64	38.947
791.95	29.474
792.25	31.250
792.56	45.000
792.87	34.146
793.17	35.227
793.48	49.412
793.79	32.184
794.09	43.182
794.40	42.241
794.70	29.365
795.01	26.154
795.32	18.321
795.62	18.803
795.93	29.412
796.23	42.276
796.54	37.755
796.85	46.591
797.15	50.649
797.46	53.659
797.76	33.750
798.07	45.333
798.37	56.250
798.68	48.750
798.99	52.439
799.29	37.333
799.60	19.767
799.90	39.474
800.21	50.000
800.51	47.887
800.82	51.724
801.12	52.308
801.43	53.333
801.73	46.552
802.04	48.052
802.34	49.315
802.65	43.137
802.95	52.174
803.26	69.355
803.56	75.000
803.87	59.701
804.17	49.206
804.48	60.377
804.78	56.944
805.09	46.970
805.39	69.841
805.70	61.404
806.00	47.143
806.30	60.937
806.61	54.118
806.91	44.444
807.22	36.957
807.52	35.526
807.83	52.632
808.13	62.319
808.43	58.065
808.74	43.836
809.04	51.786
809.35	70.588
809.65	62.121
809.95	60.784
810.26	79.630
810.56	59.375
810.86	53.061
811.17	56.140
811.47	32.609
811.77	72.414
812.08	39.655
812.38	69.048
812.69	66.667
812.99	46.667
813.29	65.714
813.59	106.452
813.90	63.793
814.20	68.852
814.50	64.000
814.81	52.632
815.11	85.185
815.41	46.429
815.72	66.071
816.02	88.000
816.32	80.488
816.62	68.966
816.93	90.909
817.23	97.561
817.53	80.357
817.84	68.889
818.14	78.571
818.44	60.417
818.74	79.245
819.04	84.615
819.35	84.848
819.65	86.538
819.95	94.444
820.25	93.617
820.56	94.595
820.86	78.947
821.16	61.702
821.46	89.474
821.76	90.909
822.07	80.952
822.37	97.368
822.67	106.977
822.97	55.263
823.27	100.000
823.57	118.750
823.88	64.103
824.18	75.758
824.48	108.696
824.78	100.000
825.08	104.348
825.38	127.586
825.69	105.882
825.99	76.596
826.29	61.111
826.59	80.000
826.89	123.333
827.19	85.714
827.49	122.581
827.79	130.769
828.09	59.524
828.39	72.222
828.70	72.973
829.00	150.000
829.30	175.000
829.60	86.111
829.90	103.226
830.20	106.061
830.50	89.189
830.80	116.667
831.10	119.231
831.40	142.857
831.70	158.333
832.00	80.000
832.30	108.696
832.60	154.167
832.90	124.242
833.20	215.000
833.50	97.368
833.80	111.765
834.10	123.684
834.40	121.053
834.70	96.667
835.00	172.000
835.30	97.297
835.60	106.250
835.90	110.811
836.20	130.769
836.50	131.818
836.80	92.683
837.10	95.652
837.40	315.385
837.70	126.316
838.00	133.333
838.30	137.500
838.60	168.000
838.90	300.000
839.19	231.250
839.49	126.667
839.79	89.655
840.09	119.231
840.39	180.000
840.69	189.474
840.99	123.810
841.29	130.435
841.59	185.000
841.88	116.000
842.18	266.667
842.48	157.143
842.78	148.148
843.08	223.077
843.38	154.545
843.68	200.000
843.97	442.857
844.27	169.565
844.57	950.000
844.87	271.429
845.17	216.667
845.47	123.810
845.76	141.667
846.06	500.000
846.36	158.824
846.66	307.692
846.96	212.500
847.25	261.538
847.55	184.211
847.85	172.222
848.15	640.000
848.44	281.818
848.74	142.857
849.04	200.000
849.34	152.941
849.63	250.000
849.93	218.750
850.23	933.333
850.53	337.500
850.82	190.909
851.12	147.059
851.42	154.167
851.71	168.750
852.01	0.000
852.31	223.529
852.61	320.000
852.90	133.333
853.20	311.111
853.50	-2100.000
853.79	152.000
854.09	134.375
854.39	113.793
854.68	131.034
854.98	161.905
855.28	112.903
855.57	271.429
855.87	183.333
856.17	88.889
856.46	173.684
856.76	119.355
857.05	211.765
857.35	263.636
857.65	192.308
857.94	155.000
858.24	366.667
858.53	250.000
858.83	485.714
859.13	126.087
859.42	266.667
859.72	325.000
860.01	325.000
860.31	850.000
860.60	280.000
860.90	500.000
861.20	230.769
861.49	400.000
861.79	-3700.000
862.08	442.857
862.38	288.889
862.67	214.286
862.97	340.000
863.26	143.333
863.56	600.000
863.85	261.538
864.15	235.294
864.44	177.778
864.74	350.000
865.03	390.909
865.33	350.000
865.62	220.000
865.92	416.667
866.21	875.000
866.51	440.000
866.80	211.111
867.10	700.000
867.39	3500.000
867.69	700.000
867.98	750.000
868.27	195.238
868.57	246.667
868.86	800.000
869.16	142.857
869.45	2700.000
869.75	-500.000
870.04	800.000
870.33	620.000
870.63	400.000
870.92	229.412
871.22	650.000
871.51	557.143
871.80	358.333
872.10	330.769
>>>>>End Processed Spectral Data<<<<<
