SpectraSuite Data File
++++++++++++++++++++++++++++++++++++
Date: Tue May 12 17:24:14 PDT 2015
User: schluterlab
Dark Spectrum Present: Yes
Reference Spectrum Present: Yes
Number of Sampled Component Spectra: 1
Spectrometers: USB2E3373
Integration Time (usec): 3000 (USB2E3373)
Spectra Averaged: 3 (USB2E3373)
Boxcar Smoothing: 0 (USB2E3373)
Correct for Electrical Dark: No (USB2E3373)
Strobe/Lamp Enabled: No (USB2E3373)
Correct for Detector Non-linearity: No (USB2E3373)
Correct for Stray Light: No (USB2E3373)
Number of Pixels in Processed Spectrum: 2048
>>>>>Begin Processed Spectral Data<<<<<
178.53	0.000
178.91	-225.000
179.29	-750.000
179.67	-3800.000
180.04	-113.333
180.42	725.000
180.80	1550.000
181.18	0.000
181.56	-350.000
181.94	0.000
182.31	766.667
182.69	-3000.000
183.07	514.286
183.45	-2900.000
183.83	-1650.000
184.20	280.000
184.58	342.857
184.96	-253.846
185.34	-216.667
185.72	1550.000
186.09	-700.000
186.47	-2800.000
186.85	1000.000
187.23	620.000
187.61	1650.000
187.98	525.000
188.36	300.000
188.74	325.000
189.12	275.000
189.49	1125.000
189.87	0.000
190.25	475.000
190.63	3100.000
191.00	-175.000
191.38	-3800.000
191.76	-425.000
192.14	512.500
192.51	-3000.000
192.89	2100.000
193.27	966.667
193.65	-1066.667
194.02	-740.000
194.40	485.714
194.78	-250.000
195.15	206.667
195.53	-3900.000
195.91	-560.000
196.29	4300.000
196.66	206.250
197.04	850.000
197.42	-1850.000
197.79	800.000
198.17	291.667
198.55	0.000
198.92	500.000
199.30	1033.333
199.68	2200.000
200.05	633.333
200.43	-400.000
200.81	227.778
201.18	2900.000
201.56	233.333
201.94	-850.000
202.31	-250.000
202.69	-520.000
203.07	2900.000
203.44	-566.667
203.82	300.000
204.19	600.000
204.57	-1150.000
204.95	-725.000
205.32	-820.000
205.70	466.667
206.08	775.000
206.45	-966.667
206.83	400.000
207.20	210.526
207.58	325.000
207.96	860.000
208.33	0.000
208.71	600.000
209.08	740.000
209.46	-2800.000
209.84	-1100.000
210.21	860.000
210.59	-660.000
210.96	208.333
211.34	-925.000
211.71	290.909
212.09	925.000
212.46	1400.000
212.84	-466.667
213.22	433.333
213.59	-3400.000
213.97	350.000
214.34	850.000
214.72	1333.333
215.09	1166.667
215.47	-3500.000
215.84	-320.000
216.22	-525.000
216.59	0.000
216.97	0.000
217.34	1250.000
217.72	-1750.000
218.09	1166.667
218.47	437.500
218.84	750.000
219.22	1133.333
219.59	1166.667
219.97	542.857
220.34	355.556
220.72	1900.000
221.09	3600.000
221.47	333.333
221.84	933.333
222.22	370.000
222.59	238.889
222.97	221.429
223.34	262.500
223.72	-1650.000
224.09	1133.333
224.46	261.538
224.84	-625.000
225.21	433.333
225.59	340.000
225.96	1066.667
226.34	-680.000
226.71	-775.000
227.08	-580.000
227.46	0.000
227.83	-633.333
228.21	-2050.000
228.58	333.333
228.95	1050.000
229.33	344.444
229.70	1150.000
230.08	376.923
230.45	3700.000
230.82	-800.000
231.20	-1266.667
231.57	-1166.667
231.95	620.000
232.32	316.667
232.69	616.667
233.07	291.667
233.44	-1650.000
233.81	266.667
234.19	174.074
234.56	206.250
234.93	200.000
235.31	185.000
235.68	331.250
236.05	178.571
236.43	192.593
236.80	285.714
237.17	213.793
237.55	134.375
237.92	135.000
238.29	190.909
238.67	175.000
239.04	126.829
239.41	95.833
239.79	137.500
240.16	122.917
240.53	104.918
240.91	91.304
241.28	122.034
241.65	95.455
242.02	108.451
242.40	114.286
242.77	83.516
243.14	97.468
243.51	97.980
243.89	82.243
244.26	84.112
244.63	86.139
245.00	78.899
245.38	85.593
245.75	76.515
246.12	88.889
246.49	73.759
246.87	74.590
247.24	75.333
247.61	73.125
247.98	81.633
248.36	74.545
248.73	67.347
249.10	72.024
249.47	67.500
249.84	74.627
250.22	77.838
250.59	74.500
250.96	64.979
251.33	70.233
251.70	68.304
252.08	70.588
252.45	67.729
252.82	64.259
253.19	64.822
253.56	62.308
253.94	63.043
254.31	67.442
254.68	66.899
255.05	67.586
255.42	67.153
255.79	66.450
256.16	73.220
256.54	69.481
256.91	66.993
257.28	70.234
257.65	59.561
258.02	63.422
258.39	63.037
258.76	64.638
259.14	63.429
259.51	65.598
259.88	68.085
260.25	57.692
260.62	66.027
260.99	61.708
261.36	62.117
261.73	64.894
262.10	67.277
262.47	58.250
262.85	63.733
263.22	64.781
263.59	63.939
263.96	63.659
264.33	60.988
264.70	64.128
265.07	61.707
265.44	61.697
265.81	62.500
266.18	64.073
266.55	59.102
266.92	61.298
267.29	63.377
267.66	60.090
268.03	63.901
268.40	61.099
268.77	61.674
269.14	60.954
269.51	59.243
269.88	58.980
270.25	58.531
270.62	62.876
270.99	61.866
271.36	60.569
271.73	59.748
272.10	59.394
272.47	60.913
272.84	60.279
273.21	59.711
273.58	60.121
273.95	63.655
274.32	60.311
274.69	61.024
275.06	59.199
275.43	56.705
275.80	58.113
276.17	56.801
276.54	60.000
276.91	63.246
277.28	59.307
277.65	59.041
278.02	58.824
278.39	57.554
278.76	56.207
279.13	59.609
279.50	57.273
279.87	58.101
280.23	56.906
280.60	60.219
280.97	60.690
281.34	58.746
281.71	57.565
282.08	56.752
282.45	57.770
282.82	57.358
283.19	55.962
283.56	56.033
283.92	58.632
284.29	56.240
284.66	55.126
285.03	57.546
285.40	55.702
285.77	55.556
286.14	54.799
286.51	53.528
286.87	53.956
287.24	53.604
287.61	54.711
287.98	52.388
288.35	52.000
288.72	51.442
289.08	53.453
289.45	55.183
289.82	52.344
290.19	51.098
290.56	52.693
290.93	51.079
291.29	49.309
291.66	50.989
292.03	51.473
292.40	46.612
292.77	50.000
293.13	48.930
293.50	48.583
293.87	45.528
294.24	49.510
294.60	47.914
294.97	49.371
295.34	47.809
295.71	46.518
296.08	44.933
296.44	46.506
296.81	46.278
297.18	43.853
297.55	44.828
297.91	43.350
298.28	44.928
298.65	43.190
299.02	43.908
299.38	44.125
299.75	43.902
300.12	42.431
300.48	44.379
300.85	44.219
301.22	43.605
301.59	42.335
301.95	41.424
302.32	43.423
302.69	43.439
303.05	44.332
303.42	41.256
303.79	42.579
304.15	42.574
304.52	41.226
304.89	42.004
305.25	42.492
305.62	41.258
305.99	41.522
306.35	41.895
306.72	41.831
307.09	41.718
307.45	42.555
307.82	41.461
308.19	42.062
308.55	41.200
308.92	43.180
309.29	43.097
309.65	42.121
310.02	44.118
310.38	42.772
310.75	40.887
311.12	41.284
311.48	43.533
311.85	43.225
312.22	45.654
312.58	43.732
312.95	43.689
313.31	43.352
313.68	43.715
314.05	45.238
314.41	45.810
314.78	45.739
315.14	46.825
315.51	47.304
315.87	45.803
316.24	47.526
316.61	45.927
316.97	46.881
317.34	47.889
317.70	47.147
318.07	49.733
318.43	50.264
318.80	49.912
319.16	50.962
319.53	50.177
319.89	52.509
320.26	56.704
320.62	53.022
320.99	53.384
321.35	54.917
321.72	56.546
322.08	56.971
322.45	57.312
322.81	58.554
323.18	59.414
323.54	60.192
323.91	63.101
324.27	61.627
324.64	62.803
325.00	64.052
325.37	64.418
325.73	65.683
326.10	67.191
326.46	66.722
326.83	66.800
327.19	70.442
327.56	69.569
327.92	72.049
328.29	72.422
328.65	74.058
329.01	73.909
329.38	73.181
329.74	73.954
330.11	76.021
330.47	77.835
330.84	75.065
331.20	75.719
331.56	79.188
331.93	77.759
332.29	76.616
332.66	78.571
333.02	78.265
333.38	79.319
333.75	79.650
334.11	77.685
334.48	80.598
334.84	76.774
335.20	78.614
335.57	79.849
335.93	79.310
336.29	77.612
336.66	81.046
337.02	80.496
337.38	80.482
337.75	80.574
338.11	80.928
338.47	80.694
338.84	80.102
339.20	80.087
339.56	79.563
339.93	77.676
340.29	78.151
340.65	81.056
341.02	79.405
341.38	79.064
341.74	81.561
342.11	81.803
342.47	78.917
342.83	83.511
343.20	79.547
343.56	79.666
343.92	81.916
344.28	80.861
344.65	81.826
345.01	80.873
345.37	80.288
345.73	79.683
346.10	79.761
346.46	82.775
346.82	79.552
347.19	81.066
347.55	80.718
347.91	78.852
348.27	80.558
348.63	81.804
349.00	80.579
349.36	81.946
349.72	80.963
350.08	82.298
350.45	81.417
350.81	80.963
351.17	81.125
351.53	79.908
351.89	82.517
352.26	80.952
352.62	82.428
352.98	81.212
353.34	81.741
353.70	80.887
354.07	82.000
354.43	80.722
354.79	79.499
355.15	83.231
355.51	80.363
355.87	81.024
356.24	82.833
356.60	80.213
356.96	81.653
357.32	79.653
357.68	80.396
358.04	82.067
358.40	81.109
358.77	81.893
359.13	82.658
359.49	80.430
359.85	80.715
360.21	79.866
360.57	81.752
360.93	81.746
361.29	82.179
361.66	82.699
362.02	79.616
362.38	81.385
362.74	82.095
363.10	81.697
363.46	79.144
363.82	80.435
364.18	82.432
364.54	83.119
364.90	81.325
365.26	81.749
365.62	81.215
365.98	81.555
366.35	80.897
366.71	81.194
367.07	81.843
367.43	79.852
367.79	80.851
368.15	80.868
368.51	81.737
368.87	80.842
369.23	82.328
369.59	80.850
369.95	81.259
370.31	81.588
370.67	81.194
371.03	81.232
371.39	80.817
371.75	82.275
372.11	79.946
372.47	82.192
372.83	83.549
373.19	81.289
373.55	80.481
373.91	80.525
374.27	80.688
374.63	82.237
374.99	81.199
375.35	82.124
375.71	80.739
376.07	81.499
376.42	79.348
376.78	83.237
377.14	83.552
377.50	80.961
377.86	82.191
378.22	81.231
378.58	82.506
378.94	81.171
379.30	81.747
379.66	81.156
380.02	80.938
380.38	82.670
380.74	82.065
381.09	82.009
381.45	80.751
381.81	81.324
382.17	80.342
382.53	80.864
382.89	80.544
383.25	81.231
383.61	80.058
383.97	81.104
384.32	81.917
384.68	81.937
385.04	79.601
385.40	81.020
385.76	79.462
386.12	81.880
386.48	81.337
386.83	81.235
387.19	81.272
387.55	81.508
387.91	80.889
388.27	81.678
388.62	80.282
388.98	79.883
389.34	80.250
389.70	81.545
390.06	80.549
390.42	80.814
390.77	79.853
391.13	82.016
391.49	79.189
391.85	80.800
392.20	78.546
392.56	79.749
392.92	78.271
393.28	81.390
393.64	81.422
393.99	80.202
394.35	79.341
394.71	79.614
395.07	79.805
395.42	79.157
395.78	80.074
396.14	80.783
396.50	79.904
396.85	78.171
397.21	80.144
397.57	80.036
397.92	79.145
398.28	79.812
398.64	77.836
399.00	78.781
399.35	78.798
399.71	78.146
400.07	79.338
400.42	78.687
400.78	80.059
401.14	78.391
401.49	78.629
401.85	78.100
402.21	76.743
402.57	77.678
402.92	78.303
403.28	78.222
403.63	77.045
403.99	79.131
404.35	77.608
404.70	78.559
405.06	76.249
405.42	78.037
405.77	75.744
406.13	75.651
406.49	77.942
406.84	75.353
407.20	77.169
407.55	77.785
407.91	77.345
408.27	77.259
408.62	77.292
408.98	76.878
409.34	76.330
409.69	76.042
410.05	75.313
410.40	75.795
410.76	75.959
411.11	76.955
411.47	75.309
411.83	74.985
412.18	76.570
412.54	75.676
412.89	74.749
413.25	75.770
413.60	74.241
413.96	74.985
414.31	76.092
414.67	76.350
415.03	76.437
415.38	75.962
415.74	76.500
416.09	75.703
416.45	77.569
416.80	75.561
417.16	75.175
417.51	74.713
417.87	76.533
418.22	76.306
418.58	77.389
418.93	74.123
419.29	74.923
419.64	74.621
420.00	74.403
420.35	76.016
420.71	74.096
421.06	75.221
421.42	75.187
421.77	76.069
422.12	74.366
422.48	74.268
422.83	74.275
423.19	74.190
423.54	73.341
423.90	75.028
424.25	74.188
424.61	73.651
424.96	74.591
425.31	74.220
425.67	75.084
426.02	74.762
426.38	74.271
426.73	75.304
427.09	74.318
427.44	73.438
427.79	73.299
428.15	75.486
428.50	75.143
428.85	73.604
429.21	72.880
429.56	72.134
429.92	72.999
430.27	73.053
430.62	71.561
430.98	71.956
431.33	72.329
431.68	72.346
432.04	71.288
432.39	73.930
432.74	74.005
433.10	73.754
433.45	74.153
433.80	75.179
434.16	73.095
434.51	73.529
434.86	73.435
435.22	73.744
435.57	72.851
435.92	74.047
436.28	74.942
436.63	73.474
436.98	74.212
437.34	71.975
437.69	72.116
438.04	72.742
438.39	72.796
438.75	71.158
439.10	72.369
439.45	70.661
439.81	72.354
440.16	72.812
440.51	71.227
440.86	74.302
441.22	71.212
441.57	71.969
441.92	72.606
442.27	71.907
442.63	71.951
442.98	70.420
443.33	71.505
443.68	71.831
444.03	71.018
444.39	71.940
444.74	70.859
445.09	70.879
445.44	72.051
445.79	71.589
446.15	70.947
446.50	70.992
446.85	72.161
447.20	70.398
447.55	70.854
447.91	70.751
448.26	70.607
448.61	71.752
448.96	71.950
449.31	71.067
449.66	71.539
450.02	70.016
450.37	71.904
450.72	71.295
451.07	70.157
451.42	70.184
451.77	72.279
452.12	70.164
452.47	71.628
452.83	70.592
453.18	70.511
453.53	71.166
453.88	70.857
454.23	69.727
454.58	70.163
454.93	69.344
455.28	71.909
455.63	71.454
455.98	69.938
456.34	70.760
456.69	71.341
457.04	70.823
457.39	70.800
457.74	70.270
458.09	68.782
458.44	67.251
458.79	69.708
459.14	69.831
459.49	69.592
459.84	69.402
460.19	68.305
460.54	69.459
460.89	69.616
461.24	67.869
461.59	69.274
461.94	69.149
462.29	69.165
462.64	69.347
462.99	68.458
463.34	68.503
463.69	68.966
464.04	68.912
464.39	68.632
464.74	67.175
465.09	68.195
465.44	68.226
465.79	67.937
466.14	66.720
466.49	67.824
466.84	67.559
467.19	68.717
467.54	68.048
467.89	67.723
468.24	69.021
468.59	67.500
468.94	68.297
469.29	67.624
469.64	68.617
469.99	67.352
470.34	67.489
470.68	66.276
471.03	68.312
471.38	67.616
471.73	68.256
472.08	69.537
472.43	68.281
472.78	68.374
473.13	66.834
473.48	66.687
473.83	66.372
474.17	66.505
474.52	65.521
474.87	65.833
475.22	66.305
475.57	64.690
475.92	65.815
476.27	64.853
476.61	66.059
476.96	65.831
477.31	66.221
477.66	68.009
478.01	66.013
478.36	66.478
478.70	64.715
479.05	66.632
479.40	65.427
479.75	66.584
480.10	65.440
480.45	65.266
480.79	65.300
481.14	65.097
481.49	64.181
481.84	63.940
482.19	64.498
482.53	64.822
482.88	64.740
483.23	64.456
483.58	65.664
483.92	64.808
484.27	64.127
484.62	64.134
484.97	63.265
485.31	62.121
485.66	61.439
486.01	60.863
486.36	60.168
486.70	60.233
487.05	60.406
487.40	60.565
487.75	61.100
488.09	60.824
488.44	62.046
488.79	61.958
489.13	62.374
489.48	63.084
489.83	62.636
490.17	61.561
490.52	64.126
490.87	63.362
491.22	63.298
491.56	63.417
491.91	62.455
492.26	62.851
492.60	64.009
492.95	62.347
493.30	62.875
493.64	62.534
493.99	61.628
494.34	62.214
494.68	63.391
495.03	62.910
495.37	61.909
495.72	62.238
496.07	61.635
496.41	61.599
496.76	61.714
497.11	62.382
497.45	61.903
497.80	61.770
498.14	61.535
498.49	61.467
498.84	62.056
499.18	60.558
499.53	61.415
499.87	62.040
500.22	61.492
500.56	61.978
500.91	62.384
501.26	60.864
501.60	61.248
501.95	61.201
502.29	61.289
502.64	60.256
502.98	60.071
503.33	61.203
503.67	59.912
504.02	59.875
504.36	60.679
504.71	61.116
505.06	60.113
505.40	59.569
505.75	60.056
506.09	60.056
506.44	60.902
506.78	61.342
507.13	61.415
507.47	59.534
507.82	61.849
508.16	61.489
508.51	60.773
508.85	60.969
509.19	60.744
509.54	60.986
509.88	60.318
510.23	59.118
510.57	59.073
510.92	61.289
511.26	61.044
511.61	59.527
511.95	59.233
512.30	59.000
512.64	60.384
512.98	60.277
513.33	60.400
513.67	59.865
514.02	58.182
514.36	59.398
514.70	60.320
515.05	59.350
515.39	61.458
515.74	61.126
516.08	60.621
516.42	62.240
516.77	59.893
517.11	59.200
517.46	60.129
517.80	59.366
518.14	60.169
518.49	59.978
518.83	59.066
519.17	59.956
519.52	60.131
519.86	59.837
520.20	59.890
520.55	59.356
520.89	59.598
521.23	60.923
521.58	58.864
521.92	59.417
522.26	60.190
522.61	59.418
522.95	61.562
523.29	61.170
523.64	59.249
523.98	59.859
524.32	60.092
524.66	58.609
525.01	59.053
525.35	58.456
525.69	60.265
526.04	59.072
526.38	58.152
526.72	59.845
527.06	58.309
527.41	60.339
527.75	60.560
528.09	57.736
528.43	58.694
528.78	58.795
529.12	59.663
529.46	58.036
529.80	58.061
530.15	58.928
530.49	58.604
530.83	58.196
531.17	59.225
531.51	59.227
531.86	57.911
532.20	58.529
532.54	59.071
532.88	58.651
533.22	58.745
533.57	59.549
533.91	57.517
534.25	56.780
534.59	58.655
534.93	56.769
535.27	56.175
535.62	55.951
535.96	56.442
536.30	58.623
536.64	58.075
536.98	57.206
537.32	58.188
537.66	57.462
538.01	57.214
538.35	58.141
538.69	57.039
539.03	56.281
539.37	56.978
539.71	56.481
540.05	57.169
540.39	56.541
540.73	57.532
541.07	57.152
541.42	56.592
541.76	56.412
542.10	56.843
542.44	57.357
542.78	55.947
543.12	55.031
543.46	55.451
543.80	56.266
544.14	56.966
544.48	55.839
544.82	56.391
545.16	54.038
545.50	56.238
545.84	55.745
546.18	57.997
546.52	57.705
546.86	56.802
547.20	55.491
547.54	55.478
547.88	55.657
548.22	56.102
548.56	54.213
548.90	54.330
549.24	55.022
549.58	56.314
549.92	55.861
550.26	57.539
550.60	54.957
550.94	57.531
551.28	56.414
551.62	57.724
551.96	55.743
552.30	54.384
552.64	55.210
552.98	56.250
553.32	55.250
553.66	54.267
554.00	55.470
554.34	56.325
554.68	54.772
555.02	55.737
555.36	54.654
555.69	54.777
556.03	54.331
556.37	54.238
556.71	56.128
557.05	54.194
557.39	55.600
557.73	55.323
558.07	55.667
558.41	55.860
558.75	55.882
559.08	56.755
559.42	56.979
559.76	55.952
560.10	54.233
560.44	53.816
560.78	55.563
561.12	54.164
561.45	53.254
561.79	53.059
562.13	53.948
562.47	55.289
562.81	54.847
563.15	53.782
563.48	52.547
563.82	55.583
564.16	54.291
564.50	52.321
564.84	53.556
565.17	52.466
565.51	55.049
565.85	54.411
566.19	53.571
566.52	53.851
566.86	53.415
567.20	53.371
567.54	53.930
567.88	53.521
568.21	52.671
568.55	52.091
568.89	51.551
569.23	51.769
569.56	51.717
569.90	50.054
570.24	50.562
570.57	50.454
570.91	48.799
571.25	49.021
571.59	48.928
571.92	48.251
572.26	48.652
572.60	48.431
572.93	49.971
573.27	49.081
573.61	49.459
573.95	49.029
574.28	48.861
574.62	48.160
574.96	47.333
575.29	47.725
575.63	47.609
575.97	47.274
576.30	48.089
576.64	47.945
576.98	47.922
577.31	48.735
577.65	47.772
577.98	47.643
578.32	47.757
578.66	47.589
578.99	47.409
579.33	47.564
579.67	47.357
580.00	47.283
580.34	47.519
580.67	47.114
581.01	47.773
581.35	47.386
581.68	47.450
582.02	47.366
582.35	47.047
582.69	47.031
583.02	47.051
583.36	47.901
583.70	47.729
584.03	48.372
584.37	48.258
584.70	47.450
585.04	46.895
585.37	47.475
585.71	48.045
586.04	46.846
586.38	46.972
586.72	47.104
587.05	47.324
587.39	47.130
587.72	47.548
588.06	47.480
588.39	47.416
588.73	47.262
589.06	47.739
589.40	47.668
589.73	48.345
590.07	49.108
590.40	48.293
590.73	49.651
591.07	49.108
591.40	48.663
591.74	48.458
592.07	48.211
592.41	48.721
592.74	48.114
593.08	47.754
593.41	47.876
593.75	46.764
594.08	47.706
594.41	47.214
594.75	47.397
595.08	47.428
595.42	48.124
595.75	47.187
596.09	48.071
596.42	47.706
596.75	48.718
597.09	48.906
597.42	47.265
597.75	48.114
598.09	46.943
598.42	47.572
598.76	47.494
599.09	48.290
599.42	47.197
599.76	47.151
600.09	46.508
600.42	47.341
600.76	47.349
601.09	47.497
601.42	46.603
601.76	46.975
602.09	47.204
602.42	46.617
602.76	47.324
603.09	48.115
603.42	47.743
603.76	47.072
604.09	47.159
604.42	46.478
604.76	47.096
605.09	46.000
605.42	47.582
605.75	47.217
606.09	47.169
606.42	46.298
606.75	47.377
607.09	46.940
607.42	46.926
607.75	46.935
608.08	46.913
608.42	46.644
608.75	46.170
609.08	46.282
609.41	47.773
609.75	47.619
610.08	46.987
610.41	47.650
610.74	46.623
611.07	48.113
611.41	48.146
611.74	47.945
612.07	48.170
612.40	48.635
612.73	48.427
613.07	47.897
613.40	48.622
613.73	47.529
614.06	46.050
614.39	48.182
614.72	47.464
615.06	47.379
615.39	47.030
615.72	46.757
616.05	47.212
616.38	46.017
616.71	46.989
617.05	47.721
617.38	47.753
617.71	48.763
618.04	48.009
618.37	47.916
618.70	47.864
619.03	46.703
619.36	47.864
619.69	47.823
620.03	49.054
620.36	49.454
620.69	48.276
621.02	49.321
621.35	49.427
621.68	49.484
622.01	49.594
622.34	49.235
622.67	49.087
623.00	48.060
623.33	47.166
623.66	48.570
623.99	49.041
624.32	48.442
624.65	48.190
624.99	49.561
625.32	49.232
625.65	49.793
625.98	48.536
626.31	50.519
626.64	48.823
626.97	49.885
627.30	48.680
627.63	50.157
627.96	47.809
628.29	50.578
628.62	49.187
628.95	50.355
629.28	51.008
629.61	50.264
629.94	49.352
630.26	49.740
630.59	51.152
630.92	48.700
631.25	49.048
631.58	50.627
631.91	50.428
632.24	50.534
632.57	50.295
632.90	52.692
633.23	52.151
633.56	50.263
633.89	49.518
634.22	52.637
634.55	51.613
634.88	52.245
635.20	52.691
635.53	53.194
635.86	53.803
636.19	51.066
636.52	50.270
636.85	50.485
637.18	50.813
637.51	50.503
637.83	49.657
638.16	52.403
638.49	50.898
638.82	51.643
639.15	51.234
639.48	52.014
639.81	50.916
640.13	51.656
640.46	51.327
640.79	50.585
641.12	50.131
641.45	53.169
641.77	52.972
642.10	53.681
642.43	52.774
642.76	51.136
643.09	52.594
643.41	50.631
643.74	54.676
644.07	55.457
644.40	53.550
644.73	54.655
645.05	54.681
645.38	54.058
645.71	52.807
646.04	54.809
646.36	53.991
646.69	53.120
647.02	52.320
647.35	54.488
647.67	53.485
648.00	52.117
648.33	51.880
648.66	54.545
648.98	51.739
649.31	51.012
649.64	50.484
649.96	49.644
650.29	51.714
650.62	54.197
650.94	51.958
651.27	53.589
651.60	51.643
651.92	50.077
652.25	51.496
652.58	50.922
652.90	51.048
653.23	50.960
653.56	51.484
653.88	49.633
654.21	50.880
654.54	50.366
654.86	52.655
655.19	52.639
655.52	45.997
655.84	40.165
656.17	46.610
656.49	66.276
656.82	74.574
657.15	59.031
657.47	44.265
657.80	32.932
658.13	26.151
658.45	35.435
658.78	42.676
659.10	43.895
659.43	44.430
659.75	46.450
660.08	47.055
660.41	49.728
660.73	51.568
661.06	53.003
661.38	53.492
661.71	50.000
662.03	52.662
662.36	52.762
662.68	51.583
663.01	51.892
663.33	50.189
663.66	56.213
663.98	53.175
664.31	54.664
664.63	55.939
664.96	55.159
665.28	50.471
665.61	48.491
665.93	53.585
666.26	53.271
666.58	53.211
666.91	53.861
667.23	54.016
667.56	55.441
667.88	56.224
668.21	54.303
668.53	52.621
668.86	54.709
669.18	51.935
669.50	51.860
669.83	54.620
670.15	52.183
670.48	51.562
670.80	50.996
671.13	52.789
671.45	53.908
671.77	52.319
672.10	52.962
672.42	49.836
672.75	50.633
673.07	48.967
673.39	49.681
673.72	51.557
674.04	51.434
674.37	51.180
674.69	54.647
675.01	49.813
675.34	52.907
675.66	56.055
675.98	52.465
676.31	50.800
676.63	51.889
676.95	53.571
677.28	53.144
677.60	53.119
677.92	52.778
678.25	51.357
678.57	50.838
678.89	52.441
679.22	52.022
679.54	50.000
679.86	50.262
680.18	52.548
680.51	46.600
680.83	47.297
681.15	49.740
681.48	49.479
681.80	50.438
682.12	51.038
682.44	49.369
682.77	49.822
683.09	50.291
683.41	54.694
683.73	50.000
684.06	51.389
684.38	54.070
684.70	51.978
685.02	48.611
685.34	52.993
685.67	47.910
685.99	47.126
686.31	47.920
686.63	49.106
686.96	49.837
687.28	50.336
687.60	46.928
687.92	50.586
688.24	52.069
688.56	51.601
688.89	48.948
689.21	48.170
689.53	52.964
689.85	51.423
690.17	49.903
690.49	51.815
690.82	53.782
691.14	49.899
691.46	50.308
691.78	49.513
692.10	52.290
692.42	48.094
692.74	50.581
693.06	51.938
693.39	50.791
693.71	48.919
694.03	52.465
694.35	53.414
694.67	46.843
694.99	54.767
695.31	51.126
695.63	54.072
695.95	54.072
696.27	52.876
696.59	53.461
696.91	51.646
697.23	51.584
697.56	45.851
697.88	48.703
698.20	47.736
698.52	45.914
698.84	49.692
699.16	50.533
699.48	51.483
699.80	52.723
700.12	53.118
700.44	50.467
700.76	53.699
701.08	51.958
701.40	50.649
701.72	55.615
702.04	56.098
702.36	55.376
702.68	57.181
703.00	49.875
703.32	51.117
703.64	54.912
703.96	53.906
704.28	51.852
704.60	55.775
704.91	54.062
705.23	53.977
705.55	52.819
705.87	56.190
706.19	55.172
706.51	56.740
706.83	53.982
707.15	55.615
707.47	53.511
707.79	49.655
708.11	48.299
708.43	50.337
708.74	45.475
709.06	47.674
709.38	51.365
709.70	46.866
710.02	48.641
710.34	51.934
710.66	54.167
710.98	54.098
711.29	50.418
711.61	52.646
711.93	52.584
712.25	50.602
712.57	52.733
712.89	56.061
713.20	59.105
713.52	55.140
713.84	54.381
714.16	48.986
714.48	51.009
714.80	52.033
715.11	50.798
715.43	51.676
715.75	50.423
716.07	50.578
716.39	52.571
716.70	50.467
717.02	57.576
717.34	57.914
717.66	55.208
717.97	60.985
718.29	56.690
718.61	48.649
718.93	54.325
719.24	55.705
719.56	54.138
719.88	49.682
720.20	51.935
720.51	52.614
720.83	52.174
721.15	52.381
721.46	50.342
721.78	58.188
722.10	56.597
722.42	58.194
722.73	57.040
723.05	56.491
723.37	53.004
723.68	51.172
724.00	57.197
724.32	55.513
724.63	53.462
724.95	55.294
725.27	55.762
725.58	53.309
725.90	51.056
726.22	50.000
726.53	51.839
726.85	53.746
727.16	51.678
727.48	55.150
727.80	56.835
728.11	54.643
728.43	51.087
728.74	54.196
729.06	54.839
729.38	54.035
729.69	59.333
730.01	56.250
730.32	50.671
730.64	57.143
730.96	48.348
731.27	44.037
731.59	47.414
731.90	49.304
732.22	46.571
732.53	48.148
732.85	52.339
733.16	49.096
733.48	53.605
733.80	50.435
734.11	55.521
734.43	45.614
734.74	48.257
735.06	50.529
735.37	48.196
735.69	50.725
736.00	51.070
736.32	45.152
736.63	46.057
736.95	51.553
737.26	46.951
737.58	50.307
737.89	46.084
738.21	49.669
738.52	52.174
738.83	53.114
739.15	50.523
739.46	47.586
739.78	52.041
740.09	51.312
740.41	52.147
740.72	54.286
741.04	50.350
741.35	51.562
741.66	49.012
741.98	52.361
742.29	59.259
742.61	57.080
742.92	51.271
743.23	50.400
743.55	47.547
743.86	53.333
744.18	52.966
744.49	55.785
744.80	55.300
745.12	57.589
745.43	63.084
745.74	64.000
746.06	51.316
746.37	60.000
746.68	59.292
747.00	59.641
747.31	52.101
747.62	54.508
747.94	56.652
748.25	48.249
748.56	59.322
748.88	54.911
749.19	53.023
749.50	46.119
749.82	52.263
750.13	55.336
750.44	46.333
750.75	53.020
751.07	53.947
751.38	52.805
751.69	51.852
752.01	52.448
752.32	49.502
752.63	53.020
752.94	53.846
753.26	53.125
753.57	53.696
753.88	53.933
754.19	53.430
754.51	52.159
754.82	47.987
755.13	50.338
755.44	50.741
755.75	57.388
756.07	51.370
756.38	48.693
756.69	47.812
757.00	49.258
757.31	45.352
757.63	47.658
757.94	50.266
758.25	45.411
758.56	44.851
758.87	49.373
759.18	49.128
759.50	48.936
759.81	48.368
760.12	49.438
760.43	48.179
760.74	46.582
761.05	48.276
761.36	41.667
761.67	46.900
761.99	49.577
762.30	48.553
762.61	48.611
762.92	46.591
763.23	50.943
763.54	53.077
763.85	50.973
764.16	51.042
764.47	47.973
764.78	47.231
765.10	44.512
765.41	43.750
765.72	48.619
766.03	45.619
766.34	51.220
766.65	55.894
766.96	54.656
767.27	58.879
767.58	55.446
767.89	61.326
768.20	64.024
768.51	51.020
768.82	52.193
769.13	54.902
769.44	48.496
769.75	50.187
770.06	56.303
770.37	53.947
770.68	46.667
770.99	55.085
771.30	53.975
771.61	50.769
771.92	48.855
772.23	51.210
772.54	52.444
772.85	61.386
773.16	56.522
773.47	55.000
773.78	60.396
774.09	65.341
774.39	63.030
774.70	57.059
775.01	58.553
775.32	53.416
775.63	65.753
775.94	65.432
776.25	75.172
776.56	65.649
776.87	61.069
777.18	68.939
777.48	76.378
777.79	68.462
778.10	59.848
778.41	67.910
778.72	57.895
779.03	55.128
779.34	63.514
779.65	57.764
779.95	59.006
780.26	54.762
780.57	65.306
780.88	63.830
781.19	69.167
781.50	64.497
781.80	60.656
782.11	52.381
782.42	55.747
782.73	57.062
783.04	62.581
783.34	71.318
783.65	61.905
783.96	62.581
784.27	58.940
784.57	49.342
784.88	60.870
785.19	56.667
785.50	66.379
785.81	65.116
786.11	63.704
786.42	63.780
786.73	61.261
787.04	83.962
787.34	55.285
787.65	68.939
787.96	67.424
788.26	66.929
788.57	70.803
788.88	68.310
789.19	52.672
789.49	69.595
789.80	64.844
790.11	51.240
790.41	62.037
790.72	65.741
791.03	69.231
791.33	65.657
791.64	66.316
791.95	72.632
792.25	71.875
792.56	74.000
792.87	84.146
793.17	79.545
793.48	78.824
793.79	77.011
794.09	69.318
794.40	73.276
794.70	74.603
795.01	61.538
795.32	61.832
795.62	66.667
795.93	66.387
796.23	75.610
796.54	68.367
796.85	71.591
797.15	90.909
797.46	86.585
797.76	75.000
798.07	89.333
798.37	88.750
798.68	87.500
798.99	85.366
799.29	82.667
799.60	65.116
799.90	73.684
800.21	87.879
800.51	85.915
800.82	106.897
801.12	98.462
801.43	93.333
801.73	105.172
802.04	92.208
802.34	91.781
802.65	96.078
802.95	100.000
803.26	95.161
803.56	113.333
803.87	98.507
804.17	93.651
804.48	86.792
804.78	84.722
805.09	80.303
805.39	90.476
805.70	80.702
806.00	87.143
806.30	79.687
806.61	82.353
806.91	77.778
807.22	68.478
807.52	78.947
807.83	90.789
808.13	94.203
808.43	91.935
808.74	87.671
809.04	107.143
809.35	92.647
809.65	90.909
809.95	109.804
810.26	98.148
810.56	85.937
810.86	93.878
811.17	94.737
811.47	110.870
811.77	89.655
812.08	70.690
812.38	85.714
812.69	116.667
812.99	95.556
813.29	114.286
813.59	145.161
813.90	70.690
814.20	109.836
814.50	94.000
814.81	77.193
815.11	100.000
815.41	101.786
815.72	100.000
816.02	100.000
816.32	112.195
816.62	106.897
816.93	133.333
817.23	126.829
817.53	110.714
817.84	104.444
818.14	130.952
818.44	127.083
818.74	103.774
819.04	105.128
819.35	130.303
819.65	100.000
819.95	137.037
820.25	121.277
820.56	140.541
820.86	134.211
821.16	89.362
821.46	128.947
821.76	94.545
822.07	104.762
822.37	100.000
822.67	130.233
822.97	113.158
823.27	128.261
823.57	137.500
823.88	125.641
824.18	112.121
824.48	173.913
824.78	119.444
825.08	160.870
825.38	179.310
825.69	147.059
825.99	91.489
826.29	113.889
826.59	148.571
826.89	140.000
827.19	117.143
827.49	145.161
827.79	165.385
828.09	126.190
828.39	113.889
828.70	116.216
829.00	132.143
829.30	237.500
829.60	116.667
829.90	119.355
830.20	151.515
830.50	159.459
830.80	208.333
831.10	161.538
831.40	133.333
831.70	187.500
832.00	136.667
832.30	200.000
832.60	183.333
832.90	148.485
833.20	215.000
833.50	121.053
833.80	120.588
834.10	89.474
834.40	142.105
834.70	116.667
835.00	176.000
835.30	108.108
835.60	159.375
835.90	110.811
836.20	134.615
836.50	195.455
836.80	121.951
837.10	178.261
837.40	369.231
837.70	173.684
838.00	163.333
838.30	183.333
838.60	168.000
838.90	380.000
839.19	212.500
839.49	140.000
839.79	144.828
840.09	157.692
840.39	220.000
840.69	215.789
840.99	157.143
841.29	152.174
841.59	215.000
841.88	172.000
842.18	333.333
842.48	160.714
842.78	137.037
843.08	215.385
843.38	140.909
843.68	271.429
843.97	485.714
844.27	156.522
844.57	1750.000
844.87	292.857
845.17	211.111
845.47	142.857
845.76	158.333
846.06	585.714
846.36	158.824
846.66	284.615
846.96	268.750
847.25	207.692
847.55	205.263
847.85	122.222
848.15	800.000
848.44	354.545
848.74	209.524
849.04	216.667
849.34	205.882
849.63	181.250
849.93	312.500
850.23	1033.333
850.53	500.000
850.82	318.182
851.12	141.176
851.42	204.167
851.71	356.250
852.01	0.000
852.31	258.824
852.61	420.000
852.90	208.333
853.20	300.000
853.50	-1600.000
853.79	124.000
854.09	159.375
854.39	144.828
854.68	168.966
854.98	238.095
855.28	129.032
855.57	300.000
855.87	150.000
856.17	140.741
856.46	200.000
856.76	132.258
857.05	205.882
857.35	327.273
857.65	192.308
857.94	185.000
858.24	400.000
858.53	278.571
858.83	628.571
859.13	208.696
859.42	377.778
859.72	387.500
860.01	233.333
860.31	550.000
860.60	420.000
860.90	512.500
861.20	238.462
861.49	385.714
861.79	-3200.000
862.08	742.857
862.38	422.222
862.67	300.000
862.97	350.000
863.26	143.333
863.56	975.000
863.85	376.923
864.15	211.765
864.44	155.556
864.74	341.667
865.03	390.909
865.33	412.500
865.62	293.333
865.92	600.000
866.21	925.000
866.51	780.000
866.80	188.889
867.10	1000.000
867.39	2700.000
867.69	720.000
867.98	850.000
868.27	166.667
868.57	266.667
868.86	1050.000
869.16	176.190
869.45	2900.000
869.75	-600.000
870.04	850.000
870.33	700.000
870.63	400.000
870.92	182.353
871.22	575.000
871.51	542.857
871.80	283.333
872.10	330.769
>>>>>End Processed Spectral Data<<<<<
