SpectraSuite Data File
++++++++++++++++++++++++++++++++++++
Date: Tue May 12 17:20:40 PDT 2015
User: schluterlab
Dark Spectrum Present: Yes
Reference Spectrum Present: Yes
Number of Sampled Component Spectra: 1
Spectrometers: USB2E3373
Integration Time (usec): 3000 (USB2E3373)
Spectra Averaged: 3 (USB2E3373)
Boxcar Smoothing: 0 (USB2E3373)
Correct for Electrical Dark: No (USB2E3373)
Strobe/Lamp Enabled: No (USB2E3373)
Correct for Detector Non-linearity: No (USB2E3373)
Correct for Stray Light: No (USB2E3373)
Number of Pixels in Processed Spectrum: 2048
>>>>>Begin Processed Spectral Data<<<<<
178.53	0.000
178.91	-233.333
179.29	-575.000
179.67	-3800.000
180.04	-146.667
180.42	700.000
180.80	1700.000
181.18	0.000
181.56	-225.000
181.94	0.000
182.31	1000.000
182.69	-2100.000
183.07	571.429
183.45	-3500.000
183.83	-1300.000
184.20	320.000
184.58	400.000
184.96	-300.000
185.34	-233.333
185.72	1550.000
186.09	-725.000
186.47	-3600.000
186.85	1000.000
187.23	580.000
187.61	2000.000
187.98	512.500
188.36	285.714
188.74	358.333
189.12	375.000
189.49	1050.000
189.87	0.000
190.25	525.000
190.63	3300.000
191.00	-266.667
191.38	-4200.000
191.76	-675.000
192.14	550.000
192.51	-2700.000
192.89	1350.000
193.27	766.667
193.65	-966.667
194.02	-920.000
194.40	500.000
194.78	-235.714
195.15	320.000
195.53	-2400.000
195.91	-600.000
196.29	3700.000
196.66	262.500
197.04	825.000
197.42	-1450.000
197.79	875.000
198.17	358.333
198.55	0.000
198.92	500.000
199.30	1433.333
199.68	2350.000
200.05	733.333
200.43	-400.000
200.81	200.000
201.18	3200.000
201.56	325.000
201.94	-575.000
202.31	-337.500
202.69	-580.000
203.07	3900.000
203.44	-583.333
203.82	308.333
204.19	660.000
204.57	-1750.000
204.95	-875.000
205.32	-840.000
205.70	466.667
206.08	650.000
206.45	-933.333
206.83	322.222
207.20	178.947
207.58	291.667
207.96	740.000
208.33	0.000
208.71	642.857
209.08	780.000
209.46	-2800.000
209.84	-975.000
210.21	800.000
210.59	-520.000
210.96	300.000
211.34	-875.000
211.71	481.818
212.09	925.000
212.46	1600.000
212.84	-483.333
213.22	544.444
213.59	-3600.000
213.97	280.000
214.34	1000.000
214.72	1066.667
215.09	1033.333
215.47	-3100.000
215.84	-360.000
216.22	-425.000
216.59	0.000
216.97	0.000
217.34	1300.000
217.72	-1200.000
218.09	1166.667
218.47	525.000
218.84	975.000
219.22	1100.000
219.59	666.667
219.97	585.714
220.34	322.222
220.72	2000.000
221.09	3700.000
221.47	250.000
221.84	1533.333
222.22	400.000
222.59	250.000
222.97	235.714
223.34	275.000
223.72	-1850.000
224.09	1300.000
224.46	353.846
224.84	-900.000
225.21	444.444
225.59	246.667
225.96	1233.333
226.34	-640.000
226.71	-650.000
227.08	-580.000
227.46	0.000
227.83	-583.333
228.21	-2050.000
228.58	350.000
228.95	950.000
229.33	422.222
229.70	950.000
230.08	369.231
230.45	4500.000
230.82	-1025.000
231.20	-900.000
231.57	-1100.000
231.95	880.000
232.32	350.000
232.69	550.000
233.07	325.000
233.44	-2100.000
233.81	286.667
234.19	203.704
234.56	250.000
234.93	247.059
235.31	305.000
235.68	400.000
236.05	210.714
236.43	196.296
236.80	242.857
237.17	234.483
237.55	171.875
237.92	157.500
238.29	190.909
238.67	162.500
239.04	185.366
239.41	118.750
239.79	137.500
240.16	145.833
240.53	116.393
240.91	120.290
241.28	127.119
241.65	122.727
242.02	122.535
242.40	135.714
242.77	115.385
243.14	108.861
243.51	113.131
243.89	104.673
244.26	96.262
244.63	114.851
245.00	105.505
245.38	89.831
245.75	96.212
246.12	100.000
246.49	100.000
246.87	100.820
247.24	101.333
247.61	95.000
247.98	104.082
248.36	88.485
248.73	93.878
249.10	94.643
249.47	90.000
249.84	92.537
250.22	108.649
250.59	88.000
250.96	86.076
251.33	85.116
251.70	86.607
252.08	86.134
252.45	81.673
252.82	84.030
253.19	84.585
253.56	85.385
253.94	81.884
254.31	89.535
254.68	86.411
255.05	85.862
255.42	88.321
255.79	84.365
256.16	87.458
256.54	84.416
256.91	82.353
257.28	85.953
257.65	81.505
258.02	78.761
258.39	83.381
258.76	79.710
259.14	81.714
259.51	84.257
259.88	90.274
260.25	81.319
260.62	80.548
260.99	80.716
261.36	83.008
261.73	77.926
262.10	81.414
262.47	78.250
262.85	81.867
263.22	78.920
263.59	78.772
263.96	80.952
264.33	77.037
264.70	81.081
265.07	80.732
265.44	77.752
265.81	79.481
266.18	78.719
266.55	81.797
266.92	78.300
267.29	82.018
267.66	82.063
268.03	80.717
268.40	78.224
268.77	78.855
269.14	77.007
269.51	77.283
269.88	74.286
270.25	77.322
270.62	78.326
270.99	75.254
271.36	76.626
271.73	77.149
272.10	74.343
272.47	75.992
272.84	73.054
273.21	77.686
273.58	74.494
273.95	76.181
274.32	74.903
274.69	76.772
275.06	75.046
275.43	71.456
275.80	75.283
276.17	72.426
276.54	73.271
276.91	75.187
277.28	72.445
277.65	70.849
278.02	74.632
278.39	71.043
278.76	72.759
279.13	73.488
279.50	72.545
279.87	71.322
280.23	72.560
280.60	71.350
280.97	70.517
281.34	71.947
281.71	71.478
282.08	72.479
282.45	71.959
282.82	71.572
283.19	67.091
283.56	68.760
283.92	72.638
284.29	70.050
284.66	69.580
285.03	70.813
285.40	68.760
285.77	67.901
286.14	70.588
286.51	67.025
286.87	65.348
287.24	64.565
287.61	69.757
287.98	67.015
288.35	68.000
288.72	65.857
289.08	65.916
289.45	66.921
289.82	66.875
290.19	64.129
290.56	64.920
290.93	65.180
291.29	63.536
291.66	65.113
292.03	63.254
292.40	62.466
292.77	63.092
293.13	64.337
293.50	61.943
293.87	61.518
294.24	62.238
294.60	62.046
294.97	62.238
295.34	59.628
295.71	59.658
296.08	57.600
296.44	58.958
296.81	59.305
297.18	57.034
297.55	59.113
297.91	55.911
298.28	57.367
298.65	57.546
299.02	57.177
299.38	56.715
299.75	57.073
300.12	56.422
300.48	56.557
300.85	57.449
301.22	55.930
301.59	55.425
301.95	56.009
302.32	55.064
302.69	53.733
303.05	57.127
303.42	53.027
303.79	55.146
304.15	54.675
304.52	54.651
304.89	53.625
305.25	57.175
305.62	55.330
305.99	55.109
306.35	54.105
306.72	54.110
307.09	54.658
307.45	54.910
307.82	54.424
308.19	55.361
308.55	53.000
308.92	56.035
309.29	54.438
309.65	54.014
310.02	56.288
310.38	54.237
310.75	54.291
311.12	54.023
311.48	55.888
311.85	54.389
312.22	55.014
312.58	55.394
312.95	54.757
313.31	57.397
313.68	55.535
314.05	56.593
314.41	55.773
314.78	58.333
315.14	58.104
315.51	57.521
315.87	55.657
316.24	57.423
316.61	55.864
316.97	56.697
317.34	56.873
317.70	58.121
318.07	57.918
318.43	58.875
318.80	57.180
319.16	58.217
319.53	57.788
319.89	58.423
320.26	60.335
320.62	58.883
320.99	59.771
321.35	58.442
321.72	61.290
322.08	60.111
322.45	61.308
322.81	61.025
323.18	61.012
323.54	60.627
323.91	60.925
324.27	59.947
324.64	61.592
325.00	60.862
325.37	62.310
325.73	61.636
326.10	62.303
326.46	63.254
326.83	61.600
327.19	63.454
327.56	62.620
327.92	64.180
328.29	61.948
328.65	63.870
329.01	63.901
329.38	62.183
329.74	61.913
330.11	64.466
330.47	65.047
330.84	61.691
331.20	63.621
331.56	63.385
331.93	64.414
332.29	63.605
332.66	62.925
333.02	62.973
333.38	63.787
333.75	64.304
334.11	62.919
334.48	63.419
334.84	61.233
335.20	63.901
335.57	62.720
335.93	63.919
336.29	59.867
336.66	64.151
337.02	62.874
337.38	62.425
337.75	64.780
338.11	65.823
338.47	62.320
338.84	61.219
339.20	63.030
339.56	61.817
339.93	62.207
340.29	61.597
340.65	61.526
341.02	62.510
341.38	61.576
341.74	63.870
342.11	63.356
342.47	61.526
342.83	62.100
343.20	60.711
343.56	61.001
343.92	63.336
344.28	62.440
344.65	63.244
345.01	61.111
345.37	62.500
345.73	63.413
346.10	61.753
346.46	62.360
346.82	61.034
347.19	63.138
347.55	60.968
347.91	60.952
348.27	61.115
348.63	62.263
349.00	61.919
349.36	62.257
349.72	60.856
350.08	62.345
350.45	61.995
350.81	61.621
351.17	61.479
351.53	61.586
351.89	60.995
352.26	61.073
352.62	60.256
352.98	60.506
353.34	62.250
353.70	59.557
354.07	62.154
354.43	61.214
354.79	59.985
355.15	61.868
355.51	61.556
355.87	61.672
356.24	61.740
356.60	61.263
356.96	60.728
357.32	60.663
357.68	59.838
358.04	62.082
358.40	60.495
358.77	62.810
359.13	60.811
359.49	60.638
359.85	62.621
360.21	61.813
360.57	61.898
360.93	62.554
361.29	61.760
361.66	63.162
362.02	60.014
362.38	61.400
362.74	62.774
363.10	61.290
363.46	60.359
363.82	61.290
364.18	62.162
364.54	62.303
364.90	60.174
365.26	63.289
365.62	62.293
365.98	62.078
366.35	60.552
366.71	62.387
367.07	60.683
367.43	60.913
367.79	59.242
368.15	60.448
368.51	62.164
368.87	62.160
369.23	64.103
369.59	61.632
369.95	60.909
370.31	60.370
370.67	61.416
371.03	61.695
371.39	60.665
371.75	62.317
372.11	60.367
372.47	60.616
372.83	61.795
373.19	61.892
373.55	62.680
373.91	60.428
374.27	61.772
374.63	62.373
374.99	60.512
375.35	62.164
375.71	62.731
376.07	62.069
376.42	60.614
376.78	62.107
377.14	62.844
377.50	60.986
377.86	61.947
378.22	61.670
378.58	61.138
378.94	61.195
379.30	61.431
379.66	60.265
380.02	62.287
380.38	61.241
380.74	61.246
381.09	60.572
381.45	60.000
381.81	60.106
382.17	60.440
382.53	61.548
382.89	61.088
383.25	60.924
383.61	60.173
383.97	59.988
384.32	62.025
384.68	61.557
385.04	61.254
385.40	59.905
385.76	60.211
386.12	61.472
386.48	61.337
386.83	60.269
387.19	60.424
387.55	59.953
387.91	61.259
388.27	60.797
388.62	59.742
388.98	59.534
389.34	58.715
389.70	58.844
390.06	59.878
390.42	59.778
390.77	59.459
391.13	59.384
391.49	59.105
391.85	60.308
392.20	59.595
392.56	60.036
392.92	58.675
393.28	59.249
393.64	58.658
393.99	58.447
394.35	57.916
394.71	58.806
395.07	58.759
395.42	58.197
395.78	58.667
396.14	58.253
396.50	59.326
396.85	58.476
397.21	58.845
397.57	56.784
397.92	57.597
398.28	57.143
398.64	58.406
399.00	56.761
399.35	57.112
399.71	56.567
400.07	56.164
400.42	57.254
400.78	56.657
401.14	56.430
401.49	57.028
401.85	56.605
402.21	56.883
402.57	57.032
402.92	56.121
403.28	54.415
403.63	54.503
403.99	56.454
404.35	55.569
404.70	56.940
405.06	55.643
405.42	54.638
405.77	56.395
406.13	53.742
406.49	54.122
406.84	53.864
407.20	54.281
407.55	55.015
407.91	54.946
408.27	54.093
408.62	53.992
408.98	53.400
409.34	53.068
409.69	53.889
410.05	53.131
410.40	53.828
410.76	54.207
411.11	53.791
411.47	53.272
411.83	52.197
412.18	53.080
412.54	53.754
412.89	51.917
413.25	53.763
413.60	52.395
413.96	54.039
414.31	53.778
414.67	53.693
415.03	52.874
415.38	52.114
415.74	52.811
416.09	53.529
416.45	52.941
416.80	52.662
417.16	52.323
417.51	53.758
417.87	51.752
418.22	52.309
418.58	52.611
418.93	52.409
419.29	52.002
419.64	51.484
420.00	53.103
420.35	52.497
420.71	52.159
421.06	51.972
421.42	51.641
421.77	51.971
422.12	53.032
422.48	51.310
422.83	52.232
423.19	52.106
423.54	50.960
423.90	53.398
424.25	51.624
424.61	52.351
424.96	52.400
425.31	52.107
425.67	53.030
426.02	53.505
426.38	53.209
426.73	53.152
427.09	52.610
427.44	52.729
427.79	52.487
428.15	53.270
428.50	52.686
428.85	52.910
429.21	52.512
429.56	52.393
429.92	53.008
430.27	53.024
430.62	52.227
430.98	52.844
431.33	51.865
431.68	50.864
432.04	50.854
432.39	52.525
432.74	52.576
433.10	52.492
433.45	52.958
433.80	53.613
434.16	51.865
434.51	52.786
434.86	51.769
435.22	52.620
435.57	54.238
435.92	53.386
436.28	53.629
436.63	53.809
436.98	53.716
437.34	52.911
437.69	52.744
438.04	53.333
438.39	52.656
438.75	52.394
439.10	52.995
439.45	51.441
439.81	53.210
440.16	53.054
440.51	51.745
440.86	53.732
441.22	53.193
441.57	53.123
441.92	51.974
442.27	52.320
442.63	52.439
442.98	52.748
443.33	52.919
443.68	52.867
444.03	51.744
444.39	52.166
444.74	52.484
445.09	53.607
445.44	52.338
445.79	52.875
446.15	53.053
446.50	52.426
446.85	52.839
447.20	52.189
447.55	53.834
447.91	52.957
448.26	52.503
448.61	54.561
448.96	53.486
449.31	53.190
449.66	53.876
450.02	51.918
450.37	52.971
450.72	53.058
451.07	52.531
451.42	53.349
451.77	52.520
452.12	52.467
452.47	52.430
452.83	53.239
453.18	52.613
453.53	52.102
453.88	52.686
454.23	53.225
454.58	50.524
454.93	51.257
455.28	51.836
455.63	52.187
455.98	51.269
456.34	53.191
456.69	52.622
457.04	53.222
457.39	51.657
457.74	52.421
458.09	52.386
458.44	51.807
458.79	52.679
459.14	51.937
459.49	51.699
459.84	52.120
460.19	50.452
460.54	52.821
460.89	51.439
461.24	51.203
461.59	52.211
461.94	52.069
462.29	51.316
462.64	52.701
462.99	51.951
463.34	50.745
463.69	51.240
464.04	53.080
464.39	51.631
464.74	49.766
465.09	51.248
465.44	51.523
465.79	50.572
466.14	49.338
466.49	51.709
466.84	49.777
467.19	51.728
467.54	49.550
467.89	50.998
468.24	51.534
468.59	50.119
468.94	51.147
469.29	49.664
469.64	50.675
469.99	49.422
470.34	51.044
470.68	50.276
471.03	50.434
471.38	49.801
471.73	50.686
472.08	50.750
472.43	51.086
472.78	50.960
473.13	48.310
473.48	49.450
473.83	49.882
474.17	49.726
474.52	49.230
474.87	48.380
475.22	49.914
475.57	49.056
475.92	48.799
476.27	49.184
476.61	48.579
476.96	48.589
477.31	50.386
477.66	50.081
478.01	48.685
478.36	48.301
478.70	48.387
479.05	49.059
479.40	48.611
479.75	48.361
480.10	48.403
480.45	48.413
480.79	48.525
481.14	47.932
481.49	47.896
481.84	48.373
482.19	48.472
482.53	46.640
482.88	48.432
483.23	47.767
483.58	47.711
483.92	48.537
484.27	47.175
484.62	47.284
484.97	46.591
485.31	46.634
485.66	47.470
486.01	47.731
486.36	47.911
486.70	47.789
487.05	46.579
487.40	46.320
487.75	46.992
488.09	47.244
488.44	46.781
488.79	46.512
489.13	46.958
489.48	46.864
489.83	46.038
490.17	45.541
490.52	46.985
490.87	45.388
491.22	45.922
491.56	46.377
491.91	46.326
492.26	44.900
492.60	47.426
492.95	46.035
493.30	45.541
493.64	44.744
493.99	45.036
494.34	45.495
494.68	45.950
495.03	45.263
495.37	46.240
495.72	45.688
496.07	45.148
496.41	44.917
496.76	45.251
497.11	45.630
497.45	45.419
497.80	44.903
498.14	44.891
498.49	45.822
498.84	45.234
499.18	44.424
499.53	45.659
499.87	45.148
500.22	44.588
500.56	45.079
500.91	45.362
501.26	45.016
501.60	45.219
501.95	45.027
502.29	44.000
502.64	44.861
502.98	44.375
503.33	44.499
503.67	44.812
504.02	43.708
504.36	44.072
504.71	43.992
505.06	44.017
505.40	43.706
505.75	43.966
506.09	43.957
506.44	44.126
506.78	43.904
507.13	45.128
507.47	43.717
507.82	44.623
508.16	45.664
508.51	43.865
508.85	43.685
509.19	43.857
509.54	43.652
509.88	45.002
510.23	44.314
510.57	42.712
510.92	43.656
511.26	43.474
511.61	42.885
511.95	43.206
512.30	43.200
512.64	43.614
512.98	43.362
513.33	43.033
513.67	43.604
514.02	42.753
514.36	42.420
514.70	42.773
515.05	42.834
515.39	42.873
515.74	43.302
516.08	42.647
516.42	44.372
516.77	42.507
517.11	42.987
517.46	42.619
517.80	41.835
518.14	43.268
518.49	43.054
518.83	41.593
519.17	42.873
519.52	42.764
519.86	42.779
520.20	43.014
520.55	42.284
520.89	41.667
521.23	43.984
521.58	42.169
521.92	42.332
522.26	41.291
522.61	43.197
522.95	43.303
523.29	42.222
523.64	41.850
523.98	42.254
524.32	41.638
524.66	41.275
525.01	41.302
525.35	41.308
525.69	42.023
526.04	41.939
526.38	40.906
526.72	41.289
527.06	41.810
527.41	42.019
527.75	41.814
528.09	40.939
528.43	42.404
528.78	41.503
529.12	43.046
529.46	42.081
529.80	42.231
530.15	42.074
530.49	39.651
530.83	40.098
531.17	41.820
531.51	41.202
531.86	40.278
532.20	40.420
532.54	40.929
532.88	41.162
533.22	40.951
533.57	41.611
533.91	40.210
534.25	40.508
534.59	40.234
534.93	40.273
535.27	40.524
535.62	39.848
535.96	40.426
536.30	42.108
536.64	40.497
536.98	39.081
537.32	40.062
537.66	39.541
538.01	39.752
538.35	40.736
538.69	39.806
539.03	39.366
539.37	39.442
539.71	40.494
540.05	40.369
540.39	40.881
540.73	40.886
541.07	39.084
541.42	40.547
541.76	40.444
542.10	40.074
542.44	39.838
542.78	39.836
543.12	39.387
543.46	39.223
543.80	40.163
544.14	40.681
544.48	39.234
544.82	40.306
545.16	39.466
545.50	39.029
545.84	40.215
546.18	41.612
546.52	40.459
546.86	39.781
547.20	40.310
547.54	40.152
547.88	39.659
548.22	40.619
548.56	39.069
548.90	39.324
549.24	38.913
549.58	38.338
549.92	39.293
550.26	40.297
550.60	38.789
550.94	40.909
551.28	39.931
551.62	40.207
551.96	39.595
552.30	38.563
552.64	39.935
552.98	39.046
553.32	38.732
553.66	38.632
554.00	39.768
554.34	39.547
554.68	38.777
555.02	39.443
555.36	37.699
555.69	38.220
556.03	38.535
556.37	38.560
556.71	39.635
557.05	37.418
557.39	38.667
557.73	38.612
558.07	38.967
558.41	38.999
558.75	39.398
559.08	39.671
559.42	39.442
559.76	38.703
560.10	37.715
560.44	37.226
560.78	38.939
561.12	39.860
561.45	37.985
561.79	39.076
562.13	37.776
562.47	38.287
562.81	38.972
563.15	38.591
563.48	36.398
563.82	38.366
564.16	38.122
564.50	38.638
564.84	38.116
565.17	37.730
565.51	38.670
565.85	39.852
566.19	38.452
566.52	37.846
566.86	39.054
567.20	39.551
567.54	39.301
567.88	39.489
568.21	38.742
568.55	39.397
568.89	39.142
569.23	39.215
569.56	39.417
569.90	38.556
570.24	39.012
570.57	39.293
570.91	39.438
571.25	39.324
571.59	37.958
571.92	38.105
572.26	38.194
572.60	38.156
572.93	38.442
573.27	38.742
573.61	38.305
573.95	39.119
574.28	39.021
574.62	38.915
574.96	37.907
575.29	37.763
575.63	38.563
575.97	37.537
576.30	38.092
576.64	38.020
576.98	38.194
577.31	38.634
577.65	38.338
577.98	38.484
578.32	38.427
578.66	38.666
578.99	37.802
579.33	37.934
579.67	37.918
580.00	37.652
580.34	38.735
580.67	38.098
581.01	38.359
581.35	38.521
581.68	38.228
582.02	38.780
582.35	38.548
582.69	37.942
583.02	37.889
583.36	38.346
583.70	38.483
584.03	38.678
584.37	37.986
584.70	37.721
585.04	38.330
585.37	38.165
585.71	38.854
586.04	38.096
586.38	37.850
586.72	38.198
587.05	37.648
587.39	38.584
587.72	38.522
588.06	38.341
588.39	38.127
588.73	38.300
589.06	38.109
589.40	38.592
589.73	37.922
590.07	38.229
590.40	38.780
590.73	38.671
591.07	39.013
591.40	38.603
591.74	38.109
592.07	37.438
592.41	37.730
592.74	37.898
593.08	38.021
593.41	38.121
593.75	37.980
594.08	37.789
594.41	37.243
594.75	38.116
595.08	38.169
595.42	38.018
595.75	38.500
596.09	38.339
596.42	37.254
596.75	38.221
597.09	38.506
597.42	37.429
597.75	37.525
598.09	37.095
598.42	37.291
598.76	37.548
599.09	37.992
599.42	37.820
599.76	38.195
600.09	37.627
600.42	37.707
600.76	37.016
601.09	37.107
601.42	37.381
601.76	37.701
602.09	36.865
602.42	36.969
602.76	36.926
603.09	37.745
603.42	37.578
603.76	37.889
604.09	37.568
604.42	37.137
604.76	37.969
605.09	37.143
605.42	36.286
605.75	36.755
606.09	37.529
606.42	37.129
606.75	37.505
607.09	36.715
607.42	37.485
607.75	37.261
608.08	36.718
608.42	36.787
608.75	36.585
609.08	36.208
609.41	37.909
609.75	37.408
610.08	37.365
610.41	37.549
610.74	37.489
611.07	37.199
611.41	37.303
611.74	36.663
612.07	36.127
612.40	37.037
612.73	37.644
613.07	37.608
613.40	37.043
613.73	36.445
614.06	36.800
614.39	37.980
614.72	36.816
615.06	36.301
615.39	36.337
615.72	36.447
616.05	37.117
616.38	36.733
616.71	36.408
617.05	36.628
617.38	36.461
617.71	37.120
618.04	36.455
618.37	36.520
618.70	35.450
619.03	38.034
619.36	36.495
619.69	36.544
620.03	38.421
620.36	36.802
620.69	36.845
621.02	35.734
621.35	35.745
621.68	36.578
622.01	36.458
622.34	35.834
622.67	36.376
623.00	35.534
623.33	37.247
623.66	36.061
623.99	36.644
624.32	35.976
624.65	36.801
624.99	36.849
625.32	36.540
625.65	35.241
625.98	35.565
626.31	35.831
626.64	34.548
626.97	36.190
627.30	35.171
627.63	37.206
627.96	35.759
628.29	36.469
628.62	35.158
628.95	36.525
629.28	36.372
629.61	36.731
629.94	35.177
630.26	36.222
630.59	37.323
630.92	34.978
631.25	36.265
631.58	36.741
631.91	35.014
632.24	37.707
632.57	35.069
632.90	37.060
633.23	35.572
633.56	36.249
633.89	36.334
634.22	35.737
634.55	35.376
634.88	36.802
635.20	36.659
635.53	35.656
635.86	36.577
636.19	34.792
636.52	34.703
636.85	35.599
637.18	35.753
637.51	35.866
637.83	36.499
638.16	35.639
638.49	36.527
638.82	35.681
639.15	36.075
639.48	37.559
639.81	36.020
640.13	34.356
640.46	37.042
640.79	36.541
641.12	36.352
641.45	37.775
641.77	35.931
642.10	35.743
642.43	34.851
642.76	34.517
643.09	35.159
643.41	35.905
643.74	36.691
644.07	37.758
644.40	36.686
644.73	36.937
645.05	35.958
645.38	37.519
645.71	34.750
646.04	36.947
646.36	38.811
646.69	36.640
647.02	35.200
647.35	34.961
647.67	35.332
648.00	36.319
648.33	35.338
648.66	39.242
648.98	36.667
649.31	35.897
649.64	34.855
649.96	36.700
650.29	34.286
650.62	35.641
650.94	36.747
651.27	37.002
651.60	35.837
651.92	36.098
652.25	38.740
652.58	35.887
652.90	35.479
653.23	34.860
653.56	34.570
653.88	35.830
654.21	34.311
654.54	35.139
654.86	35.546
655.19	37.863
655.52	34.838
655.84	33.708
656.17	41.085
656.49	58.766
656.82	66.256
657.15	51.294
657.47	38.310
657.80	28.569
658.13	22.496
658.45	29.857
658.78	36.619
659.10	37.240
659.43	36.857
659.75	37.511
660.08	37.970
660.41	36.116
660.73	38.143
661.06	34.835
661.38	36.286
661.71	36.691
662.03	38.973
662.36	36.762
662.68	33.333
663.01	35.315
663.33	35.283
663.66	35.108
663.98	35.714
664.31	38.806
664.63	36.398
664.96	37.148
665.28	34.840
665.61	35.472
665.93	37.547
666.26	36.449
666.58	37.431
666.91	35.328
667.23	35.141
667.56	35.113
667.88	35.270
668.21	35.246
668.53	37.298
668.86	35.671
669.18	36.660
669.50	36.983
669.83	37.782
670.15	35.967
670.48	33.984
670.80	36.056
671.13	37.849
671.45	36.874
671.77	35.436
672.10	35.907
672.42	34.046
672.75	35.918
673.07	35.294
673.39	35.783
673.72	35.986
674.04	36.201
674.37	36.298
674.69	35.874
675.01	34.328
675.34	35.271
675.66	38.281
675.98	35.503
676.31	35.000
676.63	34.592
676.95	36.111
677.28	38.337
677.60	35.010
677.92	35.317
678.25	34.302
678.57	38.734
678.89	37.071
679.22	35.294
679.54	34.875
679.86	36.300
680.18	39.367
680.51	33.333
680.83	34.122
681.15	36.049
681.48	34.549
681.80	35.201
682.12	34.775
682.44	36.577
682.77	37.189
683.09	36.505
683.41	38.163
683.73	34.252
684.06	36.508
684.38	36.434
684.70	36.331
685.02	35.417
685.34	37.500
685.67	36.174
685.99	37.603
686.31	36.055
686.63	34.797
686.96	37.092
687.28	36.409
687.60	38.055
687.92	36.516
688.24	37.241
688.56	37.189
688.89	35.564
689.21	34.489
689.53	38.538
689.85	35.772
690.17	35.340
690.49	38.306
690.82	37.395
691.14	36.364
691.46	36.961
691.78	37.427
692.10	35.687
692.42	35.572
692.74	37.016
693.06	36.822
693.39	34.980
693.71	34.578
694.03	36.095
694.35	41.566
694.67	35.438
694.99	37.029
695.31	36.036
695.63	39.593
695.95	37.104
696.27	36.726
696.59	35.561
696.91	36.962
697.23	38.688
697.56	35.270
697.88	35.130
698.20	36.981
698.52	34.630
698.84	36.756
699.16	38.166
699.48	36.864
699.80	38.998
700.12	40.185
700.44	36.916
700.76	36.993
701.08	37.598
701.40	37.922
701.72	37.968
702.04	39.566
702.36	38.441
702.68	39.362
703.00	37.845
703.32	40.199
703.64	40.050
703.96	39.323
704.28	37.302
704.60	35.493
704.91	38.375
705.23	42.898
705.55	36.795
705.87	36.190
706.19	40.125
706.51	43.574
706.83	39.823
707.15	39.037
707.47	38.499
707.79	40.230
708.11	36.961
708.43	39.775
708.74	34.389
709.06	36.977
709.38	37.965
709.70	35.695
710.02	39.130
710.34	37.569
710.66	41.944
710.98	37.432
711.29	39.554
711.61	41.226
711.93	37.386
712.25	37.349
712.57	38.585
712.89	42.121
713.20	40.895
713.52	43.614
713.84	40.785
714.16	36.232
714.48	35.159
714.80	36.585
715.11	37.234
715.43	37.989
715.75	37.746
716.07	38.728
716.39	38.286
716.70	37.695
717.02	39.057
717.34	38.849
717.66	40.278
717.97	46.212
718.29	39.789
718.61	38.176
718.93	40.138
719.24	42.282
719.56	44.483
719.88	38.217
720.20	40.645
720.51	42.810
720.83	42.475
721.15	44.558
721.46	41.438
721.78	42.509
722.10	44.097
722.42	40.803
722.73	42.599
723.05	40.351
723.37	42.756
723.68	42.969
724.00	45.455
724.32	44.106
724.63	41.538
724.95	45.098
725.27	41.264
725.58	41.912
725.90	39.789
726.22	42.466
726.53	40.134
726.85	44.300
727.16	41.611
727.48	39.867
727.80	39.568
728.11	45.000
728.43	42.029
728.74	38.811
729.06	40.860
729.38	41.754
729.69	41.000
730.01	42.434
730.32	41.946
730.64	41.528
730.96	42.042
731.27	35.474
731.59	38.218
731.90	38.440
732.22	37.714
732.53	39.316
732.85	38.304
733.16	41.566
733.48	42.633
733.80	38.551
734.11	43.865
734.43	40.351
734.74	42.091
735.06	41.799
735.37	39.691
735.69	39.710
736.00	40.673
736.32	38.182
736.63	37.539
736.95	40.994
737.26	41.159
737.58	41.718
737.89	40.060
738.21	40.066
738.52	39.130
738.83	46.154
739.15	36.934
739.46	41.724
739.78	42.517
740.09	40.816
740.41	36.810
740.72	45.397
741.04	43.357
741.35	43.750
741.66	41.502
741.98	47.639
742.29	46.296
742.61	41.593
742.92	39.831
743.23	39.600
743.55	42.264
743.86	43.529
744.18	46.186
744.49	46.281
744.80	46.083
745.12	45.982
745.43	46.729
745.74	44.000
746.06	40.351
746.37	45.581
746.68	49.558
747.00	47.534
747.31	45.378
747.62	44.262
747.94	42.918
748.25	40.856
748.56	47.881
748.88	44.196
749.19	42.326
749.50	39.269
749.82	46.091
750.13	44.664
750.44	38.333
750.75	46.644
751.07	42.434
751.38	43.234
751.69	38.047
752.01	44.056
752.32	38.870
752.63	42.282
752.94	43.357
753.26	47.266
753.57	43.580
753.88	40.449
754.19	42.960
754.51	41.196
754.82	43.960
755.13	39.865
755.44	42.593
755.75	43.986
756.07	44.178
756.38	37.908
756.69	41.563
757.00	41.246
757.31	41.127
757.63	40.496
757.94	39.362
758.25	41.787
758.56	40.046
758.87	40.351
759.18	42.442
759.50	41.033
759.81	43.323
760.12	41.854
760.43	43.978
760.74	40.506
761.05	41.379
761.36	41.146
761.67	41.509
761.99	40.282
762.30	40.836
762.61	37.500
762.92	47.348
763.23	43.019
763.54	42.692
763.85	36.187
764.16	45.139
764.47	42.905
764.78	37.459
765.10	39.634
765.41	43.750
765.72	39.227
766.03	41.088
766.34	40.767
766.65	46.008
766.96	44.939
767.27	47.664
767.58	44.059
767.89	50.276
768.20	56.098
768.51	43.878
768.82	46.930
769.13	41.569
769.44	41.729
769.75	43.820
770.06	49.580
770.37	42.982
770.68	37.333
770.99	42.373
771.30	43.096
771.61	45.000
771.92	39.313
772.23	47.984
772.54	45.778
772.85	44.554
773.16	47.826
773.47	46.667
773.78	47.030
774.09	45.455
774.39	52.727
774.70	47.059
775.01	41.447
775.32	48.447
775.63	53.425
775.94	59.259
776.25	51.724
776.56	51.908
776.87	50.382
777.18	49.242
777.48	67.717
777.79	52.308
778.10	55.303
778.41	57.463
778.72	55.639
779.03	45.513
779.34	47.297
779.65	53.416
779.95	47.826
780.26	55.357
780.57	58.503
780.88	58.156
781.19	60.000
781.50	55.030
781.80	48.087
782.11	51.323
782.42	48.851
782.73	51.977
783.04	47.097
783.34	48.062
783.65	46.259
783.96	51.613
784.27	45.033
784.57	44.079
784.88	52.899
785.19	51.667
785.50	56.034
785.81	58.915
786.11	54.815
786.42	59.843
786.73	59.459
787.04	66.038
787.34	43.089
787.65	63.636
787.96	54.545
788.26	68.504
788.57	61.314
788.88	54.225
789.19	67.176
789.49	60.811
789.80	61.719
790.11	54.545
790.41	70.370
790.72	49.074
791.03	60.577
791.33	73.737
791.64	66.316
791.95	56.842
792.25	56.250
792.56	59.000
792.87	71.951
793.17	64.773
793.48	81.176
793.79	60.920
794.09	68.182
794.40	67.241
794.70	60.317
795.01	57.692
795.32	62.595
795.62	58.974
795.93	63.866
796.23	63.415
796.54	71.429
796.85	63.636
797.15	67.532
797.46	74.390
797.76	66.250
798.07	82.667
798.37	75.000
798.68	71.250
798.99	73.171
799.29	77.333
799.60	63.953
799.90	75.000
800.21	78.788
800.51	90.141
800.82	77.586
801.12	86.154
801.43	74.667
801.73	91.379
802.04	72.727
802.34	78.082
802.65	96.078
802.95	89.130
803.26	96.774
803.56	96.667
803.87	97.015
804.17	85.714
804.48	73.585
804.78	66.667
805.09	86.364
805.39	95.238
805.70	78.947
806.00	65.714
806.30	71.875
806.61	68.235
806.91	66.667
807.22	63.043
807.52	77.632
807.83	73.684
808.13	84.058
808.43	82.258
808.74	79.452
809.04	87.500
809.35	83.824
809.65	84.848
809.95	92.157
810.26	103.704
810.56	90.625
810.86	91.837
811.17	75.439
811.47	110.870
811.77	79.310
812.08	77.586
812.38	95.238
812.69	119.048
812.99	82.222
813.29	128.571
813.59	167.742
813.90	79.310
814.20	96.721
814.50	80.000
814.81	71.930
815.11	100.000
815.41	98.214
815.72	96.429
816.02	106.000
816.32	119.512
816.62	108.621
816.93	115.152
817.23	109.756
817.53	83.929
817.84	120.000
818.14	102.381
818.44	97.917
818.74	96.226
819.04	92.308
819.35	133.333
819.65	126.923
819.95	109.259
820.25	114.894
820.56	118.919
820.86	121.053
821.16	85.106
821.46	100.000
821.76	107.273
822.07	107.143
822.37	113.158
822.67	111.628
822.97	97.368
823.27	117.391
823.57	115.625
823.88	125.641
824.18	109.091
824.48	152.174
824.78	122.222
825.08	160.870
825.38	141.379
825.69	126.471
825.99	93.617
826.29	111.111
826.59	105.714
826.89	143.333
827.19	125.714
827.49	161.290
827.79	157.692
828.09	92.857
828.39	86.111
828.70	102.703
829.00	135.714
829.30	225.000
829.60	108.333
829.90	148.387
830.20	124.242
830.50	140.541
830.80	195.833
831.10	180.769
831.40	138.095
831.70	220.833
832.00	126.667
832.30	165.217
832.60	166.667
832.90	118.182
833.20	185.000
833.50	150.000
833.80	120.588
834.10	97.368
834.40	163.158
834.70	140.000
835.00	200.000
835.30	116.216
835.60	146.875
835.90	121.622
836.20	157.692
836.50	150.000
836.80	109.756
837.10	143.478
837.40	353.846
837.70	157.895
838.00	136.667
838.30	175.000
838.60	148.000
838.90	210.000
839.19	225.000
839.49	133.333
839.79	134.483
840.09	173.077
840.39	213.333
840.69	189.474
840.99	157.143
841.29	182.609
841.59	200.000
841.88	156.000
842.18	322.222
842.48	125.000
842.78	177.778
843.08	161.538
843.38	181.818
843.68	292.857
843.97	328.571
844.27	182.609
844.57	1250.000
844.87	235.714
845.17	255.556
845.47	161.905
845.76	187.500
846.06	471.429
846.36	170.588
846.66	269.231
846.96	231.250
847.25	200.000
847.55	184.211
847.85	205.556
848.15	520.000
848.44	300.000
848.74	128.571
849.04	187.500
849.34	176.471
849.63	250.000
849.93	287.500
850.23	1233.333
850.53	487.500
850.82	318.182
851.12	200.000
851.42	187.500
851.71	206.250
852.01	0.000
852.31	205.882
852.61	470.000
852.90	204.167
853.20	366.667
853.50	-2500.000
853.79	152.000
854.09	153.125
854.39	124.138
854.68	162.069
854.98	223.810
855.28	125.806
855.57	292.857
855.87	183.333
856.17	133.333
856.46	184.211
856.76	138.710
857.05	264.706
857.35	318.182
857.65	207.692
857.94	170.000
858.24	511.111
858.53	278.571
858.83	500.000
859.13	186.957
859.42	244.444
859.72	400.000
860.01	308.333
860.31	1125.000
860.60	390.000
860.90	437.500
861.20	353.846
861.49	471.429
861.79	-2900.000
862.08	628.571
862.38	355.556
862.67	185.714
862.97	390.000
863.26	140.000
863.56	825.000
863.85	292.308
864.15	229.412
864.44	172.222
864.74	325.000
865.03	400.000
865.33	400.000
865.62	246.667
865.92	683.333
866.21	875.000
866.51	580.000
866.80	227.778
867.10	700.000
867.39	3300.000
867.69	640.000
867.98	900.000
868.27	209.524
868.57	206.667
868.86	925.000
869.16	161.905
869.45	3300.000
869.75	-616.667
870.04	875.000
870.33	740.000
870.63	437.500
870.92	194.118
871.22	750.000
871.51	557.143
871.80	391.667
872.10	361.538
>>>>>End Processed Spectral Data<<<<<
