SpectraSuite Data File
++++++++++++++++++++++++++++++++++++
Date: Tue May 12 17:20:36 PDT 2015
User: schluterlab
Dark Spectrum Present: Yes
Reference Spectrum Present: Yes
Number of Sampled Component Spectra: 1
Spectrometers: USB2E3373
Integration Time (usec): 3000 (USB2E3373)
Spectra Averaged: 3 (USB2E3373)
Boxcar Smoothing: 0 (USB2E3373)
Correct for Electrical Dark: No (USB2E3373)
Strobe/Lamp Enabled: No (USB2E3373)
Correct for Detector Non-linearity: No (USB2E3373)
Correct for Stray Light: No (USB2E3373)
Number of Pixels in Processed Spectrum: 2048
>>>>>Begin Processed Spectral Data<<<<<
178.53	0.000
178.91	-233.333
179.29	-725.000
179.67	-4300.000
180.04	-140.000
180.42	825.000
180.80	1550.000
181.18	0.000
181.56	-200.000
181.94	0.000
182.31	1133.333
182.69	-2700.000
183.07	542.857
183.45	-3700.000
183.83	-1200.000
184.20	430.000
184.58	500.000
184.96	-207.692
185.34	-275.000
185.72	1700.000
186.09	-550.000
186.47	-3700.000
186.85	1133.333
187.23	660.000
187.61	1900.000
187.98	562.500
188.36	257.143
188.74	333.333
189.12	358.333
189.49	950.000
189.87	0.000
190.25	450.000
190.63	3600.000
191.00	-166.667
191.38	-3900.000
191.76	-850.000
192.14	600.000
192.51	-3400.000
192.89	1750.000
193.27	1033.333
193.65	-1400.000
194.02	-700.000
194.40	728.571
194.78	-185.714
195.15	253.333
195.53	-3900.000
195.91	-600.000
196.29	3900.000
196.66	262.500
197.04	825.000
197.42	-1800.000
197.79	1025.000
198.17	266.667
198.55	0.000
198.92	485.714
199.30	1433.333
199.68	1950.000
200.05	600.000
200.43	-483.333
200.81	227.778
201.18	3800.000
201.56	325.000
201.94	-775.000
202.31	-250.000
202.69	-680.000
203.07	3700.000
203.44	-400.000
203.82	300.000
204.19	700.000
204.57	-1750.000
204.95	-875.000
205.32	-660.000
205.70	650.000
206.08	650.000
206.45	-833.333
206.83	433.333
207.20	178.947
207.58	233.333
207.96	900.000
208.33	0.000
208.71	642.857
209.08	680.000
209.46	-2800.000
209.84	-925.000
210.21	860.000
210.59	-700.000
210.96	300.000
211.34	-1250.000
211.71	390.909
212.09	875.000
212.46	1400.000
212.84	-600.000
213.22	444.444
213.59	-3600.000
213.97	370.000
214.34	1150.000
214.72	1000.000
215.09	1400.000
215.47	-3300.000
215.84	-350.000
216.22	-437.500
216.59	0.000
216.97	0.000
217.34	1600.000
217.72	-1150.000
218.09	1133.333
218.47	400.000
218.84	950.000
219.22	1200.000
219.59	1166.667
219.97	514.286
220.34	444.444
220.72	1700.000
221.09	3600.000
221.47	366.667
221.84	1200.000
222.22	350.000
222.59	283.333
222.97	250.000
223.34	200.000
223.72	-1500.000
224.09	1233.333
224.46	300.000
224.84	-825.000
225.21	422.222
225.59	233.333
225.96	1333.333
226.34	-680.000
226.71	-600.000
227.08	-640.000
227.46	0.000
227.83	-616.667
228.21	-1800.000
228.58	383.333
228.95	900.000
229.33	355.556
229.70	1000.000
230.08	361.538
230.45	3700.000
230.82	-850.000
231.20	-1033.333
231.57	-1100.000
231.95	560.000
232.32	308.333
232.69	533.333
233.07	233.333
233.44	-1600.000
233.81	226.667
234.19	200.000
234.56	250.000
234.93	188.235
235.31	175.000
235.68	268.750
236.05	167.857
236.43	166.667
236.80	285.714
237.17	189.655
237.55	146.875
237.92	150.000
238.29	178.788
238.67	175.000
239.04	136.585
239.41	104.167
239.79	150.000
240.16	147.917
240.53	109.836
240.91	100.000
241.28	110.169
241.65	106.061
242.02	107.042
242.40	100.000
242.77	86.813
243.14	91.139
243.51	83.838
243.89	72.897
244.26	76.636
244.63	82.178
245.00	83.486
245.38	76.271
245.75	78.030
246.12	75.556
246.49	75.177
246.87	69.672
247.24	72.000
247.61	73.125
247.98	75.510
248.36	70.909
248.73	63.265
249.10	69.643
249.47	69.500
249.84	63.184
250.22	74.595
250.59	64.500
250.96	64.979
251.33	69.767
251.70	63.839
252.08	58.403
252.45	57.769
252.82	61.217
253.19	63.241
253.56	58.077
253.94	61.957
254.31	57.364
254.68	59.930
255.05	60.345
255.42	60.219
255.79	59.283
256.16	62.034
256.54	62.013
256.91	61.111
257.28	60.870
257.65	56.426
258.02	56.637
258.39	59.599
258.76	56.812
259.14	56.000
259.51	60.058
259.88	59.574
260.25	58.242
260.62	56.164
260.99	53.719
261.36	57.939
261.73	55.319
262.10	60.209
262.47	51.750
262.85	53.600
263.22	58.612
263.59	50.639
263.96	57.895
264.33	53.827
264.70	55.774
265.07	57.317
265.44	54.587
265.81	52.123
266.18	56.979
266.55	55.319
266.92	56.152
267.29	52.632
267.66	53.812
268.03	55.381
268.40	53.911
268.77	53.744
269.14	55.098
269.51	55.679
269.88	52.653
270.25	51.836
270.62	56.009
270.99	53.550
271.36	53.252
271.73	52.621
272.10	52.525
272.47	51.389
272.84	50.499
273.21	51.860
273.58	52.429
273.95	52.977
274.32	53.502
274.69	52.953
275.06	50.091
275.43	49.234
275.80	51.132
276.17	51.287
276.54	48.598
276.91	53.731
277.28	52.372
277.65	51.661
278.02	51.103
278.39	48.921
278.76	48.448
279.13	49.288
279.50	50.727
279.87	51.210
280.23	51.197
280.60	52.920
280.97	51.552
281.34	47.030
281.71	50.957
282.08	50.598
282.45	50.338
282.82	48.997
283.19	49.603
283.56	49.587
283.92	49.837
284.29	48.752
284.66	48.067
285.03	49.751
285.40	51.405
285.77	46.605
286.14	48.452
286.51	49.080
286.87	47.468
287.24	46.096
287.61	48.632
287.98	48.806
288.35	48.889
288.72	49.317
289.08	49.700
289.45	47.561
289.82	49.688
290.19	47.291
290.56	49.199
290.93	47.194
291.29	46.685
291.66	47.599
292.03	46.564
292.40	45.528
292.77	45.125
293.13	47.361
293.50	45.749
293.87	44.309
294.24	48.951
294.60	46.972
294.97	47.692
295.34	45.418
295.71	45.598
296.08	46.267
296.44	46.379
296.81	43.548
297.18	44.740
297.55	44.951
297.91	43.596
298.28	46.860
298.65	45.276
299.02	44.150
299.38	44.005
299.75	44.634
300.12	45.183
300.48	46.956
300.85	45.411
301.22	46.163
301.59	44.811
301.95	45.158
302.32	45.285
302.69	45.701
303.05	46.914
303.42	44.731
303.79	46.371
304.15	45.435
304.52	44.186
304.89	44.456
305.25	45.606
305.62	44.776
305.99	45.000
306.35	46.000
306.72	47.659
307.09	45.445
307.45	45.723
307.82	45.473
308.19	45.052
308.55	45.800
308.92	45.927
309.29	47.732
309.65	45.887
310.02	46.653
310.38	47.557
310.75	44.744
311.12	47.414
311.48	47.201
311.85	46.660
312.22	48.329
312.58	46.744
312.95	48.447
313.31	49.064
313.68	48.405
314.05	46.703
314.41	47.486
314.78	49.527
315.14	49.953
315.51	49.007
315.87	48.540
316.24	48.833
316.61	48.433
316.97	49.908
317.34	50.225
317.70	49.605
318.07	50.890
318.43	50.967
318.80	51.138
319.16	51.049
319.53	53.009
319.89	50.896
320.26	54.562
320.62	52.198
320.99	52.431
321.35	52.226
321.72	54.364
322.08	54.663
322.45	53.406
322.81	55.444
323.18	55.151
323.54	55.575
323.91	58.024
324.27	57.737
324.64	57.353
325.00	60.776
325.37	59.359
325.73	59.359
326.10	60.232
326.46	60.116
326.83	60.320
327.19	61.044
327.56	61.981
327.92	61.230
328.29	62.029
328.65	63.527
329.01	61.762
329.38	63.113
329.74	63.279
330.11	64.118
330.47	64.791
330.84	62.554
331.20	63.536
331.56	65.285
331.93	65.355
332.29	64.796
332.66	67.177
333.02	63.574
333.38	64.485
333.75	63.553
334.11	63.423
334.48	65.299
334.84	63.682
335.20	64.927
335.57	62.301
335.93	64.676
336.29	63.101
336.66	64.237
337.02	66.039
337.38	64.574
337.75	65.878
338.11	63.122
338.47	64.691
338.84	64.606
339.20	65.801
339.56	63.751
339.93	63.963
340.29	62.269
340.65	65.046
341.02	63.154
341.38	62.972
341.74	64.867
342.11	63.940
342.47	64.151
342.83	65.956
343.20	63.298
343.56	61.557
343.92	63.336
344.28	62.759
344.65	64.548
345.01	63.810
345.37	64.263
345.73	64.206
346.10	63.267
346.46	62.679
346.82	61.651
347.19	62.056
347.55	61.514
347.91	62.160
348.27	62.974
348.63	65.902
349.00	64.204
349.36	63.891
349.72	64.679
350.08	63.898
350.45	63.671
350.81	64.908
351.17	63.251
351.53	62.818
351.89	62.782
352.26	63.114
352.62	63.047
352.98	64.417
353.34	62.481
353.70	62.462
354.07	62.769
354.43	63.210
354.79	61.807
355.15	63.706
355.51	63.520
355.87	63.931
356.24	62.433
356.60	62.633
356.96	63.609
357.32	62.095
357.68	61.454
358.04	63.830
358.40	63.193
358.77	62.885
359.13	62.763
359.49	62.639
359.85	64.036
360.21	61.738
360.57	63.212
360.93	63.997
361.29	63.059
361.66	64.131
362.02	62.145
362.38	63.853
362.74	62.420
363.10	62.763
363.46	61.326
363.82	61.781
364.18	64.083
364.54	62.732
364.90	62.651
365.26	62.734
365.62	62.983
365.98	62.491
366.35	63.241
366.71	64.330
367.07	62.526
367.43	63.600
367.79	62.766
368.15	63.229
368.51	62.715
368.87	62.500
369.23	62.717
369.59	61.564
369.95	63.007
370.31	62.081
370.67	63.636
371.03	62.395
371.39	63.158
371.75	63.294
372.11	61.659
372.47	61.438
372.83	61.999
373.19	62.234
373.55	62.887
373.91	61.464
374.27	61.772
374.63	62.373
374.99	62.129
375.35	63.911
375.71	63.193
376.07	63.130
376.42	61.061
376.78	62.749
377.14	62.713
377.50	62.047
377.86	61.947
378.22	61.792
378.58	62.833
378.94	61.919
379.30	61.795
379.66	62.071
380.02	62.170
380.38	61.183
380.74	62.111
381.09	61.624
381.45	59.480
381.81	60.579
382.17	62.210
382.53	61.068
382.89	61.088
383.25	60.568
383.61	61.153
383.97	61.248
384.32	61.061
384.68	60.784
385.04	60.844
385.40	61.507
385.76	59.508
386.12	59.988
386.48	60.973
386.83	60.513
387.19	60.071
387.55	59.128
387.91	59.642
388.27	60.976
388.62	59.096
388.98	58.950
389.34	59.429
389.70	59.434
390.06	60.549
390.42	59.223
390.77	59.951
391.13	59.022
391.49	58.439
391.85	59.138
392.20	57.986
392.56	59.558
392.92	59.629
393.28	58.408
393.64	57.970
393.99	58.684
394.35	58.152
394.71	56.695
395.07	59.185
395.42	58.607
395.78	59.038
396.14	60.482
396.50	58.063
396.85	56.341
397.21	57.461
397.57	57.800
397.92	56.672
398.28	56.591
398.64	57.941
399.00	56.440
399.35	56.146
399.71	56.015
400.07	56.050
400.42	56.776
400.78	56.833
401.14	56.723
401.49	55.588
401.85	55.794
402.21	56.239
402.57	56.254
402.92	55.455
403.28	55.131
403.63	55.386
403.99	55.730
404.35	57.268
404.70	56.704
405.06	54.295
405.42	55.895
405.77	55.733
406.13	54.772
406.49	53.781
406.84	54.710
407.20	55.308
407.55	55.508
407.91	56.031
408.27	55.791
408.62	55.293
408.98	53.459
409.34	53.302
409.69	55.694
410.05	53.131
410.40	53.828
410.76	52.833
411.11	52.251
411.47	54.012
411.83	52.783
412.18	53.563
412.54	53.514
412.89	53.333
413.25	54.219
413.60	53.329
413.96	54.159
414.31	53.778
414.67	54.562
415.03	54.151
415.38	53.817
415.74	54.390
416.09	53.779
416.45	54.751
416.80	55.613
417.16	53.405
417.51	53.567
417.87	54.255
418.22	53.767
418.58	54.140
418.93	54.908
419.29	52.495
419.64	54.936
420.00	54.535
420.35	54.994
420.71	54.084
421.06	53.208
421.42	53.828
421.77	54.026
422.12	54.135
422.48	53.364
422.83	54.576
423.19	54.374
423.54	53.428
423.90	54.643
424.25	55.476
424.61	53.743
424.96	54.489
425.31	54.899
425.67	55.275
426.02	54.571
426.38	55.018
426.73	54.135
427.09	56.109
427.44	55.318
427.79	56.547
428.15	56.983
428.50	55.371
428.85	56.614
429.21	54.997
429.56	54.387
429.92	54.550
430.27	54.233
430.62	54.087
430.98	55.090
431.33	54.133
431.68	55.457
432.04	55.665
432.39	55.214
432.74	56.557
433.10	56.257
433.45	57.094
433.80	57.308
434.16	55.386
434.51	55.986
434.86	57.322
435.22	56.834
435.57	55.839
435.92	56.061
436.28	56.509
436.63	56.186
436.98	57.601
437.34	56.963
437.69	55.991
438.04	55.753
438.39	56.567
438.75	56.514
439.10	56.395
439.45	55.851
439.81	59.051
440.16	57.292
440.51	56.757
440.86	58.462
441.22	56.818
441.57	56.693
441.92	56.565
442.27	57.216
442.63	56.555
442.98	56.950
443.33	56.776
443.68	56.539
444.03	56.692
444.39	57.815
444.74	54.607
445.09	57.241
445.44	56.004
445.79	57.164
446.15	58.474
446.50	57.226
446.85	56.524
447.20	55.622
447.55	58.184
447.91	56.793
448.26	56.603
448.61	57.656
448.96	57.843
449.31	57.866
449.66	58.361
450.02	57.428
450.37	58.412
450.72	57.796
451.07	57.301
451.42	57.499
451.77	57.847
452.12	57.345
452.47	58.141
452.83	57.634
453.18	57.297
453.53	58.674
453.88	58.229
454.23	57.641
454.58	57.459
454.93	57.633
455.28	57.834
455.63	57.861
455.98	58.094
456.34	58.784
456.69	57.622
457.04	58.413
457.39	57.714
457.74	58.446
458.09	56.990
458.44	57.831
458.79	56.286
459.14	57.065
459.49	57.531
459.84	57.772
460.19	55.763
460.54	58.575
460.89	56.823
461.24	56.873
461.59	56.746
461.94	57.861
462.29	57.323
462.64	58.982
462.99	57.134
463.34	58.004
463.69	58.802
464.04	57.916
464.39	56.153
464.74	56.038
465.09	55.949
465.44	57.454
465.79	56.396
466.14	54.690
466.49	56.701
466.84	56.633
467.19	57.704
467.54	56.396
467.89	57.394
468.24	56.630
468.59	56.786
468.94	57.246
469.29	57.056
469.64	56.656
469.99	57.905
470.34	58.065
470.68	57.586
471.03	58.839
471.38	58.344
471.73	56.826
472.08	59.491
472.43	58.659
472.78	58.195
473.13	56.383
473.48	56.296
473.83	57.892
474.17	56.839
474.52	56.754
474.87	56.623
475.22	57.053
475.57	56.191
475.92	56.055
476.27	56.094
476.61	55.389
476.96	54.754
477.31	57.943
477.66	56.307
478.01	56.679
478.36	56.025
478.70	55.037
479.05	55.753
479.40	56.349
479.75	56.058
480.10	55.857
480.45	55.696
480.79	54.608
481.14	55.635
481.49	55.261
481.84	54.398
482.19	55.284
482.53	54.370
482.88	55.376
483.23	54.714
483.58	55.925
483.92	55.576
484.27	55.094
484.62	54.669
484.97	53.564
485.31	53.366
485.66	51.555
486.01	50.037
486.36	49.449
486.70	49.449
487.05	51.168
487.40	51.828
487.75	52.412
488.09	52.841
488.44	52.932
488.79	53.350
489.13	54.871
489.48	54.415
489.83	54.128
490.17	53.964
490.52	54.393
490.87	54.267
491.22	54.654
491.56	54.941
491.91	53.943
492.26	55.501
492.60	56.446
492.95	53.693
493.30	54.686
493.64	54.582
493.99	54.830
494.34	54.594
494.68	55.024
495.03	54.423
495.37	55.516
495.72	54.965
496.07	54.582
496.41	54.214
496.76	54.073
497.11	54.156
497.45	53.354
497.80	55.236
498.14	54.276
498.49	54.550
498.84	54.860
499.18	53.016
499.53	55.122
499.87	53.819
500.22	54.076
500.56	54.178
500.91	55.751
501.26	54.387
501.60	54.098
501.95	52.643
502.29	54.267
502.64	52.933
502.98	52.379
503.33	53.140
503.67	52.936
504.02	53.157
504.36	54.163
504.71	53.737
505.06	54.528
505.40	53.205
505.75	52.806
506.09	52.636
506.44	53.289
506.78	53.686
507.13	53.078
507.47	53.081
507.82	55.085
508.16	54.875
508.51	53.671
508.85	54.274
509.19	53.842
509.54	53.271
509.88	54.202
510.23	54.216
510.57	52.944
510.92	53.546
511.26	54.367
511.61	54.062
511.95	53.808
512.30	53.550
512.64	53.271
512.98	54.434
513.33	54.252
513.67	54.531
514.02	54.026
514.36	54.206
514.70	55.093
515.05	54.342
515.39	55.537
515.74	55.878
516.08	55.392
516.42	56.284
516.77	53.280
517.11	54.080
517.46	54.634
517.80	53.468
518.14	55.944
518.49	54.576
518.83	53.626
519.17	54.465
519.52	54.670
519.86	54.550
520.20	54.575
520.55	53.929
520.89	55.115
521.23	54.965
521.58	54.733
521.92	54.344
522.26	55.273
522.61	54.902
522.95	55.616
523.29	54.503
523.64	55.029
523.98	55.692
524.32	53.403
524.66	54.609
525.01	55.030
525.35	53.919
525.69	54.425
526.04	54.253
526.38	55.327
526.72	55.131
527.06	53.933
527.41	55.139
527.75	54.900
528.09	54.545
528.43	53.630
528.78	54.264
529.12	55.328
529.46	54.296
529.80	54.790
530.15	54.154
530.49	54.031
530.83	53.809
531.17	53.752
531.51	54.752
531.86	52.114
532.20	53.770
532.54	53.484
532.88	53.529
533.22	53.504
533.57	54.606
533.91	51.807
534.25	52.683
534.59	52.982
534.93	51.877
535.27	51.338
535.62	51.925
535.96	52.896
536.30	53.077
536.64	52.484
536.98	52.926
537.32	54.250
537.66	52.423
538.01	53.313
538.35	52.027
538.69	50.910
539.03	51.803
539.37	52.488
539.71	52.469
540.05	52.923
540.39	51.950
540.73	51.709
541.07	51.757
541.42	51.928
541.76	51.480
542.10	51.171
542.44	51.621
542.78	51.353
543.12	49.939
543.46	51.566
543.80	51.378
544.14	51.269
544.48	51.095
544.82	51.376
545.16	50.091
545.50	51.199
545.84	51.831
546.18	52.796
546.52	51.934
546.86	51.386
547.20	51.034
547.54	50.982
547.88	49.878
548.22	50.880
548.56	49.028
548.90	49.941
549.24	51.295
549.58	50.451
549.92	50.426
550.26	51.995
550.60	51.830
550.94	52.307
551.28	51.793
551.62	51.241
551.96	50.541
552.30	50.231
552.64	51.392
552.98	51.224
553.32	50.576
553.66	51.661
554.00	50.064
554.34	52.197
554.68	50.403
555.02	51.867
555.36	51.396
555.69	50.916
556.03	50.127
556.37	50.860
556.71	51.369
557.05	49.345
557.39	49.933
557.73	51.078
558.07	51.241
558.41	51.679
558.75	51.300
559.08	52.609
559.42	52.684
559.76	51.604
560.10	50.310
560.44	49.104
560.78	50.000
561.12	50.159
561.45	50.250
561.79	50.250
562.13	49.147
562.47	49.448
562.81	50.423
563.15	50.356
563.48	47.578
563.82	49.407
564.16	49.938
564.50	48.764
564.84	49.058
565.17	47.415
565.51	49.384
565.85	50.093
566.19	48.750
566.52	48.977
566.86	49.679
567.20	47.697
567.54	47.653
567.88	48.044
568.21	45.632
568.55	46.060
568.89	45.529
569.23	45.341
569.56	45.088
569.90	43.550
570.24	43.339
570.57	42.537
570.91	42.278
571.25	41.845
571.59	41.089
571.92	41.389
572.26	40.782
572.60	41.044
572.93	41.173
573.27	41.528
573.61	41.202
573.95	40.961
574.28	40.863
574.62	40.522
574.96	40.032
575.29	39.552
575.63	40.236
575.97	40.385
576.30	40.521
576.64	40.574
576.98	39.680
577.31	40.090
577.65	39.400
577.98	39.042
578.32	38.840
578.66	39.152
578.99	39.857
579.33	40.257
579.67	39.995
580.00	39.280
580.34	39.808
580.67	38.904
581.01	39.127
581.35	38.581
581.68	38.788
582.02	38.346
582.35	38.966
582.69	39.004
583.02	38.614
583.36	38.747
583.70	40.120
584.03	40.741
584.37	40.283
584.70	40.209
585.04	39.448
585.37	39.360
585.71	40.090
586.04	39.475
586.38	40.053
586.72	39.691
587.05	39.913
587.39	40.278
587.72	39.522
588.06	39.384
588.39	40.020
588.73	40.098
589.06	40.648
589.40	41.534
589.73	41.101
590.07	41.558
590.40	42.230
590.73	41.902
591.07	42.429
591.40	41.717
591.74	42.776
592.07	41.556
592.41	42.366
592.74	41.596
593.08	40.625
593.41	39.826
593.75	39.414
594.08	40.068
594.41	41.251
594.75	40.993
595.08	41.598
595.42	40.487
595.75	41.132
596.09	40.528
596.42	40.896
596.75	42.228
597.09	42.179
597.42	41.306
597.75	41.055
598.09	41.937
598.42	41.371
598.76	40.979
599.09	41.008
599.42	40.000
599.76	40.366
600.09	40.068
600.42	39.779
600.76	40.177
601.09	40.594
601.42	39.388
601.76	41.139
602.09	41.060
602.42	39.963
602.76	40.797
603.09	41.327
603.42	40.954
603.76	40.311
604.09	40.138
604.42	40.226
604.76	40.774
605.09	40.653
605.42	40.431
605.75	40.308
606.09	41.010
606.42	39.759
606.75	40.886
607.09	40.032
607.42	40.337
607.75	40.406
608.08	41.227
608.42	41.401
608.75	41.164
609.08	41.003
609.41	41.864
609.75	42.216
610.08	42.401
610.41	41.063
610.74	41.082
611.07	41.564
611.41	41.474
611.74	41.587
612.07	42.630
612.40	41.715
612.73	41.088
613.07	43.234
613.40	41.905
613.73	42.836
614.06	41.150
614.39	41.667
614.72	41.487
615.06	41.642
615.39	41.584
615.72	41.530
616.05	42.341
616.38	41.908
616.71	42.268
617.05	41.845
617.38	41.910
617.71	42.913
618.04	42.176
618.37	42.579
618.70	42.898
619.03	44.628
619.36	43.656
619.69	43.536
620.03	44.879
620.36	44.766
620.69	44.828
621.02	45.312
621.35	44.413
621.68	45.501
622.01	46.494
622.34	44.938
622.67	45.435
623.00	45.269
623.33	43.522
623.66	44.245
623.99	44.110
624.32	43.157
624.65	44.174
624.99	44.557
625.32	44.489
625.65	43.931
625.98	44.142
626.31	45.252
626.64	45.103
626.97	44.223
627.30	45.497
627.63	45.840
627.96	45.305
628.29	45.627
628.62	46.193
628.95	48.138
629.28	48.379
629.61	47.188
629.94	47.105
630.26	47.140
630.59	48.316
630.92	47.265
631.25	48.413
631.58	49.277
631.91	47.859
632.24	47.425
632.57	47.937
632.90	49.896
633.23	49.843
633.56	48.999
633.89	49.411
634.22	49.839
634.55	49.892
634.88	50.602
635.20	52.242
635.53	50.058
635.86	50.671
636.19	48.709
636.52	48.216
636.85	48.759
637.18	48.862
637.51	49.609
637.83	50.114
638.16	51.114
638.49	51.138
638.82	50.469
639.15	49.236
639.48	50.237
639.81	49.817
640.13	49.693
640.46	50.695
640.79	52.016
641.12	52.362
641.45	51.617
641.77	50.727
642.10	52.610
642.43	54.623
642.76	50.426
643.09	53.170
643.41	51.893
643.74	55.540
644.07	55.752
644.40	53.846
644.73	52.553
645.05	54.532
645.38	55.283
645.71	52.656
646.04	52.519
646.36	54.460
646.69	54.880
647.02	55.200
647.35	52.441
647.67	53.485
648.00	54.397
648.33	52.030
648.66	52.727
648.98	53.043
649.31	48.043
649.64	49.101
649.96	52.205
650.29	48.286
650.62	51.399
650.94	52.711
651.27	55.343
651.60	51.017
651.92	50.384
652.25	52.283
652.58	49.362
652.90	52.246
653.23	49.778
653.56	53.264
653.88	49.046
654.21	49.560
654.54	49.488
654.86	49.853
655.19	48.417
655.52	39.693
655.84	31.304
656.17	36.442
656.49	51.375
656.82	58.279
657.15	46.085
657.47	34.925
657.80	26.532
658.13	21.215
658.45	28.837
658.78	35.491
659.10	36.188
659.43	36.384
659.75	37.993
660.08	39.724
660.41	42.196
660.73	51.694
661.06	50.000
661.38	51.959
661.71	53.957
662.03	53.612
662.36	52.190
662.68	51.210
663.01	51.712
663.33	54.151
663.66	52.465
663.98	54.563
664.31	51.119
664.63	55.556
664.96	53.096
665.28	53.107
665.61	52.264
665.93	52.830
666.26	49.346
666.58	51.927
666.91	52.896
667.23	53.213
667.56	54.209
667.88	58.299
668.21	53.484
668.53	54.637
668.86	55.311
669.18	52.749
669.50	54.339
669.83	55.031
670.15	51.767
670.48	51.562
670.80	54.582
671.13	55.378
671.45	57.114
671.77	52.134
672.10	52.783
672.42	46.053
672.75	48.734
673.07	48.013
673.39	47.444
673.72	49.827
674.04	51.971
674.37	48.639
674.69	51.301
675.01	47.388
675.34	51.357
675.66	52.148
675.98	51.479
676.31	53.000
676.63	49.901
676.95	52.183
677.28	52.130
677.60	52.314
677.92	50.992
678.25	49.612
678.57	51.583
678.89	52.622
679.22	52.941
679.54	49.110
679.86	50.087
680.18	47.100
680.51	48.425
680.83	46.284
681.15	51.820
681.48	48.264
681.80	49.737
682.12	49.308
682.44	48.829
682.77	48.399
683.09	48.350
683.41	51.837
683.73	53.150
684.06	49.008
684.38	48.643
684.70	49.640
685.02	46.354
685.34	47.887
685.67	50.322
685.99	48.604
686.31	46.687
686.63	46.504
686.96	44.935
687.28	46.141
687.60	47.611
687.92	48.241
688.24	49.138
688.56	50.000
688.89	49.331
689.21	47.592
689.53	49.605
689.85	51.829
690.17	49.320
690.49	49.798
690.82	51.261
691.14	49.495
691.46	53.593
691.78	49.318
692.10	48.664
692.42	46.824
692.74	47.868
693.06	49.419
693.39	48.617
693.71	49.116
694.03	48.521
694.35	52.410
694.67	49.491
694.99	48.780
695.31	52.477
695.63	51.584
695.95	52.489
696.27	54.204
696.59	53.699
696.91	53.924
697.23	52.489
697.56	48.755
697.88	45.509
698.20	47.547
698.52	46.693
698.84	47.844
699.16	49.893
699.48	51.059
699.80	50.545
700.12	52.425
700.44	49.533
700.76	49.403
701.08	52.742
701.40	54.545
701.72	56.952
702.04	56.911
702.36	56.183
702.68	53.191
703.00	48.371
703.32	54.591
703.64	49.622
703.96	52.604
704.28	52.381
704.60	53.803
704.91	53.782
705.23	54.261
705.55	55.786
705.87	54.921
706.19	58.307
706.51	57.053
706.83	55.752
707.15	55.348
707.47	49.153
707.79	49.195
708.11	47.166
708.43	45.843
708.74	47.964
709.06	47.209
709.38	53.102
709.70	52.044
710.02	53.533
710.34	50.276
710.66	53.611
710.98	57.377
711.29	48.189
711.61	54.039
711.93	56.231
712.25	51.506
712.57	51.768
712.89	54.545
713.20	56.230
713.52	52.960
713.84	52.568
714.16	47.246
714.48	49.568
714.80	48.780
715.11	51.330
715.43	54.469
715.75	48.451
716.07	51.156
716.39	51.429
716.70	52.960
717.02	56.566
717.34	59.353
717.66	56.597
717.97	59.091
718.29	54.930
718.61	51.351
718.93	56.401
719.24	57.383
719.56	52.069
719.88	50.318
720.20	51.290
720.51	53.268
720.83	50.836
721.15	52.041
721.46	50.685
721.78	54.355
722.10	59.028
722.42	55.853
722.73	50.903
723.05	50.877
723.37	57.597
723.68	51.172
724.00	52.273
724.32	60.076
724.63	55.385
724.95	55.294
725.27	55.390
725.58	52.941
725.90	48.239
726.22	52.397
726.53	53.846
726.85	51.792
727.16	55.705
727.48	53.156
727.80	53.957
728.11	53.214
728.43	51.449
728.74	53.497
729.06	53.047
729.38	54.386
729.69	53.000
730.01	52.632
730.32	52.013
730.64	55.482
730.96	47.748
731.27	45.872
731.59	47.989
731.90	45.404
732.22	45.429
732.53	43.305
732.85	50.585
733.16	50.602
733.48	50.470
733.80	48.406
734.11	51.534
734.43	45.322
734.74	44.504
735.06	46.825
735.37	45.619
735.69	46.957
736.00	49.541
736.32	45.758
736.63	46.688
736.95	50.932
737.26	51.829
737.58	46.626
737.89	46.084
738.21	47.682
738.52	47.157
738.83	56.777
739.15	50.871
739.46	46.552
739.78	48.639
740.09	49.854
740.41	50.307
740.72	48.571
741.04	50.699
741.35	54.297
741.66	55.336
741.98	54.077
742.29	52.778
742.61	55.310
742.92	49.576
743.23	52.400
743.55	51.698
743.86	50.196
744.18	56.356
744.49	54.545
744.80	58.525
745.12	55.804
745.43	64.486
745.74	55.111
746.06	48.684
746.37	65.116
746.68	58.407
747.00	52.466
747.31	54.202
747.62	45.492
747.94	49.785
748.25	50.584
748.56	54.661
748.88	59.375
749.19	53.953
749.50	59.817
749.82	53.909
750.13	55.731
750.44	47.000
750.75	55.034
751.07	50.658
751.38	47.525
751.69	48.148
752.01	47.203
752.32	46.844
752.63	48.322
752.94	50.000
753.26	50.000
753.57	55.642
753.88	48.315
754.19	49.458
754.51	48.173
754.82	46.644
755.13	47.635
755.44	50.370
755.75	48.454
756.07	48.630
756.38	45.098
756.69	44.063
757.00	48.665
757.31	43.099
757.63	42.424
757.94	43.085
758.25	42.754
758.56	43.249
758.87	42.857
759.18	46.221
759.50	47.416
759.81	47.181
760.12	43.539
760.43	41.737
760.74	43.291
761.05	42.175
761.36	42.708
761.67	42.588
761.99	45.352
762.30	46.302
762.61	46.181
762.92	50.758
763.23	50.189
763.54	50.000
763.85	46.304
764.16	54.167
764.47	47.635
764.78	44.951
765.10	47.866
765.41	41.477
765.72	43.094
766.03	47.130
766.34	48.084
766.65	46.388
766.96	51.012
767.27	57.477
767.58	55.446
767.89	61.878
768.20	60.976
768.51	54.082
768.82	55.263
769.13	48.235
769.44	48.496
769.75	47.566
770.06	52.101
770.37	46.053
770.68	47.111
770.99	50.000
771.30	53.556
771.61	50.385
771.92	42.748
772.23	49.194
772.54	52.889
772.85	56.436
773.16	52.174
773.47	54.444
773.78	54.455
774.09	59.091
774.39	64.242
774.70	61.176
775.01	57.895
775.32	55.901
775.63	67.808
775.94	66.049
776.25	62.069
776.56	66.412
776.87	74.809
777.18	59.091
777.48	77.953
777.79	63.846
778.10	70.455
778.41	71.642
778.72	68.421
779.03	55.769
779.34	57.432
779.65	64.596
779.95	60.870
780.26	56.548
780.57	62.585
780.88	63.830
781.19	80.000
781.50	57.988
781.80	53.005
782.11	51.852
782.42	52.299
782.73	55.932
783.04	63.226
783.34	50.388
783.65	57.823
783.96	61.935
784.27	56.954
784.57	48.684
784.88	54.348
785.19	60.000
785.50	62.069
785.81	71.318
786.11	51.111
786.42	70.079
786.73	72.973
787.04	73.585
787.34	57.724
787.65	62.879
787.96	71.212
788.26	70.866
788.57	69.343
788.88	65.493
789.19	58.779
789.49	61.486
789.80	60.938
790.11	58.678
790.41	53.704
790.72	62.963
791.03	67.308
791.33	66.667
791.64	66.316
791.95	70.526
792.25	64.583
792.56	68.000
792.87	78.049
793.17	71.591
793.48	68.235
793.79	79.310
794.09	72.727
794.40	74.138
794.70	66.667
795.01	60.000
795.32	58.015
795.62	57.265
795.93	61.345
796.23	56.098
796.54	70.408
796.85	67.045
797.15	81.818
797.46	82.927
797.76	76.250
798.07	84.000
798.37	77.500
798.68	90.000
798.99	82.927
799.29	88.000
799.60	58.140
799.90	84.211
800.21	89.394
800.51	81.690
800.82	91.379
801.12	103.077
801.43	92.000
801.73	91.379
802.04	83.117
802.34	94.521
802.65	103.922
802.95	117.391
803.26	96.774
803.56	101.667
803.87	102.985
804.17	95.238
804.48	96.226
804.78	84.722
805.09	87.879
805.39	104.762
805.70	138.596
806.00	64.286
806.30	81.250
806.61	78.824
806.91	77.778
807.22	70.652
807.52	80.263
807.83	86.842
808.13	81.159
808.43	96.774
808.74	90.411
809.04	87.500
809.35	80.882
809.65	95.455
809.95	86.275
810.26	122.222
810.56	90.625
810.86	93.878
811.17	77.193
811.47	97.826
811.77	82.759
812.08	81.034
812.38	95.238
812.69	92.857
812.99	82.222
813.29	151.429
813.59	145.161
813.90	79.310
814.20	98.361
814.50	92.000
814.81	78.947
815.11	124.074
815.41	80.357
815.72	100.000
816.02	90.000
816.32	129.268
816.62	82.759
816.93	133.333
817.23	112.195
817.53	107.143
817.84	108.889
818.14	111.905
818.44	108.333
818.74	120.755
819.04	82.051
819.35	124.242
819.65	98.077
819.95	137.037
820.25	119.149
820.56	110.811
820.86	150.000
821.16	97.872
821.46	131.579
821.76	109.091
822.07	100.000
822.37	128.947
822.67	141.860
822.97	100.000
823.27	113.043
823.57	153.125
823.88	133.333
824.18	124.242
824.48	169.565
824.78	138.889
825.08	173.913
825.38	217.241
825.69	117.647
825.99	91.489
826.29	119.444
826.59	137.143
826.89	150.000
827.19	140.000
827.49	125.806
827.79	157.692
828.09	111.905
828.39	130.556
828.70	132.432
829.00	185.714
829.30	237.500
829.60	127.778
829.90	116.129
830.20	106.061
830.50	135.135
830.80	166.667
831.10	161.538
831.40	161.905
831.70	195.833
832.00	130.000
832.30	173.913
832.60	179.167
832.90	124.242
833.20	210.000
833.50	139.474
833.80	144.118
834.10	102.632
834.40	147.368
834.70	130.000
835.00	168.000
835.30	121.622
835.60	171.875
835.90	143.243
836.20	192.308
836.50	177.273
836.80	92.683
837.10	178.261
837.40	376.923
837.70	163.158
838.00	170.000
838.30	195.833
838.60	156.000
838.90	340.000
839.19	162.500
839.49	163.333
839.79	134.483
840.09	161.538
840.39	246.667
840.69	242.105
840.99	176.190
841.29	173.913
841.59	165.000
841.88	192.000
842.18	311.111
842.48	171.429
842.78	166.667
843.08	246.154
843.38	150.000
843.68	335.714
843.97	600.000
844.27	186.957
844.57	1700.000
844.87	342.857
845.17	216.667
845.47	157.143
845.76	195.833
846.06	542.857
846.36	229.412
846.66	269.231
846.96	250.000
847.25	176.923
847.55	178.947
847.85	188.889
848.15	480.000
848.44	309.091
848.74	180.952
849.04	162.500
849.34	170.588
849.63	256.250
849.93	287.500
850.23	1166.667
850.53	412.500
850.82	272.727
851.12	170.588
851.42	208.333
851.71	262.500
852.01	0.000
852.31	247.059
852.61	410.000
852.90	154.167
853.20	433.333
853.50	-2600.000
853.79	176.000
854.09	128.125
854.39	113.793
854.68	193.103
854.98	200.000
855.28	145.161
855.57	257.143
855.87	216.667
856.17	129.630
856.46	200.000
856.76	141.935
857.05	311.765
857.35	281.818
857.65	292.308
857.94	185.000
858.24	333.333
858.53	321.429
858.83	600.000
859.13	204.348
859.42	355.556
859.72	375.000
860.01	250.000
860.31	925.000
860.60	430.000
860.90	412.500
861.20	284.615
861.49	371.429
861.79	-3700.000
862.08	642.857
862.38	455.556
862.67	221.429
862.97	370.000
863.26	143.333
863.56	775.000
863.85	276.923
864.15	276.471
864.44	211.111
864.74	266.667
865.03	290.909
865.33	375.000
865.62	240.000
865.92	566.667
866.21	1025.000
866.51	700.000
866.80	194.444
867.10	1233.333
867.39	3100.000
867.69	600.000
867.98	1025.000
868.27	138.095
868.57	266.667
868.86	825.000
869.16	171.429
869.45	3300.000
869.75	-416.667
870.04	725.000
870.33	580.000
870.63	462.500
870.92	235.294
871.22	850.000
871.51	428.571
871.80	341.667
872.10	284.615
>>>>>End Processed Spectral Data<<<<<
