SpectraSuite Data File
++++++++++++++++++++++++++++++++++++
Date: Wed May 13 19:40:34 PDT 2015
User: schluterlab
Dark Spectrum Present: Yes
Reference Spectrum Present: Yes
Number of Sampled Component Spectra: 1
Spectrometers: USB2E3373
Integration Time (usec): 3000 (USB2E3373)
Spectra Averaged: 3 (USB2E3373)
Boxcar Smoothing: 0 (USB2E3373)
Correct for Electrical Dark: No (USB2E3373)
Strobe/Lamp Enabled: No (USB2E3373)
Correct for Detector Non-linearity: No (USB2E3373)
Correct for Stray Light: No (USB2E3373)
Number of Pixels in Processed Spectrum: 2048
>>>>>Begin Processed Spectral Data<<<<<
178.53	0.000
178.91	-1550.000
179.29	-1475.000
179.67	-266.667
180.04	-1400.000
180.42	2650.000
180.80	1260.000
181.18	-1050.000
181.56	714.286
181.94	0.000
182.31	-614.286
182.69	1733.333
183.07	-612.500
183.45	-533.333
183.83	536.364
184.20	-410.000
184.58	2900.000
184.96	5600.000
185.34	-940.000
185.72	-612.500
186.09	-2150.000
186.47	2550.000
186.85	2300.000
187.23	5400.000
187.61	-1700.000
187.98	1225.000
188.36	527.273
188.74	545.455
189.12	-900.000
189.49	610.000
189.87	-5400.000
190.25	-1325.000
190.63	471.429
191.00	423.077
191.38	966.667
191.76	-975.000
192.14	1575.000
192.51	550.000
192.89	1050.000
193.27	687.500
193.65	-1350.000
194.02	590.000
194.40	1040.000
194.78	630.000
195.15	541.667
195.53	620.000
195.91	-2500.000
196.29	356.250
196.66	368.421
197.04	-370.000
197.42	0.000
197.79	650.000
198.17	-5500.000
198.55	814.286
198.92	725.000
199.30	1060.000
199.68	0.000
200.05	344.444
200.43	814.286
200.81	4200.000
201.18	1533.333
201.56	-1866.667
201.94	555.556
202.31	700.000
202.69	483.333
203.07	650.000
203.44	0.000
203.82	1225.000
204.19	800.000
204.57	471.429
204.95	625.000
205.32	1700.000
205.70	500.000
206.08	350.000
206.45	2300.000
206.83	343.750
207.20	933.333
207.58	860.000
207.96	300.000
208.33	662.500
208.71	-866.667
209.08	900.000
209.46	522.222
209.84	590.909
210.21	-1766.667
210.59	1450.000
210.96	-475.000
211.34	2550.000
211.71	600.000
212.09	933.333
212.46	0.000
212.84	1733.333
213.22	1625.000
213.59	-5300.000
213.97	950.000
214.34	771.429
214.72	600.000
215.09	1100.000
215.47	-2450.000
215.84	-2750.000
216.22	1900.000
216.59	421.429
216.97	1325.000
217.34	481.818
217.72	-833.333
218.09	0.000
218.47	-4500.000
218.84	666.667
219.22	785.714
219.59	1666.667
219.97	-771.429
220.34	680.000
220.72	-1933.333
221.09	407.143
221.47	1375.000
221.84	-966.667
222.22	0.000
222.59	1650.000
222.97	-2350.000
223.34	1200.000
223.72	484.615
224.09	1120.000
224.46	2250.000
224.84	-5700.000
225.21	-880.000
225.59	-4800.000
225.96	550.000
226.34	325.000
226.71	3100.000
227.08	750.000
227.46	580.000
227.83	-1250.000
228.21	-2450.000
228.58	644.444
228.95	-2450.000
229.33	-2100.000
229.70	1933.333
230.08	828.571
230.45	-800.000
230.82	491.667
231.20	983.333
231.57	642.857
231.95	408.333
232.32	268.182
232.69	381.818
233.07	571.429
233.44	415.385
233.81	-1866.667
234.19	336.842
234.56	516.667
234.93	375.000
235.31	418.182
235.68	392.308
236.05	378.571
236.43	196.970
236.80	300.000
237.17	3400.000
237.55	171.429
237.92	185.714
238.29	223.810
238.67	193.548
239.04	206.897
239.41	169.444
239.79	123.913
240.16	164.286
240.53	138.636
240.91	113.725
241.28	108.000
241.65	106.000
242.02	108.696
242.40	96.774
242.77	96.667
243.14	77.419
243.51	79.775
243.89	62.353
244.26	66.667
244.63	69.892
245.00	65.957
245.38	71.287
245.75	61.682
246.12	59.633
246.49	62.774
246.87	61.600
247.24	63.846
247.61	54.286
247.98	50.980
248.36	51.351
248.73	54.140
249.10	49.682
249.47	43.503
249.84	47.059
250.22	47.594
250.59	47.337
250.96	44.444
251.33	46.445
251.70	48.020
252.08	43.810
252.45	39.910
252.82	39.130
253.19	39.149
253.56	43.137
253.94	37.759
254.31	39.063
254.68	38.462
255.05	37.638
255.42	32.114
255.79	40.074
256.16	40.433
256.54	34.629
256.91	32.028
257.28	30.935
257.65	32.673
258.02	33.540
258.39	32.177
258.76	28.094
259.14	35.714
259.51	33.131
259.88	29.193
260.25	32.628
260.62	31.214
260.99	31.677
261.36	28.228
261.73	30.086
262.10	29.360
262.47	31.268
262.85	32.312
263.22	25.641
263.59	29.345
263.96	28.571
264.33	29.243
264.70	26.842
265.07	30.179
265.44	26.010
265.81	29.927
266.18	28.643
266.55	28.537
266.92	25.799
267.29	29.861
267.66	27.523
268.03	29.545
268.40	28.271
268.77	24.582
269.14	27.928
269.51	27.991
269.88	26.807
270.25	28.668
270.62	25.169
270.99	28.172
271.36	27.468
271.73	27.103
272.10	25.435
272.47	27.742
272.84	25.974
273.21	25.996
273.58	24.891
273.95	23.690
274.32	24.587
274.69	28.694
275.06	27.165
275.43	25.106
275.80	25.651
276.17	24.440
276.54	25.780
276.91	23.320
277.28	25.000
277.65	25.919
278.02	22.360
278.39	27.148
278.76	26.545
279.13	22.075
279.50	22.160
279.87	24.104
280.23	23.952
280.60	22.050
280.97	23.290
281.34	24.248
281.71	24.909
282.08	26.488
282.45	22.545
282.82	22.913
283.19	21.212
283.56	24.035
283.92	21.827
284.29	22.575
284.66	22.323
285.03	24.593
285.40	22.183
285.77	22.559
286.14	20.553
286.51	21.500
286.87	24.444
287.24	22.638
287.61	22.311
287.98	22.727
288.35	21.078
288.72	20.093
289.08	23.005
289.45	21.087
289.82	22.439
290.19	20.565
290.56	19.602
290.93	19.033
291.29	19.785
291.66	20.501
292.03	22.093
292.40	23.495
292.77	18.639
293.13	19.701
293.50	20.408
293.87	19.852
294.24	19.556
294.60	19.505
294.97	19.913
295.34	19.887
295.71	20.312
296.08	18.234
296.44	17.744
296.81	18.494
297.18	17.615
297.55	16.491
297.91	17.942
298.28	19.143
298.65	19.060
299.02	20.026
299.38	17.264
299.75	17.116
300.12	18.008
300.48	17.375
300.85	18.989
301.22	17.834
301.59	16.667
301.95	18.640
302.32	18.870
302.69	17.443
303.05	16.727
303.42	16.173
303.79	17.214
304.15	16.550
304.52	16.454
304.89	16.609
305.25	17.169
305.62	16.308
305.99	16.647
306.35	15.436
306.72	17.713
307.09	18.091
307.45	17.680
307.82	16.964
308.19	16.887
308.55	15.965
308.92	18.045
309.29	16.790
309.65	17.603
310.02	16.385
310.38	16.989
310.75	17.107
311.12	17.503
311.48	18.077
311.85	17.925
312.22	17.170
312.58	16.424
312.95	19.324
313.31	17.282
313.68	17.775
314.05	19.428
314.41	17.387
314.78	19.134
315.14	19.464
315.51	19.876
315.87	18.911
316.24	18.967
316.61	18.324
316.97	19.276
317.34	19.667
317.70	21.033
318.07	20.597
318.43	21.624
318.80	20.806
319.16	21.281
319.53	21.013
319.89	22.000
320.26	22.700
320.62	23.413
320.99	24.141
321.35	24.747
321.72	24.846
322.08	25.370
322.45	26.169
322.81	26.066
323.18	25.241
323.54	26.623
323.91	25.755
324.27	26.960
324.64	26.934
325.00	27.322
325.37	28.389
325.73	29.623
326.10	28.773
326.46	28.674
326.83	31.665
327.19	31.341
327.56	31.794
327.92	32.196
328.29	33.274
328.65	33.149
329.01	33.755
329.38	33.025
329.74	33.149
330.11	34.213
330.47	35.813
330.84	35.754
331.20	34.153
331.56	34.312
331.93	35.000
332.29	34.161
332.66	35.752
333.02	34.461
333.38	34.959
333.75	35.383
334.11	34.520
334.48	34.783
334.84	36.305
335.20	36.455
335.57	36.446
335.93	35.446
336.29	35.714
336.66	35.978
337.02	35.294
337.38	36.019
337.75	36.364
338.11	36.437
338.47	35.359
338.84	38.038
339.20	35.596
339.56	37.500
339.93	37.000
340.29	35.779
340.65	36.542
341.02	37.347
341.38	35.142
341.74	35.000
342.11	36.769
342.47	35.507
342.83	36.729
343.20	37.056
343.56	33.614
343.92	35.789
344.28	36.310
344.65	37.489
345.01	36.700
345.37	35.935
345.73	36.294
346.10	36.829
346.46	35.339
346.82	36.656
347.19	35.589
347.55	36.782
347.91	36.327
348.27	36.237
348.63	36.120
349.00	35.356
349.36	35.714
349.72	36.167
350.08	36.629
350.45	35.395
350.81	35.093
351.17	36.548
351.53	36.282
351.89	34.901
352.26	36.148
352.62	35.605
352.98	35.656
353.34	36.730
353.70	35.925
354.07	36.129
354.43	35.635
354.79	35.076
355.15	36.153
355.51	37.090
355.87	35.837
356.24	36.319
356.60	35.846
356.96	36.042
357.32	35.977
357.68	37.008
358.04	35.392
358.40	34.917
358.77	36.933
359.13	35.991
359.49	34.745
359.85	34.921
360.21	35.566
360.57	35.953
360.93	36.846
361.29	36.054
361.66	34.907
362.02	35.448
362.38	35.361
362.74	36.012
363.10	35.529
363.46	35.803
363.82	35.903
364.18	35.756
364.54	36.181
364.90	36.119
365.26	35.294
365.62	36.961
365.98	34.697
366.35	34.384
366.71	34.924
367.07	36.344
367.43	34.833
367.79	36.831
368.15	37.213
368.51	36.265
368.87	36.260
369.23	36.064
369.59	36.206
369.95	35.882
370.31	35.684
370.67	34.928
371.03	36.404
371.39	35.350
371.75	36.324
372.11	35.775
372.47	36.804
372.83	36.599
373.19	35.766
373.55	36.511
373.91	35.935
374.27	35.120
374.63	36.364
374.99	36.088
375.35	34.962
375.71	35.435
376.07	36.008
376.42	35.007
376.78	36.912
377.14	35.821
377.50	36.623
377.86	35.971
378.22	35.777
378.58	34.148
378.94	35.009
379.30	35.687
379.66	36.675
380.02	35.749
380.38	34.426
380.74	35.294
381.09	35.513
381.45	35.280
381.81	35.319
382.17	36.051
382.53	35.220
382.89	34.938
383.25	35.022
383.61	36.059
383.97	34.271
384.32	34.810
384.68	35.068
385.04	35.464
385.40	34.923
385.76	35.565
386.12	35.363
386.48	35.683
386.83	36.113
387.19	35.560
387.55	34.632
387.91	34.825
388.27	34.335
388.62	35.034
388.98	33.845
389.34	35.670
389.70	34.887
390.06	36.312
390.42	35.409
390.77	35.178
391.13	35.354
391.49	35.596
391.85	34.755
392.20	34.132
392.56	35.417
392.92	35.433
393.28	33.964
393.64	35.012
393.99	33.781
394.35	34.119
394.71	34.630
395.07	34.081
395.42	34.611
395.78	34.160
396.14	34.699
396.50	35.464
396.85	35.346
397.21	33.909
397.57	34.842
397.92	34.796
398.28	34.361
398.64	34.707
399.00	33.856
399.35	33.051
399.71	34.028
400.07	33.590
400.42	33.988
400.78	34.017
401.14	35.305
401.49	34.209
401.85	33.031
402.21	34.611
402.57	33.868
402.92	34.237
403.28	34.166
403.63	33.354
403.99	33.376
404.35	33.333
404.70	33.753
405.06	33.663
405.42	33.874
405.77	32.571
406.13	32.336
406.49	32.111
406.84	32.723
407.20	32.920
407.55	33.312
407.91	33.867
408.27	32.865
408.62	32.029
408.98	33.088
409.34	32.718
409.69	32.710
410.05	32.714
410.40	32.783
410.76	32.258
411.11	32.087
411.47	32.780
411.83	32.193
412.18	32.158
412.54	33.064
412.89	32.349
413.25	32.468
413.60	31.624
413.96	32.483
414.31	32.442
414.67	32.826
415.03	32.781
415.38	32.152
415.74	31.447
416.09	33.116
416.45	31.794
416.80	32.518
417.16	32.574
417.51	32.382
417.87	32.627
418.22	31.861
418.58	32.537
418.93	32.801
419.29	32.145
419.64	32.557
420.00	32.439
420.35	32.174
420.71	32.696
421.06	31.444
421.42	31.579
421.77	31.502
422.12	30.882
422.48	31.570
422.83	31.625
423.19	31.381
423.54	32.327
423.90	32.638
424.25	31.323
424.61	31.905
424.96	30.845
425.31	30.952
425.67	31.011
426.02	31.371
426.38	31.136
426.73	30.427
427.09	31.611
427.44	31.685
427.79	30.075
428.15	32.202
428.50	31.890
428.85	31.883
429.21	30.591
429.56	30.586
429.92	30.498
430.27	29.940
430.62	30.671
430.98	31.448
431.33	30.722
431.68	30.419
432.04	30.458
432.39	30.440
432.74	31.179
433.10	31.409
433.45	31.370
433.80	31.430
434.16	31.838
434.51	30.316
434.86	31.129
435.22	31.795
435.57	31.489
435.92	31.129
436.28	31.673
436.63	31.402
436.98	31.196
437.34	31.187
437.69	31.447
438.04	30.748
438.39	30.925
438.75	30.854
439.10	31.788
439.45	31.346
439.81	32.024
440.16	30.548
440.51	30.287
440.86	31.210
441.22	30.145
441.57	31.529
441.92	31.320
442.27	31.539
442.63	30.595
442.98	31.437
443.33	31.304
443.68	31.131
444.03	30.747
444.39	30.818
444.74	31.331
445.09	31.429
445.44	31.547
445.79	30.332
446.15	30.863
446.50	31.018
446.85	31.192
447.20	31.260
447.55	30.932
447.91	31.329
448.26	31.163
448.61	31.713
448.96	31.506
449.31	31.159
449.66	31.908
450.02	30.696
450.37	30.726
450.72	30.175
451.07	31.444
451.42	30.517
451.77	31.591
452.12	31.178
452.47	32.090
452.83	31.352
453.18	30.623
453.53	31.478
453.88	30.656
454.23	31.321
454.58	30.709
454.93	32.740
455.28	31.421
455.63	32.282
455.98	32.560
456.34	31.344
456.69	31.183
457.04	31.455
457.39	30.158
457.74	30.528
458.09	31.282
458.44	32.098
458.79	30.477
459.14	31.264
459.49	30.531
459.84	31.191
460.19	29.876
460.54	30.324
460.89	30.993
461.24	31.026
461.59	31.958
461.94	30.518
462.29	31.632
462.64	30.759
462.99	29.993
463.34	31.333
463.69	31.270
464.04	30.551
464.39	30.145
464.74	30.244
465.09	29.976
465.44	29.806
465.79	29.810
466.14	30.104
466.49	29.199
466.84	29.947
467.19	30.718
467.54	30.500
467.89	29.592
468.24	30.599
468.59	30.342
468.94	30.788
469.29	30.270
469.64	31.459
469.99	31.326
470.34	30.251
470.68	30.891
471.03	30.204
471.38	31.550
471.73	30.779
472.08	30.263
472.43	29.711
472.78	30.151
473.13	30.424
473.48	30.524
473.83	30.244
474.17	29.309
474.52	29.777
474.87	30.006
475.22	29.425
475.57	29.339
475.92	29.527
476.27	29.594
476.61	28.902
476.96	29.412
477.31	29.304
477.66	29.376
478.01	29.169
478.36	29.297
478.70	28.453
479.05	28.967
479.40	28.403
479.75	29.690
480.10	28.579
480.45	27.939
480.79	28.285
481.14	28.571
481.49	28.856
481.84	27.892
482.19	28.351
482.53	28.578
482.88	27.780
483.23	28.785
483.58	28.116
483.92	28.210
484.27	27.364
484.62	27.155
484.97	27.710
485.31	27.740
485.66	26.426
486.01	25.479
486.36	25.008
486.70	24.048
487.05	25.169
487.40	25.204
487.75	25.712
488.09	26.752
488.44	25.884
488.79	26.980
489.13	27.044
489.48	26.591
489.83	26.975
490.17	27.707
490.52	27.679
490.87	27.318
491.22	27.694
491.56	26.834
491.91	26.943
492.26	27.607
492.60	27.604
492.95	27.081
493.30	27.710
493.64	27.578
493.99	26.880
494.34	27.891
494.68	27.289
495.03	27.397
495.37	27.315
495.72	27.680
496.07	28.213
496.41	26.150
496.76	26.605
497.11	26.745
497.45	27.061
497.80	26.488
498.14	26.667
498.49	26.927
498.84	26.702
499.18	26.333
499.53	26.876
499.87	26.514
500.22	26.660
500.56	26.845
500.91	26.731
501.26	27.169
501.60	26.863
501.95	26.673
502.29	27.976
502.64	27.142
502.98	26.227
503.33	26.645
503.67	26.497
504.02	26.520
504.36	26.439
504.71	26.331
505.06	27.277
505.40	26.835
505.75	26.663
506.09	26.676
506.44	26.936
506.78	27.131
507.13	26.552
507.47	26.566
507.82	26.900
508.16	27.660
508.51	27.448
508.85	25.521
509.19	26.020
509.54	26.378
509.88	26.069
510.23	26.375
510.57	27.296
510.92	26.825
511.26	26.824
511.61	26.141
511.95	25.678
512.30	26.352
512.64	26.867
512.98	27.010
513.33	26.927
513.67	25.987
514.02	25.974
514.36	27.854
514.70	27.449
515.05	25.655
515.39	26.640
515.74	27.252
516.08	26.887
516.42	27.469
516.77	28.317
517.11	26.637
517.46	26.298
517.80	27.003
518.14	26.636
518.49	26.721
518.83	26.534
519.17	26.559
519.52	27.165
519.86	26.583
520.20	26.185
520.55	27.169
520.89	27.920
521.23	27.805
521.58	26.771
521.92	26.944
522.26	26.724
522.61	26.978
522.95	26.765
523.29	26.719
523.64	27.805
523.98	27.110
524.32	26.357
524.66	26.819
525.01	26.838
525.35	26.394
525.69	26.539
526.04	27.477
526.38	26.907
526.72	26.933
527.06	26.805
527.41	25.743
527.75	27.524
528.09	27.360
528.43	26.896
528.78	26.982
529.12	26.545
529.46	26.454
529.80	26.547
530.15	27.040
530.49	26.462
530.83	27.215
531.17	27.415
531.51	27.302
531.86	26.839
532.20	27.119
532.54	28.251
532.88	26.637
533.22	25.671
533.57	25.556
533.91	26.129
534.25	26.488
534.59	26.297
534.93	25.580
535.27	25.649
535.62	26.252
535.96	26.051
536.30	26.065
536.64	26.207
536.98	26.875
537.32	25.609
537.66	26.533
538.01	26.531
538.35	26.374
538.69	27.441
539.03	25.081
539.37	25.623
539.71	24.951
540.05	26.209
540.39	26.047
540.73	24.903
541.07	26.087
541.42	26.158
541.76	25.677
542.10	26.197
542.44	25.497
542.78	27.931
543.12	25.592
543.46	25.967
543.80	26.155
544.14	25.289
544.48	26.159
544.82	25.080
545.16	25.309
545.50	24.293
545.84	25.000
546.18	26.195
546.52	26.222
546.86	25.498
547.20	26.770
547.54	25.651
547.88	26.339
548.22	25.093
548.56	25.031
548.90	25.096
549.24	24.848
549.58	25.648
549.92	26.030
550.26	27.060
550.60	25.173
550.94	26.127
551.28	25.238
551.62	26.384
551.96	25.825
552.30	25.188
552.64	25.761
552.98	24.814
553.32	25.556
553.66	26.721
554.00	25.601
554.34	25.259
554.68	26.609
555.02	25.388
555.36	25.957
555.69	25.710
556.03	25.236
556.37	25.239
556.71	24.625
557.05	25.770
557.39	25.192
557.73	25.265
558.07	26.033
558.41	24.385
558.75	26.231
559.08	26.025
559.42	25.472
559.76	26.397
560.10	24.625
560.44	25.437
560.78	25.150
561.12	24.538
561.45	24.381
561.79	24.588
562.13	25.151
562.47	25.137
562.81	24.965
563.15	24.816
563.48	25.531
563.82	25.375
564.16	24.330
564.50	24.284
564.84	24.399
565.17	23.681
565.51	24.026
565.85	24.302
566.19	24.609
566.52	24.889
566.86	24.352
567.20	24.528
567.54	23.573
567.88	22.705
568.21	23.757
568.55	23.458
568.89	23.541
569.23	22.727
569.56	22.632
569.90	21.925
570.24	22.031
570.57	21.217
570.91	21.461
571.25	21.062
571.59	21.532
571.92	20.881
572.26	20.942
572.60	20.721
572.93	20.720
573.27	21.088
573.61	20.854
573.95	20.413
574.28	20.176
574.62	19.995
574.96	19.857
575.29	20.053
575.63	20.046
575.97	19.917
576.30	19.729
576.64	19.788
576.98	20.321
577.31	19.963
577.65	19.891
577.98	19.702
578.32	19.043
578.66	19.308
578.99	19.881
579.33	19.777
579.67	19.509
580.00	19.827
580.34	19.934
580.67	19.239
581.01	19.946
581.35	19.288
581.68	19.453
582.02	19.486
582.35	19.168
582.69	19.310
583.02	19.146
583.36	19.530
583.70	20.180
584.03	19.854
584.37	20.158
584.70	20.037
585.04	19.814
585.37	19.595
585.71	19.713
586.04	19.473
586.38	19.828
586.72	20.133
587.05	19.370
587.39	19.578
587.72	20.201
588.06	19.557
588.39	20.110
588.73	19.830
589.06	20.567
589.40	20.471
589.73	20.556
590.07	20.605
590.40	20.716
590.73	20.843
591.07	21.205
591.40	21.215
591.74	21.255
592.07	21.073
592.41	21.207
592.74	21.086
593.08	20.220
593.41	20.247
593.75	19.363
594.08	20.114
594.41	20.926
594.75	20.259
595.08	20.759
595.42	20.280
595.75	19.872
596.09	20.541
596.42	21.375
596.75	20.346
597.09	21.342
597.42	20.700
597.75	21.087
598.09	21.783
598.42	20.275
598.76	20.349
599.09	20.372
599.42	20.269
599.76	19.802
600.09	20.000
600.42	20.161
600.76	19.071
601.09	19.526
601.42	20.282
601.76	20.835
602.09	20.237
602.42	20.422
602.76	20.637
603.09	20.338
603.42	20.461
603.76	20.084
604.09	19.814
604.42	20.179
604.76	21.468
605.09	20.096
605.42	20.735
605.75	20.530
606.09	20.659
606.42	20.065
606.75	20.406
607.09	21.139
607.42	20.539
607.75	19.958
608.08	20.582
608.42	20.887
608.75	19.838
609.08	20.722
609.41	21.085
609.75	20.677
610.08	21.159
610.41	20.298
610.74	20.624
611.07	21.344
611.41	20.707
611.74	21.418
612.07	21.946
612.40	21.668
612.73	21.474
613.07	21.067
613.40	21.854
613.73	20.031
614.06	21.613
614.39	20.556
614.72	21.474
615.06	20.588
615.39	20.594
615.72	20.757
616.05	21.106
616.38	20.511
616.71	21.734
617.05	21.673
617.38	21.347
617.71	20.541
618.04	22.055
618.37	21.762
618.70	22.215
619.03	21.974
619.36	22.132
619.69	21.620
620.03	22.390
620.36	22.928
620.69	22.740
621.02	23.378
621.35	22.396
621.68	23.676
622.01	22.059
622.34	22.920
622.67	23.118
623.00	22.230
623.33	21.873
623.66	23.016
623.99	22.165
624.32	21.969
624.65	21.328
624.99	21.884
625.32	22.448
625.65	22.690
625.98	23.290
626.31	23.017
626.64	23.510
626.97	22.776
627.30	23.358
627.63	23.380
627.96	22.960
628.29	24.409
628.62	24.337
628.95	24.151
629.28	23.540
629.61	23.648
629.94	24.286
630.26	23.928
630.59	25.643
630.92	24.138
631.25	24.284
631.58	25.125
631.91	24.239
632.24	24.156
632.57	24.344
632.90	25.987
633.23	25.839
633.56	27.119
633.89	25.708
634.22	26.901
634.55	28.047
634.88	26.707
635.20	26.523
635.53	27.229
635.86	26.238
636.19	25.882
636.52	25.836
636.85	25.773
637.18	25.576
637.51	25.887
637.83	23.921
638.16	26.087
638.49	26.448
638.82	26.675
639.15	27.875
639.48	25.187
639.81	27.078
640.13	27.865
640.46	26.846
640.79	26.552
641.12	25.309
641.45	27.374
641.77	26.951
642.10	27.047
642.43	27.778
642.76	26.006
643.09	28.528
643.41	27.769
643.74	27.006
644.07	27.591
644.40	28.221
644.73	28.661
645.05	29.477
645.38	27.488
645.71	28.663
646.04	29.734
646.36	30.551
646.69	27.425
647.02	28.571
647.35	29.210
647.67	29.558
648.00	29.268
648.33	27.888
648.66	27.727
648.98	28.186
649.31	24.963
649.64	27.653
649.96	26.826
650.29	27.962
650.62	27.508
650.94	27.066
651.27	29.392
651.60	28.619
651.92	28.275
652.25	25.896
652.58	28.349
652.90	26.382
653.23	26.040
653.56	27.559
653.88	28.209
654.21	29.858
654.54	27.393
654.86	26.324
655.19	25.541
655.52	17.334
655.84	14.700
656.17	18.893
656.49	25.566
656.82	25.785
657.15	19.055
657.47	13.875
657.80	10.790
658.13	10.994
658.45	16.337
658.78	16.055
659.10	16.966
659.43	17.733
659.75	18.714
660.08	20.759
660.41	22.998
660.73	26.811
661.06	26.752
661.38	25.636
661.71	27.692
662.03	30.178
662.36	28.827
662.68	28.715
663.01	29.899
663.33	29.724
663.66	31.933
663.98	30.670
664.31	29.202
664.63	27.530
664.96	28.571
665.28	30.328
665.61	30.409
665.93	26.962
666.26	29.817
666.58	29.916
666.91	33.192
667.23	32.584
667.56	29.158
667.88	31.197
668.21	31.343
668.53	31.020
668.86	30.087
669.18	33.262
669.50	29.783
669.83	33.115
670.15	30.222
670.48	30.719
670.80	30.819
671.13	31.635
671.45	27.660
671.77	29.124
672.10	29.945
672.42	28.092
672.75	26.202
673.07	26.232
673.39	26.763
673.72	28.711
674.04	28.627
674.37	27.767
674.69	29.243
675.01	27.824
675.34	32.649
675.66	30.737
675.98	29.735
676.31	31.933
676.63	30.786
676.95	27.044
677.28	29.206
677.60	30.989
677.92	31.646
678.25	28.131
678.57	29.681
678.89	28.257
679.22	28.684
679.54	28.817
679.86	30.642
680.18	27.907
680.51	27.837
680.83	29.004
681.15	28.868
681.48	28.544
681.80	31.141
682.12	27.395
682.44	23.791
682.77	27.699
683.09	32.618
683.41	28.160
683.73	30.464
684.06	29.752
684.38	29.354
684.70	29.070
685.02	27.955
685.34	28.755
685.67	24.825
685.99	25.945
686.31	26.280
686.63	25.618
686.96	26.964
687.28	28.339
687.60	25.906
687.92	27.239
688.24	28.897
688.56	29.317
688.89	30.705
689.21	27.948
689.53	29.228
689.85	29.712
690.17	26.294
690.49	32.272
690.82	29.439
691.14	27.455
691.46	28.270
691.78	29.920
692.10	29.339
692.42	29.741
692.74	27.593
693.06	31.915
693.39	28.747
693.71	28.603
694.03	31.368
694.35	29.004
694.67	30.892
694.99	32.195
695.31	31.863
695.63	31.340
695.95	28.606
696.27	31.726
696.59	34.715
696.91	31.347
697.23	29.108
697.56	29.211
697.88	28.016
698.20	28.542
698.52	25.806
698.84	29.621
699.16	30.184
699.48	28.029
699.80	29.227
700.12	33.506
700.44	32.626
700.76	30.663
701.08	32.759
701.40	30.726
701.72	37.901
702.04	38.636
702.36	29.178
702.68	32.578
703.00	34.903
703.32	31.649
703.64	31.635
703.96	32.869
704.28	33.721
704.60	33.138
704.91	34.718
705.23	35.191
705.55	33.223
705.87	40.864
706.19	32.155
706.51	33.333
706.83	33.939
707.15	35.294
707.47	30.051
707.79	31.204
708.11	28.995
708.43	30.238
708.74	30.102
709.06	32.208
709.38	31.496
709.70	34.884
710.02	34.421
710.34	34.545
710.66	36.418
710.98	32.670
711.29	31.977
711.61	37.463
711.93	34.295
712.25	37.299
712.57	33.824
712.89	33.564
713.20	37.082
713.52	33.882
713.84	34.810
714.16	29.878
714.48	29.885
714.80	37.690
715.11	29.107
715.43	35.312
715.75	31.014
716.07	35.463
716.39	34.483
716.70	38.538
717.02	35.971
717.34	34.982
717.66	40.299
717.97	40.239
718.29	35.556
718.61	35.401
718.93	37.868
719.24	34.602
719.56	33.898
719.88	36.610
720.20	36.486
720.51	35.540
720.83	38.662
721.15	30.597
721.46	35.106
721.78	34.767
722.10	36.604
722.42	39.474
722.73	38.951
723.05	38.115
723.37	37.652
723.68	37.066
724.00	38.211
724.32	38.306
724.63	37.398
724.95	40.586
725.27	38.057
725.58	39.062
725.90	38.686
726.22	40.000
726.53	35.417
726.85	34.130
727.16	35.943
727.48	33.688
727.80	37.500
728.11	36.957
728.43	36.154
728.74	36.201
729.06	44.526
729.38	39.706
729.69	36.655
730.01	33.106
730.32	32.292
730.64	33.110
730.96	33.003
731.27	34.106
731.59	33.639
731.90	34.694
732.22	31.988
732.53	33.437
732.85	33.654
733.16	30.868
733.48	35.216
733.80	35.714
734.11	35.669
734.43	31.657
734.74	32.000
735.06	28.940
735.37	33.815
735.69	31.210
736.00	38.889
736.32	31.776
736.63	36.422
736.95	35.463
737.26	28.571
737.58	32.903
737.89	34.783
738.21	33.106
738.52	35.714
738.83	32.830
739.15	36.154
739.46	41.241
739.78	35.069
740.09	33.231
740.41	30.968
740.72	30.662
741.04	38.148
741.35	36.667
741.66	44.000
741.98	35.377
742.29	49.282
742.61	46.552
742.92	38.914
743.23	39.744
743.55	38.400
743.86	37.281
744.18	44.690
744.49	41.627
744.80	44.601
745.12	44.091
745.43	43.172
745.74	47.297
746.06	42.661
746.37	39.462
746.68	41.629
747.00	44.907
747.31	43.810
747.62	38.496
747.94	42.731
748.25	40.426
748.56	45.815
748.88	41.089
749.19	46.500
749.50	37.674
749.82	36.585
750.13	38.367
750.44	36.496
750.75	34.737
751.07	37.942
751.38	39.024
751.69	38.628
752.01	37.594
752.32	35.379
752.63	36.525
752.94	40.984
753.26	46.400
753.57	35.366
753.88	35.547
754.19	36.786
754.51	38.889
754.82	33.935
755.13	36.226
755.44	39.474
755.75	35.401
756.07	36.525
756.38	34.307
756.69	36.577
757.00	32.934
757.31	32.641
757.63	29.532
757.94	30.027
758.25	28.431
758.56	29.877
758.87	29.570
759.18	31.212
759.50	33.229
759.81	30.841
760.12	31.875
760.43	32.092
760.74	29.076
761.05	31.073
761.36	29.412
761.67	29.830
761.99	33.851
762.30	37.500
762.61	33.206
762.92	34.766
763.23	37.815
763.54	41.600
763.85	35.937
764.16	38.462
764.47	44.106
764.78	33.922
765.10	29.747
765.41	30.678
765.72	32.335
766.03	34.483
766.34	36.000
766.65	40.426
766.96	38.034
767.27	43.655
767.58	45.312
767.89	51.053
768.20	40.805
768.51	45.178
768.82	37.615
769.13	37.805
769.44	37.652
769.75	38.627
770.06	37.615
770.37	45.249
770.68	43.981
770.99	41.333
771.30	34.426
771.61	39.910
771.92	39.344
772.23	43.697
772.54	42.564
772.85	44.503
773.16	40.426
773.47	48.913
773.78	49.746
774.09	47.024
774.39	52.047
774.70	47.531
775.01	53.623
775.32	50.327
775.63	51.316
775.94	53.237
776.25	57.480
776.56	61.940
776.87	63.115
777.18	67.969
777.48	67.176
777.79	68.939
778.10	55.556
778.41	60.714
778.72	49.635
779.03	54.362
779.34	48.322
779.65	48.649
779.95	49.693
780.26	60.784
780.57	56.552
780.88	67.969
781.19	48.120
781.50	56.757
781.80	48.428
782.11	44.068
782.42	45.570
782.73	42.945
783.04	54.054
783.34	50.704
783.65	58.219
783.96	55.224
784.27	47.552
784.57	53.237
784.88	50.926
785.19	61.111
785.50	59.434
785.81	57.463
786.11	63.115
786.42	56.589
786.73	58.407
787.04	65.094
787.34	69.643
787.65	71.000
787.96	67.568
788.26	61.983
788.57	67.797
788.88	66.942
789.19	60.417
789.49	64.394
789.80	59.542
790.11	69.524
790.41	73.267
790.72	71.084
791.03	79.348
791.33	79.070
791.64	68.041
791.95	77.228
792.25	76.667
792.56	84.416
792.87	82.051
793.17	84.810
793.48	79.310
793.79	79.310
794.09	78.409
794.40	58.824
794.70	62.500
795.01	55.556
795.32	52.518
795.62	59.055
795.93	61.207
796.23	70.796
796.54	71.765
796.85	78.378
797.15	102.817
797.46	100.000
797.76	81.928
798.07	78.481
798.37	95.385
798.68	93.939
798.99	64.789
799.29	98.701
799.60	76.136
799.90	93.151
800.21	86.567
800.51	100.000
800.82	117.544
801.12	104.918
801.43	101.515
801.73	79.730
802.04	107.937
802.34	86.420
802.65	90.625
802.95	110.169
803.26	103.125
803.56	94.286
803.87	90.769
804.17	85.294
804.48	127.778
804.78	98.276
805.09	94.118
805.39	96.154
805.70	100.000
806.00	108.197
806.30	101.515
806.61	90.244
806.91	75.949
807.22	84.211
807.52	67.164
807.83	94.366
808.13	95.312
808.43	95.000
808.74	93.421
809.04	101.449
809.35	95.522
809.65	81.579
809.95	116.129
810.26	105.085
810.56	87.302
810.86	152.273
811.17	121.429
811.47	116.667
811.77	105.556
812.08	130.909
812.38	148.000
812.69	150.000
812.99	147.727
813.29	110.204
813.59	107.143
813.90	126.531
814.20	118.182
814.50	83.077
814.81	119.118
815.11	128.571
815.41	88.525
815.72	142.857
816.02	141.818
816.32	154.762
816.62	157.500
816.93	139.024
817.23	145.238
817.53	120.455
817.84	178.788
818.14	147.826
818.44	142.222
818.74	176.471
819.04	162.500
819.35	148.571
819.65	164.706
819.95	235.714
820.25	240.000
820.56	153.846
820.86	143.182
821.16	141.860
821.46	146.154
821.76	160.000
822.07	154.286
822.37	150.000
822.67	139.394
822.97	115.686
823.27	235.714
823.57	167.568
823.88	152.500
824.18	210.000
824.48	152.381
824.78	208.000
825.08	204.167
825.38	178.378
825.69	143.902
825.99	258.333
826.29	148.276
826.59	173.684
826.89	152.632
827.19	167.647
827.49	158.065
827.79	161.364
828.09	163.636
828.39	138.298
828.70	126.531
829.00	203.704
829.30	145.161
829.60	152.500
829.90	313.333
830.20	192.857
830.50	186.957
830.80	221.739
831.10	190.000
831.40	210.000
831.70	173.913
832.00	265.385
832.30	225.926
832.60	400.000
832.90	250.000
833.20	392.857
833.50	187.097
833.80	179.310
834.10	187.500
834.40	223.077
834.70	316.667
835.00	319.048
835.30	185.714
835.60	392.308
835.90	234.483
836.20	435.714
836.50	200.000
836.80	184.000
837.10	202.778
837.40	261.905
837.70	329.412
838.00	214.815
838.30	266.667
838.60	261.905
838.90	230.769
839.19	230.000
839.49	421.429
839.79	330.000
840.09	295.000
840.39	304.762
840.69	260.870
840.99	266.667
841.29	400.000
841.59	358.333
841.88	306.250
842.18	182.759
842.48	247.619
842.78	206.667
843.08	260.870
843.38	171.875
843.68	833.333
843.97	242.308
844.27	213.793
844.57	319.048
844.87	387.500
845.17	222.222
845.47	1666.667
845.76	466.667
846.06	335.294
846.36	550.000
846.66	364.286
846.96	337.500
847.25	381.818
847.55	454.545
847.85	200.000
848.15	470.000
848.44	378.571
848.74	244.444
849.04	341.176
849.34	640.000
849.63	242.105
849.93	436.364
850.23	1060.000
850.53	357.143
850.82	2950.000
851.12	-6100.000
851.42	4200.000
851.71	295.000
852.01	-1266.667
852.31	250.000
852.61	1866.667
852.90	242.857
853.20	260.000
853.50	400.000
853.79	261.905
854.09	245.833
854.39	387.500
854.68	178.378
854.98	193.548
855.28	166.667
855.57	268.966
855.87	222.222
856.17	257.895
856.46	266.667
856.76	323.529
857.05	248.276
857.35	195.833
857.65	353.333
857.94	247.826
858.24	242.308
858.53	310.000
858.83	295.455
859.13	346.667
859.42	0.000
859.72	633.333
860.01	463.636
860.31	227.273
860.60	357.895
860.90	243.478
861.20	500.000
861.49	525.000
861.79	-4800.000
862.08	700.000
862.38	309.524
862.67	384.615
862.97	411.765
863.26	588.889
863.56	294.444
863.85	366.667
864.15	612.500
864.44	340.000
864.74	750.000
865.03	600.000
865.33	305.263
865.62	472.727
865.92	400.000
866.21	441.667
866.51	0.000
866.80	536.364
867.10	1040.000
867.39	453.846
867.69	418.182
867.98	263.158
868.27	481.818
868.57	294.737
868.86	-5900.000
869.16	350.000
869.45	2200.000
869.75	-4700.000
870.04	458.333
870.33	600.000
870.63	1100.000
870.92	2900.000
871.22	842.857
871.51	376.471
871.80	271.429
872.10	385.714
>>>>>End Processed Spectral Data<<<<<
