SpectraSuite Data File
++++++++++++++++++++++++++++++++++++
Date: Wed May 13 19:57:19 PDT 2015
User: schluterlab
Dark Spectrum Present: Yes
Reference Spectrum Present: Yes
Number of Sampled Component Spectra: 1
Spectrometers: USB2E3373
Integration Time (usec): 3000 (USB2E3373)
Spectra Averaged: 3 (USB2E3373)
Boxcar Smoothing: 0 (USB2E3373)
Correct for Electrical Dark: No (USB2E3373)
Strobe/Lamp Enabled: No (USB2E3373)
Correct for Detector Non-linearity: No (USB2E3373)
Correct for Stray Light: No (USB2E3373)
Number of Pixels in Processed Spectrum: 2048
>>>>>Begin Processed Spectral Data<<<<<
178.53	0.000
178.91	-1525.000
179.29	-1325.000
179.67	-272.222
180.04	-1250.000
180.42	2350.000
180.80	1080.000
181.18	-1025.000
181.56	700.000
181.94	0.000
182.31	-614.286
182.69	1833.333
183.07	-662.500
183.45	-511.111
183.83	554.545
184.20	-430.000
184.58	2550.000
184.96	5800.000
185.34	-780.000
185.72	-725.000
186.09	-2450.000
186.47	2550.000
186.85	2750.000
187.23	5700.000
187.61	-1833.333
187.98	1450.000
188.36	645.455
188.74	472.727
189.12	-920.000
189.49	570.000
189.87	-4000.000
190.25	-1150.000
190.63	435.714
191.00	461.538
191.38	900.000
191.76	-1000.000
192.14	1200.000
192.51	650.000
192.89	1100.000
193.27	600.000
193.65	-1500.000
194.02	500.000
194.40	960.000
194.78	530.000
195.15	566.667
195.53	630.000
195.91	-2100.000
196.29	343.750
196.66	326.316
197.04	-330.000
197.42	0.000
197.79	690.000
198.17	-4200.000
198.55	557.143
198.92	725.000
199.30	940.000
199.68	0.000
200.05	283.333
200.43	771.429
200.81	5200.000
201.18	1666.667
201.56	-1666.667
201.94	555.556
202.31	477.778
202.69	475.000
203.07	490.000
203.44	0.000
203.82	1100.000
204.19	742.857
204.57	407.143
204.95	625.000
205.32	1566.667
205.70	481.818
206.08	392.857
206.45	2750.000
206.83	343.750
207.20	983.333
207.58	740.000
207.96	294.444
208.33	787.500
208.71	-716.667
209.08	814.286
209.46	600.000
209.84	490.909
210.21	-1133.333
210.59	1550.000
210.96	-462.500
211.34	2450.000
211.71	690.000
212.09	666.667
212.46	0.000
212.84	1733.333
213.22	1300.000
213.59	-4400.000
213.97	866.667
214.34	728.571
214.72	509.091
215.09	1060.000
215.47	-2350.000
215.84	-2150.000
216.22	2133.333
216.59	350.000
216.97	1425.000
217.34	463.636
217.72	-666.667
218.09	0.000
218.47	-4800.000
218.84	522.222
219.22	628.571
219.59	1466.667
219.97	-614.286
220.34	980.000
220.72	-1900.000
221.09	457.143
221.47	1600.000
221.84	-883.333
222.22	0.000
222.59	1350.000
222.97	-2200.000
223.34	1160.000
223.72	392.308
224.09	940.000
224.46	2450.000
224.84	-5100.000
225.21	-1100.000
225.59	-5000.000
225.96	620.000
226.34	340.000
226.71	2750.000
227.08	650.000
227.46	530.000
227.83	-900.000
228.21	-2300.000
228.58	655.556
228.95	-2600.000
229.33	-2250.000
229.70	1866.667
230.08	814.286
230.45	-960.000
230.82	466.667
231.20	766.667
231.57	542.857
231.95	458.333
232.32	268.182
232.69	336.364
233.07	614.286
233.44	384.615
233.81	-1633.333
234.19	273.684
234.56	358.333
234.93	400.000
235.31	463.636
235.68	384.615
236.05	350.000
236.43	196.970
236.80	278.947
237.17	4100.000
237.55	214.286
237.92	196.429
238.29	228.571
238.67	138.710
239.04	186.207
239.41	152.778
239.79	115.217
240.16	138.095
240.53	152.273
240.91	109.804
241.28	114.000
241.65	112.000
242.02	86.957
242.40	98.387
242.77	78.333
243.14	72.043
243.51	79.775
243.89	62.353
244.26	60.000
244.63	61.290
245.00	60.638
245.38	51.485
245.75	58.879
246.12	43.119
246.49	54.745
246.87	57.600
247.24	51.538
247.61	45.714
247.98	35.948
248.36	42.568
248.73	40.127
249.10	43.949
249.47	36.723
249.84	40.642
250.22	35.829
250.59	36.686
250.96	33.333
251.33	36.019
251.70	39.604
252.08	40.000
252.45	31.839
252.82	28.261
253.19	32.340
253.56	32.941
253.94	28.631
254.31	28.906
254.68	32.308
255.05	28.782
255.42	30.894
255.79	31.618
256.16	27.437
256.54	26.502
256.91	27.046
257.28	22.662
257.65	25.083
258.02	24.845
258.39	25.552
258.76	24.080
259.14	26.190
259.51	26.748
259.88	22.671
260.25	22.961
260.62	24.566
260.99	24.534
261.36	24.925
261.73	23.209
262.10	24.709
262.47	24.789
262.85	24.513
263.22	25.071
263.59	27.350
263.96	24.451
264.33	26.371
264.70	20.000
265.07	22.762
265.44	24.495
265.81	19.708
266.18	22.362
266.55	22.195
266.92	17.936
267.29	24.306
267.66	19.725
268.03	20.682
268.40	22.664
268.77	20.048
269.14	18.919
269.51	21.445
269.88	22.611
270.25	21.219
270.62	21.124
270.99	20.215
271.36	19.099
271.73	19.860
272.10	21.087
272.47	21.290
272.84	20.346
273.21	21.384
273.58	20.306
273.95	19.287
274.32	19.421
274.69	21.842
275.06	15.748
275.43	21.064
275.80	21.443
276.17	17.923
276.54	20.374
276.91	19.763
277.28	18.359
277.65	20.116
278.02	17.184
278.39	18.359
278.76	19.636
279.13	18.113
279.50	19.739
279.87	18.725
280.23	17.964
280.60	18.182
280.97	17.930
281.34	19.115
281.71	19.636
282.08	18.426
282.45	15.818
282.82	17.584
283.19	16.221
283.56	19.474
283.92	18.782
284.29	16.578
284.66	17.423
285.03	16.817
285.40	17.254
285.77	17.172
286.14	17.789
286.51	16.500
286.87	18.632
287.24	16.775
287.61	16.533
287.98	17.532
288.35	16.640
288.72	17.757
289.08	18.153
289.45	16.474
289.82	16.585
290.19	15.542
290.56	15.620
290.93	14.955
291.29	15.491
291.66	15.339
292.03	17.733
292.40	16.153
292.77	14.793
293.13	14.030
293.50	16.618
293.87	16.000
294.24	15.704
294.60	14.993
294.97	14.390
295.34	16.643
295.71	14.773
296.08	13.960
296.44	14.443
296.81	13.871
297.18	15.447
297.55	12.665
297.91	13.588
298.28	13.521
298.65	14.230
299.02	13.834
299.38	13.015
299.75	11.995
300.12	12.133
300.48	13.750
300.85	12.700
301.22	12.484
301.59	13.005
301.95	15.365
302.32	11.938
302.69	13.381
303.05	12.485
303.42	12.840
303.79	14.383
304.15	11.655
304.52	12.283
304.89	12.776
305.25	12.297
305.62	12.684
305.99	13.577
306.35	11.633
306.72	13.341
307.09	12.764
307.45	13.176
307.82	11.049
308.19	13.135
308.55	12.406
308.92	12.030
309.29	12.038
309.65	11.771
310.02	11.839
310.38	12.903
310.75	12.144
311.12	11.566
311.48	12.539
311.85	13.312
312.22	13.424
312.58	12.682
312.95	14.044
313.31	10.971
313.68	12.890
314.05	14.201
314.41	13.065
314.78	13.293
315.14	13.605
315.51	13.903
315.87	14.158
316.24	14.201
316.61	14.133
316.97	14.188
317.34	13.503
317.70	15.583
318.07	15.399
318.43	15.851
318.80	17.245
319.16	16.290
319.53	15.572
319.89	17.714
320.26	18.500
320.62	18.452
320.99	19.394
321.35	18.182
321.72	19.199
322.08	21.422
322.45	21.791
322.81	22.287
323.18	22.254
323.54	23.006
323.91	23.208
324.27	22.467
324.64	23.299
325.00	23.895
325.37	24.659
325.73	26.661
326.10	26.743
326.46	26.613
326.83	26.920
327.19	27.327
327.56	27.787
327.92	28.959
328.29	30.435
328.65	30.203
329.01	28.881
329.38	29.695
329.74	30.379
330.11	31.480
330.47	30.946
330.84	31.526
331.20	31.421
331.56	31.009
331.93	33.426
332.29	31.943
332.66	31.416
333.02	33.272
333.38	33.333
333.75	34.314
334.11	33.719
334.48	33.097
334.84	33.915
335.20	33.818
335.57	33.454
335.93	32.054
336.29	34.249
336.66	33.183
337.02	32.851
337.38	34.074
337.75	33.155
338.11	33.930
338.47	33.610
338.84	34.464
339.20	34.037
339.56	35.584
339.93	35.545
340.29	34.601
340.65	34.046
341.02	35.864
341.38	36.210
341.74	35.175
342.11	35.459
342.47	35.330
342.83	34.846
343.20	35.498
343.56	34.794
343.92	35.965
344.28	35.884
344.65	36.629
345.01	33.418
345.37	35.763
345.73	35.702
346.10	35.806
346.46	35.847
346.82	36.244
347.19	36.257
347.55	35.140
347.91	36.327
348.27	36.072
348.63	36.873
349.00	35.922
349.36	35.468
349.72	36.889
350.08	35.900
350.45	37.510
350.81	36.312
351.17	36.710
351.53	35.954
351.89	36.056
352.26	38.358
352.62	37.129
352.98	37.763
353.34	38.127
353.70	37.971
354.07	38.387
354.43	36.746
354.79	37.088
355.15	37.350
355.51	38.769
355.87	40.000
356.24	38.925
356.60	36.407
356.96	38.938
357.32	39.002
357.68	38.504
358.04	39.113
358.40	39.351
358.77	38.498
359.13	38.437
359.49	38.745
359.85	37.302
360.21	39.713
360.57	39.066
360.93	40.154
361.29	38.927
361.66	39.706
362.02	39.254
362.38	40.456
362.74	41.369
363.10	39.600
363.46	40.205
363.82	40.816
364.18	40.749
364.54	42.496
364.90	42.068
365.26	42.574
365.62	41.928
365.98	41.344
366.35	41.547
366.71	42.010
367.07	42.462
367.43	41.655
367.79	43.183
368.15	43.678
368.51	42.151
368.87	43.469
369.23	43.380
369.59	44.316
369.95	42.574
370.31	43.305
370.67	42.971
371.03	46.367
371.39	45.481
371.75	44.779
372.11	42.745
372.47	45.894
372.83	47.406
373.19	45.665
373.55	45.972
373.91	47.644
374.27	46.048
374.63	46.618
374.99	46.257
375.35	47.802
375.71	45.579
376.07	46.914
376.42	47.937
376.78	48.641
377.14	47.218
377.50	48.940
377.86	48.537
378.22	47.914
378.58	48.120
378.94	48.774
379.30	47.964
379.66	49.619
380.02	48.464
380.38	49.362
380.74	49.280
381.09	50.183
381.45	50.215
381.81	51.044
382.17	50.573
382.53	50.755
382.89	51.667
383.25	52.095
383.61	52.292
383.97	51.970
384.32	51.778
384.68	51.797
385.04	52.797
385.40	51.146
385.76	52.518
386.12	52.655
386.48	53.304
386.83	53.945
387.19	53.123
387.55	54.113
387.91	53.748
388.27	53.219
388.62	53.042
388.98	53.686
389.34	54.255
389.70	55.181
390.06	54.943
390.42	56.161
390.77	55.344
391.13	55.073
391.49	56.218
391.85	55.188
392.20	55.268
392.56	56.376
392.92	55.739
393.28	54.911
393.64	55.216
393.99	56.017
394.35	56.141
394.71	55.709
395.07	55.265
395.42	56.489
395.78	56.616
396.14	55.431
396.50	57.018
396.85	58.487
397.21	55.117
397.57	56.789
397.92	56.671
398.28	55.886
398.64	56.213
399.00	55.904
399.35	56.120
399.71	56.597
400.07	56.298
400.42	58.221
400.78	57.479
401.14	56.098
401.49	57.015
401.85	56.140
402.21	57.126
402.57	57.372
402.92	57.188
403.28	56.590
403.63	57.488
403.99	57.771
404.35	57.273
404.70	57.854
405.06	56.552
405.42	58.827
405.77	56.114
406.13	57.731
406.49	57.126
406.84	58.594
407.20	56.797
407.55	58.264
407.91	58.400
408.27	58.073
408.62	57.857
408.98	57.537
409.34	56.888
409.69	58.065
410.05	58.116
410.40	57.492
410.76	57.646
411.11	56.936
411.47	56.230
411.83	58.155
412.18	58.380
412.54	56.476
412.89	56.325
413.25	56.553
413.60	58.246
413.96	56.466
414.31	56.622
414.67	57.161
415.03	58.013
415.38	56.894
415.74	58.071
416.09	58.720
416.45	57.497
416.80	57.502
417.16	56.702
417.51	57.465
417.87	56.005
418.22	58.675
418.58	57.134
418.93	56.880
419.29	57.861
419.64	57.620
420.00	57.256
420.35	56.986
420.71	57.442
421.06	57.757
421.42	56.901
421.77	56.839
422.12	57.720
422.48	56.233
422.83	56.494
423.19	57.293
423.54	56.936
423.90	57.217
424.25	56.170
424.61	56.310
424.96	57.784
425.31	56.368
425.67	56.629
426.02	57.143
426.38	57.387
426.73	55.705
427.09	55.198
427.44	56.699
427.79	56.814
428.15	55.655
428.50	55.881
428.85	56.079
429.21	55.715
429.56	55.106
429.92	55.259
430.27	55.362
430.62	55.658
430.98	55.942
431.33	54.742
431.68	55.759
432.04	54.420
432.39	56.196
432.74	56.732
433.10	56.084
433.45	55.918
433.80	55.322
434.16	56.090
434.51	55.947
434.86	55.815
435.22	56.309
435.57	56.292
435.92	55.003
436.28	56.168
436.63	54.967
436.98	54.322
437.34	56.112
437.69	56.301
438.04	56.155
438.39	55.821
438.75	54.678
439.10	56.034
439.45	55.136
439.81	56.435
440.16	54.320
440.51	54.892
440.86	55.877
441.22	56.229
441.57	54.512
441.92	56.141
442.27	55.113
442.63	54.818
442.98	54.986
443.33	54.239
443.68	55.963
444.03	55.539
444.39	53.554
444.74	54.816
445.09	54.825
445.44	53.089
445.79	54.280
446.15	53.732
446.50	55.250
446.85	55.190
447.20	54.411
447.55	54.830
447.91	54.826
448.26	54.090
448.61	54.042
448.96	53.987
449.31	53.993
449.66	52.842
450.02	52.813
450.37	53.968
450.72	54.033
451.07	52.895
451.42	52.948
451.77	54.551
452.12	52.598
452.47	52.177
452.83	52.797
453.18	52.812
453.53	54.484
453.88	53.574
454.23	53.317
454.58	53.725
454.93	53.528
455.28	52.805
455.63	53.762
455.98	53.690
456.34	53.769
456.69	53.037
457.04	52.446
457.39	51.315
457.74	51.074
458.09	51.984
458.44	51.881
458.79	51.139
459.14	51.749
459.49	52.656
459.84	51.745
460.19	50.913
460.54	50.174
460.89	51.179
461.24	52.034
461.59	52.005
461.94	51.541
462.29	51.632
462.64	51.244
462.99	49.837
463.34	51.133
463.69	50.969
464.04	50.899
464.39	48.522
464.74	50.089
465.09	50.060
465.44	49.474
465.79	49.664
466.14	49.371
466.49	48.665
466.84	49.037
467.19	49.125
467.54	48.687
467.89	49.520
468.24	48.517
468.59	49.939
468.94	48.137
469.29	48.650
469.64	49.531
469.99	50.068
470.34	48.481
470.68	47.629
471.03	47.143
471.38	49.757
471.73	48.501
472.08	49.342
472.43	48.304
472.78	48.453
473.13	47.112
473.48	48.002
473.83	46.585
474.17	47.044
474.52	47.457
474.87	46.527
475.22	46.721
475.57	46.480
475.92	46.840
476.27	45.772
476.61	46.553
476.96	46.234
477.31	44.584
477.66	46.116
478.01	45.374
478.36	45.426
478.70	45.431
479.05	44.888
479.40	45.394
479.75	45.297
480.10	45.775
480.45	44.407
480.79	43.239
481.14	44.618
481.49	44.044
481.84	44.124
482.19	42.935
482.53	43.807
482.88	43.881
483.23	44.065
483.58	43.449
483.92	43.580
484.27	41.612
484.62	41.207
484.97	41.703
485.31	42.911
485.66	41.200
486.01	40.641
486.36	39.397
486.70	39.275
487.05	39.152
487.40	39.888
487.75	39.704
488.09	40.127
488.44	40.193
488.79	41.627
489.13	41.291
489.48	40.824
489.83	40.958
490.17	41.342
490.52	41.054
490.87	41.203
491.22	40.609
491.56	39.863
491.91	40.019
492.26	40.469
492.60	39.539
492.95	39.055
493.30	39.065
493.64	39.851
493.99	39.972
494.34	40.379
494.68	39.148
495.03	39.098
495.37	39.414
495.72	40.302
496.07	39.258
496.41	37.832
496.76	39.138
497.11	38.271
497.45	38.472
497.80	38.100
498.14	38.164
498.49	39.073
498.84	37.967
499.18	38.095
499.53	36.847
499.87	37.279
500.22	37.777
500.56	38.155
500.91	37.115
501.26	37.079
501.60	38.206
501.95	36.480
502.29	38.379
502.64	37.197
502.98	36.746
503.33	35.923
503.67	36.752
504.02	36.717
504.36	36.266
504.71	35.809
505.06	36.771
505.40	35.440
505.75	35.439
506.09	35.423
506.44	36.162
506.78	36.337
507.13	35.437
507.47	35.354
507.82	35.816
508.16	35.866
508.51	35.515
508.85	34.707
509.19	36.071
509.54	34.949
509.88	34.827
510.23	34.704
510.57	34.830
510.92	35.111
511.26	34.430
511.61	34.284
511.95	33.820
512.30	34.199
512.64	34.927
512.98	35.531
513.33	34.261
513.67	33.938
514.02	33.550
514.36	34.790
514.70	33.868
515.05	33.631
515.39	33.819
515.74	34.403
516.08	34.209
516.42	33.574
516.77	34.727
517.11	34.240
517.46	33.634
517.80	33.856
518.14	33.526
518.49	33.022
518.83	33.693
519.17	33.199
519.52	32.824
519.86	33.257
520.20	33.468
520.55	33.094
520.89	33.881
521.23	33.353
521.58	32.773
521.92	33.129
522.26	32.520
522.61	32.773
522.95	31.921
523.29	31.771
523.64	32.073
523.98	33.518
524.32	31.665
524.66	31.389
525.01	31.495
525.35	31.599
525.69	31.342
526.04	31.713
526.38	30.750
526.72	31.963
527.06	31.952
527.41	30.322
527.75	32.026
528.09	31.663
528.43	32.760
528.78	30.854
529.12	31.030
529.46	31.292
529.80	31.683
530.15	31.464
530.49	29.354
530.83	30.696
531.17	30.809
531.51	31.453
531.86	31.355
532.20	31.030
532.54	30.173
532.88	31.515
533.22	29.794
533.57	30.185
533.91	29.500
534.25	30.194
534.59	30.628
534.93	29.625
535.27	28.425
535.62	30.342
535.96	30.006
536.30	29.752
536.64	29.298
536.98	29.662
537.32	30.217
537.66	30.067
538.01	29.493
538.35	29.282
538.69	29.802
539.03	27.680
539.37	27.987
539.71	28.386
540.05	28.758
540.39	29.037
540.73	29.819
541.07	29.332
541.42	28.637
541.76	28.516
542.10	29.043
542.44	28.609
542.78	28.854
543.12	27.703
543.46	29.180
543.80	28.757
544.14	27.214
544.48	27.556
544.82	27.967
545.16	28.627
545.50	26.928
545.84	27.890
546.18	27.946
546.52	28.286
546.86	28.797
547.20	28.591
547.54	27.722
547.88	27.997
548.22	27.833
548.56	26.604
548.90	26.633
549.24	26.801
549.58	27.899
549.92	27.610
550.26	27.699
550.60	26.694
550.94	27.887
551.28	26.189
551.62	27.103
551.96	27.228
552.30	27.850
552.64	27.451
552.98	28.339
553.32	27.310
553.66	27.198
554.00	27.248
554.34	27.743
554.68	26.896
555.02	27.221
555.36	27.418
555.69	26.116
556.03	25.639
556.37	27.217
556.71	25.648
557.05	25.770
557.39	26.662
557.73	26.394
558.07	27.629
558.41	25.904
558.75	26.525
559.08	26.846
559.42	26.606
559.76	26.618
560.10	25.054
560.44	25.367
560.78	25.349
561.12	25.330
561.45	25.489
561.79	24.918
562.13	25.755
562.47	25.068
562.81	24.826
563.15	25.485
563.48	24.735
563.82	24.331
564.16	24.918
564.50	24.219
564.84	25.158
565.17	24.710
565.51	25.176
565.85	24.365
566.19	24.108
566.52	25.079
566.86	24.955
567.20	25.118
567.54	23.801
567.88	24.117
568.21	23.810
568.55	23.610
568.89	23.054
569.23	23.574
569.56	22.834
569.90	22.604
570.24	22.390
570.57	21.557
570.91	21.881
571.25	21.711
571.59	22.003
571.92	21.803
572.26	21.664
572.60	21.532
572.93	21.919
573.27	21.503
573.61	21.859
573.95	21.602
574.28	21.156
574.62	21.234
574.96	20.717
575.29	20.732
575.63	20.528
575.97	20.984
576.30	21.057
576.64	20.900
576.98	20.807
577.31	21.026
577.65	20.673
577.98	20.426
578.32	19.857
578.66	20.524
578.99	20.224
579.33	19.923
579.67	20.141
580.00	19.947
580.34	20.669
580.67	20.444
581.01	20.283
581.35	19.902
581.68	19.676
582.02	19.521
582.35	19.530
582.69	20.144
583.02	19.941
583.36	20.314
583.70	20.280
584.03	20.376
584.37	20.632
584.70	20.350
585.04	19.961
585.37	19.991
585.71	20.418
586.04	20.053
586.38	20.141
586.72	20.133
587.05	19.750
587.39	19.921
587.72	20.227
588.06	19.957
588.39	20.384
588.73	19.801
589.06	20.224
589.40	20.438
589.73	20.767
590.07	20.641
590.40	20.716
590.73	20.219
591.07	21.449
591.40	21.004
591.74	22.035
592.07	20.681
592.41	20.670
592.74	19.888
593.08	19.654
593.41	19.867
593.75	19.550
594.08	20.416
594.41	19.760
594.75	19.889
595.08	19.721
595.42	19.720
595.75	19.801
596.09	20.653
596.42	20.668
596.75	20.431
597.09	21.515
597.42	19.646
597.75	20.526
598.09	21.000
598.42	20.232
598.76	19.943
599.09	19.574
599.42	19.614
599.76	19.363
600.09	19.417
600.42	19.175
600.76	19.286
601.09	18.944
601.42	19.482
601.76	19.848
602.09	19.486
602.42	19.865
602.76	19.952
603.09	19.670
603.42	20.461
603.76	18.941
604.09	19.542
604.42	19.690
604.76	20.034
605.09	19.353
605.42	19.410
605.75	19.329
606.09	19.398
606.42	19.698
606.75	19.535
607.09	19.506
607.42	19.598
607.75	19.156
608.08	19.583
608.42	19.677
608.75	18.846
609.08	19.889
609.41	19.181
609.75	19.295
610.08	20.170
610.41	19.507
610.74	19.111
611.07	19.862
611.41	19.578
611.74	20.613
612.07	20.859
612.40	20.672
612.73	19.474
613.07	20.420
613.40	20.063
613.73	19.874
614.06	19.785
614.39	19.455
614.72	20.211
615.06	19.590
615.39	19.586
615.72	19.530
616.05	20.043
616.38	19.956
616.71	19.952
617.05	20.436
617.38	20.926
617.71	19.520
618.04	20.613
618.37	20.402
618.70	20.784
619.03	21.053
619.36	20.638
619.69	20.915
620.03	20.948
620.36	21.992
620.69	21.644
621.02	21.165
621.35	20.360
621.68	21.028
622.01	20.201
622.34	22.163
622.67	21.141
623.00	20.616
623.33	19.943
623.66	20.372
623.99	20.692
624.32	20.685
624.65	20.480
624.99	20.042
625.32	19.406
625.65	20.361
625.98	20.984
626.31	21.928
626.64	21.796
626.97	21.446
627.30	20.865
627.63	21.739
627.96	20.942
628.29	21.085
628.62	22.415
628.95	22.170
629.28	20.803
629.61	23.190
629.94	22.000
630.26	22.116
630.59	20.591
630.92	22.701
631.25	20.434
631.58	21.121
631.91	21.400
632.24	22.046
632.57	21.931
632.90	22.807
633.23	21.477
633.56	23.051
633.89	23.103
634.22	23.156
634.55	22.959
634.88	22.874
635.20	21.983
635.53	23.373
635.86	23.020
636.19	22.118
636.52	23.068
636.85	22.222
637.18	20.622
637.51	23.522
637.83	19.852
638.16	21.355
638.49	22.796
638.82	23.135
639.15	23.000
639.48	23.441
639.81	23.458
640.13	22.786
640.46	23.087
640.79	22.985
641.12	22.834
641.45	23.184
641.77	22.828
642.10	23.830
642.43	22.823
642.76	23.375
643.09	25.307
643.41	25.341
643.74	25.000
644.07	23.171
644.40	25.153
644.73	25.984
645.05	25.832
645.38	24.803
645.71	25.604
646.04	24.917
646.36	25.042
646.69	26.421
647.02	23.469
647.35	25.258
647.67	25.664
648.00	26.504
648.33	26.238
648.66	23.939
648.98	24.588
649.31	23.617
649.64	23.767
649.96	23.994
650.29	24.329
650.62	24.919
650.94	25.608
651.27	23.480
651.60	25.291
651.92	24.601
652.25	23.941
652.58	23.364
652.90	24.171
653.23	23.112
653.56	22.677
653.88	25.040
654.21	24.487
654.54	23.432
654.86	24.611
655.19	22.703
655.52	14.525
655.84	13.024
656.17	16.345
656.49	22.732
656.82	22.891
657.15	17.749
657.47	13.026
657.80	10.120
658.13	10.703
658.45	15.843
658.78	15.836
659.10	16.728
659.43	17.631
659.75	18.222
660.08	19.557
660.41	21.695
660.73	22.999
661.06	25.000
661.38	24.727
661.71	26.346
662.03	27.613
662.36	24.453
662.68	25.703
663.01	26.061
663.33	26.752
663.66	25.630
663.98	24.406
664.31	24.790
664.63	24.089
664.96	23.944
665.28	26.844
665.61	22.417
665.93	24.346
666.26	25.761
666.58	26.151
666.91	28.964
667.23	28.090
667.56	22.894
667.88	29.487
668.21	27.505
668.53	26.898
668.86	25.541
669.18	27.719
669.50	27.174
669.83	28.540
670.15	27.778
670.48	26.362
670.80	28.448
671.13	27.601
671.45	27.234
671.77	25.458
672.10	24.214
672.42	23.852
672.75	23.715
673.07	24.296
673.39	22.785
673.72	22.852
674.04	25.294
674.37	24.078
674.69	24.335
675.01	24.268
675.34	25.873
675.66	27.158
675.98	26.884
676.31	26.681
676.63	25.265
676.95	27.463
677.28	23.832
677.60	24.835
677.92	28.692
678.25	27.721
678.57	25.896
678.89	24.449
679.22	25.933
679.54	25.573
679.86	27.706
680.18	23.614
680.51	25.709
680.83	23.843
681.15	24.906
681.48	24.386
681.80	24.565
682.12	26.054
682.44	22.244
682.77	23.014
683.09	29.828
683.41	27.938
683.73	26.932
684.06	25.620
684.38	25.636
684.70	22.674
685.02	24.203
685.34	21.978
685.67	23.077
685.99	22.509
686.31	22.014
686.63	21.731
686.96	21.964
687.28	23.285
687.60	20.652
687.92	22.669
688.24	24.715
688.56	26.506
688.89	25.726
689.21	27.729
689.53	25.678
689.85	25.942
690.17	22.153
690.49	29.512
690.82	27.336
691.14	23.884
691.46	23.840
691.78	25.703
692.10	22.934
692.42	24.950
692.74	23.859
693.06	25.532
693.39	26.489
693.71	25.546
694.03	24.211
694.35	26.623
694.67	27.002
694.99	26.829
695.31	25.490
695.63	25.359
695.95	26.161
696.27	22.589
696.59	26.166
696.91	26.425
697.23	23.005
697.56	27.292
697.88	23.722
698.20	23.125
698.52	26.452
698.84	25.612
699.16	25.806
699.48	26.128
699.80	27.778
700.12	29.870
700.44	28.382
700.76	25.967
701.08	31.609
701.40	29.888
701.72	30.612
702.04	28.977
702.36	27.195
702.68	27.195
703.00	28.255
703.32	26.064
703.64	29.759
703.96	26.184
704.28	30.233
704.60	29.912
704.91	30.861
705.23	29.326
705.55	31.894
705.87	35.880
706.19	31.095
706.51	28.660
706.83	28.485
707.15	29.132
707.47	25.758
707.79	29.484
708.11	26.941
708.43	27.143
708.74	25.255
709.06	29.351
709.38	25.984
709.70	27.907
710.02	29.970
710.34	28.182
710.66	29.851
710.98	30.966
711.29	29.942
711.61	33.038
711.93	25.641
712.25	29.260
712.57	29.779
712.89	30.104
713.20	31.915
713.52	28.947
713.84	30.380
714.16	31.098
714.48	29.310
714.80	32.827
715.11	28.818
715.43	29.080
715.75	26.377
716.07	30.032
716.39	30.094
716.70	35.216
717.02	31.295
717.34	29.682
717.66	32.836
717.97	36.653
718.29	31.852
718.61	30.657
718.93	33.456
719.24	31.142
719.56	29.153
719.88	30.847
720.20	30.068
720.51	34.843
720.83	36.059
721.15	28.731
721.46	32.979
721.78	35.125
722.10	33.208
722.42	33.835
722.73	35.206
723.05	29.918
723.37	31.174
723.68	32.432
724.00	31.301
724.32	31.452
724.63	35.366
724.95	30.962
725.27	36.842
725.58	33.984
725.90	31.752
726.22	28.679
726.53	26.736
726.85	32.423
727.16	34.520
727.48	34.397
727.80	29.167
728.11	30.797
728.43	32.308
728.74	29.749
729.06	35.766
729.38	32.721
729.69	32.384
730.01	29.010
730.32	26.736
730.64	32.107
730.96	29.043
731.27	33.113
731.59	31.804
731.90	31.778
732.22	31.677
732.53	28.793
732.85	27.885
733.16	30.868
733.48	29.568
733.80	30.519
734.11	30.892
734.43	28.402
734.74	28.571
735.06	25.501
735.37	30.058
735.69	25.796
736.00	29.412
736.32	30.218
736.63	28.435
736.95	30.351
737.26	28.231
737.58	26.129
737.89	30.100
738.21	32.082
738.52	31.071
738.83	33.585
739.15	28.846
739.46	31.752
739.78	28.472
740.09	29.231
740.41	30.000
740.72	34.495
741.04	30.000
741.35	32.500
741.66	39.111
741.98	34.906
742.29	40.191
742.61	43.534
742.92	30.769
743.23	32.051
743.55	32.400
743.86	31.579
744.18	34.071
744.49	42.105
744.80	36.620
745.12	43.636
745.43	33.040
745.74	36.486
746.06	39.450
746.37	37.220
746.68	33.484
747.00	40.741
747.31	34.286
747.62	30.973
747.94	38.326
748.25	29.362
748.56	43.612
748.88	34.158
749.19	39.000
749.50	33.023
749.82	33.333
750.13	29.796
750.44	28.832
750.75	28.070
751.07	30.868
751.38	34.495
751.69	32.130
752.01	36.090
752.32	32.130
752.63	30.496
752.94	29.508
753.26	34.000
753.57	34.959
753.88	37.500
754.19	31.071
754.51	33.681
754.82	30.325
755.13	36.981
755.44	26.692
755.75	30.292
756.07	31.206
756.38	31.022
756.69	29.195
757.00	28.743
757.31	26.409
757.63	26.901
757.94	26.273
758.25	25.490
758.56	23.210
758.87	23.656
759.18	28.182
759.50	26.959
759.81	28.972
760.12	24.062
760.43	27.221
760.74	24.457
761.05	25.706
761.36	27.005
761.67	25.852
761.99	28.261
762.30	29.167
762.61	32.061
762.92	35.156
763.23	33.193
763.54	36.400
763.85	26.953
764.16	33.846
764.47	33.080
764.78	26.855
765.10	27.215
765.41	29.794
765.72	24.850
766.03	26.959
766.34	29.333
766.65	34.468
766.96	30.342
767.27	43.655
767.58	38.542
767.89	34.737
768.20	40.230
768.51	41.117
768.82	38.073
769.13	32.927
769.44	36.842
769.75	30.901
770.06	27.982
770.37	35.747
770.68	42.593
770.99	33.333
771.30	29.098
771.61	37.220
771.92	36.475
772.23	37.395
772.54	34.359
772.85	35.079
773.16	39.362
773.47	39.674
773.78	41.624
774.09	38.690
774.39	41.520
774.70	43.827
775.01	55.797
775.32	50.327
775.63	48.684
775.94	38.849
776.25	56.693
776.56	54.478
776.87	50.820
777.18	52.344
777.48	54.962
777.79	53.788
778.10	51.111
778.41	45.536
778.72	43.796
779.03	43.624
779.34	46.309
779.65	42.568
779.95	46.012
780.26	41.176
780.57	49.655
780.88	50.781
781.19	54.135
781.50	51.351
781.80	44.654
782.11	39.548
782.42	41.772
782.73	41.104
783.04	43.919
783.34	45.775
783.65	50.000
783.96	45.522
784.27	48.252
784.57	42.446
784.88	48.148
785.19	57.937
785.50	60.377
785.81	52.239
786.11	54.098
786.42	50.388
786.73	53.982
787.04	54.717
787.34	60.714
787.65	52.000
787.96	58.559
788.26	42.149
788.57	64.407
788.88	51.240
789.19	50.694
789.49	65.909
789.80	53.435
790.11	68.571
790.41	67.327
790.72	69.880
791.03	67.391
791.33	58.140
791.64	53.608
791.95	67.327
792.25	58.889
792.56	74.026
792.87	82.051
793.17	87.342
793.48	63.218
793.79	74.713
794.09	68.182
794.40	60.504
794.70	51.471
795.01	45.185
795.32	45.324
795.62	52.756
795.93	50.000
796.23	67.257
796.54	70.588
796.85	72.973
797.15	97.183
797.46	81.818
797.76	85.542
798.07	70.886
798.37	80.000
798.68	92.424
798.99	80.282
799.29	79.221
799.60	70.455
799.90	89.041
800.21	100.000
800.51	82.759
800.82	108.772
801.12	90.164
801.43	101.515
801.73	89.189
802.04	90.476
802.34	76.543
802.65	95.312
802.95	100.000
803.26	98.438
803.56	80.000
803.87	76.923
804.17	88.235
804.48	107.407
804.78	89.655
805.09	80.882
805.39	98.077
805.70	85.714
806.00	86.885
806.30	95.455
806.61	76.829
806.91	65.823
807.22	67.105
807.52	59.701
807.83	88.732
808.13	92.188
808.43	100.000
808.74	80.263
809.04	89.855
809.35	85.075
809.65	71.053
809.95	96.774
810.26	76.271
810.56	92.063
810.86	131.818
811.17	126.190
811.47	91.667
811.77	98.148
812.08	121.818
812.38	126.000
812.69	163.889
812.99	145.455
813.29	120.408
813.59	100.000
813.90	120.408
814.20	107.273
814.50	87.692
814.81	108.824
815.11	118.367
815.41	86.885
815.72	130.952
816.02	98.182
816.32	150.000
816.62	130.000
816.93	124.390
817.23	150.000
817.53	104.545
817.84	151.515
818.14	121.739
818.44	102.222
818.74	152.941
819.04	152.500
819.35	137.143
819.65	194.118
819.95	192.857
820.25	205.000
820.56	156.410
820.86	147.727
821.16	127.907
821.46	128.205
821.76	120.000
822.07	142.857
822.37	145.000
822.67	163.636
822.97	129.412
823.27	185.714
823.57	167.568
823.88	162.500
824.18	223.333
824.48	152.381
824.78	172.000
825.08	229.167
825.38	164.865
825.69	119.512
825.99	175.000
826.29	151.724
826.59	163.158
826.89	142.105
827.19	182.353
827.49	196.774
827.79	122.727
828.09	143.182
828.39	121.277
828.70	130.612
829.00	162.963
829.30	164.516
829.60	125.000
829.90	266.667
830.20	160.714
830.50	239.130
830.80	191.304
831.10	190.000
831.40	140.000
831.70	182.609
832.00	253.846
832.30	222.222
832.60	262.500
832.90	230.000
833.20	364.286
833.50	200.000
833.80	206.897
834.10	221.875
834.40	242.308
834.70	283.333
835.00	290.476
835.30	154.286
835.60	276.923
835.90	165.517
836.20	364.286
836.50	224.138
836.80	192.000
837.10	175.000
837.40	242.857
837.70	341.176
838.00	192.593
838.30	280.952
838.60	266.667
838.90	238.462
839.19	295.000
839.49	435.714
839.79	330.000
840.09	285.000
840.39	242.857
840.69	260.870
840.99	266.667
841.29	460.000
841.59	325.000
841.88	312.500
842.18	148.276
842.48	261.905
842.78	206.667
843.08	208.696
843.38	162.500
843.68	916.667
843.97	219.231
844.27	189.655
844.57	300.000
844.87	343.750
845.17	211.111
845.47	1666.667
845.76	455.556
846.06	341.176
846.36	512.500
846.66	378.571
846.96	275.000
847.25	427.273
847.55	381.818
847.85	234.783
848.15	410.000
848.44	292.857
848.74	238.889
849.04	341.176
849.34	470.000
849.63	247.368
849.93	445.455
850.23	960.000
850.53	378.571
850.82	2650.000
851.12	-4700.000
851.42	5400.000
851.71	250.000
852.01	-833.333
852.31	283.333
852.61	1500.000
852.90	247.619
853.20	216.000
853.50	305.882
853.79	300.000
854.09	208.333
854.39	343.750
854.68	151.351
854.98	187.097
855.28	193.333
855.57	203.448
855.87	174.074
856.17	252.632
856.46	253.333
856.76	311.765
857.05	186.207
857.35	270.833
857.65	406.667
857.94	234.783
858.24	211.538
858.53	290.000
858.83	236.364
859.13	380.000
859.42	0.000
859.72	622.222
860.01	418.182
860.31	268.182
860.60	310.526
860.90	247.826
861.20	566.667
861.49	441.667
861.79	-4700.000
862.08	537.500
862.38	300.000
862.67	400.000
862.97	370.588
863.26	511.111
863.56	288.889
863.85	425.000
864.15	637.500
864.44	426.667
864.74	800.000
865.03	712.500
865.33	289.474
865.62	372.727
865.92	415.385
866.21	350.000
866.51	0.000
866.80	427.273
867.10	1060.000
867.39	453.846
867.69	427.273
867.98	247.368
868.27	536.364
868.57	278.947
868.86	-4700.000
869.16	343.750
869.45	1600.000
869.75	-4000.000
870.04	433.333
870.33	585.714
870.63	1175.000
870.92	2150.000
871.22	714.286
871.51	370.588
871.80	261.905
872.10	378.571
>>>>>End Processed Spectral Data<<<<<
