SpectraSuite Data File
++++++++++++++++++++++++++++++++++++
Date: Tue May 12 19:44:51 PDT 2015
User: schluterlab
Dark Spectrum Present: Yes
Reference Spectrum Present: Yes
Number of Sampled Component Spectra: 1
Spectrometers: USB2E3373
Integration Time (usec): 3000 (USB2E3373)
Spectra Averaged: 3 (USB2E3373)
Boxcar Smoothing: 0 (USB2E3373)
Correct for Electrical Dark: No (USB2E3373)
Strobe/Lamp Enabled: No (USB2E3373)
Correct for Detector Non-linearity: No (USB2E3373)
Correct for Stray Light: No (USB2E3373)
Number of Pixels in Processed Spectrum: 2048
>>>>>Begin Processed Spectral Data<<<<<
178.53	0.000
178.91	-60.000
179.29	50.000
179.67	666.667
180.04	0.000
180.42	-220.000
180.80	-333.333
181.18	1000.000
181.56	-550.000
181.94	266.667
182.31	700.000
182.69	-142.857
183.07	0.000
183.45	125.000
183.83	320.000
184.20	316.667
184.58	800.000
184.96	283.333
185.34	-366.667
185.72	-71.429
186.09	-283.333
186.47	-1700.000
186.85	-160.000
187.23	133.333
187.61	14.286
187.98	-100.000
188.36	400.000
188.74	-75.000
189.12	-133.333
189.49	-170.000
189.87	250.000
190.25	77.778
190.63	500.000
191.00	200.000
191.38	-166.667
191.76	400.000
192.14	-14.286
192.51	-90.000
192.89	80.000
193.27	-260.000
193.65	-233.333
194.02	-200.000
194.40	300.000
194.78	-100.000
195.15	-228.571
195.53	333.333
195.91	80.000
196.29	-225.000
196.66	33.333
197.04	-242.857
197.42	40.000
197.79	-175.000
198.17	-66.667
198.55	-1200.000
198.92	-177.778
199.30	200.000
199.68	-250.000
200.05	-850.000
200.43	-5.556
200.81	-66.667
201.18	166.667
201.56	-50.000
201.94	-1300.000
202.31	-16.667
202.69	-77.778
203.07	-66.667
203.44	-225.000
203.82	0.000
204.19	212.500
204.57	-533.333
204.95	181.818
205.32	180.000
205.70	325.000
206.08	-400.000
206.45	-140.000
206.83	1800.000
207.20	-22.222
207.58	15.385
207.96	366.667
208.33	600.000
208.71	600.000
209.08	200.000
209.46	-55.556
209.84	466.667
210.21	-500.000
210.59	150.000
210.96	311.111
211.34	-150.000
211.71	1200.000
212.09	-160.000
212.46	-150.000
212.84	-137.500
213.22	128.571
213.59	50.000
213.97	0.000
214.34	-400.000
214.72	-1500.000
215.09	950.000
215.47	-20.000
215.84	0.000
216.22	-1200.000
216.59	600.000
216.97	-75.000
217.34	-116.667
217.72	16.667
218.09	375.000
218.47	47.368
218.84	37.500
219.22	-35.714
219.59	-150.000
219.97	-40.000
220.34	250.000
220.72	181.818
221.09	-600.000
221.47	0.000
221.84	800.000
222.22	-425.000
222.59	-75.000
222.97	-21.739
223.34	100.000
223.72	214.286
224.09	-133.333
224.46	192.308
224.84	-53.333
225.21	-450.000
225.59	-175.000
225.96	45.000
226.34	216.667
226.71	180.000
227.08	-61.538
227.46	-71.429
227.83	-33.333
228.21	-350.000
228.58	183.333
228.95	5.263
229.33	-18.750
229.70	-116.667
230.08	-111.111
230.45	-666.667
230.82	-700.000
231.20	0.000
231.57	-260.000
231.95	-633.333
232.32	155.556
232.69	-650.000
233.07	-18.750
233.44	-100.000
233.81	19.355
234.19	-240.000
234.56	-33.333
234.93	-150.000
235.31	-22.222
235.68	3.704
236.05	-30.769
236.43	-26.316
236.80	-31.818
237.17	-78.571
237.55	-130.000
237.92	0.000
238.29	-32.258
238.67	-21.429
239.04	-14.286
239.41	-21.569
239.79	0.000
240.16	-37.500
240.53	-24.138
240.91	-1.370
241.28	-8.451
241.65	-6.250
242.02	-31.579
242.40	-13.333
242.77	-4.211
243.14	-2.353
243.51	-2.151
243.89	-17.143
244.26	-3.704
244.63	-14.286
245.00	-8.929
245.38	-10.924
245.75	-9.322
246.12	0.781
246.49	-6.400
246.87	-17.213
247.24	-8.451
247.61	-10.596
247.98	2.247
248.36	-6.918
248.73	-5.682
249.10	-5.556
249.47	-7.812
249.84	-5.076
250.22	-3.646
250.59	-9.551
250.96	-1.818
251.33	-2.358
251.70	-0.459
252.08	-1.299
252.45	-4.082
252.82	-3.376
253.19	-4.280
253.56	-3.922
253.94	-3.252
254.31	1.079
254.68	-1.736
255.05	3.311
255.42	-1.455
255.79	-0.662
256.16	-1.389
256.54	2.121
256.91	1.282
257.28	-2.273
257.65	-5.246
258.02	-2.703
258.39	-0.302
258.76	-3.058
259.14	-1.471
259.51	1.690
259.88	0.000
260.25	-3.409
260.62	-4.775
260.99	0.000
261.36	0.287
261.73	0.000
262.10	-1.907
262.47	-1.102
262.85	1.799
263.22	-1.344
263.59	-0.804
263.96	-1.044
264.33	-4.313
264.70	1.720
265.07	-0.985
265.44	1.405
265.81	5.060
266.18	-0.937
266.55	-1.905
266.92	2.455
267.29	-0.889
267.66	-2.955
268.03	0.645
268.40	-2.059
268.77	2.673
269.14	-1.681
269.51	-1.357
269.88	0.000
270.25	-1.266
270.62	-1.050
270.99	-2.105
271.36	-1.104
271.73	1.458
272.10	0.415
272.47	0.400
272.84	-5.732
273.21	-2.923
273.58	-1.837
273.95	1.394
274.32	1.354
274.69	-0.783
275.06	0.000
275.43	-2.000
275.80	1.147
276.17	-2.372
276.54	0.000
276.91	-0.960
277.28	-0.387
277.65	-1.323
278.02	-1.326
278.39	2.178
278.76	0.559
279.13	3.399
279.50	1.444
279.87	0.377
280.23	2.004
280.60	-1.590
280.97	-0.527
281.34	1.186
281.71	-1.599
282.08	-0.894
282.45	-1.411
282.82	0.337
283.19	0.337
283.56	2.218
283.92	1.422
284.29	0.338
284.66	-0.531
285.03	-3.259
285.40	1.167
285.77	2.956
286.14	-0.792
286.51	-1.286
286.87	1.297
287.24	-1.923
287.61	1.698
287.98	1.565
288.35	0.465
288.72	0.306
289.08	-2.358
289.45	1.404
289.82	-0.932
290.19	-0.909
290.56	0.868
290.93	0.443
291.29	0.000
291.66	1.826
292.03	2.152
292.40	1.727
292.77	-0.146
293.13	-2.203
293.50	0.413
293.87	0.832
294.24	0.421
294.60	0.273
294.97	0.277
295.34	-0.685
295.71	-0.277
296.08	-0.137
296.44	0.659
296.81	-0.776
297.18	2.199
297.55	0.377
297.91	-0.508
298.28	-1.023
298.65	-0.776
299.02	-0.123
299.38	-0.893
299.75	0.515
300.12	0.240
300.48	0.117
300.85	-1.467
301.22	-0.361
301.59	-0.122
301.95	0.488
302.32	-0.851
302.69	-2.021
303.05	0.354
303.42	-0.121
303.79	-0.899
304.15	1.019
304.52	-0.223
304.89	-0.338
305.25	-0.115
305.62	0.341
305.99	-1.120
306.35	-0.559
306.72	0.000
307.09	0.326
307.45	-0.324
307.82	0.107
308.19	0.330
308.55	-0.422
308.92	-0.318
309.29	0.000
309.65	0.310
310.02	1.468
310.38	1.066
310.75	0.000
311.12	0.407
311.48	1.644
311.85	-0.709
312.22	0.310
312.58	0.000
312.95	0.924
313.31	1.082
313.68	0.199
314.05	1.291
314.41	0.786
314.78	0.101
315.14	1.273
315.51	2.284
315.87	1.855
316.24	1.978
316.61	1.262
316.97	1.863
317.34	2.392
317.70	0.654
318.07	0.868
318.43	2.079
318.80	2.823
319.16	1.864
319.53	2.736
319.89	3.598
320.26	4.031
320.62	3.876
320.99	4.796
321.35	3.261
321.72	4.646
322.08	3.960
322.45	4.536
322.81	4.828
323.18	4.986
323.54	6.351
323.91	6.357
324.27	4.822
324.64	5.155
325.00	5.914
325.37	5.935
325.73	6.661
326.10	8.231
326.46	6.800
326.83	7.476
327.19	8.821
327.56	9.814
327.92	8.247
328.29	10.394
328.65	11.488
329.01	10.459
329.38	12.213
329.74	12.813
330.11	11.743
330.47	12.663
330.84	12.500
331.20	12.754
331.56	12.736
331.93	12.992
332.29	13.599
332.66	14.376
333.02	14.020
333.38	14.890
333.75	14.364
334.11	14.014
334.48	14.043
334.84	13.897
335.20	15.040
335.57	15.985
335.93	15.535
336.29	15.265
336.66	14.936
337.02	16.682
337.38	15.000
337.75	15.909
338.11	17.593
338.47	15.599
338.84	17.035
339.20	17.140
339.56	17.148
339.93	15.676
340.29	16.319
340.65	17.626
341.02	16.475
341.38	16.681
341.74	17.705
342.11	16.622
342.47	16.346
342.83	16.219
343.20	17.507
343.56	16.958
343.92	16.360
344.28	15.437
344.65	16.866
345.01	16.899
345.37	17.179
345.73	16.107
346.10	16.595
346.46	16.307
346.82	16.907
347.19	17.578
347.55	16.752
347.91	15.315
348.27	17.439
348.63	16.681
349.00	17.195
349.36	17.230
349.72	17.241
350.08	16.448
350.45	17.168
350.81	16.598
351.17	15.980
351.53	16.908
351.89	15.976
352.26	16.667
352.62	16.190
352.98	18.243
353.34	17.627
353.70	16.049
354.07	16.969
354.43	16.277
354.79	16.639
355.15	16.868
355.51	16.870
355.87	17.152
356.24	18.301
356.60	16.694
356.96	17.299
357.32	17.613
357.68	17.104
358.04	16.937
358.40	17.267
358.77	16.627
359.13	17.831
359.49	16.480
359.85	15.827
360.21	15.623
360.57	15.550
360.93	17.577
361.29	17.134
361.66	16.877
362.02	17.268
362.38	17.016
362.74	17.832
363.10	16.968
363.46	17.607
363.82	15.467
364.18	16.881
364.54	17.328
364.90	16.444
365.26	17.064
365.62	18.547
365.98	18.366
366.35	17.474
366.71	17.177
367.07	17.491
367.43	17.256
367.79	16.715
368.15	16.976
368.51	17.004
368.87	18.649
369.23	17.033
369.59	17.206
369.95	16.692
370.31	16.515
370.67	17.669
371.03	17.957
371.39	17.749
371.75	17.013
372.11	17.259
372.47	18.337
372.83	17.677
373.19	17.395
373.55	17.216
373.91	17.197
374.27	18.690
374.63	17.305
374.99	17.057
375.35	17.779
375.71	17.432
376.07	19.011
376.42	17.566
376.78	16.516
377.14	18.226
377.50	17.373
377.86	18.384
378.22	18.164
378.58	18.421
378.94	18.468
379.30	17.568
379.66	17.414
380.02	18.245
380.38	17.621
380.74	16.905
381.09	17.662
381.45	18.794
381.81	17.538
382.17	18.111
382.53	18.212
382.89	18.153
383.25	18.326
383.61	17.038
383.97	17.544
384.32	17.935
384.68	17.816
385.04	17.250
385.40	18.147
385.76	18.280
386.12	18.218
386.48	18.004
386.83	17.841
387.19	18.327
387.55	19.106
387.91	17.072
388.27	17.722
388.62	18.653
388.98	17.748
389.34	17.046
389.70	19.038
390.06	17.558
390.42	18.391
390.77	18.511
391.13	18.412
391.49	19.272
391.85	18.031
392.20	17.756
392.56	18.795
392.92	18.677
393.28	18.193
393.64	18.113
393.99	18.442
394.35	17.067
394.71	19.536
395.07	18.899
395.42	17.206
395.78	17.809
396.14	18.654
396.50	18.629
396.85	17.911
397.21	17.917
397.57	17.972
397.92	18.321
398.28	18.165
398.64	17.905
399.00	18.514
399.35	18.347
399.71	18.024
400.07	18.653
400.42	18.077
400.78	18.426
401.14	18.561
401.49	18.488
401.85	18.540
402.21	19.607
402.57	17.386
402.92	18.459
403.28	17.230
403.63	18.397
403.99	18.098
404.35	17.452
404.70	18.239
405.06	18.475
405.42	18.152
405.77	17.360
406.13	17.861
406.49	17.035
406.84	18.867
407.20	18.092
407.55	17.435
407.91	17.832
408.27	17.620
408.62	16.785
408.98	19.241
409.34	17.478
409.69	16.856
410.05	17.358
410.40	17.341
410.76	18.804
411.11	17.518
411.47	18.367
411.83	17.514
412.18	17.801
412.54	17.723
412.89	16.775
413.25	17.429
413.60	17.730
413.96	17.735
414.31	17.591
414.67	18.163
415.03	17.981
415.38	17.688
415.74	18.737
416.09	17.298
416.45	17.764
416.80	16.690
417.16	17.772
417.51	17.904
417.87	17.784
418.22	18.048
418.58	18.037
418.93	17.859
419.29	17.503
419.64	18.338
420.00	17.944
420.35	18.330
420.71	17.350
421.06	17.910
421.42	17.754
421.77	19.062
422.12	17.366
422.48	17.647
422.83	18.055
423.19	18.471
423.54	17.654
423.90	18.109
424.25	18.369
424.61	17.935
424.96	17.752
425.31	17.874
425.67	17.818
426.02	16.957
426.38	17.375
426.73	18.318
427.09	17.400
427.44	18.272
427.79	18.750
428.15	18.136
428.50	18.530
428.85	18.217
429.21	18.589
429.56	18.011
429.92	17.739
430.27	18.133
430.62	18.551
430.98	17.947
431.33	18.632
431.68	18.928
432.04	18.412
432.39	18.241
432.74	17.521
433.10	18.496
433.45	18.999
433.80	18.690
434.16	18.124
434.51	18.618
434.86	17.764
435.22	17.928
435.57	18.404
435.92	17.523
436.28	18.493
436.63	18.962
436.98	19.198
437.34	19.258
437.69	18.889
438.04	18.269
438.39	18.277
438.75	18.585
439.10	18.869
439.45	18.549
439.81	18.476
440.16	18.738
440.51	17.906
440.86	19.255
441.22	18.761
441.57	18.575
441.92	18.553
442.27	18.800
442.63	19.187
442.98	19.132
443.33	19.330
443.68	18.691
444.03	18.454
444.39	18.116
444.74	19.233
445.09	19.008
445.44	18.134
445.79	18.986
446.15	18.717
446.50	18.797
446.85	18.592
447.20	18.162
447.55	18.674
447.91	18.754
448.26	19.050
448.61	19.154
448.96	19.279
449.31	19.108
449.66	19.189
450.02	18.225
450.37	19.259
450.72	18.492
451.07	17.732
451.42	19.631
451.77	17.970
452.12	19.361
452.47	18.835
452.83	18.555
453.18	18.636
453.53	19.203
453.88	19.336
454.23	19.105
454.58	19.386
454.93	18.460
455.28	18.534
455.63	20.663
455.98	19.924
456.34	19.089
456.69	18.822
457.04	18.438
457.39	18.727
457.74	19.406
458.09	17.673
458.44	20.049
458.79	17.727
459.14	19.857
459.49	19.236
459.84	19.025
460.19	18.261
460.54	17.929
460.89	18.706
461.24	19.805
461.59	18.864
461.94	18.672
462.29	19.110
462.64	19.429
462.99	18.709
463.34	19.487
463.69	19.342
464.04	18.730
464.39	19.035
464.74	18.559
465.09	19.678
465.44	19.256
465.79	18.652
466.14	17.780
466.49	19.631
466.84	19.103
467.19	18.973
467.54	18.236
467.89	19.660
468.24	19.066
468.59	18.586
468.94	19.166
469.29	19.377
469.64	18.818
469.99	19.394
470.34	18.317
470.68	18.385
471.03	18.394
471.38	18.325
471.73	19.113
472.08	19.146
472.43	18.741
472.78	17.839
473.13	18.807
473.48	19.710
473.83	18.098
474.17	18.212
474.52	19.290
474.87	19.003
475.22	19.441
475.57	17.979
475.92	17.737
476.27	18.746
476.61	19.031
476.96	18.494
477.31	18.550
477.66	19.059
478.01	17.952
478.36	18.510
478.70	19.380
479.05	18.340
479.40	17.800
479.75	18.901
480.10	18.452
480.45	19.581
480.79	19.253
481.14	18.081
481.49	18.972
481.84	18.535
482.19	18.585
482.53	18.922
482.88	18.404
483.23	19.045
483.58	18.564
483.92	18.844
484.27	18.490
484.62	18.246
484.97	18.497
485.31	18.097
485.66	17.574
486.01	16.982
486.36	16.797
486.70	16.959
487.05	17.507
487.40	17.117
487.75	16.719
488.09	16.949
488.44	17.327
488.79	18.043
489.13	18.454
489.48	17.624
489.83	17.892
490.17	18.378
490.52	17.734
490.87	18.991
491.22	19.181
491.56	17.342
491.91	18.624
492.26	19.327
492.60	18.367
492.95	18.634
493.30	18.348
493.64	18.560
493.99	18.789
494.34	19.463
494.68	18.137
495.03	17.546
495.37	18.601
495.72	18.513
496.07	18.154
496.41	17.342
496.76	17.526
497.11	18.218
497.45	18.584
497.80	17.809
498.14	19.271
498.49	18.259
498.84	17.715
499.18	18.371
499.53	18.432
499.87	17.460
500.22	18.701
500.56	18.420
500.91	18.511
501.26	18.268
501.60	18.094
501.95	17.400
502.29	18.112
502.64	18.268
502.98	17.567
503.33	17.074
503.67	18.377
504.02	18.335
504.36	17.052
504.71	17.447
505.06	18.050
505.40	19.249
505.75	18.009
506.09	17.606
506.44	18.616
506.78	17.559
507.13	17.861
507.47	17.507
507.82	18.192
508.16	18.931
508.51	18.490
508.85	18.297
509.19	17.992
509.54	18.187
509.88	17.722
510.23	17.865
510.57	17.774
510.92	18.367
511.26	17.806
511.61	17.637
511.95	18.334
512.30	18.377
512.64	18.358
512.98	19.019
513.33	17.819
513.67	17.066
514.02	18.029
514.36	18.505
514.70	18.276
515.05	18.659
515.39	18.256
515.74	17.544
516.08	18.581
516.42	18.645
516.77	17.640
517.11	17.676
517.46	17.614
517.80	18.571
518.14	18.343
518.49	18.693
518.83	18.612
519.17	18.252
519.52	18.488
519.86	18.049
520.20	18.089
520.55	18.864
520.89	18.489
521.23	17.969
521.58	17.460
521.92	17.356
522.26	18.625
522.61	19.317
522.95	18.425
523.29	18.826
523.64	17.300
523.98	18.011
524.32	17.306
524.66	18.083
525.01	18.488
525.35	17.579
525.69	17.481
526.04	19.098
526.38	18.369
526.72	18.750
527.06	17.722
527.41	18.568
527.75	17.157
528.09	17.893
528.43	17.789
528.78	17.331
529.12	16.986
529.46	17.874
529.80	17.903
530.15	18.694
530.49	18.131
530.83	17.498
531.17	17.302
531.51	17.559
531.86	17.367
532.20	17.244
532.54	17.626
532.88	17.745
533.22	18.032
533.57	17.241
533.91	17.756
534.25	17.379
534.59	16.369
534.93	17.394
535.27	17.172
535.62	16.475
535.96	17.167
536.30	17.537
536.64	17.668
536.98	16.667
537.32	16.964
537.66	17.815
538.01	17.452
538.35	17.527
538.69	17.127
539.03	16.943
539.37	16.798
539.71	16.739
540.05	16.064
540.39	16.485
540.73	17.656
541.07	16.838
541.42	15.966
541.76	16.906
542.10	16.356
542.44	18.064
542.78	16.642
543.12	16.534
543.46	17.586
543.80	17.513
544.14	17.348
544.48	16.912
544.82	17.175
545.16	16.304
545.50	16.448
545.84	17.410
546.18	16.479
546.52	17.371
546.86	16.067
547.20	16.818
547.54	16.679
547.88	15.242
548.22	16.737
548.56	16.631
548.90	16.772
549.24	17.617
549.58	16.617
549.92	17.143
550.26	18.533
550.60	17.526
550.94	17.381
551.28	17.073
551.62	17.363
551.96	16.134
552.30	16.357
552.64	17.130
552.98	17.013
553.32	15.227
553.66	16.388
554.00	16.680
554.34	16.719
554.68	16.268
555.02	16.190
555.36	14.218
555.69	16.756
556.03	16.778
556.37	17.179
556.71	16.591
557.05	16.328
557.39	16.787
557.73	16.981
558.07	17.058
558.41	15.722
558.75	16.846
559.08	17.362
559.42	16.639
559.76	16.428
560.10	16.707
560.44	16.231
560.78	16.529
561.12	15.853
561.45	16.518
561.79	15.051
562.13	15.419
562.47	16.208
562.81	16.300
563.15	14.829
563.48	14.757
563.82	16.667
564.16	15.675
564.50	15.759
564.84	16.300
565.17	16.023
565.51	15.623
565.85	15.493
566.19	15.658
566.52	15.125
566.86	15.574
567.20	15.369
567.54	16.209
567.88	15.413
568.21	15.358
568.55	14.488
568.89	14.835
569.23	14.458
569.56	14.391
569.90	14.304
570.24	14.578
570.57	13.845
570.91	14.410
571.25	14.050
571.59	13.902
571.92	13.612
572.26	13.699
572.60	13.470
572.93	13.392
573.27	13.335
573.61	13.370
573.95	13.692
574.28	13.076
574.62	13.093
574.96	12.960
575.29	12.932
575.63	12.490
575.97	13.015
576.30	13.245
576.64	13.148
576.98	12.963
577.31	13.106
577.65	12.701
577.98	12.961
578.32	13.066
578.66	12.591
578.99	13.172
579.33	12.682
579.67	12.989
580.00	13.266
580.34	13.066
580.67	12.843
581.01	12.528
581.35	12.657
581.68	12.284
582.02	12.367
582.35	12.358
582.69	12.510
583.02	12.624
583.36	12.724
583.70	12.735
584.03	12.966
584.37	13.132
584.70	12.936
585.04	12.705
585.37	12.906
585.71	12.840
586.04	12.921
586.38	12.803
586.72	12.776
587.05	13.014
587.39	13.092
587.72	12.670
588.06	13.036
588.39	12.971
588.73	12.711
589.06	12.949
589.40	12.918
589.73	12.977
590.07	12.776
590.40	13.602
590.73	13.703
591.07	13.160
591.40	13.157
591.74	13.200
592.07	13.515
592.41	13.355
592.74	13.507
593.08	13.336
593.41	13.096
593.75	13.414
594.08	13.407
594.41	13.301
594.75	12.921
595.08	13.440
595.42	13.256
595.75	12.765
596.09	13.131
596.42	12.431
596.75	13.727
597.09	13.526
597.42	12.858
597.75	13.415
598.09	13.577
598.42	13.441
598.76	12.796
599.09	13.782
599.42	12.903
599.76	13.299
600.09	13.721
600.42	12.383
600.76	12.125
601.09	13.020
601.42	13.003
601.76	12.622
602.09	12.610
602.42	12.636
602.76	13.482
603.09	13.011
603.42	13.075
603.76	13.177
604.09	13.033
604.42	13.139
604.76	13.190
605.09	12.801
605.42	13.555
605.75	13.202
606.09	13.156
606.42	13.211
606.75	12.877
607.09	13.619
607.42	13.079
607.75	12.810
608.08	13.190
608.42	13.288
608.75	13.107
609.08	12.317
609.41	13.219
609.75	13.323
610.08	13.385
610.41	13.537
610.74	13.296
611.07	12.692
611.41	12.099
611.74	13.656
612.07	13.002
612.40	13.426
612.73	13.079
613.07	13.740
613.40	12.593
613.73	13.631
614.06	12.763
614.39	13.884
614.72	12.279
615.06	14.179
615.39	13.337
615.72	12.542
616.05	12.696
616.38	13.701
616.71	13.308
617.05	13.317
617.38	13.806
617.71	13.782
618.04	14.060
618.37	13.473
618.70	13.655
619.03	14.286
619.36	13.402
619.69	12.830
620.03	14.035
620.36	13.983
620.69	14.191
621.02	14.173
621.35	13.957
621.68	14.041
622.01	14.171
622.34	14.657
622.67	14.587
623.00	13.104
623.33	13.858
623.66	14.104
623.99	14.035
624.32	13.344
624.65	14.375
624.99	13.672
625.32	13.586
625.65	13.771
625.98	14.417
626.31	14.459
626.64	13.874
626.97	14.798
627.30	13.333
627.63	14.140
627.96	14.898
628.29	14.245
628.62	15.567
628.95	14.044
629.28	15.083
629.61	13.480
629.94	16.701
630.26	14.331
630.59	16.126
630.92	14.015
631.25	15.419
631.58	14.186
631.91	13.440
632.24	15.503
632.57	15.815
632.90	15.006
633.23	15.613
633.56	16.226
633.89	14.908
634.22	17.179
634.55	14.980
634.88	15.663
635.20	16.438
635.53	15.922
635.86	15.625
636.19	15.007
636.52	14.420
636.85	12.907
637.18	15.155
637.51	15.989
637.83	15.223
638.16	15.363
638.49	16.859
638.82	15.752
639.15	15.000
639.48	15.721
639.81	16.542
640.13	15.620
640.46	16.220
640.79	15.039
641.12	15.194
641.45	15.086
641.77	15.605
642.10	14.984
642.43	15.825
642.76	17.025
643.09	15.225
643.41	15.771
643.74	14.931
644.07	13.933
644.40	17.509
644.73	16.022
645.05	16.031
645.38	15.192
645.71	17.748
646.04	17.100
646.36	15.909
646.69	16.828
647.02	17.383
647.35	16.600
647.67	21.042
648.00	19.612
648.33	16.570
648.66	16.698
648.98	16.610
649.31	15.663
649.64	16.351
649.96	14.865
650.29	12.920
650.62	16.512
650.94	16.821
651.27	16.378
651.60	16.444
651.92	15.649
652.25	13.958
652.58	14.183
652.90	14.413
653.23	12.614
653.56	15.451
653.88	14.781
654.21	16.068
654.54	13.321
654.86	18.165
655.19	14.032
655.52	14.588
655.84	11.182
656.17	10.704
656.49	14.500
656.82	16.569
657.15	13.464
657.47	10.106
657.80	7.537
658.13	6.259
658.45	10.567
658.78	10.403
659.10	10.507
659.43	10.259
659.75	9.689
660.08	11.402
660.41	11.846
660.73	12.327
661.06	14.727
661.38	16.129
661.71	17.068
662.03	16.435
662.36	16.229
662.68	15.108
663.01	15.385
663.33	16.981
663.66	19.139
663.98	18.582
664.31	12.683
664.63	15.367
664.96	16.627
665.28	17.967
665.61	18.925
665.93	19.816
666.26	15.453
666.58	16.514
666.91	18.267
667.23	15.517
667.56	16.543
667.88	16.040
668.21	15.990
668.53	17.259
668.86	14.031
669.18	15.228
669.50	21.851
669.83	14.250
670.15	16.250
670.48	16.541
670.80	14.721
671.13	15.181
671.45	11.735
671.77	18.599
672.10	14.725
672.42	12.351
672.75	14.951
673.07	15.888
673.39	16.342
673.72	15.289
674.04	16.170
674.37	15.012
674.69	13.551
675.01	16.512
675.34	14.951
675.66	15.714
675.98	14.394
676.31	15.113
676.63	13.660
676.95	15.827
677.28	14.356
677.60	20.301
677.92	13.784
678.25	11.833
678.57	14.617
678.89	11.697
679.22	15.596
679.54	14.031
679.86	15.632
680.18	11.925
680.51	14.784
680.83	14.375
681.15	15.251
681.48	14.894
681.80	14.348
682.12	17.131
682.44	14.009
682.77	12.727
683.09	11.520
683.41	16.291
683.73	15.829
684.06	10.914
684.38	14.628
684.70	16.397
685.02	12.554
685.34	12.134
685.67	12.253
685.99	12.774
686.31	13.433
686.63	12.039
686.96	14.228
687.28	13.758
687.60	16.016
687.92	11.392
688.24	13.263
688.56	10.769
688.89	16.210
689.21	11.628
689.53	13.811
689.85	15.190
690.17	14.706
690.49	15.059
690.82	13.514
691.14	11.488
691.46	15.500
691.78	12.679
692.10	15.367
692.42	17.661
692.74	12.796
693.06	13.976
693.39	12.069
693.71	13.256
694.03	12.319
694.35	11.139
694.67	15.522
694.99	13.477
695.31	12.181
695.63	15.946
695.95	12.921
696.27	13.314
696.59	13.947
696.91	11.681
697.23	15.759
697.56	13.212
697.88	15.691
698.20	9.927
698.52	13.702
698.84	11.028
699.16	13.193
699.48	13.613
699.80	12.363
700.12	13.223
700.44	9.145
700.76	11.356
701.08	11.111
701.40	10.855
701.72	15.333
702.04	14.626
702.36	14.426
702.68	16.443
703.00	12.618
703.32	9.880
703.64	14.511
703.96	10.759
704.28	10.563
704.60	16.781
704.91	13.816
705.23	12.632
705.55	10.409
705.87	15.827
706.19	15.936
706.51	12.109
706.83	14.652
707.15	9.831
707.47	11.377
707.79	11.748
708.11	10.053
708.43	12.533
708.74	12.568
709.06	11.350
709.38	10.386
709.70	11.039
710.02	9.790
710.34	9.574
710.66	12.360
710.98	16.434
711.29	11.340
711.61	11.348
711.93	11.985
712.25	10.943
712.57	15.625
712.89	12.245
713.20	9.677
713.52	4.065
713.84	11.679
714.16	14.189
714.48	12.628
714.80	8.754
715.11	13.746
715.43	10.239
715.75	10.877
716.07	11.273
716.39	13.652
716.70	13.200
717.02	8.871
717.34	13.420
717.66	4.091
717.97	5.093
718.29	10.667
718.61	9.910
718.93	11.765
719.24	12.971
719.56	15.179
719.88	9.804
720.20	8.547
720.51	12.281
720.83	11.715
721.15	12.245
721.46	13.502
721.78	11.255
722.10	12.791
722.42	9.565
722.73	6.335
723.05	13.825
723.37	14.027
723.68	12.322
724.00	13.889
724.32	8.411
724.63	15.837
724.95	8.676
725.27	12.207
725.58	10.502
725.90	6.306
726.22	8.297
726.53	13.115
726.85	8.889
727.16	14.575
727.48	9.677
727.80	8.676
728.11	12.889
728.43	5.761
728.74	7.018
729.06	14.847
729.38	16.279
729.69	6.800
730.01	8.368
730.32	10.757
730.64	13.846
730.96	10.811
731.27	5.019
731.59	9.764
731.90	6.908
732.22	10.631
732.53	10.175
732.85	8.451
733.16	13.919
733.48	6.343
733.80	12.000
734.11	6.383
734.43	9.386
734.74	10.592
735.06	12.540
735.37	10.543
735.69	7.746
736.00	9.630
736.32	17.832
736.63	9.630
736.95	7.782
737.26	8.696
737.58	8.029
737.89	10.189
738.21	11.069
738.52	13.934
738.83	8.974
739.15	10.000
739.46	5.856
739.78	11.969
740.09	7.937
740.41	14.015
740.72	5.976
741.04	8.696
741.35	8.969
741.66	16.129
741.98	11.224
742.29	8.290
742.61	6.358
742.92	9.804
743.23	10.448
743.55	9.326
743.86	11.111
744.18	14.000
744.49	11.667
744.80	10.753
745.12	11.282
745.43	14.973
745.74	9.091
746.06	14.943
746.37	7.778
746.68	15.135
747.00	3.315
747.31	10.995
747.62	11.579
747.94	16.038
748.25	14.286
748.56	9.091
748.88	10.383
749.19	15.544
749.50	4.118
749.82	16.500
750.13	6.796
750.44	11.588
750.75	9.200
751.07	2.092
751.38	7.031
751.69	13.889
752.01	8.403
752.32	9.091
752.63	10.917
752.94	9.600
753.26	7.763
753.57	10.900
753.88	0.930
754.19	9.692
754.51	6.695
754.82	9.583
755.13	10.177
755.44	10.390
755.75	9.639
756.07	12.876
756.38	7.531
756.69	14.717
757.00	9.929
757.31	8.651
757.63	11.111
757.94	5.758
758.25	8.631
758.56	8.649
758.87	9.821
759.18	13.707
759.50	8.897
759.81	7.336
760.12	10.320
760.43	10.299
760.74	8.084
761.05	6.731
761.36	12.760
761.67	7.295
761.99	11.037
762.30	5.818
762.61	16.667
762.92	9.333
763.23	9.767
763.54	16.751
763.85	6.787
764.16	5.652
764.47	6.087
764.78	12.500
765.10	7.480
765.41	9.699
765.72	7.358
766.03	12.040
766.34	12.121
766.65	9.375
766.96	6.222
767.27	11.173
767.58	9.434
767.89	10.390
768.20	1.351
768.51	16.092
768.82	-0.625
769.13	12.500
769.44	15.094
769.75	5.392
770.06	6.796
770.37	8.511
770.68	6.667
770.99	9.137
771.30	8.763
771.61	1.794
771.92	9.434
772.23	4.327
772.54	5.294
772.85	2.740
773.16	7.742
773.47	5.096
773.78	11.976
774.09	1.316
774.39	5.882
774.70	8.271
775.01	9.231
775.32	7.143
775.63	9.449
775.94	1.887
776.25	11.852
776.56	6.364
776.87	14.530
777.18	7.000
777.48	4.808
777.79	4.630
778.10	14.151
778.41	9.804
778.72	7.547
779.03	2.632
779.34	4.202
779.65	1.408
779.95	11.511
780.26	5.645
780.57	7.246
780.88	-0.917
781.19	12.037
781.50	-5.738
781.80	6.569
782.11	3.846
782.42	3.448
782.73	14.685
783.04	0.000
783.34	8.800
783.65	-1.626
783.96	4.098
784.27	5.882
784.57	1.869
784.88	-6.250
785.19	17.526
785.50	7.368
785.81	6.000
786.11	1.980
786.42	-15.294
786.73	7.292
787.04	8.163
787.34	5.556
787.65	13.208
787.96	-1.031
788.26	3.960
788.57	8.696
788.88	-3.670
789.19	-1.653
789.49	6.957
789.80	6.034
790.11	0.000
790.41	0.000
790.72	5.814
791.03	0.000
791.33	-6.494
791.64	-3.659
791.95	-6.098
792.25	-8.434
792.56	-3.704
792.87	5.634
793.17	1.205
793.48	5.882
793.79	0.000
794.09	-13.333
794.40	15.217
794.70	-2.609
795.01	0.000
795.32	4.724
795.62	-1.961
795.93	10.784
796.23	2.020
796.54	-1.163
796.85	-10.145
797.15	4.687
797.46	-25.424
797.76	-1.639
798.07	6.579
798.37	-11.290
798.68	-3.125
798.99	9.231
799.29	9.091
799.60	-4.348
799.90	5.714
800.21	-8.772
800.51	-10.345
800.82	-9.434
801.12	-17.647
801.43	-4.839
801.73	-12.903
802.04	10.000
802.34	7.547
802.65	-31.579
802.95	7.273
803.26	3.774
803.56	-8.197
803.87	12.000
804.17	-12.963
804.48	-3.846
804.78	-12.245
805.09	14.894
805.39	8.475
805.70	12.500
806.00	3.571
806.30	18.644
806.61	13.846
806.91	-15.385
807.22	-6.579
807.52	4.286
807.83	-5.172
808.13	5.063
808.43	1.639
808.74	6.557
809.04	16.216
809.35	18.519
809.65	21.429
809.95	-1.695
810.26	-12.245
810.56	1.887
810.86	-25.490
811.17	-5.405
811.47	-25.926
811.77	21.569
812.08	-4.545
812.38	-29.167
812.69	-20.513
812.99	7.143
813.29	19.565
813.59	0.000
813.90	-21.429
814.20	10.909
814.50	-14.286
814.81	0.000
815.11	-2.083
815.41	-17.073
815.72	-15.385
816.02	-10.638
816.32	15.625
816.62	9.091
816.93	-48.485
817.23	-5.405
817.53	2.941
817.84	17.500
818.14	11.765
818.44	0.000
818.74	-114.286
819.04	-42.857
819.35	0.000
819.65	9.091
819.95	-12.821
820.25	-50.000
820.56	-27.586
820.86	-35.714
821.16	-60.870
821.46	-16.667
821.76	-7.407
822.07	-52.174
822.37	-4.082
822.67	-27.907
822.97	-43.478
823.27	-42.308
823.57	3.704
823.88	21.429
824.18	7.692
824.48	-14.286
824.78	-6.061
825.08	-100.000
825.38	10.000
825.69	-111.111
825.99	-11.111
826.29	24.444
826.59	-62.963
826.89	3.704
827.19	-60.714
827.49	-77.273
827.79	-122.727
828.09	22.727
828.39	-56.522
828.70	-7.407
829.00	-35.714
829.30	-11.905
829.60	9.677
829.90	-53.846
830.20	15.385
830.50	-54.545
830.80	-38.095
831.10	-50.000
831.40	-85.714
831.70	-44.444
832.00	-23.529
832.30	4.348
832.60	0.000
832.90	-127.273
833.20	-77.778
833.50	-9.375
833.80	-30.769
834.10	48.000
834.40	-25.000
834.70	-31.818
835.00	-7.692
835.30	-20.000
835.60	-80.000
835.90	-15.000
836.20	-35.714
836.50	-13.043
836.80	-88.889
837.10	-53.333
837.40	-20.000
837.70	-43.478
838.00	-107.143
838.30	2400.000
838.60	16.000
838.90	-140.000
839.19	88.889
839.49	-1000.000
839.79	5.882
840.09	66.667
840.39	35.714
840.69	-61.111
840.99	-100.000
841.29	0.000
841.59	-13.333
841.88	-100.000
842.18	-300.000
842.48	-6.250
842.78	-3.846
843.08	-52.941
843.38	-15.000
843.68	-146.154
843.97	-47.059
844.27	-10.000
844.57	-4.167
844.87	-36.364
845.17	-68.421
845.47	-33.333
845.76	-11.111
846.06	-42.857
846.36	-7.143
846.66	-188.889
846.96	-5.000
847.25	-240.000
847.55	-187.500
847.85	-73.333
848.15	-25.000
848.44	-52.632
848.74	-13.333
849.04	31.579
849.34	100.000
849.63	-83.333
849.93	-17.647
850.23	-127.273
850.53	-233.333
850.82	-40.000
851.12	-200.000
851.42	-42.857
851.71	-220.000
852.01	-7.143
852.31	-166.667
852.61	-53.846
852.90	-260.000
853.20	-133.333
853.50	-66.667
853.79	-160.000
854.09	-85.000
854.39	-57.895
854.68	-25.000
854.98	-250.000
855.28	-33.333
855.57	-107.143
855.87	-63.158
856.17	-62.500
856.46	23.077
856.76	-33.333
857.05	-93.750
857.35	-16.667
857.65	-44.444
857.94	-125.000
858.24	-65.217
858.53	-100.000
858.83	-100.000
859.13	-90.909
859.42	-170.000
859.72	233.333
860.01	-15.385
860.31	-120.000
860.60	-137.500
860.90	-150.000
861.20	-266.667
861.49	-300.000
861.79	600.000
862.08	-9.677
862.38	-42.105
862.67	-38.462
862.97	-30.000
863.26	-50.000
863.56	-17.391
863.85	-283.333
864.15	-114.286
864.44	-18.750
864.74	8.333
865.03	-100.000
865.33	-233.333
865.62	-1000.000
865.92	-900.000
866.21	-416.667
866.51	-90.909
866.80	-366.667
867.10	-100.000
867.39	-22.222
867.69	-33.333
867.98	220.000
868.27	-425.000
868.57	675.000
868.86	-6.667
869.16	-100.000
869.45	1050.000
869.75	-133.333
870.04	-133.333
870.33	-17.647
870.63	-185.714
870.92	60.870
871.22	-137.500
871.51	300.000
871.80	18.750
872.10	-466.667
>>>>>End Processed Spectral Data<<<<<
