SpectraSuite Data File
++++++++++++++++++++++++++++++++++++
Date: Wed May 13 19:12:14 PDT 2015
User: schluterlab
Dark Spectrum Present: Yes
Reference Spectrum Present: Yes
Number of Sampled Component Spectra: 1
Spectrometers: USB2E3373
Integration Time (usec): 3000 (USB2E3373)
Spectra Averaged: 3 (USB2E3373)
Boxcar Smoothing: 0 (USB2E3373)
Correct for Electrical Dark: No (USB2E3373)
Strobe/Lamp Enabled: No (USB2E3373)
Correct for Detector Non-linearity: No (USB2E3373)
Correct for Stray Light: No (USB2E3373)
Number of Pixels in Processed Spectrum: 2048
>>>>>Begin Processed Spectral Data<<<<<
178.53	0.000
178.91	-1475.000
179.29	-1575.000
179.67	-188.889
180.04	-1500.000
180.42	2900.000
180.80	1200.000
181.18	-1275.000
181.56	700.000
181.94	0.000
182.31	-757.143
182.69	1866.667
183.07	-487.500
183.45	-611.111
183.83	590.909
184.20	-520.000
184.58	2700.000
184.96	5900.000
185.34	-940.000
185.72	-775.000
186.09	-2500.000
186.47	2750.000
186.85	2850.000
187.23	6400.000
187.61	-1633.333
187.98	1400.000
188.36	563.636
188.74	563.636
189.12	-1180.000
189.49	550.000
189.87	-5400.000
190.25	-1475.000
190.63	457.143
191.00	446.154
191.38	1033.333
191.76	-1400.000
192.14	1650.000
192.51	800.000
192.89	1016.667
193.27	700.000
193.65	-1475.000
194.02	640.000
194.40	1180.000
194.78	640.000
195.15	575.000
195.53	670.000
195.91	-2650.000
196.29	387.500
196.66	373.684
197.04	-430.000
197.42	0.000
197.79	750.000
198.17	-5200.000
198.55	857.143
198.92	887.500
199.30	1020.000
199.68	0.000
200.05	333.333
200.43	842.857
200.81	5500.000
201.18	1800.000
201.56	-2000.000
201.94	633.333
202.31	711.111
202.69	525.000
203.07	660.000
203.44	0.000
203.82	1375.000
204.19	842.857
204.57	435.714
204.95	787.500
205.32	1800.000
205.70	600.000
206.08	457.143
206.45	3000.000
206.83	425.000
207.20	1166.667
207.58	920.000
207.96	394.444
208.33	900.000
208.71	-1016.667
209.08	857.143
209.46	755.556
209.84	618.182
210.21	-1766.667
210.59	1675.000
210.96	-625.000
211.34	3150.000
211.71	720.000
212.09	916.667
212.46	0.000
212.84	1933.333
213.22	1500.000
213.59	-5300.000
213.97	1033.333
214.34	885.714
214.72	681.818
215.09	1240.000
215.47	-2350.000
215.84	-3100.000
216.22	1666.667
216.59	457.143
216.97	1425.000
217.34	563.636
217.72	-783.333
218.09	0.000
218.47	-5500.000
218.84	722.222
219.22	842.857
219.59	2333.333
219.97	-685.714
220.34	1280.000
220.72	-1833.333
221.09	457.143
221.47	1750.000
221.84	-1200.000
222.22	0.000
222.59	1400.000
222.97	-3200.000
223.34	1240.000
223.72	469.231
224.09	1240.000
224.46	2450.000
224.84	-6200.000
225.21	-1200.000
225.59	-6000.000
225.96	620.000
226.34	340.000
226.71	3000.000
227.08	762.500
227.46	690.000
227.83	-1375.000
228.21	-3200.000
228.58	711.111
228.95	-2750.000
229.33	-2300.000
229.70	2200.000
230.08	1057.143
230.45	-1100.000
230.82	500.000
231.20	983.333
231.57	900.000
231.95	550.000
232.32	290.909
232.69	536.364
233.07	985.714
233.44	446.154
233.81	-2033.333
234.19	363.158
234.56	558.333
234.93	425.000
235.31	600.000
235.68	446.154
236.05	457.143
236.43	206.061
236.80	342.105
237.17	6100.000
237.55	333.333
237.92	264.286
238.29	290.476
238.67	216.129
239.04	262.069
239.41	200.000
239.79	167.391
240.16	185.714
240.53	165.909
240.91	150.980
241.28	156.000
241.65	154.000
242.02	142.029
242.40	132.258
242.77	136.667
243.14	101.075
243.51	112.360
243.89	115.294
244.26	97.778
244.63	93.548
245.00	101.064
245.38	92.079
245.75	85.047
246.12	91.743
246.49	93.431
246.87	109.600
247.24	88.462
247.61	82.143
247.98	76.471
248.36	88.514
248.73	73.885
249.10	89.172
249.47	73.446
249.84	68.449
250.22	71.658
250.59	75.148
250.96	75.253
251.33	72.512
251.70	73.762
252.08	73.333
252.45	63.229
252.82	64.783
253.19	69.787
253.56	62.745
253.94	72.614
254.31	62.500
254.68	70.385
255.05	63.469
255.42	67.886
255.79	62.868
256.16	67.509
256.54	60.777
256.91	64.769
257.28	63.669
257.65	64.356
258.02	59.627
258.39	58.360
258.76	62.207
259.14	57.143
259.51	57.751
259.88	54.969
260.25	59.517
260.62	57.514
260.99	58.075
261.36	61.862
261.73	58.166
262.10	55.814
262.47	60.563
262.85	59.331
263.22	55.840
263.59	59.544
263.96	55.495
264.33	55.352
264.70	55.526
265.07	55.499
265.44	56.818
265.81	53.041
266.18	57.789
266.55	55.122
266.92	56.511
267.29	54.398
267.66	54.128
268.03	51.818
268.40	53.505
268.77	52.029
269.14	56.757
269.51	54.176
269.88	54.079
270.25	54.628
270.62	51.910
270.99	55.699
271.36	53.648
271.73	55.374
272.10	54.565
272.47	52.903
272.84	51.732
273.21	53.249
273.58	51.747
273.95	51.363
274.32	50.207
274.69	52.463
275.06	52.165
275.43	54.043
275.80	50.701
276.17	52.953
276.54	50.104
276.91	49.605
277.28	46.875
277.65	51.064
278.02	51.346
278.39	52.734
278.76	46.182
279.13	51.698
279.50	49.907
279.87	49.801
280.23	51.697
280.60	48.936
280.97	49.723
281.34	49.735
281.71	50.364
282.08	53.551
282.45	46.364
282.82	49.911
283.19	46.346
283.56	46.842
283.92	47.716
284.29	46.384
284.66	46.279
285.03	49.186
285.40	48.239
285.77	49.495
286.14	46.805
286.51	47.667
286.87	48.034
287.24	47.720
287.61	45.104
287.98	46.266
288.35	45.325
288.72	45.016
289.08	44.757
289.45	43.987
289.82	42.764
290.19	41.915
290.56	43.185
290.93	41.239
291.29	43.405
291.66	42.920
292.03	43.314
292.40	44.347
292.77	40.237
293.13	41.045
293.50	39.650
293.87	41.926
294.24	40.000
294.60	40.902
294.97	41.860
295.34	40.480
295.71	39.915
296.08	39.031
296.44	37.689
296.81	37.913
297.18	40.108
297.55	35.488
297.91	37.203
298.28	39.224
298.65	37.467
299.02	37.418
299.38	35.989
299.75	35.445
300.12	36.782
300.48	36.750
300.85	35.758
301.22	36.561
301.59	36.237
301.95	36.398
302.32	36.714
302.69	36.320
303.05	34.182
303.42	35.185
303.79	34.994
304.15	33.450
304.52	33.951
304.89	35.540
305.25	34.223
305.62	35.674
305.99	35.773
306.35	33.893
306.72	34.753
307.09	34.850
307.45	34.685
307.82	34.375
308.19	35.320
308.55	34.844
308.92	34.479
309.29	32.735
309.65	34.358
310.02	34.249
310.38	34.194
310.75	35.375
311.12	34.596
311.48	35.005
311.85	35.115
312.22	35.588
312.58	34.407
312.95	34.741
313.31	33.495
313.68	35.239
314.05	37.574
314.41	35.779
314.78	36.657
315.14	36.246
315.51	37.384
315.87	37.723
316.24	38.630
316.61	36.355
316.97	38.748
317.34	38.650
317.70	40.153
318.07	40.327
318.43	40.900
318.80	41.706
319.16	42.279
319.53	42.495
319.89	44.476
320.26	45.800
320.62	47.520
320.99	47.273
321.35	48.788
321.72	48.871
322.08	50.247
322.45	52.338
322.81	52.810
323.18	53.372
323.54	54.453
323.91	55.755
324.27	58.509
324.64	58.993
325.00	59.603
325.37	63.967
325.73	66.248
326.10	66.461
326.46	69.444
326.83	70.923
327.19	71.819
327.56	75.000
327.92	78.303
328.29	78.261
328.65	82.044
329.01	81.769
329.38	86.957
329.74	84.857
330.11	88.690
330.47	88.062
330.84	89.706
331.20	90.984
331.56	90.275
331.93	95.741
332.29	92.458
332.66	94.690
333.02	94.698
333.38	96.116
333.75	96.970
334.11	98.932
334.48	97.870
334.84	99.816
335.20	103.636
335.57	101.360
335.93	100.000
336.29	102.930
336.66	104.418
337.02	103.439
337.38	107.593
337.75	102.763
338.11	105.372
338.47	107.366
338.84	107.241
339.20	105.688
339.56	109.033
339.93	107.727
340.29	109.330
340.65	108.556
341.02	109.075
341.38	109.075
341.74	107.544
342.11	110.830
342.47	111.189
342.83	108.219
343.20	110.563
343.56	108.509
343.92	113.158
344.28	110.714
344.65	113.929
345.01	111.279
345.37	111.921
345.73	110.575
346.10	113.299
346.46	112.203
346.82	112.438
347.19	113.367
347.55	111.412
347.91	113.430
348.27	115.201
348.63	115.301
349.00	113.430
349.36	114.614
349.72	112.510
350.08	113.452
350.45	115.867
350.81	116.166
351.17	115.802
351.53	115.233
351.89	116.254
352.26	115.075
352.62	115.718
352.98	116.613
353.34	117.749
353.70	117.594
354.07	115.806
354.43	115.794
354.79	117.136
355.15	116.042
355.51	119.424
355.87	121.796
356.24	121.254
356.60	118.364
356.96	121.641
357.32	120.442
357.68	121.339
358.04	119.398
358.40	119.636
358.77	118.936
359.13	120.205
359.49	119.608
359.85	122.302
360.21	126.236
360.57	121.401
360.93	122.538
361.29	120.559
361.66	122.136
362.02	122.015
362.38	124.867
362.74	123.512
363.10	122.946
363.46	121.130
363.82	123.885
364.18	124.670
364.54	126.300
364.90	123.300
365.26	125.662
365.62	126.662
365.98	124.763
366.35	124.570
366.71	124.440
367.07	126.147
367.43	127.866
367.79	128.765
368.15	127.730
368.51	126.235
368.87	127.052
369.23	126.993
369.59	127.371
369.95	129.559
370.31	127.279
370.67	125.217
371.03	129.813
371.39	130.029
371.75	127.353
372.11	127.027
372.47	131.525
372.83	132.709
373.19	127.457
373.55	130.968
373.91	132.622
374.27	127.766
374.63	133.018
374.99	129.025
375.35	130.984
375.71	130.706
376.07	131.550
376.42	131.637
376.78	130.948
377.14	131.343
377.50	132.914
377.86	132.646
378.22	130.784
378.58	131.642
378.94	131.741
379.30	136.705
379.66	136.485
380.02	132.002
380.38	132.787
380.74	133.733
381.09	131.296
381.45	134.173
381.81	134.091
382.17	132.357
382.53	133.396
382.89	134.815
383.25	135.710
383.61	135.812
383.97	135.210
384.32	133.624
384.68	135.068
385.04	135.587
385.40	133.622
385.76	130.897
386.12	137.435
386.48	135.368
386.83	138.037
387.19	137.539
387.55	133.210
387.91	135.913
388.27	134.887
388.62	137.369
388.98	133.784
389.34	134.856
389.70	134.028
390.06	135.615
390.42	137.095
390.77	134.733
391.13	138.354
391.49	136.231
391.85	136.601
392.20	136.025
392.56	135.732
392.92	136.904
393.28	136.450
393.64	136.151
393.99	134.514
394.35	137.593
394.71	134.316
395.07	135.202
395.42	136.403
395.78	134.160
396.14	133.768
396.50	136.654
396.85	137.254
397.21	136.375
397.57	135.462
397.92	137.620
398.28	136.827
398.64	135.544
399.00	135.534
399.35	135.364
399.71	135.590
400.07	135.127
400.42	135.644
400.78	135.404
401.14	135.732
401.49	137.254
401.85	135.814
402.21	134.072
402.57	134.362
402.92	137.894
403.28	137.227
403.63	135.396
403.99	136.433
404.35	134.545
404.70	135.132
405.06	135.935
405.42	136.619
405.77	135.486
406.13	133.860
406.49	135.068
406.84	134.495
407.20	133.274
407.55	136.184
407.91	137.000
408.27	139.757
408.62	133.233
408.98	134.559
409.34	135.732
409.69	136.710
410.05	135.564
410.40	135.046
410.76	135.006
411.11	132.750
411.47	132.780
411.83	134.698
412.18	133.828
412.54	135.430
412.89	132.892
413.25	135.537
413.60	134.960
413.96	130.540
414.31	133.293
414.67	133.840
415.03	136.093
415.38	133.054
415.74	132.926
416.09	135.794
416.45	132.865
416.80	133.245
417.16	134.584
417.51	135.700
417.87	133.141
418.22	134.763
418.58	132.473
418.93	134.337
419.29	131.509
419.64	132.053
420.00	132.195
420.35	131.478
420.71	134.788
421.06	133.055
421.42	131.813
421.77	133.969
422.12	133.464
422.48	134.431
422.83	135.061
423.19	130.276
423.54	133.372
423.90	132.464
424.25	130.821
424.61	130.714
424.96	134.344
425.31	129.845
425.67	128.933
426.02	130.857
426.38	134.310
426.73	131.539
427.09	130.760
427.44	131.685
427.79	132.375
428.15	131.488
428.50	130.369
428.85	131.287
429.21	130.646
429.56	131.519
429.92	130.750
430.27	130.685
430.62	129.032
430.98	130.150
431.33	129.691
431.68	131.361
432.04	128.275
432.39	130.383
432.74	132.256
433.10	131.975
433.45	132.828
433.80	129.435
434.16	131.998
434.51	129.632
434.86	130.046
435.22	131.684
435.57	130.456
435.92	130.076
436.28	132.266
436.63	129.746
436.98	130.509
437.34	130.769
437.69	131.972
438.04	131.422
438.39	131.045
438.75	131.551
439.10	130.838
439.45	130.283
439.81	130.695
440.16	130.661
440.51	128.705
440.86	129.936
441.22	130.868
441.57	131.635
441.92	129.734
442.27	129.548
442.63	128.857
442.98	131.493
443.33	128.261
443.68	130.201
444.03	128.648
444.39	129.260
444.74	129.545
445.09	129.380
445.44	127.775
445.79	128.847
446.15	124.616
446.50	128.325
446.85	128.571
447.20	128.251
447.55	129.090
447.91	127.910
448.26	127.713
448.61	128.999
448.96	127.962
449.31	127.222
449.66	127.124
450.02	126.964
450.37	126.077
450.72	128.596
451.07	127.666
451.42	126.869
451.77	127.187
452.12	125.577
452.47	127.923
452.83	129.895
453.18	126.711
453.53	128.077
453.88	126.875
454.23	126.420
454.58	126.590
454.93	127.781
455.28	126.870
455.63	126.032
455.98	129.464
456.34	126.508
456.69	127.927
457.04	126.316
457.39	126.125
457.74	126.291
458.09	124.209
458.44	125.884
458.79	125.054
459.14	126.242
459.49	126.328
459.84	125.208
460.19	125.987
460.54	122.859
460.89	125.507
461.24	125.319
461.59	124.114
461.94	124.353
462.29	125.638
462.64	124.123
462.99	122.056
463.34	124.400
463.69	124.703
464.04	122.087
464.39	122.551
464.74	124.183
465.09	123.462
465.44	122.438
465.79	122.092
466.14	121.292
466.49	121.746
466.84	122.825
467.19	121.847
467.54	122.875
467.89	122.509
468.24	121.059
468.59	121.429
468.94	120.586
469.29	122.815
469.64	123.427
469.99	122.260
470.34	123.052
470.68	122.557
471.03	121.293
471.38	123.558
471.73	120.520
472.08	121.776
472.43	121.545
472.78	120.869
473.13	119.705
473.48	121.161
473.83	120.183
474.17	119.913
474.52	122.084
474.87	119.264
475.22	120.255
475.57	117.356
475.92	120.393
476.27	119.955
476.61	119.305
476.96	120.396
477.31	117.530
477.66	118.217
478.01	117.459
478.36	119.196
478.70	117.290
479.05	118.104
479.40	118.833
479.75	118.709
480.10	117.445
480.45	116.564
480.79	117.439
481.14	117.857
481.49	116.801
481.84	116.552
482.19	118.582
482.53	115.734
482.88	117.124
483.23	116.495
483.58	115.514
483.92	117.198
484.27	114.989
484.62	115.172
484.97	115.451
485.31	117.842
485.66	117.453
486.01	113.891
486.36	110.667
486.70	108.327
487.05	110.622
487.40	111.849
487.75	113.089
488.09	114.164
488.44	113.109
488.79	116.275
489.13	114.362
489.48	115.742
489.83	113.336
490.17	115.826
490.52	114.570
490.87	113.252
491.22	113.097
491.56	111.344
491.91	113.867
492.26	112.586
492.60	112.396
492.95	113.424
493.30	111.308
493.64	111.619
493.99	110.864
494.34	112.442
494.68	113.416
495.03	112.829
495.37	110.935
495.72	112.865
496.07	112.761
496.41	108.407
496.76	111.697
497.11	109.140
497.45	111.365
497.80	112.092
498.14	110.435
498.49	112.878
498.84	111.457
499.18	111.238
499.53	109.877
499.87	111.743
500.22	108.620
500.56	112.427
500.91	109.856
501.26	109.341
501.60	110.869
501.95	108.433
502.29	111.200
502.64	111.173
502.98	108.976
503.33	106.673
503.67	109.559
504.02	109.963
504.36	107.721
504.71	108.891
505.06	109.687
505.40	108.459
505.75	107.570
506.09	107.677
506.44	110.409
506.78	108.134
507.13	110.146
507.47	107.525
507.82	107.751
508.16	108.612
508.51	109.183
508.85	107.746
509.19	107.092
509.54	106.837
509.88	106.749
510.23	107.095
510.57	108.927
510.92	106.525
511.26	105.755
511.61	106.380
511.95	107.255
512.30	105.992
512.64	106.126
512.98	106.592
513.33	107.013
513.67	104.055
514.02	106.061
514.36	107.974
514.70	106.973
515.05	106.358
515.39	105.104
515.74	106.306
516.08	106.149
516.42	105.438
516.77	106.020
517.11	105.050
517.46	105.926
517.80	104.007
518.14	104.169
518.49	105.718
518.83	103.011
519.17	105.600
519.52	104.980
519.86	104.107
520.20	104.046
520.55	106.164
520.89	106.934
521.23	103.981
521.58	104.382
521.92	103.735
522.26	102.441
522.61	106.106
522.95	103.683
523.29	103.408
523.64	102.805
523.98	105.299
524.32	104.162
524.66	101.924
525.01	101.287
525.35	100.743
525.69	99.815
526.04	101.184
526.38	103.051
526.72	99.877
527.06	103.578
527.41	101.361
527.75	103.023
528.09	101.413
528.43	103.442
528.78	101.844
529.12	100.667
529.46	102.021
529.80	102.042
530.15	100.935
530.49	99.508
530.83	100.316
531.17	101.958
531.51	102.075
531.86	100.065
532.20	102.021
532.54	100.064
532.88	101.155
533.22	99.126
533.57	98.827
533.91	98.013
534.25	99.392
534.59	99.207
534.93	97.918
535.27	98.974
535.62	99.756
535.96	100.377
536.30	99.491
536.64	98.970
536.98	98.607
537.32	98.749
537.66	99.333
538.01	98.815
538.35	98.772
538.69	100.064
539.03	97.141
539.37	97.444
539.71	97.732
540.05	98.235
540.39	99.468
540.73	97.025
541.07	98.313
541.42	99.935
541.76	98.194
542.10	98.383
542.44	98.013
542.78	97.563
543.12	96.033
543.46	98.623
543.80	99.740
544.14	96.598
544.48	97.714
544.82	96.600
545.16	98.764
545.50	96.080
545.84	98.589
546.18	97.576
546.52	99.587
546.86	97.113
547.20	98.517
547.54	96.927
547.88	95.791
548.22	95.205
548.56	95.535
548.90	95.070
549.24	95.960
549.58	95.975
549.92	96.085
550.26	98.224
550.60	95.297
550.94	94.577
551.28	97.366
551.62	96.837
551.96	94.807
552.30	96.928
552.64	96.146
552.98	95.932
553.32	92.785
553.66	94.138
554.00	94.578
554.34	92.754
554.68	94.993
555.02	95.134
555.36	93.807
555.69	92.355
556.03	93.405
556.37	94.543
556.71	92.906
557.05	92.857
557.39	93.142
557.73	93.860
558.07	95.286
558.41	92.113
558.75	91.550
559.08	94.556
559.42	94.860
559.76	93.162
560.10	92.862
560.44	92.453
560.78	92.016
561.12	91.227
561.45	92.373
561.79	90.574
562.13	92.421
562.47	94.604
562.81	94.770
563.15	90.635
563.48	91.379
563.82	91.389
564.16	94.048
564.50	90.104
564.84	89.317
565.17	92.021
565.51	91.374
565.85	91.180
566.19	91.296
566.52	93.477
566.86	91.139
567.20	92.512
567.54	91.438
567.88	91.418
568.21	90.582
568.55	89.484
568.89	91.099
569.23	90.018
569.56	88.623
569.90	89.585
570.24	89.092
570.57	88.677
570.91	86.587
571.25	87.616
571.59	87.482
571.92	87.414
572.26	88.677
572.60	88.078
572.93	87.136
573.27	87.962
573.61	88.470
573.95	87.494
574.28	87.965
574.62	86.540
574.96	86.977
575.29	86.203
575.63	87.449
575.97	87.425
576.30	86.378
576.64	87.440
576.98	86.825
577.31	86.599
577.65	86.862
577.98	85.665
578.32	86.299
578.66	85.870
578.99	86.419
579.33	86.250
579.67	84.773
580.00	85.807
580.34	86.616
580.67	86.599
581.01	86.081
581.35	86.050
581.68	86.349
582.02	85.220
582.35	85.208
582.69	86.053
583.02	85.792
583.36	86.650
583.70	86.489
584.03	85.946
584.37	86.245
584.70	86.912
585.04	85.298
585.37	85.508
585.71	85.597
586.04	85.335
586.38	86.468
586.72	85.971
587.05	84.814
587.39	85.488
587.72	85.416
588.06	85.352
588.39	86.036
588.73	85.597
589.06	86.694
589.40	85.455
589.73	86.167
590.07	85.160
590.40	84.582
590.73	85.168
591.07	87.261
591.40	85.576
591.74	87.489
592.07	84.729
592.41	85.614
592.74	83.970
593.08	83.844
593.41	84.277
593.75	81.980
594.08	84.076
594.41	83.598
594.75	85.730
595.08	83.178
595.42	83.853
595.75	83.939
596.09	85.843
596.42	84.597
596.75	85.057
597.09	85.368
597.42	83.263
597.75	84.088
598.09	83.304
598.42	82.302
598.76	82.975
599.09	83.922
599.42	82.424
599.76	82.980
600.09	82.769
600.42	81.702
600.76	80.964
601.09	82.514
601.42	82.801
601.76	82.922
602.09	83.083
602.42	83.320
602.76	83.515
603.09	82.573
603.42	83.093
603.76	82.165
604.09	82.125
604.42	82.715
604.76	82.581
605.09	82.263
605.42	81.488
605.75	82.161
606.09	82.757
606.42	81.937
606.75	80.962
607.09	81.499
607.42	83.398
607.75	81.013
608.08	81.850
608.42	81.578
608.75	81.064
609.08	80.111
609.41	81.485
609.75	80.943
610.08	81.715
610.41	81.564
610.74	83.444
611.07	82.362
611.41	81.060
611.74	81.699
612.07	82.453
612.40	84.050
612.73	80.474
613.07	83.297
613.40	80.779
613.73	80.388
614.06	80.860
614.39	79.706
614.72	80.158
615.06	80.987
615.39	79.459
615.72	79.550
616.05	80.064
616.38	80.767
616.71	82.482
617.05	82.921
617.38	80.878
617.71	81.441
618.04	81.070
618.37	80.248
618.70	80.834
619.03	80.461
619.36	79.837
619.69	81.549
620.03	81.868
620.36	81.217
620.69	82.123
621.02	81.932
621.35	80.188
621.68	79.673
622.01	81.502
622.34	80.787
622.67	80.532
623.00	80.851
623.33	79.342
623.66	80.701
623.99	81.149
624.32	79.458
624.65	79.449
624.99	80.382
625.32	79.942
625.65	81.142
625.98	82.091
626.31	79.393
626.64	81.469
626.97	83.126
627.30	81.463
627.63	79.984
627.96	82.843
628.29	81.802
628.62	82.525
628.95	81.226
629.28	80.657
629.61	81.118
629.94	81.048
630.26	81.697
630.59	81.030
630.92	80.364
631.25	79.171
631.58	80.881
631.91	79.817
632.24	77.848
632.57	79.328
632.90	79.715
633.23	80.089
633.56	81.469
633.89	81.314
634.22	80.363
634.55	82.485
634.88	81.198
635.20	81.720
635.53	81.084
635.86	82.673
636.19	78.353
636.52	79.239
636.85	81.787
637.18	77.650
637.51	81.797
637.83	79.038
638.16	81.074
638.49	79.849
638.82	82.680
639.15	80.375
639.48	78.803
639.81	81.233
640.13	80.469
640.46	80.537
640.79	77.675
641.12	79.230
641.45	81.844
641.77	85.862
642.10	78.801
642.43	81.081
642.76	82.198
643.09	81.748
643.41	79.666
643.74	81.636
644.07	81.555
644.40	81.595
644.73	81.890
645.05	79.398
645.38	77.883
645.71	79.066
646.04	84.053
646.36	82.471
646.69	81.773
647.02	79.932
647.35	83.505
647.67	85.133
648.00	77.886
648.33	80.198
648.66	77.727
648.98	79.760
649.31	79.522
649.64	79.970
649.96	78.689
650.29	80.411
650.62	81.230
650.94	80.065
651.27	83.446
651.60	82.196
651.92	76.997
652.25	78.990
652.58	80.530
652.90	80.411
653.23	77.350
653.56	79.843
653.88	77.496
654.21	80.253
654.54	81.683
654.86	78.505
655.19	79.054
655.52	61.267
655.84	61.380
656.17	81.260
656.49	100.000
656.82	100.000
657.15	99.813
657.47	64.197
657.80	49.173
658.13	51.843
658.45	75.798
658.78	75.796
659.10	78.224
659.43	80.939
659.75	83.207
660.08	87.658
660.41	91.620
660.73	88.945
661.06	85.350
661.38	84.182
661.71	81.154
662.03	82.643
662.36	79.324
662.68	82.129
663.01	79.192
663.33	80.042
663.66	81.723
663.98	81.857
664.31	79.412
664.63	81.377
664.96	76.861
665.28	81.148
665.61	74.659
665.93	78.672
666.26	78.702
666.58	80.335
666.91	81.395
667.23	83.820
667.56	76.674
667.88	80.342
668.21	78.252
668.53	79.826
668.86	77.273
669.18	79.957
669.50	74.348
669.83	77.124
670.15	82.000
670.48	76.688
670.80	77.586
671.13	79.618
671.45	74.043
671.77	79.022
672.10	76.525
672.42	76.678
672.75	73.798
673.07	78.521
673.39	77.577
673.72	80.078
674.04	75.098
674.37	78.641
674.69	78.323
675.01	78.661
675.34	79.261
675.66	78.947
675.98	77.597
676.31	77.311
676.63	75.372
676.95	75.681
677.28	83.645
677.60	77.802
677.92	78.692
678.25	76.386
678.57	77.888
678.89	80.962
679.22	77.014
679.54	76.336
679.86	77.982
680.18	74.597
680.51	73.759
680.83	72.420
681.15	77.547
681.48	79.206
681.80	74.662
682.12	74.521
682.44	75.242
682.77	79.226
683.09	79.399
683.41	79.601
683.73	78.146
684.06	76.860
684.38	73.386
684.70	72.868
685.02	73.546
685.34	73.810
685.67	75.350
685.99	70.447
686.31	72.696
686.63	75.265
686.96	73.571
687.28	73.105
687.60	75.725
687.92	77.331
688.24	73.574
688.56	75.502
688.89	74.896
689.21	79.913
689.53	73.069
689.85	78.714
690.17	72.257
690.49	76.433
690.82	78.271
691.14	71.429
691.46	72.363
691.78	71.285
692.10	77.479
692.42	74.451
692.74	74.274
693.06	73.617
693.39	73.717
693.71	71.397
694.03	76.842
694.35	76.623
694.67	75.515
694.99	79.512
695.31	78.431
695.63	73.923
695.95	77.017
696.27	76.396
696.59	73.834
696.91	76.684
697.23	72.535
697.56	72.281
697.88	71.166
698.20	72.917
698.52	73.978
698.84	74.610
699.16	73.041
699.48	74.109
699.80	78.986
700.12	84.675
700.44	80.371
700.76	79.834
701.08	79.023
701.40	75.419
701.72	80.758
702.04	74.716
702.36	73.371
702.68	76.487
703.00	77.008
703.32	72.340
703.64	77.748
703.96	76.880
704.28	80.814
704.60	79.472
704.91	77.448
705.23	77.713
705.55	83.056
705.87	80.066
706.19	84.099
706.51	74.766
706.83	74.848
707.15	71.989
707.47	73.232
707.79	76.904
708.11	74.658
708.43	73.095
708.74	76.020
709.06	76.883
709.38	73.491
709.70	78.198
710.02	74.777
710.34	75.455
710.66	78.209
710.98	74.716
711.29	72.674
711.61	79.646
711.93	77.564
712.25	81.672
712.57	77.941
712.89	77.163
713.20	73.252
713.52	77.303
713.84	80.063
714.16	73.780
714.48	71.552
714.80	85.106
715.11	74.640
715.43	76.261
715.75	73.043
716.07	80.831
716.39	74.608
716.70	79.070
717.02	80.576
717.34	70.671
717.66	79.851
717.97	84.861
718.29	74.074
718.61	77.737
718.93	82.721
719.24	79.585
719.56	74.915
719.88	78.983
720.20	78.716
720.51	79.094
720.83	81.784
721.15	73.881
721.46	70.567
721.78	77.061
722.10	84.528
722.42	83.459
722.73	80.524
723.05	81.967
723.37	84.211
723.68	81.853
724.00	80.081
724.32	80.645
724.63	81.707
724.95	84.937
725.27	80.972
725.58	79.688
725.90	76.642
726.22	75.472
726.53	75.000
726.85	74.744
727.16	80.071
727.48	74.468
727.80	77.652
728.11	75.000
728.43	80.769
728.74	79.211
729.06	75.182
729.38	82.721
729.69	81.495
730.01	73.379
730.32	74.653
730.64	74.582
730.96	71.947
731.27	71.192
731.59	74.618
731.90	72.886
732.22	75.155
732.53	75.542
732.85	74.359
733.16	76.206
733.48	75.748
733.80	74.026
734.11	71.975
734.43	71.006
734.74	73.143
735.06	67.908
735.37	74.277
735.69	76.752
736.00	77.124
736.32	72.586
736.63	77.316
736.95	74.760
737.26	74.490
737.58	74.839
737.89	76.589
738.21	76.109
738.52	81.429
738.83	72.453
739.15	72.308
739.46	77.737
739.78	73.611
740.09	72.000
740.41	77.742
740.72	76.655
741.04	80.000
741.35	81.667
741.66	87.111
741.98	83.019
742.29	88.995
742.61	81.897
742.92	78.733
743.23	83.333
743.55	75.200
743.86	83.772
744.18	75.221
744.49	82.297
744.80	86.385
745.12	81.818
745.43	79.736
745.74	83.784
746.06	79.358
746.37	81.166
746.68	82.805
747.00	83.796
747.31	83.810
747.62	74.336
747.94	79.295
748.25	78.298
748.56	83.260
748.88	84.653
749.19	80.500
749.50	88.372
749.82	77.236
750.13	73.469
750.44	78.467
750.75	76.140
751.07	73.633
751.38	77.352
751.69	76.895
752.01	78.947
752.32	70.758
752.63	75.887
752.94	76.230
753.26	82.400
753.57	67.886
753.88	79.297
754.19	75.714
754.51	76.389
754.82	72.924
755.13	71.321
755.44	76.692
755.75	70.803
756.07	72.695
756.38	71.168
756.69	71.812
757.00	67.665
757.31	67.953
757.63	71.345
757.94	66.488
758.25	65.196
758.56	64.691
758.87	69.892
759.18	70.909
759.50	67.712
759.81	71.963
760.12	67.500
760.43	70.487
760.74	70.924
761.05	70.621
761.36	69.251
761.67	72.727
761.99	72.671
762.30	75.000
762.61	71.374
762.92	76.172
763.23	81.092
763.54	80.800
763.85	74.609
764.16	75.769
764.47	77.567
764.78	73.498
765.10	64.557
765.41	71.091
765.72	70.958
766.03	71.787
766.34	68.333
766.65	81.702
766.96	77.778
767.27	83.756
767.58	84.896
767.89	81.053
768.20	89.655
768.51	75.635
768.82	79.358
769.13	70.732
769.44	74.494
769.75	82.403
770.06	78.899
770.37	80.995
770.68	76.852
770.99	71.556
771.30	69.672
771.61	86.547
771.92	76.639
772.23	78.571
772.54	86.154
772.85	81.152
773.16	81.383
773.47	85.870
773.78	83.756
774.09	83.929
774.39	81.871
774.70	85.185
775.01	91.304
775.32	87.582
775.63	92.105
775.94	84.173
776.25	102.362
776.56	90.299
776.87	90.984
777.18	97.656
777.48	95.420
777.79	84.091
778.10	91.852
778.41	103.571
778.72	97.080
779.03	90.604
779.34	88.591
779.65	89.189
779.95	83.436
780.26	96.078
780.57	94.483
780.88	107.031
781.19	96.992
781.50	85.811
781.80	85.535
782.11	85.876
782.42	87.975
782.73	82.822
783.04	98.649
783.34	86.620
783.65	100.000
783.96	94.030
784.27	92.308
784.57	79.856
784.88	88.889
785.19	91.270
785.50	100.000
785.81	95.522
786.11	100.000
786.42	97.674
786.73	93.805
787.04	116.038
787.34	96.429
787.65	112.000
787.96	94.595
788.26	96.694
788.57	106.780
788.88	101.653
789.19	89.583
789.49	100.758
789.80	90.076
790.11	114.286
790.41	113.861
790.72	121.687
791.03	106.522
791.33	112.791
791.64	102.062
791.95	100.000
792.25	115.556
792.56	109.091
792.87	141.026
793.17	127.848
793.48	102.299
793.79	111.494
794.09	109.091
794.40	92.437
794.70	91.912
795.01	87.407
795.32	86.331
795.62	85.827
795.93	98.276
796.23	103.540
796.54	115.294
796.85	120.270
797.15	126.761
797.46	128.788
797.76	114.458
798.07	131.646
798.37	132.308
798.68	148.485
798.99	108.451
799.29	125.974
799.60	109.091
799.90	138.356
800.21	132.836
800.51	134.483
800.82	164.912
801.12	142.623
801.43	154.545
801.73	109.459
802.04	144.444
802.34	116.049
802.65	118.750
802.95	154.237
803.26	129.688
803.56	101.429
803.87	129.231
804.17	138.235
804.48	146.296
804.78	127.586
805.09	132.353
805.39	146.154
805.70	148.214
806.00	154.098
806.30	133.333
806.61	119.512
806.91	112.658
807.22	127.632
807.52	117.910
807.83	135.211
808.13	146.875
808.43	150.000
808.74	110.526
809.04	120.290
809.35	135.821
809.65	128.947
809.95	156.452
810.26	125.424
810.56	120.635
810.86	172.727
811.17	183.333
811.47	126.667
811.77	157.407
812.08	147.273
812.38	188.000
812.69	188.889
812.99	184.091
813.29	169.388
813.59	152.381
813.90	155.102
814.20	136.364
814.50	140.000
814.81	123.529
815.11	169.388
815.41	136.066
815.72	183.333
816.02	136.364
816.32	200.000
816.62	160.000
816.93	180.488
817.23	169.048
817.53	177.273
817.84	212.121
818.14	184.783
818.44	166.667
818.74	214.706
819.04	172.500
819.35	202.857
819.65	255.882
819.95	210.714
820.25	260.000
820.56	205.128
820.86	179.545
821.16	186.047
821.46	182.051
821.76	188.000
822.07	214.286
822.37	172.500
822.67	224.242
822.97	135.294
823.27	239.286
823.57	205.405
823.88	200.000
824.18	246.667
824.48	185.714
824.78	300.000
825.08	295.833
825.38	175.676
825.69	180.488
825.99	291.667
826.29	251.724
826.59	194.737
826.89	171.053
827.19	229.412
827.49	235.484
827.79	168.182
828.09	181.818
828.39	151.064
828.70	128.571
829.00	229.630
829.30	212.903
829.60	157.500
829.90	373.333
830.20	267.857
830.50	243.478
830.80	260.870
831.10	236.667
831.40	223.333
831.70	221.739
832.00	280.769
832.30	251.852
832.60	343.750
832.90	260.000
833.20	514.286
833.50	241.935
833.80	244.828
834.10	225.000
834.40	307.692
834.70	338.889
835.00	385.714
835.30	211.429
835.60	353.846
835.90	258.621
836.20	492.857
836.50	234.483
836.80	276.000
837.10	211.111
837.40	347.619
837.70	364.706
838.00	255.556
838.30	285.714
838.60	328.571
838.90	265.385
839.19	335.000
839.49	421.429
839.79	390.000
840.09	305.000
840.39	323.810
840.69	300.000
840.99	350.000
841.29	540.000
841.59	466.667
841.88	381.250
842.18	220.690
842.48	290.476
842.78	213.333
843.08	273.913
843.38	203.125
843.68	1116.667
843.97	288.462
844.27	237.931
844.57	323.810
844.87	418.750
845.17	218.519
845.47	1866.667
845.76	533.333
846.06	376.471
846.36	800.000
846.66	385.714
846.96	368.750
847.25	500.000
847.55	627.273
847.85	300.000
848.15	450.000
848.44	392.857
848.74	305.556
849.04	400.000
849.34	670.000
849.63	347.368
849.93	581.818
850.23	940.000
850.53	492.857
850.82	2950.000
851.12	-5400.000
851.42	6000.000
851.71	355.000
852.01	-1733.333
852.31	295.833
852.61	2000.000
852.90	309.524
853.20	272.000
853.50	376.471
853.79	304.762
854.09	295.833
854.39	431.250
854.68	151.351
854.98	193.548
855.28	193.333
855.57	217.241
855.87	218.519
856.17	278.947
856.46	320.000
856.76	329.412
857.05	234.483
857.35	287.500
857.65	346.667
857.94	269.565
858.24	257.692
858.53	360.000
858.83	300.000
859.13	353.333
859.42	0.000
859.72	666.667
860.01	527.273
860.31	304.545
860.60	336.842
860.90	291.304
861.20	588.889
861.49	558.333
861.79	-5400.000
862.08	800.000
862.38	376.190
862.67	446.154
862.97	400.000
863.26	644.444
863.56	311.111
863.85	500.000
864.15	700.000
864.44	406.667
864.74	900.000
865.03	837.500
865.33	326.316
865.62	481.818
865.92	492.308
866.21	408.333
866.51	0.000
866.80	527.273
867.10	1280.000
867.39	469.231
867.69	545.455
867.98	331.579
868.27	545.455
868.57	331.579
868.86	-4600.000
869.16	387.500
869.45	3000.000
869.75	-5800.000
870.04	516.667
870.33	828.571
870.63	1200.000
870.92	3050.000
871.22	842.857
871.51	376.471
871.80	328.571
872.10	392.857
>>>>>End Processed Spectral Data<<<<<
