SpectraSuite Data File
++++++++++++++++++++++++++++++++++++
Date: Wed May 13 19:25:15 PDT 2015
User: schluterlab
Dark Spectrum Present: Yes
Reference Spectrum Present: Yes
Number of Sampled Component Spectra: 1
Spectrometers: USB2E3373
Integration Time (usec): 3000 (USB2E3373)
Spectra Averaged: 3 (USB2E3373)
Boxcar Smoothing: 0 (USB2E3373)
Correct for Electrical Dark: No (USB2E3373)
Strobe/Lamp Enabled: No (USB2E3373)
Correct for Detector Non-linearity: No (USB2E3373)
Correct for Stray Light: No (USB2E3373)
Number of Pixels in Processed Spectrum: 2048
>>>>>Begin Processed Spectral Data<<<<<
178.53	0.000
178.91	-1425.000
179.29	-1400.000
179.67	-283.333
180.04	-1475.000
180.42	2950.000
180.80	940.000
181.18	-1100.000
181.56	628.571
181.94	0.000
182.31	-657.143
182.69	1700.000
183.07	-587.500
183.45	-533.333
183.83	481.818
184.20	-510.000
184.58	2400.000
184.96	6100.000
185.34	-1060.000
185.72	-625.000
186.09	-2400.000
186.47	3000.000
186.85	2650.000
187.23	5800.000
187.61	-1766.667
187.98	1275.000
188.36	709.091
188.74	554.545
189.12	-860.000
189.49	560.000
189.87	-4600.000
190.25	-1275.000
190.63	400.000
191.00	469.231
191.38	850.000
191.76	-1100.000
192.14	1700.000
192.51	625.000
192.89	1000.000
193.27	662.500
193.65	-1125.000
194.02	610.000
194.40	1020.000
194.78	570.000
195.15	633.333
195.53	690.000
195.91	-2300.000
196.29	356.250
196.66	342.105
197.04	-370.000
197.42	0.000
197.79	700.000
198.17	-5600.000
198.55	800.000
198.92	725.000
199.30	1140.000
199.68	0.000
200.05	388.889
200.43	614.286
200.81	4900.000
201.18	1733.333
201.56	-1866.667
201.94	666.667
202.31	644.444
202.69	441.667
203.07	690.000
203.44	0.000
203.82	1375.000
204.19	814.286
204.57	514.286
204.95	687.500
205.32	1633.333
205.70	618.182
206.08	407.143
206.45	2700.000
206.83	400.000
207.20	1150.000
207.58	980.000
207.96	388.889
208.33	725.000
208.71	-833.333
209.08	714.286
209.46	611.111
209.84	472.727
210.21	-1866.667
210.59	1400.000
210.96	-550.000
211.34	2800.000
211.71	720.000
212.09	766.667
212.46	0.000
212.84	2000.000
213.22	1425.000
213.59	-5100.000
213.97	766.667
214.34	842.857
214.72	681.818
215.09	1180.000
215.47	-2200.000
215.84	-2700.000
216.22	1833.333
216.59	457.143
216.97	1550.000
217.34	572.727
217.72	-816.667
218.09	0.000
218.47	-5200.000
218.84	711.111
219.22	871.429
219.59	1733.333
219.97	-614.286
220.34	1080.000
220.72	-1766.667
221.09	407.143
221.47	1725.000
221.84	-866.667
222.22	0.000
222.59	1725.000
222.97	-2250.000
223.34	1260.000
223.72	461.538
224.09	1160.000
224.46	2400.000
224.84	-5600.000
225.21	-1080.000
225.59	-6100.000
225.96	610.000
226.34	375.000
226.71	3150.000
227.08	762.500
227.46	540.000
227.83	-1250.000
228.21	-2400.000
228.58	622.222
228.95	-2950.000
229.33	-2750.000
229.70	1933.333
230.08	871.429
230.45	-1100.000
230.82	558.333
231.20	800.000
231.57	714.286
231.95	533.333
232.32	286.364
232.69	536.364
233.07	785.714
233.44	400.000
233.81	-1866.667
234.19	378.947
234.56	575.000
234.93	466.667
235.31	563.636
235.68	384.615
236.05	414.286
236.43	212.121
236.80	352.632
237.17	5200.000
237.55	319.048
237.92	296.429
238.29	342.857
238.67	280.645
239.04	268.966
239.41	244.444
239.79	167.391
240.16	192.857
240.53	172.727
240.91	150.980
241.28	160.000
241.65	168.000
242.02	155.072
242.40	146.774
242.77	163.333
243.14	131.183
243.51	152.809
243.89	132.941
244.26	120.000
244.63	131.183
245.00	113.830
245.38	122.772
245.75	117.757
246.12	109.174
246.49	106.569
246.87	116.000
247.24	111.538
247.61	102.857
247.98	107.843
248.36	95.946
248.73	100.637
249.10	108.917
249.47	97.175
249.84	95.187
250.22	89.840
250.59	100.000
250.96	94.949
251.33	87.678
251.70	92.079
252.08	86.667
252.45	87.444
252.82	89.565
253.19	84.681
253.56	84.314
253.94	87.137
254.31	83.594
254.68	83.077
255.05	85.240
255.42	89.431
255.79	86.765
256.16	81.949
256.54	81.625
256.91	85.053
257.28	78.058
257.65	86.139
258.02	80.435
258.39	76.025
258.76	85.953
259.14	82.143
259.51	76.596
259.88	76.087
260.25	81.571
260.62	77.457
260.99	85.093
261.36	79.279
261.73	76.504
262.10	78.198
262.47	78.310
262.85	76.880
263.22	79.772
263.59	80.627
263.96	75.549
264.33	73.368
264.70	74.474
265.07	74.936
265.44	73.485
265.81	73.236
266.18	74.623
266.55	74.878
266.92	77.396
267.29	75.231
267.66	70.413
268.03	70.682
268.40	74.299
268.77	74.702
269.14	72.523
269.51	71.558
269.88	75.291
270.25	71.783
270.62	72.360
270.99	76.129
271.36	71.674
271.73	74.533
272.10	73.261
272.47	73.763
272.84	72.727
273.21	69.392
273.58	69.869
273.95	70.440
274.32	69.628
274.69	72.377
275.06	68.504
275.43	71.277
275.80	68.737
276.17	68.839
276.54	71.726
276.91	69.368
277.28	67.383
277.65	70.986
278.02	71.843
278.39	71.094
278.76	66.000
279.13	69.623
279.50	66.294
279.87	67.729
280.23	66.667
280.60	68.665
280.97	67.468
281.34	67.611
281.71	65.091
282.08	69.674
282.45	64.727
282.82	64.298
283.19	64.528
283.56	68.070
283.92	66.328
284.29	66.490
284.66	63.521
285.03	66.184
285.40	63.908
285.77	65.320
286.14	64.076
286.51	62.333
286.87	62.222
287.24	63.192
287.61	63.724
287.98	63.636
288.35	60.063
288.72	59.346
289.08	59.624
289.45	62.438
289.82	59.837
290.19	60.440
290.56	59.571
290.93	57.402
291.29	61.656
291.66	56.637
292.03	58.721
292.40	59.471
292.77	55.030
293.13	57.910
293.50	57.434
293.87	56.148
294.24	55.407
294.60	54.003
294.97	53.924
295.34	55.571
295.71	55.540
296.08	54.843
296.44	51.994
296.81	51.255
297.18	54.336
297.55	52.375
297.91	52.507
298.28	54.083
298.65	52.219
299.02	51.779
299.38	52.191
299.75	49.865
300.12	50.575
300.48	49.500
300.85	50.308
301.22	50.318
301.59	49.242
301.95	49.370
302.32	49.679
302.69	48.507
303.05	49.576
303.42	47.778
303.79	47.452
304.15	46.387
304.52	46.234
304.89	48.780
305.25	45.940
305.62	47.905
305.99	49.233
306.35	48.098
306.72	48.318
307.09	47.503
307.45	48.874
307.82	46.317
308.19	47.461
308.55	47.249
308.92	48.228
309.29	46.568
309.65	45.705
310.02	44.926
310.38	48.495
310.75	47.202
311.12	46.673
311.48	47.962
311.85	47.589
312.22	46.514
312.58	45.946
312.95	47.202
313.31	44.466
313.68	46.674
314.05	48.422
314.41	47.337
314.78	47.734
315.14	45.978
315.51	47.168
315.87	47.525
316.24	48.957
316.61	46.686
316.97	46.380
317.34	46.282
317.70	47.801
318.07	46.872
318.43	49.609
318.80	47.704
319.16	48.493
319.53	46.060
319.89	47.333
320.26	50.500
320.62	47.520
320.99	46.869
321.35	46.970
321.72	49.281
322.08	49.951
322.45	49.453
322.81	48.934
323.18	49.615
323.54	48.794
323.91	47.925
324.27	48.184
324.64	48.835
325.00	47.791
325.37	47.953
325.73	47.127
326.10	48.191
326.46	49.910
326.83	49.094
327.19	48.847
327.56	49.303
327.92	48.994
328.29	48.270
328.65	48.895
329.01	47.834
329.38	48.381
329.74	48.015
330.11	50.707
330.47	47.567
330.84	48.989
331.20	47.268
331.56	48.624
331.93	49.259
332.29	48.447
332.66	49.292
333.02	48.355
333.38	48.871
333.75	48.128
334.11	48.043
334.48	47.649
334.84	49.265
335.20	48.727
335.57	48.232
335.93	46.518
336.29	47.161
336.66	47.701
337.02	46.154
337.38	47.407
337.75	46.970
338.11	46.464
338.47	47.330
338.84	48.029
339.20	46.055
339.56	48.266
339.93	46.364
340.29	45.109
340.65	47.504
341.02	47.818
341.38	45.996
341.74	46.404
342.11	47.598
342.47	46.608
342.83	46.490
343.20	46.840
343.56	44.903
343.92	45.789
344.28	47.619
344.65	47.377
345.01	45.370
345.37	45.712
345.73	46.277
346.10	47.229
346.46	45.932
346.82	46.870
347.19	46.282
347.55	45.813
347.91	44.822
348.27	46.015
348.63	45.903
349.00	45.712
349.36	45.320
349.72	44.988
350.08	44.733
350.45	46.379
350.81	45.573
351.17	45.057
351.53	45.127
351.89	43.399
352.26	45.620
352.62	45.229
352.98	44.733
353.34	45.933
353.70	44.354
354.07	44.677
354.43	43.254
354.79	44.248
355.15	44.453
355.51	43.725
355.87	45.143
356.24	44.463
356.60	43.865
356.96	44.248
357.32	44.235
357.68	44.724
358.04	44.339
358.40	45.051
358.77	45.070
359.13	43.094
359.49	43.529
359.85	43.175
360.21	44.019
360.57	45.525
360.93	44.077
361.29	42.782
361.66	43.498
362.02	44.925
362.38	43.802
362.74	43.601
363.10	44.115
363.46	42.847
363.82	44.218
364.18	42.438
364.54	43.314
364.90	42.422
365.26	42.794
365.62	44.047
365.98	42.951
366.35	43.553
366.71	44.179
367.07	43.409
367.43	44.702
367.79	43.540
368.15	44.971
368.51	43.459
368.87	43.897
369.23	44.477
369.59	43.592
369.95	43.676
370.31	43.661
370.67	43.406
371.03	43.895
371.39	43.659
371.75	44.338
372.11	42.532
372.47	44.355
372.83	45.173
373.19	43.786
373.55	44.642
373.91	44.624
374.27	42.887
374.63	43.491
374.99	44.774
375.35	43.057
375.71	42.975
376.07	44.582
376.42	43.535
376.78	44.268
377.14	43.216
377.50	43.907
377.86	41.689
378.22	43.805
378.58	42.356
378.94	43.935
379.30	43.766
379.66	44.797
380.02	43.673
380.38	42.562
380.74	44.238
381.09	42.971
381.45	44.007
381.81	43.305
382.17	44.140
382.53	43.333
382.89	43.642
383.25	44.215
383.61	44.424
383.97	44.215
384.32	44.042
384.68	42.813
385.04	44.376
385.40	43.406
385.76	44.165
386.12	43.523
386.48	45.060
386.83	44.452
387.19	44.218
387.55	43.908
387.91	42.201
388.27	43.899
388.62	43.762
388.98	42.752
389.34	44.305
389.70	43.961
390.06	44.233
390.42	43.839
390.77	44.402
391.13	44.735
391.49	43.972
391.85	44.367
392.20	44.227
392.56	44.697
392.92	43.084
393.28	43.254
393.64	42.506
393.99	43.616
394.35	43.548
394.71	43.413
395.07	42.928
395.42	44.314
395.78	44.720
396.14	44.258
396.50	44.173
396.85	43.547
397.21	43.711
397.57	44.079
397.92	44.531
398.28	43.834
398.64	44.086
399.00	43.760
399.35	43.260
399.71	43.634
400.07	43.938
400.42	44.479
400.78	45.476
401.14	44.573
401.49	45.015
401.85	43.255
402.21	43.952
402.57	43.924
402.92	43.758
403.28	44.972
403.63	43.812
403.99	44.904
404.35	44.727
404.70	44.604
405.06	43.972
405.42	45.664
405.77	43.371
406.13	43.567
406.49	44.234
406.84	44.595
407.20	43.853
407.55	44.671
407.91	46.000
408.27	45.948
408.62	44.551
408.98	44.118
409.34	45.141
409.69	45.806
410.05	44.548
410.40	45.199
410.76	44.504
411.11	44.873
411.47	44.473
411.83	45.266
412.18	44.280
412.54	45.953
412.89	44.819
413.25	44.864
413.60	45.337
413.96	42.866
414.31	45.747
414.67	45.564
415.03	46.358
415.38	46.134
415.74	45.659
416.09	47.093
416.45	47.122
416.80	45.671
417.16	46.783
417.51	45.587
417.87	46.307
418.22	45.994
418.58	45.771
418.93	46.683
419.29	46.149
419.64	47.103
420.00	46.951
420.35	45.855
420.71	47.519
421.06	45.406
421.42	46.725
421.77	46.749
422.12	46.884
422.48	45.656
422.83	46.069
423.19	47.459
423.54	46.315
423.90	46.551
424.25	46.231
424.61	46.250
424.96	46.414
425.31	46.401
425.67	46.404
426.02	45.371
426.38	47.192
426.73	47.104
427.09	47.781
427.44	47.039
427.79	46.521
428.15	47.143
428.50	46.870
428.85	48.272
429.21	46.770
429.56	48.367
429.92	47.509
430.27	47.517
430.62	46.851
430.98	47.639
431.33	47.320
431.68	47.906
432.04	46.645
432.39	47.973
432.74	47.876
433.10	49.179
433.45	48.338
433.80	48.559
434.16	48.184
434.51	47.789
434.86	48.119
435.22	48.694
435.57	49.605
435.92	49.561
436.28	49.110
436.63	48.068
436.98	47.968
437.34	49.314
437.69	49.475
438.04	48.342
438.39	48.358
438.75	48.170
439.10	48.771
439.45	48.642
439.81	49.063
440.16	49.012
440.51	49.385
440.86	49.218
441.22	48.665
441.57	49.894
441.92	48.772
442.27	49.354
442.63	49.236
442.98	50.930
443.33	49.022
443.68	49.251
444.03	49.780
444.39	48.880
444.74	49.892
445.09	49.434
445.44	48.934
445.79	49.332
446.15	49.391
446.50	49.865
446.85	50.103
447.20	49.924
447.55	50.530
447.91	50.414
448.26	50.139
448.61	49.915
448.96	49.446
449.31	50.000
449.66	49.634
450.02	49.582
450.37	49.887
450.72	49.859
451.07	50.030
451.42	49.240
451.77	50.323
452.12	49.827
452.47	50.311
452.83	50.408
453.18	49.572
453.53	50.649
453.88	50.148
454.23	49.074
454.58	50.999
454.93	52.003
455.28	49.439
455.63	50.000
455.98	52.024
456.34	51.131
456.69	50.657
457.04	50.898
457.39	50.438
457.74	50.842
458.09	50.891
458.44	49.487
458.79	50.000
459.14	50.677
459.49	50.263
459.84	49.640
460.19	50.972
460.54	48.148
460.89	49.314
461.24	51.002
461.59	50.668
461.94	50.493
462.29	50.623
462.64	50.479
462.99	50.553
463.34	51.867
463.69	50.719
464.04	50.493
464.39	50.493
464.74	49.376
465.09	50.784
465.44	50.859
465.79	48.881
466.14	50.629
466.49	49.444
466.84	49.854
467.19	49.065
467.54	51.562
467.89	49.820
468.24	50.262
468.59	51.221
468.94	49.481
469.29	50.707
469.64	51.874
469.99	52.503
470.34	51.255
470.68	50.790
471.03	50.408
471.38	50.799
471.73	50.633
472.08	51.908
472.43	50.565
472.78	50.494
473.13	49.936
473.48	51.436
473.83	51.402
474.17	50.342
474.52	50.993
474.87	50.613
475.22	49.913
475.57	49.704
475.92	50.080
476.27	50.056
476.61	49.752
476.96	49.588
477.31	49.294
477.66	50.766
478.01	48.876
478.36	50.555
478.70	49.013
479.05	50.692
479.40	49.898
479.75	50.534
480.10	50.596
480.45	49.595
480.79	49.546
481.14	49.853
481.49	50.356
481.84	50.069
482.19	50.522
482.53	49.633
482.88	49.744
483.23	49.533
483.58	48.908
483.92	50.469
484.27	48.889
484.62	48.491
484.97	48.837
485.31	50.171
485.66	48.500
486.01	48.287
486.36	47.277
486.70	46.907
487.05	47.384
487.40	48.085
487.75	48.576
488.09	49.651
488.44	49.400
488.79	49.548
489.13	49.962
489.48	49.062
489.83	49.288
490.17	50.022
490.52	48.406
490.87	48.530
491.22	49.295
491.56	49.112
491.91	49.232
492.26	49.058
492.60	48.756
492.95	48.457
493.30	49.112
493.64	49.790
493.99	48.004
494.34	49.260
494.68	49.038
495.03	48.543
495.37	48.488
495.72	49.610
496.07	50.070
496.41	47.389
496.76	48.329
497.11	48.537
497.45	48.859
497.80	48.992
498.14	47.874
498.49	49.463
498.84	49.616
499.18	49.048
499.53	48.433
499.87	48.975
500.22	48.375
500.56	50.437
500.91	47.885
501.26	48.696
501.60	48.885
501.95	49.267
502.29	49.719
502.64	49.069
502.98	49.790
503.33	48.172
503.67	48.492
504.02	48.410
504.36	48.292
504.71	49.731
505.06	49.446
505.40	47.982
505.75	48.505
506.09	48.494
506.44	49.038
506.78	48.807
507.13	50.782
507.47	48.788
507.82	50.608
508.16	48.784
508.51	49.569
508.85	49.503
509.19	50.051
509.54	48.673
509.88	49.665
510.23	50.437
510.57	51.754
510.92	50.388
511.26	50.925
511.61	50.259
511.95	48.800
512.30	50.212
512.64	49.113
512.98	50.107
513.33	50.428
513.67	48.986
514.02	50.108
514.36	50.137
514.70	49.640
515.05	50.530
515.39	51.150
515.74	50.282
516.08	50.755
516.42	50.499
516.77	50.390
517.11	50.277
517.46	50.564
517.80	52.323
518.14	51.071
518.49	51.284
518.83	51.477
519.17	52.194
519.52	50.424
519.86	51.284
520.20	51.503
520.55	52.783
520.89	51.703
521.23	52.352
521.58	51.981
521.92	52.664
522.26	51.556
522.61	52.648
522.95	50.952
523.29	51.917
523.64	53.354
523.98	52.680
524.32	52.051
524.66	51.052
525.01	53.064
525.35	52.602
525.69	50.924
526.04	52.773
526.38	52.654
526.72	51.595
527.06	53.986
527.41	51.300
527.75	53.762
528.09	52.922
528.43	52.390
528.78	53.042
529.12	52.061
529.46	52.725
529.80	53.032
530.15	53.832
530.49	52.185
530.83	53.797
531.17	53.655
531.51	54.994
531.86	52.839
532.20	53.781
532.54	53.619
532.88	53.659
533.22	52.217
533.57	53.765
533.91	53.040
534.25	53.888
534.59	52.532
534.93	53.004
535.27	54.134
535.62	53.114
535.96	53.986
536.30	54.736
536.64	54.733
536.98	54.214
537.32	52.008
537.66	55.733
538.01	53.259
538.35	53.846
538.69	55.456
539.03	53.346
539.37	52.588
539.71	53.078
540.05	53.007
540.39	54.153
540.73	52.393
541.07	54.770
541.42	54.795
541.76	55.290
542.10	55.110
542.44	53.841
542.78	55.797
543.12	53.999
543.46	53.049
543.80	54.847
544.14	53.787
544.48	53.397
544.82	53.239
545.16	53.155
545.50	53.149
545.84	53.360
546.18	54.411
546.52	54.577
546.86	55.464
547.20	55.293
547.54	54.910
547.88	54.847
548.22	52.428
548.56	54.025
548.90	53.649
549.24	53.939
549.58	53.820
549.92	52.404
550.26	55.185
550.60	53.873
550.94	53.592
551.28	52.524
551.62	54.925
551.96	54.386
552.30	54.061
552.64	54.429
552.98	53.492
553.32	53.405
553.66	54.601
554.00	55.525
554.34	53.416
554.68	55.007
555.02	54.020
555.36	53.445
555.69	52.639
556.03	53.028
556.37	54.025
556.71	52.660
557.05	53.852
557.39	52.694
557.73	52.717
558.07	54.387
558.41	53.401
558.75	53.564
559.08	54.959
559.42	54.044
559.76	54.338
560.10	52.819
560.44	54.018
560.78	51.896
561.12	52.770
561.45	53.129
561.79	53.527
562.13	52.649
562.47	53.347
562.81	52.789
563.15	51.639
563.48	52.255
563.82	54.142
564.16	54.153
564.50	52.148
564.84	52.149
565.17	52.638
565.51	52.332
565.85	52.665
566.19	52.411
566.52	52.755
566.86	51.537
567.20	51.710
567.54	52.226
567.88	51.005
568.21	52.063
568.55	51.769
568.89	51.605
569.23	51.783
569.56	50.121
569.90	50.755
570.24	50.484
570.57	49.881
570.91	49.806
571.25	49.506
571.59	49.485
571.92	49.770
572.26	49.740
572.60	49.489
572.93	49.355
573.27	50.133
573.61	49.386
573.95	49.664
574.28	49.070
574.62	49.417
574.96	48.698
575.29	48.982
575.63	49.466
575.97	49.336
576.30	48.911
576.64	48.875
576.98	49.344
577.31	49.653
577.65	49.294
577.98	48.794
578.32	47.935
578.66	49.036
578.99	49.235
579.33	48.656
579.67	48.431
580.00	49.317
580.34	49.027
580.67	49.114
581.01	49.247
581.35	49.090
581.68	48.521
582.02	48.277
582.35	48.590
582.69	48.797
583.02	48.169
583.36	49.112
583.70	49.675
584.03	48.511
584.37	49.934
584.70	49.269
585.04	48.728
585.37	48.742
585.71	48.520
586.04	48.852
586.38	49.451
586.72	49.351
587.05	48.221
587.39	47.599
587.72	47.797
588.06	48.559
588.39	48.532
588.73	49.193
589.06	49.299
589.40	49.798
589.73	49.771
590.07	49.359
590.40	48.593
590.73	49.375
591.07	50.265
591.40	49.135
591.74	50.216
592.07	49.695
592.41	48.574
592.74	48.202
593.08	47.968
593.41	47.548
593.75	47.564
594.08	47.905
594.41	47.614
594.75	47.948
595.08	48.425
595.42	47.951
595.75	48.789
596.09	48.817
596.42	48.094
596.75	48.290
597.09	49.264
597.42	47.850
597.75	48.642
598.09	48.696
598.42	47.981
598.76	47.791
599.09	47.396
599.42	46.579
599.76	47.438
600.09	47.577
600.42	46.932
600.76	46.321
601.09	46.995
601.42	46.651
601.76	47.400
602.09	47.668
602.42	47.373
602.76	48.166
603.09	47.640
603.42	47.481
603.76	47.027
604.09	47.034
604.42	47.493
604.76	47.659
605.09	47.138
605.42	46.900
605.75	47.144
606.09	47.418
606.42	48.141
606.75	47.408
607.09	46.421
607.42	46.299
607.75	45.907
608.08	46.809
608.42	47.736
608.75	46.573
609.08	46.947
609.41	47.216
609.75	46.212
610.08	47.549
610.41	46.229
610.74	48.013
611.07	46.789
611.41	47.301
611.74	47.914
612.07	47.050
612.40	47.429
612.73	47.053
613.07	46.767
613.40	47.235
613.73	44.730
614.06	47.258
614.39	46.093
614.72	46.263
615.06	46.271
615.39	45.913
615.72	45.808
616.05	46.358
616.38	47.916
616.71	47.565
617.05	47.998
617.38	47.084
617.71	46.426
618.04	47.776
618.37	45.890
618.70	47.418
619.03	46.579
619.36	46.232
619.69	47.254
620.03	46.978
620.36	46.524
620.69	47.055
621.02	46.829
621.35	47.142
621.68	46.807
622.01	46.594
622.34	47.806
622.67	47.757
623.00	46.955
623.33	45.032
623.66	47.177
623.99	47.202
624.32	45.934
624.65	45.763
624.99	44.972
625.32	45.185
625.65	46.582
625.98	46.656
626.31	47.434
626.64	47.592
626.97	48.462
627.30	45.968
627.63	46.267
627.96	46.594
628.29	46.982
628.62	46.661
628.95	48.774
629.28	46.442
629.61	46.838
629.94	48.000
630.26	46.235
630.59	46.997
630.92	46.264
631.25	46.890
631.58	46.547
631.91	46.146
632.24	45.464
632.57	46.485
632.90	45.504
633.23	47.315
633.56	47.119
633.89	48.131
634.22	46.425
634.55	49.231
634.88	46.946
635.20	47.312
635.53	47.108
635.86	48.020
636.19	48.000
636.52	46.021
636.85	45.704
637.18	46.544
637.51	47.991
637.83	43.896
638.16	45.908
638.49	46.222
638.82	49.052
639.15	49.000
639.48	47.631
639.81	48.525
640.13	47.396
640.46	47.517
640.79	46.499
641.12	45.530
641.45	47.905
641.77	47.865
642.10	47.515
642.43	47.748
642.76	47.368
643.09	48.773
643.41	45.979
643.74	47.685
644.07	50.610
644.40	46.779
644.73	49.291
645.05	48.811
645.38	47.867
645.71	46.538
646.04	48.339
646.36	50.918
646.69	48.161
647.02	49.830
647.35	47.938
647.67	51.327
648.00	47.317
648.33	46.205
648.66	46.970
648.98	48.276
649.31	46.786
649.64	47.235
649.96	48.137
650.29	46.288
650.62	46.926
650.94	47.812
651.27	49.155
651.60	48.087
651.92	46.326
652.25	46.906
652.58	48.131
652.90	48.341
653.23	46.995
653.56	46.142
653.88	49.604
654.21	47.551
654.54	49.010
654.86	48.598
655.19	44.730
655.52	34.608
655.84	34.030
656.17	45.207
656.49	62.020
656.82	64.522
657.15	49.186
657.47	36.796
657.80	28.484
658.13	29.877
658.45	44.757
658.78	44.674
659.10	45.481
659.43	47.686
659.75	49.084
660.08	50.759
660.41	52.514
660.73	53.113
661.06	47.930
661.38	51.091
661.71	51.538
662.03	49.507
662.36	45.924
662.68	50.000
663.01	47.071
663.33	47.346
663.66	49.160
663.98	48.164
664.31	45.378
664.63	49.190
664.96	45.070
665.28	47.336
665.61	44.639
665.93	45.674
666.26	48.276
666.58	47.699
666.91	50.529
667.23	50.112
667.56	46.652
667.88	47.650
668.21	47.761
668.53	44.685
668.86	49.351
669.18	51.386
669.50	46.522
669.83	50.327
670.15	48.889
670.48	47.930
670.80	48.060
671.13	47.134
671.45	46.809
671.77	47.658
672.10	45.471
672.42	44.876
672.75	45.937
673.07	47.887
673.39	45.570
673.72	46.875
674.04	46.275
674.37	47.379
674.69	46.830
675.01	45.816
675.34	46.612
675.66	48.842
675.98	44.807
676.31	48.319
676.63	48.408
676.95	47.379
677.28	44.159
677.60	45.934
677.92	48.523
678.25	49.076
678.57	47.012
678.89	48.096
679.22	46.169
679.54	44.847
679.86	45.688
680.18	45.259
680.51	45.567
680.83	44.128
681.15	46.981
681.48	46.503
681.80	45.261
682.12	44.444
682.44	42.940
682.77	45.010
683.09	46.137
683.41	48.115
683.73	48.786
684.06	46.901
684.38	44.814
684.70	45.930
685.02	44.278
685.34	43.407
685.67	44.580
685.99	42.440
686.31	43.174
686.63	40.636
686.96	45.179
687.28	42.599
687.60	42.029
687.92	44.607
688.24	46.008
688.56	47.390
688.89	48.133
689.21	50.000
689.53	45.511
689.85	48.115
690.17	44.513
690.49	45.648
690.82	46.963
691.14	46.205
691.46	45.781
691.78	44.578
692.10	49.587
692.42	46.307
692.74	45.228
693.06	44.255
693.39	44.764
693.71	44.541
694.03	47.789
694.35	45.022
694.67	48.970
694.99	47.073
695.31	47.549
695.63	47.129
695.95	46.944
696.27	41.624
696.59	47.409
696.91	45.596
697.23	40.610
697.56	48.188
697.88	41.104
698.20	43.542
698.52	44.731
698.84	47.884
699.16	44.240
699.48	45.131
699.80	47.585
700.12	51.688
700.44	49.867
700.76	48.066
701.08	49.138
701.40	47.765
701.72	48.105
702.04	51.136
702.36	46.176
702.68	47.025
703.00	49.030
703.32	46.011
703.64	46.113
703.96	45.682
704.28	46.802
704.60	50.733
704.91	48.071
705.23	47.801
705.55	52.492
705.87	54.817
706.19	47.350
706.51	46.729
706.83	47.273
707.15	47.619
707.47	43.939
707.79	47.666
708.11	43.836
708.43	45.714
708.74	45.153
709.06	47.013
709.38	48.031
709.70	47.093
710.02	47.478
710.34	47.879
710.66	51.343
710.98	47.727
711.29	46.221
711.61	50.737
711.93	50.641
712.25	49.196
712.57	55.515
712.89	46.367
713.20	50.152
713.52	49.342
713.84	47.468
714.16	50.000
714.48	47.414
714.80	52.280
715.11	45.821
715.43	48.665
715.75	46.087
716.07	47.604
716.39	48.903
716.70	51.495
717.02	52.518
717.34	49.470
717.66	48.507
717.97	55.378
718.29	52.963
718.61	52.555
718.93	50.735
719.24	47.751
719.56	48.475
719.88	48.475
720.20	53.716
720.51	54.704
720.83	52.416
721.15	48.507
721.46	52.837
721.78	53.047
722.10	51.698
722.42	51.880
722.73	52.060
723.05	50.410
723.37	49.393
723.68	49.807
724.00	50.000
724.32	51.613
724.63	55.691
724.95	52.720
725.27	53.846
725.58	54.688
725.90	52.920
726.22	53.962
726.53	51.042
726.85	50.171
727.16	49.822
727.48	47.518
727.80	51.894
728.11	50.000
728.43	54.231
728.74	49.821
729.06	53.650
729.38	54.779
729.69	51.601
730.01	49.147
730.32	46.528
730.64	50.502
730.96	44.884
731.27	50.000
731.59	53.517
731.90	46.356
732.22	49.068
732.53	47.678
732.85	49.038
733.16	49.518
733.48	47.508
733.80	52.922
734.11	47.452
734.43	47.633
734.74	47.143
735.06	45.845
735.37	50.578
735.69	45.541
736.00	52.941
736.32	47.040
736.63	45.687
736.95	48.562
737.26	46.259
737.58	48.387
737.89	47.826
738.21	50.171
738.52	46.786
738.83	51.321
739.15	49.615
739.46	53.650
739.78	49.653
740.09	47.385
740.41	45.806
740.72	49.129
741.04	53.704
741.35	53.750
741.66	56.444
741.98	50.000
742.29	63.158
742.61	54.310
742.92	52.941
743.23	50.855
743.55	56.400
743.86	55.702
744.18	62.389
744.49	53.110
744.80	54.930
745.12	62.273
745.43	52.423
745.74	53.153
746.06	53.211
746.37	56.951
746.68	52.941
747.00	61.574
747.31	56.667
747.62	53.097
747.94	53.744
748.25	50.638
748.56	55.947
748.88	55.941
749.19	64.000
749.50	54.419
749.82	47.561
750.13	56.735
750.44	46.350
750.75	50.175
751.07	52.090
751.38	50.523
751.69	48.375
752.01	54.135
752.32	50.542
752.63	48.582
752.94	50.820
753.26	56.800
753.57	48.374
753.88	55.469
754.19	47.857
754.51	54.861
754.82	48.375
755.13	50.189
755.44	48.496
755.75	47.080
756.07	50.355
756.38	47.445
756.69	52.013
757.00	45.808
757.31	46.588
757.63	46.491
757.94	42.627
758.25	43.382
758.56	44.444
758.87	42.742
759.18	45.758
759.50	42.633
759.81	45.794
760.12	42.500
760.43	44.699
760.74	45.924
761.05	45.763
761.36	43.850
761.67	49.148
761.99	49.689
762.30	50.694
762.61	50.000
762.92	49.219
763.23	52.521
763.54	46.000
763.85	43.359
764.16	55.000
764.47	50.570
764.78	46.290
765.10	43.038
765.41	45.723
765.72	48.503
766.03	47.962
766.34	46.667
766.65	54.468
766.96	55.556
767.27	53.299
767.58	56.250
767.89	62.105
768.20	56.322
768.51	55.330
768.82	54.587
769.13	50.407
769.44	49.798
769.75	54.506
770.06	48.624
770.37	50.679
770.68	53.704
770.99	51.111
771.30	49.590
771.61	56.951
771.92	52.869
772.23	55.462
772.54	53.333
772.85	60.733
773.16	57.979
773.47	58.152
773.78	60.914
774.09	58.333
774.39	66.082
774.70	59.259
775.01	71.014
775.32	66.667
775.63	71.053
775.94	58.273
776.25	75.591
776.56	70.149
776.87	68.852
777.18	76.562
777.48	77.863
777.79	65.152
778.10	67.407
778.41	77.679
778.72	61.314
779.03	64.430
779.34	63.087
779.65	62.162
779.95	67.485
780.26	67.320
780.57	69.655
780.88	71.094
781.19	69.173
781.50	73.649
781.80	66.038
782.11	56.497
782.42	58.228
782.73	59.509
783.04	69.595
783.34	64.085
783.65	71.918
783.96	74.627
784.27	79.021
784.57	55.396
784.88	72.222
785.19	70.635
785.50	76.415
785.81	72.388
786.11	74.590
786.42	65.891
786.73	75.221
787.04	80.189
787.34	67.857
787.65	82.000
787.96	69.369
788.26	61.983
788.57	89.831
788.88	80.992
789.19	60.417
789.49	71.212
789.80	68.702
790.11	88.571
790.41	85.149
790.72	85.542
791.03	75.000
791.33	81.395
791.64	81.443
791.95	81.188
792.25	86.667
792.56	94.805
792.87	108.974
793.17	105.063
793.48	94.253
793.79	87.356
794.09	85.227
794.40	73.950
794.70	72.059
795.01	60.000
795.32	72.662
795.62	64.567
795.93	75.862
796.23	76.991
796.54	85.882
796.85	94.595
797.15	114.085
797.46	93.939
797.76	96.386
798.07	100.000
798.37	101.538
798.68	104.545
798.99	87.324
799.29	97.403
799.60	89.773
799.90	105.479
800.21	125.373
800.51	105.172
800.82	131.579
801.12	104.918
801.43	121.212
801.73	95.946
802.04	106.349
802.34	102.469
802.65	104.688
802.95	108.475
803.26	121.875
803.56	98.571
803.87	95.385
804.17	101.471
804.48	133.333
804.78	101.724
805.09	98.529
805.39	121.154
805.70	126.786
806.00	106.557
806.30	96.970
806.61	98.780
806.91	77.215
807.22	92.105
807.52	97.015
807.83	119.718
808.13	112.500
808.43	126.667
808.74	102.632
809.04	104.348
809.35	102.985
809.65	107.895
809.95	108.065
810.26	115.254
810.56	101.587
810.86	159.091
811.17	173.810
811.47	120.000
811.77	127.778
812.08	110.909
812.38	152.000
812.69	166.667
812.99	150.000
813.29	148.980
813.59	121.429
813.90	148.980
814.20	121.818
814.50	101.538
814.81	105.882
815.11	138.776
815.41	111.475
815.72	150.000
816.02	129.091
816.32	152.381
816.62	137.500
816.93	129.268
817.23	164.286
817.53	127.273
817.84	215.152
818.14	136.957
818.44	128.889
818.74	182.353
819.04	160.000
819.35	191.429
819.65	185.294
819.95	203.571
820.25	195.000
820.56	187.179
820.86	152.273
821.16	144.186
821.46	143.590
821.76	138.000
822.07	182.857
822.37	157.500
822.67	181.818
822.97	135.294
823.27	232.143
823.57	197.297
823.88	182.500
824.18	193.333
824.48	164.286
824.78	248.000
825.08	187.500
825.38	143.243
825.69	170.732
825.99	241.667
826.29	172.414
826.59	142.105
826.89	171.053
827.19	194.118
827.49	196.774
827.79	163.636
828.09	165.909
828.39	157.447
828.70	151.020
829.00	188.889
829.30	200.000
829.60	137.500
829.90	326.667
830.20	214.286
830.50	239.130
830.80	230.435
831.10	220.000
831.40	190.000
831.70	186.957
832.00	253.846
832.30	203.704
832.60	350.000
832.90	196.667
833.20	464.286
833.50	190.323
833.80	227.586
834.10	203.125
834.40	269.231
834.70	288.889
835.00	352.381
835.30	171.429
835.60	384.615
835.90	217.241
836.20	392.857
836.50	213.793
836.80	224.000
837.10	186.111
837.40	228.571
837.70	364.706
838.00	222.222
838.30	290.476
838.60	314.286
838.90	242.308
839.19	325.000
839.49	371.429
839.79	355.000
840.09	300.000
840.39	323.810
840.69	256.522
840.99	316.667
841.29	570.000
841.59	333.333
841.88	337.500
842.18	186.207
842.48	328.571
842.78	200.000
843.08	265.217
843.38	203.125
843.68	1000.000
843.97	265.385
844.27	206.897
844.57	290.476
844.87	387.500
845.17	229.630
845.47	1433.333
845.76	422.222
846.06	376.471
846.36	562.500
846.66	392.857
846.96	425.000
847.25	490.909
847.55	554.545
847.85	278.261
848.15	530.000
848.44	435.714
848.74	305.556
849.04	294.118
849.34	600.000
849.63	242.105
849.93	481.818
850.23	980.000
850.53	400.000
850.82	2350.000
851.12	-5400.000
851.42	5200.000
851.71	255.000
852.01	-1400.000
852.31	262.500
852.61	2000.000
852.90	304.762
853.20	248.000
853.50	370.588
853.79	295.238
854.09	275.000
854.39	443.750
854.68	183.784
854.98	196.774
855.28	196.667
855.57	220.690
855.87	211.111
856.17	263.158
856.46	293.333
856.76	323.529
857.05	220.690
857.35	216.667
857.65	360.000
857.94	286.957
858.24	253.846
858.53	305.000
858.83	259.091
859.13	426.667
859.42	0.000
859.72	533.333
860.01	418.182
860.31	254.545
860.60	289.474
860.90	256.522
861.20	522.222
861.49	525.000
861.79	-5600.000
862.08	712.500
862.38	295.238
862.67	376.923
862.97	347.059
863.26	644.444
863.56	316.667
863.85	475.000
864.15	837.500
864.44	420.000
864.74	850.000
865.03	750.000
865.33	368.421
865.62	481.818
865.92	446.154
866.21	400.000
866.51	0.000
866.80	572.727
867.10	1080.000
867.39	476.923
867.69	454.545
867.98	263.158
868.27	509.091
868.57	300.000
868.86	-4200.000
869.16	325.000
869.45	2750.000
869.75	-4900.000
870.04	558.333
870.33	628.571
870.63	1125.000
870.92	2950.000
871.22	885.714
871.51	329.412
871.80	238.095
872.10	392.857
>>>>>End Processed Spectral Data<<<<<
