SpectraSuite Data File
++++++++++++++++++++++++++++++++++++
Date: Wed May 13 19:32:08 PDT 2015
User: schluterlab
Dark Spectrum Present: Yes
Reference Spectrum Present: Yes
Number of Sampled Component Spectra: 1
Spectrometers: USB2E3373
Integration Time (usec): 3000 (USB2E3373)
Spectra Averaged: 3 (USB2E3373)
Boxcar Smoothing: 0 (USB2E3373)
Correct for Electrical Dark: No (USB2E3373)
Strobe/Lamp Enabled: No (USB2E3373)
Correct for Detector Non-linearity: No (USB2E3373)
Correct for Stray Light: No (USB2E3373)
Number of Pixels in Processed Spectrum: 2048
>>>>>Begin Processed Spectral Data<<<<<
178.53	0.000
178.91	-1400.000
179.29	-1525.000
179.67	-238.889
180.04	-1425.000
180.42	2850.000
180.80	1040.000
181.18	-1450.000
181.56	814.286
181.94	0.000
182.31	-757.143
182.69	1733.333
183.07	-637.500
183.45	-611.111
183.83	690.909
184.20	-410.000
184.58	2800.000
184.96	5200.000
185.34	-940.000
185.72	-650.000
186.09	-2700.000
186.47	2700.000
186.85	3000.000
187.23	5400.000
187.61	-1933.333
187.98	1400.000
188.36	518.182
188.74	572.727
189.12	-1020.000
189.49	590.000
189.87	-5200.000
190.25	-1500.000
190.63	378.571
191.00	492.308
191.38	866.667
191.76	-1575.000
192.14	1325.000
192.51	775.000
192.89	933.333
193.27	537.500
193.65	-1475.000
194.02	600.000
194.40	980.000
194.78	510.000
195.15	625.000
195.53	630.000
195.91	-2500.000
196.29	381.250
196.66	315.789
197.04	-480.000
197.42	0.000
197.79	630.000
198.17	-5400.000
198.55	685.714
198.92	662.500
199.30	1000.000
199.68	0.000
200.05	361.111
200.43	842.857
200.81	4500.000
201.18	1766.667
201.56	-1666.667
201.94	577.778
202.31	600.000
202.69	458.333
203.07	700.000
203.44	0.000
203.82	1225.000
204.19	757.143
204.57	492.857
204.95	737.500
205.32	1900.000
205.70	609.091
206.08	464.286
206.45	3000.000
206.83	381.250
207.20	950.000
207.58	860.000
207.96	394.444
208.33	800.000
208.71	-933.333
209.08	771.429
209.46	644.444
209.84	572.727
210.21	-1733.333
210.59	1425.000
210.96	-525.000
211.34	3050.000
211.71	590.000
212.09	916.667
212.46	0.000
212.84	1900.000
213.22	1600.000
213.59	-5300.000
213.97	833.333
214.34	671.429
214.72	609.091
215.09	1000.000
215.47	-2500.000
215.84	-2700.000
216.22	1966.667
216.59	457.143
216.97	1450.000
217.34	527.273
217.72	-800.000
218.09	0.000
218.47	-5400.000
218.84	700.000
219.22	742.857
219.59	2133.333
219.97	-628.571
220.34	1100.000
220.72	-1733.333
221.09	464.286
221.47	1725.000
221.84	-1050.000
222.22	0.000
222.59	1700.000
222.97	-2600.000
223.34	1240.000
223.72	492.308
224.09	1180.000
224.46	2150.000
224.84	-5200.000
225.21	-1020.000
225.59	-5300.000
225.96	560.000
226.34	300.000
226.71	3000.000
227.08	712.500
227.46	600.000
227.83	-1200.000
228.21	-1950.000
228.58	700.000
228.95	-2850.000
229.33	-2550.000
229.70	1766.667
230.08	771.429
230.45	-920.000
230.82	400.000
231.20	950.000
231.57	742.857
231.95	516.667
232.32	259.091
232.69	481.818
233.07	757.143
233.44	484.615
233.81	-1833.333
234.19	305.263
234.56	600.000
234.93	500.000
235.31	545.455
235.68	453.846
236.05	400.000
236.43	200.000
236.80	331.579
237.17	4100.000
237.55	252.381
237.92	207.143
238.29	242.857
238.67	200.000
239.04	213.793
239.41	194.444
239.79	136.957
240.16	142.857
240.53	161.364
240.91	123.529
241.28	126.000
241.65	128.000
242.02	126.087
242.40	117.742
242.77	96.667
243.14	83.871
243.51	87.640
243.89	89.412
244.26	81.111
244.63	88.172
245.00	72.340
245.38	77.228
245.75	67.290
246.12	68.807
246.49	67.883
246.87	75.200
247.24	66.154
247.61	70.000
247.98	62.745
248.36	62.162
248.73	52.866
249.10	56.051
249.47	61.017
249.84	59.893
250.22	52.941
250.59	56.805
250.96	52.525
251.33	52.607
251.70	51.485
252.08	52.381
252.45	51.121
252.82	49.130
253.19	48.936
253.56	53.333
253.94	48.963
254.31	49.219
254.68	52.308
255.05	47.601
255.42	47.561
255.79	50.368
256.16	46.931
256.54	42.756
256.91	45.552
257.28	39.928
257.65	48.515
258.02	46.584
258.39	43.849
258.76	41.806
259.14	40.774
259.51	43.465
259.88	38.199
260.25	44.109
260.62	43.642
260.99	37.888
261.36	40.240
261.73	39.828
262.10	37.500
262.47	43.380
262.85	40.111
263.22	35.613
263.59	43.590
263.96	39.286
264.33	40.992
264.70	38.421
265.07	41.688
265.44	39.899
265.81	35.036
266.18	38.442
266.55	34.634
266.92	39.558
267.29	40.741
267.66	38.073
268.03	39.773
268.40	39.019
268.77	33.890
269.14	36.937
269.51	41.084
269.88	37.296
270.25	38.826
270.62	36.854
270.99	37.634
271.36	34.979
271.73	36.215
272.10	37.391
272.47	37.419
272.84	37.229
273.21	36.059
273.58	33.406
273.95	31.866
274.32	36.570
274.69	35.760
275.06	35.236
275.43	38.085
275.80	35.471
276.17	35.642
276.54	37.006
276.91	35.771
277.28	35.352
277.65	35.590
278.02	36.646
278.39	36.719
278.76	33.273
279.13	32.075
279.50	34.264
279.87	35.259
280.23	37.325
280.60	33.656
280.97	34.381
281.34	34.513
281.71	34.909
282.08	34.933
282.45	34.909
282.82	35.524
283.19	33.155
283.56	33.333
283.92	32.318
284.29	32.275
284.66	34.120
285.03	32.188
285.40	33.275
285.77	31.481
286.14	32.470
286.51	32.333
286.87	33.504
287.24	33.876
287.61	29.856
287.98	31.006
288.35	31.696
288.72	29.595
289.08	30.516
289.45	31.466
289.82	33.008
290.19	27.786
290.56	30.168
290.93	30.514
291.29	30.521
291.66	28.466
292.03	31.105
292.40	31.278
292.77	27.367
293.13	28.358
293.50	30.321
293.87	28.889
294.24	27.556
294.60	28.093
294.97	30.233
295.34	31.171
295.71	29.261
296.08	27.208
296.44	27.923
296.81	27.873
297.18	29.539
297.55	25.330
297.91	26.781
298.28	27.577
298.65	27.285
299.02	28.590
299.38	26.693
299.75	24.933
300.12	25.415
300.48	26.125
300.85	25.524
301.22	25.605
301.59	25.631
301.95	26.574
302.32	26.701
302.69	26.045
303.05	27.636
303.42	25.556
303.79	25.481
304.15	24.942
304.52	25.492
304.89	24.855
305.25	26.450
305.62	26.501
305.99	27.391
306.35	25.839
306.72	25.897
307.09	25.194
307.45	25.113
307.82	25.446
308.19	26.490
308.55	26.321
308.92	26.853
309.29	25.026
309.65	26.935
310.02	26.533
310.38	25.699
310.75	26.505
311.12	26.305
311.48	27.377
311.85	28.616
312.22	27.263
312.58	26.715
312.95	26.716
313.31	25.728
313.68	27.963
314.05	28.304
314.41	27.839
314.78	28.097
315.14	28.103
315.51	29.557
315.87	28.911
316.24	28.699
316.61	29.532
316.97	29.452
317.34	29.746
317.70	30.115
318.07	31.088
318.43	32.094
318.80	31.490
319.16	31.827
319.53	30.769
319.89	32.095
320.26	34.300
320.62	35.317
320.99	32.929
321.35	34.545
321.72	35.729
322.08	35.538
322.45	36.816
322.81	37.694
323.18	37.283
323.54	36.364
323.91	38.679
324.27	38.528
324.64	40.261
325.00	40.307
325.37	40.400
325.73	41.113
326.10	41.571
326.46	42.742
326.83	43.486
327.19	43.296
327.56	43.815
327.92	44.882
328.29	44.720
328.65	46.225
329.01	45.758
329.38	45.513
329.74	45.983
330.11	47.785
330.47	48.760
330.84	48.162
331.20	47.723
331.56	48.716
331.93	48.981
332.29	48.447
332.66	49.381
333.02	48.629
333.38	49.593
333.75	50.178
334.11	48.754
334.48	48.802
334.84	50.551
335.20	51.273
335.57	50.499
335.93	47.946
336.29	49.542
336.66	49.775
337.02	48.054
337.38	50.648
337.75	48.307
338.11	49.866
338.47	50.368
338.84	49.863
339.20	49.817
339.56	51.734
339.93	52.273
340.29	49.185
340.65	51.070
341.02	50.262
341.38	52.224
341.74	51.930
342.11	50.655
342.47	52.247
342.83	50.599
343.20	50.563
343.56	49.874
343.92	50.702
344.28	50.085
344.65	51.763
345.01	48.990
345.37	49.057
345.73	50.592
346.10	51.321
346.46	51.186
346.82	50.329
347.19	49.708
347.55	49.589
347.91	50.647
348.27	51.356
348.63	50.502
349.00	49.919
349.36	49.918
349.72	50.120
350.08	49.595
350.45	50.122
350.81	49.959
351.17	50.891
351.53	52.088
351.89	51.155
352.26	50.434
352.62	51.243
352.98	50.891
353.34	51.191
353.70	49.836
354.07	50.806
354.43	49.127
354.79	49.236
355.15	49.880
355.51	51.079
355.87	51.918
356.24	51.303
356.60	49.559
356.96	49.718
357.32	51.349
357.68	50.236
358.04	49.960
358.40	50.594
358.77	50.704
359.13	49.250
359.49	50.431
359.85	50.000
360.21	50.718
360.57	51.440
360.93	52.308
361.29	50.794
361.66	48.916
362.02	50.896
362.38	50.038
362.74	50.818
363.10	49.149
363.46	50.770
363.82	50.718
364.18	50.441
364.54	50.966
364.90	50.779
365.26	50.074
365.62	50.840
365.98	50.329
366.35	50.501
366.71	49.964
367.07	50.838
367.43	51.379
367.79	51.892
368.15	51.580
368.51	51.090
368.87	50.607
369.23	49.890
369.59	51.267
369.95	51.397
370.31	51.923
370.67	49.420
371.03	51.311
371.39	50.948
371.75	50.368
372.11	49.787
372.47	51.979
372.83	52.161
373.19	50.434
373.55	52.033
373.91	52.135
374.27	49.759
374.63	51.782
374.99	51.130
375.35	51.151
375.71	50.240
376.07	50.754
376.42	51.582
376.78	51.027
377.14	51.967
377.50	51.523
377.86	49.668
378.22	51.327
378.58	49.937
378.94	49.654
379.30	50.954
379.66	50.254
380.02	51.044
380.38	49.970
380.74	50.720
381.09	49.328
381.45	51.014
381.81	51.474
382.17	51.338
382.53	50.755
382.89	50.494
383.25	51.032
383.61	51.611
383.97	50.281
384.32	51.840
384.68	49.938
385.04	50.277
385.40	51.022
385.76	50.307
386.12	50.518
386.48	50.472
386.83	52.470
387.19	51.330
387.55	50.093
387.91	50.423
388.27	49.601
388.62	50.461
388.98	50.553
389.34	52.378
389.70	49.111
390.06	50.190
390.42	50.519
390.77	49.427
391.13	50.925
391.49	50.952
391.85	50.350
392.20	50.221
392.56	49.811
392.92	50.559
393.28	49.763
393.64	50.000
393.99	48.931
394.35	49.132
394.71	50.376
395.07	49.969
395.42	50.124
395.78	48.855
396.14	49.659
396.50	51.629
396.85	49.841
397.21	49.322
397.57	49.535
397.92	49.760
398.28	48.150
398.64	49.761
399.00	48.517
399.35	48.731
399.71	48.322
400.07	48.788
400.42	49.816
400.78	49.457
401.14	48.720
401.49	50.149
401.85	48.457
402.21	48.563
402.57	48.304
402.92	50.315
403.28	48.282
403.63	48.886
403.99	48.280
404.35	48.485
404.70	48.741
405.06	48.864
405.42	48.534
405.77	47.429
406.13	47.573
406.49	48.255
406.84	47.431
407.20	47.577
407.55	48.628
407.91	48.267
408.27	48.054
408.62	48.405
408.98	48.223
409.34	47.294
409.69	47.871
410.05	47.831
410.40	47.584
410.76	46.476
411.11	47.165
411.47	47.029
411.83	47.709
412.18	46.815
412.54	47.385
412.89	48.313
413.25	47.285
413.60	47.869
413.96	46.509
414.31	47.205
414.67	48.416
415.03	47.483
415.38	47.680
415.74	47.395
416.09	47.747
416.45	48.193
416.80	48.050
417.16	47.453
417.51	48.242
417.87	48.105
418.22	47.192
418.58	47.256
418.93	46.806
419.29	48.377
419.64	46.537
420.00	47.073
420.35	47.130
420.71	48.416
421.06	46.778
421.42	47.427
421.77	46.413
422.12	46.042
422.48	46.357
422.83	47.758
423.19	47.017
423.54	48.114
423.90	47.072
424.25	46.566
424.61	47.024
424.96	47.347
425.31	46.401
425.67	46.404
426.02	46.914
426.38	48.168
426.73	46.050
427.09	46.626
427.44	47.039
427.79	46.866
428.15	47.262
428.50	46.518
428.85	45.888
429.21	46.052
429.56	46.812
429.92	46.351
430.27	45.780
430.62	45.878
430.98	46.757
431.33	44.948
431.68	46.859
432.04	45.421
432.39	47.287
432.74	46.320
433.10	48.274
433.45	47.755
433.80	46.729
434.16	47.222
434.51	46.579
434.86	46.465
435.22	46.859
435.57	47.720
435.92	47.104
436.28	46.501
436.63	46.799
436.98	46.938
437.34	47.168
437.69	47.666
438.04	46.880
438.39	47.522
438.75	47.066
439.10	47.207
439.45	46.104
439.81	48.399
440.16	46.923
440.51	47.159
440.86	46.671
441.22	45.551
441.57	46.338
441.92	46.929
442.27	46.986
442.63	46.235
442.98	47.268
443.33	45.978
443.68	45.328
444.03	46.022
444.39	46.300
444.74	46.645
445.09	46.739
445.44	45.599
445.79	45.571
446.15	46.321
446.50	46.419
446.85	46.300
447.20	45.793
447.55	46.119
447.91	46.111
448.26	46.522
448.61	47.202
448.96	46.788
449.31	46.625
449.66	46.201
450.02	46.574
450.37	46.315
450.72	46.475
451.07	44.790
451.42	44.742
451.77	46.095
452.12	45.497
452.47	46.455
452.83	45.396
453.18	45.232
453.53	46.691
453.88	46.367
454.23	45.906
454.58	46.093
454.93	47.807
455.28	46.197
455.63	47.148
455.98	46.190
456.34	46.357
456.69	45.335
457.04	45.511
457.39	45.061
457.74	46.431
458.09	45.543
458.44	45.610
458.79	44.469
459.14	45.993
459.49	46.585
459.84	45.319
460.19	44.844
460.54	44.039
460.89	44.871
461.24	45.659
461.59	45.787
461.94	44.575
462.29	45.697
462.64	43.650
462.99	44.372
463.34	45.733
463.69	45.091
464.04	44.348
464.39	44.000
464.74	44.623
465.09	43.245
465.44	43.546
465.79	44.519
466.14	43.404
466.49	43.715
466.84	44.542
467.19	43.452
467.54	43.937
467.89	43.878
468.24	43.863
468.59	43.956
468.94	43.800
469.29	44.537
469.64	45.382
469.99	45.467
470.34	45.707
470.68	44.397
471.03	44.354
471.38	45.240
471.73	44.104
472.08	44.211
472.43	43.342
472.78	42.199
473.13	45.186
473.48	42.821
473.83	44.085
474.17	43.124
474.52	43.548
474.87	43.666
475.22	43.239
475.57	41.483
475.92	42.804
476.27	42.841
476.61	43.133
476.96	43.375
477.31	42.386
477.66	43.818
478.01	41.401
478.36	42.200
478.70	42.160
479.05	41.906
479.40	42.016
479.75	41.535
480.10	41.302
480.45	41.409
480.79	41.185
481.14	41.683
481.49	41.481
481.84	41.610
482.19	40.981
482.53	40.826
482.88	41.042
483.23	41.542
483.58	41.765
483.92	41.284
484.27	39.826
484.62	40.690
484.97	40.599
485.31	40.137
485.66	38.864
486.01	37.233
486.36	35.852
486.70	36.072
487.05	37.055
487.40	37.385
487.75	38.445
488.09	38.490
488.44	39.293
488.79	40.579
489.13	39.649
489.48	40.131
489.83	39.965
490.17	40.552
490.52	40.213
490.87	39.484
491.22	39.609
491.56	39.089
491.91	40.158
492.26	38.999
492.60	40.184
492.95	39.383
493.30	40.000
493.64	40.644
493.99	38.579
494.34	39.778
494.68	39.194
495.03	40.179
495.37	38.623
495.72	40.205
496.07	39.211
496.41	37.832
496.76	39.226
497.11	39.172
497.45	39.683
497.80	39.155
498.14	39.034
498.49	39.805
498.84	38.639
499.18	39.857
499.53	39.031
499.87	39.096
500.22	38.530
500.56	39.126
500.91	37.163
501.26	38.265
501.60	39.915
501.95	37.993
502.29	37.863
502.64	38.920
502.98	38.569
503.33	37.614
503.67	37.912
504.02	38.167
504.36	37.061
504.71	38.837
505.06	38.072
505.40	37.822
505.75	38.332
506.09	37.949
506.44	38.333
506.78	39.113
507.13	39.324
507.47	38.384
507.82	38.703
508.16	38.602
508.51	38.204
508.85	38.034
509.19	37.347
509.54	38.112
509.88	37.816
510.23	38.560
510.57	37.822
510.92	37.701
511.26	37.307
511.61	37.396
511.95	37.474
512.30	37.858
512.64	37.937
512.98	38.746
513.33	38.651
513.67	37.567
514.02	37.067
514.36	37.848
514.70	38.462
515.05	37.479
515.39	37.072
515.74	37.613
516.08	37.731
516.42	38.069
516.77	38.963
517.11	36.404
517.46	37.641
517.80	39.315
518.14	37.927
518.49	38.623
518.83	37.102
519.17	37.529
519.52	38.144
519.86	37.536
520.20	37.110
520.55	38.300
520.89	38.078
521.23	37.998
521.58	37.695
521.92	37.722
522.26	36.486
522.61	37.570
522.95	37.017
523.29	36.579
523.64	37.439
523.98	37.585
524.32	36.852
524.66	37.462
525.01	37.500
525.35	37.175
525.69	36.761
526.04	37.445
526.38	37.767
526.72	36.258
527.06	37.163
527.41	35.396
527.75	38.585
528.09	36.994
528.43	36.329
528.78	37.738
529.12	35.818
529.46	36.865
529.80	36.448
530.15	36.636
530.49	35.508
530.83	36.266
531.17	37.598
531.51	38.003
531.86	36.581
532.20	37.549
532.54	36.387
532.88	37.035
533.22	35.603
533.57	35.617
533.91	35.461
534.25	36.087
534.59	35.082
534.93	34.563
535.27	35.969
535.62	35.592
535.96	36.033
536.30	35.664
536.64	36.059
536.98	35.700
537.32	35.418
537.66	36.800
538.01	36.076
538.35	36.005
538.69	36.439
539.03	35.737
539.37	35.591
539.71	35.386
540.05	35.686
540.39	35.282
540.73	34.929
541.07	35.886
541.42	35.747
541.76	36.000
542.10	35.705
542.44	34.834
542.78	36.759
543.12	33.845
543.46	35.869
543.80	35.133
544.14	34.788
544.48	35.365
544.82	35.407
545.16	35.003
545.50	34.447
545.84	35.618
546.18	35.152
546.52	35.857
546.86	35.189
547.20	36.682
547.54	35.070
547.88	34.694
548.22	34.371
548.56	34.214
548.90	34.123
549.24	34.747
549.58	36.289
549.92	34.959
550.26	35.014
550.60	33.887
550.94	34.296
551.28	34.309
551.62	35.873
551.96	34.877
552.30	34.744
552.64	34.415
552.98	35.051
553.32	34.255
553.66	34.697
554.00	34.454
554.34	33.954
554.68	35.765
555.02	33.992
555.36	34.795
555.69	33.829
556.03	33.782
556.37	34.584
556.71	33.697
557.05	35.014
557.39	34.220
557.73	34.439
558.07	34.590
558.41	34.370
558.75	33.872
559.08	34.899
559.42	34.845
559.76	34.853
560.10	33.476
560.44	33.823
560.78	33.267
561.12	32.652
561.45	33.963
561.79	33.619
562.13	33.602
562.47	33.470
562.81	33.124
563.15	34.181
563.48	32.958
563.82	33.920
564.16	32.374
564.50	33.268
564.84	32.807
565.17	32.690
565.51	33.035
565.85	32.868
566.19	31.747
566.52	32.996
566.86	31.404
567.20	32.547
567.54	32.249
567.88	31.722
568.21	31.058
568.55	31.244
568.89	31.469
569.23	30.392
569.56	30.040
569.90	28.906
570.24	29.745
570.57	29.038
570.91	28.345
571.25	28.907
571.59	28.542
571.92	27.909
572.26	28.105
572.60	28.468
572.93	28.516
573.27	28.690
573.61	28.392
573.95	27.984
574.28	27.487
574.62	27.648
574.96	27.168
575.29	27.425
575.63	27.820
575.97	27.363
576.30	27.430
576.64	27.142
576.98	26.762
577.31	27.842
577.65	27.362
577.98	26.739
578.32	26.549
578.66	26.667
578.99	27.026
579.33	26.918
579.67	26.782
580.00	27.284
580.34	27.527
580.67	27.369
581.01	26.940
581.35	26.856
581.68	26.706
582.02	26.482
582.35	26.564
582.69	26.777
583.02	26.888
583.36	27.392
583.70	27.423
584.03	27.665
584.37	27.958
584.70	27.351
585.04	27.593
585.37	26.911
585.71	27.326
586.04	27.108
586.38	27.403
586.72	28.307
587.05	26.759
587.39	26.939
587.72	27.287
588.06	26.841
588.39	27.023
588.73	27.838
589.06	28.233
589.40	27.980
589.73	28.687
590.07	27.936
590.40	28.498
590.73	28.649
591.07	28.734
591.40	28.849
591.74	29.567
592.07	28.229
592.41	28.483
592.74	27.640
593.08	27.082
593.41	26.606
593.75	27.046
594.08	27.321
594.41	27.819
594.75	28.096
595.08	27.487
595.42	28.581
595.75	27.493
596.09	28.164
596.42	28.487
596.75	29.337
597.09	29.221
597.42	28.288
597.75	28.590
598.09	29.130
598.42	28.308
598.76	27.767
599.09	27.366
599.42	27.001
599.76	27.343
600.09	27.760
600.42	27.064
600.76	27.143
601.09	27.031
601.42	28.120
601.76	27.249
602.09	27.510
602.42	27.508
602.76	28.094
603.09	28.403
603.42	27.880
603.76	27.515
604.09	27.685
604.42	27.966
604.76	28.511
605.09	27.523
605.42	27.790
605.75	27.732
606.09	27.572
606.42	28.157
606.75	27.333
607.09	28.129
607.42	28.070
607.75	27.131
608.08	27.573
608.42	28.014
608.75	27.232
609.08	27.845
609.41	27.891
609.75	27.585
610.08	28.652
610.41	27.933
610.74	27.625
611.07	28.804
611.41	27.920
611.74	28.758
612.07	28.727
612.40	29.801
612.73	28.368
613.07	29.418
613.40	29.331
613.73	28.264
614.06	28.011
614.39	28.002
614.72	28.211
615.06	28.099
615.39	27.866
615.72	28.834
616.05	27.858
616.38	28.516
616.71	29.513
617.05	29.329
617.38	28.743
617.71	28.829
618.04	29.207
618.37	28.977
618.70	29.309
619.03	30.263
619.36	29.939
619.69	30.423
620.03	30.220
620.36	29.011
620.69	30.616
621.02	30.973
621.35	30.070
621.68	30.062
622.01	29.567
622.34	31.467
622.67	30.951
623.00	28.833
623.33	29.021
623.66	29.378
623.99	30.339
624.32	28.673
624.65	29.732
624.99	29.037
625.32	29.254
625.65	29.527
625.98	30.515
626.31	30.249
626.64	31.592
626.97	31.505
627.30	31.920
627.63	31.747
627.96	32.044
628.29	30.796
628.62	31.747
628.95	32.642
629.28	31.204
629.61	32.631
629.94	32.000
630.26	31.363
630.59	32.412
630.92	32.088
631.25	32.083
631.58	31.331
631.91	32.454
632.24	32.173
632.57	31.689
632.90	34.320
633.23	32.550
633.56	33.107
633.89	33.635
634.22	32.917
634.55	33.491
634.88	32.695
635.20	33.453
635.53	35.181
635.86	33.911
636.19	33.412
636.52	31.373
636.85	32.646
637.18	32.028
637.51	33.215
637.83	31.443
638.16	32.225
638.49	34.131
638.82	35.398
639.15	33.500
639.48	34.289
639.81	35.389
640.13	34.635
640.46	34.362
640.79	33.554
641.12	32.325
641.45	34.358
641.77	35.788
642.10	35.965
642.43	34.685
642.76	34.675
643.09	36.503
643.41	35.812
643.74	36.420
644.07	36.433
644.40	37.423
644.73	37.638
645.05	38.193
645.38	34.123
645.71	35.749
646.04	36.047
646.36	37.062
646.69	36.957
647.02	35.034
647.35	35.223
647.67	35.929
648.00	36.585
648.33	31.683
648.66	33.182
648.98	34.783
649.31	31.988
649.64	34.230
649.96	34.575
650.29	33.017
650.62	35.599
650.94	34.846
651.27	36.655
651.60	36.106
651.92	34.984
652.25	32.573
652.58	35.358
652.90	35.229
653.23	34.823
653.56	35.118
653.88	35.024
654.21	35.229
654.54	36.139
654.86	33.333
655.19	31.351
655.52	22.116
655.84	18.930
656.17	24.879
656.49	33.992
656.82	35.172
657.15	26.984
657.47	20.146
657.80	15.608
658.13	16.286
658.45	24.411
658.78	24.731
659.10	26.242
659.43	28.080
659.75	28.808
660.08	31.835
660.41	34.916
660.73	36.213
661.06	35.032
661.38	38.000
661.71	37.692
662.03	38.264
662.36	37.972
662.68	35.542
663.01	38.990
663.33	37.367
663.66	39.916
663.98	37.797
664.31	36.765
664.63	38.057
664.96	35.412
665.28	36.885
665.61	38.791
665.93	37.425
666.26	36.917
666.58	36.611
666.91	39.323
667.23	37.753
667.56	38.229
667.88	38.034
668.21	36.461
668.53	38.178
668.86	35.931
669.18	38.806
669.50	40.652
669.83	40.741
670.15	36.667
670.48	40.959
670.80	39.224
671.13	37.792
671.45	33.404
671.77	37.678
672.10	37.153
672.42	34.982
672.75	34.494
673.07	34.331
673.39	34.177
673.72	35.352
674.04	36.078
674.37	36.505
674.69	33.742
675.01	35.356
675.34	38.398
675.66	38.526
675.98	36.049
676.31	35.294
676.63	37.792
676.95	37.736
677.28	37.383
677.60	38.681
677.92	37.342
678.25	35.729
678.57	36.454
678.89	34.870
679.22	33.399
679.54	36.069
679.86	33.761
680.18	35.957
680.51	35.106
680.83	33.808
681.15	35.472
681.48	37.051
681.80	35.203
682.12	34.866
682.44	32.689
682.77	36.253
683.09	40.343
683.41	35.698
683.73	39.294
684.06	36.157
684.38	36.204
684.70	37.984
685.02	35.835
685.34	32.051
685.67	33.392
685.99	33.333
686.31	31.570
686.63	32.332
686.96	34.107
687.28	33.755
687.60	33.333
687.92	35.649
688.24	36.502
688.56	35.743
688.89	36.929
689.21	37.773
689.53	32.985
689.85	39.024
690.17	34.990
690.49	38.217
690.82	35.514
691.14	35.045
691.46	31.646
691.78	36.345
692.10	37.190
692.42	36.926
692.74	34.025
693.06	37.021
693.39	35.729
693.71	36.026
694.03	38.105
694.35	36.797
694.67	36.842
694.99	35.854
695.31	36.275
695.63	36.842
695.95	36.430
696.27	38.579
696.59	37.047
696.91	39.896
697.23	37.559
697.56	35.821
697.88	33.333
698.20	34.583
698.52	36.559
698.84	35.189
699.16	35.714
699.48	37.292
699.80	34.783
700.12	41.039
700.44	40.318
700.76	37.845
701.08	40.230
701.40	41.620
701.72	41.399
702.04	43.750
702.36	38.810
702.68	39.093
703.00	39.889
703.32	37.766
703.64	39.678
703.96	40.669
704.28	39.535
704.60	39.883
704.91	40.356
705.23	39.003
705.55	45.515
705.87	42.193
706.19	45.936
706.51	41.745
706.83	41.212
707.15	39.776
707.47	36.364
707.79	36.609
708.11	35.388
708.43	35.238
708.74	34.184
709.06	38.701
709.38	38.583
709.70	40.988
710.02	40.356
710.34	39.091
710.66	43.881
710.98	38.636
711.29	39.535
711.61	44.543
711.93	37.179
712.25	41.801
712.57	45.588
712.89	40.830
713.20	39.210
713.52	43.750
713.84	43.671
714.16	38.415
714.48	39.080
714.80	41.033
715.11	40.058
715.43	37.982
715.75	39.420
716.07	38.339
716.39	38.871
716.70	44.850
717.02	41.727
717.34	44.170
717.66	47.761
717.97	52.191
718.29	41.111
718.61	39.781
718.93	42.647
719.24	42.561
719.56	39.661
719.88	42.034
720.20	44.257
720.51	44.251
720.83	44.238
721.15	41.045
721.46	41.489
721.78	45.878
722.10	47.547
722.42	45.865
722.73	42.697
723.05	43.443
723.37	45.749
723.68	45.560
724.00	42.683
724.32	44.758
724.63	39.837
724.95	45.607
725.27	47.368
725.58	44.922
725.90	43.066
726.22	43.019
726.53	42.708
726.85	44.710
727.16	44.840
727.48	41.489
727.80	42.424
728.11	39.130
728.43	41.154
728.74	43.011
729.06	44.526
729.38	43.750
729.69	45.196
730.01	40.956
730.32	38.194
730.64	42.809
730.96	40.264
731.27	41.722
731.59	38.532
731.90	38.192
732.22	37.888
732.53	34.365
732.85	39.744
733.16	41.479
733.48	41.528
733.80	39.610
734.11	41.401
734.43	34.615
734.74	35.714
735.06	36.963
735.37	40.751
735.69	36.306
736.00	42.157
736.32	38.629
736.63	35.463
736.95	39.617
737.26	37.075
737.58	38.065
737.89	39.465
738.21	39.590
738.52	41.786
738.83	37.358
739.15	42.308
739.46	43.431
739.78	40.625
740.09	39.692
740.41	38.065
740.72	36.934
741.04	39.259
741.35	40.417
741.66	52.444
741.98	46.226
742.29	44.976
742.61	51.724
742.92	46.154
743.23	44.444
743.55	44.400
743.86	45.175
744.18	46.018
744.49	50.718
744.80	46.009
745.12	49.091
745.43	45.815
745.74	50.000
746.06	44.037
746.37	43.049
746.68	46.154
747.00	50.926
747.31	50.476
747.62	43.363
747.94	44.493
748.25	38.723
748.56	48.018
748.88	45.545
749.19	54.000
749.50	52.093
749.82	37.398
750.13	40.408
750.44	39.051
750.75	42.105
751.07	44.373
751.38	40.070
751.69	42.960
752.01	41.729
752.32	41.877
752.63	40.780
752.94	43.852
753.26	42.800
753.57	38.211
753.88	42.187
754.19	40.000
754.51	45.139
754.82	32.852
755.13	42.642
755.44	42.481
755.75	37.226
756.07	39.362
756.38	37.226
756.69	38.926
757.00	36.527
757.31	36.795
757.63	36.550
757.94	32.976
758.25	35.784
758.56	31.358
758.87	35.753
759.18	36.970
759.50	37.618
759.81	38.318
760.12	36.250
760.43	37.249
760.74	35.326
761.05	37.288
761.36	32.620
761.67	38.636
761.99	36.957
762.30	40.972
762.61	39.695
762.92	45.703
763.23	45.378
763.54	44.400
763.85	40.625
764.16	47.308
764.47	42.205
764.78	37.809
765.10	32.278
765.41	37.168
765.72	37.126
766.03	36.050
766.34	38.667
766.65	48.511
766.96	47.009
767.27	50.761
767.58	55.729
767.89	48.421
768.20	56.322
768.51	53.299
768.82	47.706
769.13	42.683
769.44	40.486
769.75	39.914
770.06	39.908
770.37	46.606
770.68	50.463
770.99	40.000
771.30	36.885
771.61	43.498
771.92	46.311
772.23	52.101
772.54	47.179
772.85	50.262
773.16	46.277
773.47	51.630
773.78	53.807
774.09	52.976
774.39	57.895
774.70	50.000
775.01	51.449
775.32	60.131
775.63	57.237
775.94	64.029
776.25	66.142
776.56	59.701
776.87	69.672
777.18	69.531
777.48	57.252
777.79	61.364
778.10	60.000
778.41	67.857
778.72	53.285
779.03	53.691
779.34	57.047
779.65	53.378
779.95	51.534
780.26	60.784
780.57	62.759
780.88	61.719
781.19	66.165
781.50	64.865
781.80	54.088
782.11	47.458
782.42	51.266
782.73	47.853
783.04	58.108
783.34	60.563
783.65	58.219
783.96	63.433
784.27	53.846
784.57	54.676
784.88	51.852
785.19	54.762
785.50	70.755
785.81	65.672
786.11	72.951
786.42	61.240
786.73	57.522
787.04	77.358
787.34	70.536
787.65	70.000
787.96	69.369
788.26	61.157
788.57	68.644
788.88	71.901
789.19	59.722
789.49	71.212
789.80	63.359
790.11	76.190
790.41	78.218
790.72	86.747
791.03	69.565
791.33	93.023
791.64	86.598
791.95	81.188
792.25	82.222
792.56	89.610
792.87	103.846
793.17	87.342
793.48	89.655
793.79	83.908
794.09	81.818
794.40	71.429
794.70	59.559
795.01	54.815
795.32	58.273
795.62	62.992
795.93	68.103
796.23	60.177
796.54	71.765
796.85	85.135
797.15	87.324
797.46	98.485
797.76	87.952
798.07	93.671
798.37	96.923
798.68	101.515
798.99	100.000
799.29	96.104
799.60	87.500
799.90	98.630
800.21	111.940
800.51	103.448
800.82	126.316
801.12	101.639
801.43	104.545
801.73	97.297
802.04	90.476
802.34	93.827
802.65	125.000
802.95	118.644
803.26	131.250
803.56	91.429
803.87	92.308
804.17	94.118
804.48	137.037
804.78	91.379
805.09	100.000
805.39	126.923
805.70	121.429
806.00	109.836
806.30	96.970
806.61	86.585
806.91	92.405
807.22	90.789
807.52	83.582
807.83	98.592
808.13	107.812
808.43	91.667
808.74	75.000
809.04	102.899
809.35	107.463
809.65	86.842
809.95	114.516
810.26	108.475
810.56	109.524
810.86	152.273
811.17	150.000
811.47	111.667
811.77	111.111
812.08	105.455
812.38	120.000
812.69	180.556
812.99	159.091
813.29	136.735
813.59	114.286
813.90	138.776
814.20	112.727
814.50	92.308
814.81	111.765
815.11	120.408
815.41	114.754
815.72	166.667
816.02	118.182
816.32	150.000
816.62	137.500
816.93	141.463
817.23	173.810
817.53	147.727
817.84	178.788
818.14	165.217
818.44	135.556
818.74	188.235
819.04	137.500
819.35	182.857
819.65	191.176
819.95	192.857
820.25	220.000
820.56	171.795
820.86	131.818
821.16	153.488
821.46	166.667
821.76	144.000
822.07	160.000
822.37	162.500
822.67	166.667
822.97	117.647
823.27	214.286
823.57	175.676
823.88	185.000
824.18	253.333
824.48	169.048
824.78	200.000
825.08	212.500
825.38	145.946
825.69	151.220
825.99	241.667
826.29	162.069
826.59	173.684
826.89	178.947
827.19	188.235
827.49	177.419
827.79	156.818
828.09	127.273
828.39	125.532
828.70	120.408
829.00	151.852
829.30	132.258
829.60	170.000
829.90	353.333
830.20	225.000
830.50	186.957
830.80	234.783
831.10	236.667
831.40	213.333
831.70	234.783
832.00	223.077
832.30	229.630
832.60	362.500
832.90	203.333
833.20	450.000
833.50	212.903
833.80	203.448
834.10	228.125
834.40	223.077
834.70	288.889
835.00	376.190
835.30	171.429
835.60	338.462
835.90	220.690
836.20	428.571
836.50	213.793
836.80	224.000
837.10	194.444
837.40	314.286
837.70	347.059
838.00	211.111
838.30	247.619
838.60	333.333
838.90	269.231
839.19	315.000
839.49	471.429
839.79	325.000
840.09	285.000
840.39	276.190
840.69	278.261
840.99	305.556
841.29	550.000
841.59	450.000
841.88	381.250
842.18	189.655
842.48	323.810
842.78	216.667
843.08	252.174
843.38	200.000
843.68	966.667
843.97	242.308
844.27	255.172
844.57	300.000
844.87	400.000
845.17	237.037
845.47	1700.000
845.76	533.333
846.06	335.294
846.36	587.500
846.66	407.143
846.96	287.500
847.25	427.273
847.55	472.727
847.85	278.261
848.15	590.000
848.44	342.857
848.74	344.444
849.04	300.000
849.34	620.000
849.63	236.842
849.93	445.455
850.23	1180.000
850.53	435.714
850.82	2000.000
851.12	-4300.000
851.42	4500.000
851.71	275.000
852.01	-1266.667
852.31	279.167
852.61	1500.000
852.90	247.619
853.20	240.000
853.50	317.647
853.79	295.238
854.09	241.667
854.39	418.750
854.68	197.297
854.98	180.645
855.28	206.667
855.57	244.828
855.87	240.741
856.17	315.789
856.46	313.333
856.76	305.882
857.05	241.379
857.35	237.500
857.65	426.667
857.94	273.913
858.24	261.538
858.53	330.000
858.83	250.000
859.13	353.333
859.42	0.000
859.72	644.444
860.01	463.636
860.31	254.545
860.60	331.579
860.90	243.478
861.20	700.000
861.49	583.333
861.79	-5500.000
862.08	687.500
862.38	304.762
862.67	353.846
862.97	376.471
863.26	544.444
863.56	311.111
863.85	483.333
864.15	587.500
864.44	413.333
864.74	916.667
865.03	687.500
865.33	326.316
865.62	481.818
865.92	500.000
866.21	391.667
866.51	0.000
866.80	490.909
867.10	1260.000
867.39	461.538
867.69	400.000
867.98	289.474
868.27	545.455
868.57	284.211
868.86	-5400.000
869.16	362.500
869.45	2350.000
869.75	-5000.000
870.04	416.667
870.33	757.143
870.63	1175.000
870.92	2950.000
871.22	971.429
871.51	364.706
871.80	261.905
872.10	371.429
>>>>>End Processed Spectral Data<<<<<
