SpectraSuite Data File
++++++++++++++++++++++++++++++++++++
Date: Wed May 13 19:58:54 PDT 2015
User: schluterlab
Dark Spectrum Present: Yes
Reference Spectrum Present: Yes
Number of Sampled Component Spectra: 1
Spectrometers: USB2E3373
Integration Time (usec): 3000 (USB2E3373)
Spectra Averaged: 3 (USB2E3373)
Boxcar Smoothing: 0 (USB2E3373)
Correct for Electrical Dark: No (USB2E3373)
Strobe/Lamp Enabled: No (USB2E3373)
Correct for Detector Non-linearity: No (USB2E3373)
Correct for Stray Light: No (USB2E3373)
Number of Pixels in Processed Spectrum: 2048
>>>>>Begin Processed Spectral Data<<<<<
178.53	0.000
178.91	-1225.000
179.29	-1275.000
179.67	-216.667
180.04	-1450.000
180.42	2900.000
180.80	1020.000
181.18	-875.000
181.56	700.000
181.94	0.000
182.31	-714.286
182.69	1500.000
183.07	-600.000
183.45	-488.889
183.83	527.273
184.20	-380.000
184.58	1600.000
184.96	4300.000
185.34	-720.000
185.72	-512.500
186.09	-2300.000
186.47	2750.000
186.85	2200.000
187.23	5300.000
187.61	-1600.000
187.98	1525.000
188.36	545.455
188.74	527.273
189.12	-1040.000
189.49	550.000
189.87	-3700.000
190.25	-1050.000
190.63	385.714
191.00	392.308
191.38	750.000
191.76	-1075.000
192.14	1300.000
192.51	500.000
192.89	850.000
193.27	537.500
193.65	-1175.000
194.02	580.000
194.40	1040.000
194.78	450.000
195.15	433.333
195.53	520.000
195.91	-1950.000
196.29	312.500
196.66	284.211
197.04	-310.000
197.42	0.000
197.79	450.000
198.17	-5300.000
198.55	614.286
198.92	650.000
199.30	1020.000
199.68	0.000
200.05	311.111
200.43	885.714
200.81	4400.000
201.18	1333.333
201.56	-1666.667
201.94	477.778
202.31	555.556
202.69	366.667
203.07	490.000
203.44	0.000
203.82	1300.000
204.19	842.857
204.57	371.429
204.95	537.500
205.32	1333.333
205.70	581.818
206.08	407.143
206.45	2450.000
206.83	293.750
207.20	833.333
207.58	780.000
207.96	322.222
208.33	550.000
208.71	-850.000
209.08	685.714
209.46	544.444
209.84	500.000
210.21	-1733.333
210.59	1450.000
210.96	-462.500
211.34	2350.000
211.71	540.000
212.09	750.000
212.46	0.000
212.84	1833.333
213.22	1225.000
213.59	-3700.000
213.97	850.000
214.34	871.429
214.72	527.273
215.09	780.000
215.47	-2000.000
215.84	-2350.000
216.22	1566.667
216.59	385.714
216.97	1125.000
217.34	445.455
217.72	-716.667
218.09	0.000
218.47	-5100.000
218.84	566.667
219.22	728.571
219.59	1466.667
219.97	-614.286
220.34	940.000
220.72	-1666.667
221.09	321.429
221.47	1400.000
221.84	-866.667
222.22	0.000
222.59	1275.000
222.97	-2050.000
223.34	1100.000
223.72	423.077
224.09	1100.000
224.46	1950.000
224.84	-5300.000
225.21	-1100.000
225.59	-5200.000
225.96	580.000
226.34	320.000
226.71	2400.000
227.08	612.500
227.46	540.000
227.83	-1150.000
228.21	-2350.000
228.58	633.333
228.95	-2050.000
229.33	-1950.000
229.70	1733.333
230.08	757.143
230.45	-760.000
230.82	433.333
231.20	866.667
231.57	614.286
231.95	466.667
232.32	222.727
232.69	427.273
233.07	700.000
233.44	353.846
233.81	-1533.333
234.19	257.895
234.56	400.000
234.93	441.667
235.31	381.818
235.68	261.538
236.05	300.000
236.43	212.121
236.80	236.842
237.17	3700.000
237.55	166.667
237.92	167.857
238.29	176.190
238.67	158.065
239.04	179.310
239.41	119.444
239.79	106.522
240.16	95.238
240.53	111.364
240.91	100.000
241.28	68.000
241.65	76.000
242.02	68.116
242.40	83.871
242.77	56.667
243.14	52.688
243.51	73.034
243.89	54.118
244.26	55.556
244.63	46.237
245.00	45.745
245.38	53.465
245.75	41.121
246.12	44.037
246.49	43.066
246.87	47.200
247.24	44.615
247.61	40.714
247.98	32.026
248.36	30.405
248.73	29.936
249.10	35.032
249.47	28.814
249.84	32.620
250.22	32.086
250.59	26.036
250.96	31.313
251.33	28.436
251.70	24.257
252.08	29.048
252.45	17.937
252.82	27.826
253.19	25.532
253.56	24.314
253.94	26.141
254.31	25.000
254.68	25.000
255.05	23.616
255.42	19.512
255.79	23.162
256.16	25.271
256.54	15.901
256.91	21.708
257.28	16.906
257.65	20.792
258.02	19.876
258.39	20.505
258.76	20.067
259.14	19.345
259.51	17.933
259.88	15.217
260.25	19.335
260.62	19.653
260.99	17.391
261.36	21.321
261.73	18.625
262.10	17.151
262.47	20.845
262.85	17.549
263.22	13.105
263.59	18.803
263.96	15.659
264.33	16.971
264.70	15.789
265.07	16.880
265.44	16.919
265.81	13.625
266.18	19.347
266.55	14.878
266.92	14.988
267.29	15.278
267.66	13.761
268.03	16.136
268.40	15.187
268.77	12.411
269.14	13.063
269.51	16.027
269.88	15.152
270.25	13.770
270.62	15.955
270.99	15.914
271.36	15.021
271.73	14.019
272.10	14.130
272.47	13.763
272.84	12.554
273.21	16.352
273.58	10.044
273.95	11.111
274.32	13.636
274.69	14.561
275.06	13.189
275.43	13.617
275.80	12.826
276.17	12.220
276.54	15.593
276.91	12.846
277.28	15.234
277.65	12.766
278.02	13.251
278.39	13.086
278.76	12.364
279.13	13.396
279.50	13.780
279.87	12.948
280.23	13.573
280.60	12.573
280.97	12.569
281.34	12.566
281.71	14.182
282.08	12.860
282.45	9.636
282.82	14.032
283.19	12.478
283.56	11.754
283.92	11.844
284.29	11.111
284.66	12.341
285.03	12.658
285.40	14.613
285.77	12.626
286.14	11.917
286.51	11.167
286.87	10.769
287.24	12.541
287.61	11.717
287.98	13.149
288.35	10.777
288.72	11.994
289.08	12.363
289.45	12.356
289.82	11.545
290.19	9.890
290.56	10.567
290.93	7.704
291.29	10.736
291.66	10.472
292.03	11.337
292.40	10.866
292.77	8.728
293.13	10.746
293.50	10.496
293.87	9.778
294.24	9.481
294.60	9.025
294.97	11.192
295.34	10.014
295.71	11.648
296.08	10.256
296.44	8.803
296.81	7.794
297.18	12.060
297.55	7.916
297.91	8.971
298.28	10.710
298.65	10.052
299.02	10.145
299.38	9.429
299.75	8.356
300.12	9.579
300.48	7.750
300.85	8.508
301.22	8.662
301.59	8.207
301.95	9.068
302.32	8.729
302.69	8.483
303.05	7.515
303.42	6.914
303.79	8.834
304.15	7.576
304.52	7.648
304.89	7.201
305.25	8.237
305.62	8.947
305.99	8.146
306.35	7.718
306.72	8.969
307.09	10.433
307.45	10.360
307.82	6.585
308.19	8.830
308.55	7.659
308.92	7.519
309.29	7.497
309.65	8.059
310.02	8.562
310.38	7.312
310.75	7.920
311.12	8.802
311.48	8.986
311.85	9.119
312.22	6.868
312.58	7.692
312.95	7.814
313.31	8.350
313.68	8.524
314.05	9.369
314.41	9.246
314.78	9.063
315.14	9.136
315.51	8.445
315.87	9.901
316.24	8.838
316.61	8.869
316.97	10.176
317.34	8.219
317.70	9.847
318.07	10.395
318.43	10.665
318.80	11.059
319.16	11.299
319.53	9.944
319.89	11.905
320.26	11.500
320.62	11.607
320.99	13.535
321.35	11.919
321.72	12.526
322.08	13.031
322.45	13.632
322.81	13.469
323.18	14.066
323.54	14.100
323.91	15.094
324.27	14.149
324.64	14.911
325.00	13.526
325.37	15.560
325.73	16.248
326.10	16.328
326.46	15.591
326.83	18.292
327.19	16.652
327.56	16.638
327.92	18.023
328.29	18.811
328.65	18.785
329.01	19.134
329.38	19.704
329.74	19.206
330.11	19.698
330.47	20.845
330.84	20.312
331.20	19.581
331.56	20.550
331.93	20.000
332.29	20.852
332.66	20.354
333.02	20.018
333.38	20.958
333.75	21.925
334.11	20.907
334.48	20.674
334.84	21.599
335.20	22.091
335.57	20.490
335.93	21.071
336.29	21.154
336.66	20.830
337.02	21.267
337.38	22.500
337.75	20.945
338.11	21.844
338.47	22.560
338.84	22.548
339.20	21.101
339.56	23.631
339.93	20.727
340.29	22.645
340.65	22.906
341.02	22.600
341.38	22.776
341.74	22.105
342.11	22.533
342.47	22.907
342.83	23.031
343.20	22.857
343.56	22.578
343.92	20.439
344.28	22.364
344.65	23.302
345.01	21.886
345.37	21.784
345.73	23.435
346.10	21.824
346.46	21.102
346.82	21.911
347.19	21.972
347.55	21.757
347.91	22.977
348.27	23.336
348.63	21.739
349.00	21.521
349.36	21.593
349.72	22.053
350.08	21.151
350.45	23.271
350.81	22.340
351.17	23.420
351.53	22.195
351.89	22.360
352.26	23.678
352.62	24.058
352.98	22.609
353.34	22.432
353.70	22.995
354.07	22.581
354.43	22.063
354.79	22.124
355.15	23.703
355.51	23.261
355.87	23.184
356.24	22.068
356.60	22.534
356.96	23.089
357.32	23.303
357.68	23.937
358.04	23.674
358.40	24.466
358.77	22.379
359.13	23.204
359.49	22.745
359.85	23.095
360.21	23.126
360.57	23.502
360.93	22.846
361.29	22.525
361.66	23.916
362.02	24.179
362.38	23.270
362.74	23.661
363.10	22.576
363.46	23.404
363.82	23.432
364.18	23.495
364.54	24.071
364.90	23.796
365.26	23.971
365.62	24.032
365.98	22.863
366.35	22.923
366.71	24.150
367.07	23.379
367.43	24.093
367.79	24.839
368.15	24.784
368.51	23.619
368.87	23.840
369.23	23.628
369.59	23.823
369.95	23.676
370.31	24.858
370.67	23.841
371.03	23.895
371.39	23.980
371.75	23.971
372.11	24.324
372.47	24.853
372.83	25.144
373.19	23.772
373.55	24.464
373.91	24.890
374.27	24.880
374.63	24.218
374.99	24.576
375.35	24.006
375.71	23.715
376.07	23.594
376.42	24.209
376.78	24.917
377.14	24.695
377.50	24.702
377.86	23.670
378.22	25.095
378.58	24.060
378.94	24.701
379.30	24.491
379.66	25.190
380.02	24.386
380.38	24.529
380.74	24.730
381.09	24.511
381.45	24.216
381.81	25.860
382.17	25.287
382.53	24.340
382.89	24.877
383.25	24.015
383.61	25.465
383.97	25.704
384.32	25.140
384.68	24.411
385.04	24.401
385.40	24.458
385.76	25.184
386.12	25.777
386.48	25.236
386.83	26.299
387.19	25.170
387.55	24.428
387.91	24.426
388.27	25.567
388.62	25.569
388.98	24.693
389.34	25.094
389.70	26.180
390.06	25.539
390.42	25.616
390.77	25.509
391.13	25.144
391.49	26.269
391.85	25.207
392.20	24.984
392.56	25.631
392.92	25.603
393.28	24.320
393.64	25.839
393.99	25.290
394.35	25.372
394.71	25.659
395.07	25.109
395.42	25.773
395.78	25.636
396.14	25.140
396.50	25.877
396.85	25.493
397.21	26.017
397.57	25.666
397.92	25.300
398.28	24.103
398.64	25.448
399.00	25.182
399.35	24.817
399.71	24.653
400.07	25.902
400.42	25.706
400.78	25.573
401.14	24.878
401.49	25.433
401.85	24.561
402.21	24.671
402.57	25.416
402.92	24.905
403.28	25.547
403.63	25.743
403.99	25.605
404.35	25.576
404.70	24.101
405.06	24.869
405.42	25.016
405.77	24.857
406.13	24.944
406.49	24.719
406.84	24.690
407.20	24.527
407.55	24.378
407.91	25.000
408.27	24.505
408.62	24.985
408.98	24.877
409.34	24.047
409.69	25.677
410.05	24.411
410.40	24.648
410.76	24.373
411.11	24.487
411.47	25.112
411.83	25.229
412.18	23.624
412.54	24.595
412.89	24.217
413.25	23.731
413.60	24.089
413.96	23.801
414.31	23.147
414.67	25.032
415.03	24.437
415.38	24.549
415.74	24.244
416.09	24.298
416.45	23.963
416.80	23.596
417.16	24.129
417.51	25.149
417.87	23.571
418.22	24.606
418.58	24.661
418.93	24.447
419.29	24.188
419.64	24.118
420.00	23.780
420.35	23.536
420.71	24.208
421.06	23.449
421.42	23.977
421.77	24.552
422.12	23.189
422.48	22.450
422.83	23.471
423.19	23.481
423.54	23.389
423.90	24.116
424.25	23.116
424.61	23.095
424.96	23.440
425.31	23.311
425.67	22.247
426.02	23.714
426.38	23.626
426.73	23.698
427.09	23.283
427.44	23.749
427.79	22.254
428.15	23.869
428.50	22.411
428.85	23.004
429.21	22.308
429.56	22.551
429.92	22.345
430.27	22.294
430.62	22.171
430.98	22.626
431.33	22.474
431.68	22.251
432.04	22.258
432.39	22.844
432.74	22.861
433.10	22.298
433.45	22.741
433.80	22.062
434.16	22.062
434.51	22.211
434.86	22.406
435.22	22.346
435.57	21.702
435.92	21.475
436.28	23.250
436.63	23.400
436.98	21.637
437.34	23.017
437.69	22.695
438.04	22.203
438.39	22.627
438.75	22.313
439.10	22.346
439.45	21.960
439.81	21.208
440.16	22.473
440.51	22.378
440.86	21.888
441.22	22.525
441.57	22.505
441.92	21.597
442.27	21.690
442.63	21.222
442.98	21.521
443.33	22.283
443.68	21.270
444.03	21.523
444.39	21.032
444.74	21.591
445.09	22.534
445.44	21.651
445.79	21.722
446.15	21.758
446.50	21.055
446.85	21.634
447.20	21.265
447.55	22.222
447.91	20.905
448.26	21.814
448.61	21.538
448.96	21.705
449.31	22.497
449.66	21.384
450.02	21.003
450.37	20.635
450.72	20.756
451.07	21.146
451.42	20.790
451.77	21.785
452.12	20.497
452.47	21.766
452.83	21.445
453.18	21.271
453.53	21.769
453.88	20.732
454.23	20.980
454.58	21.381
454.93	21.805
455.28	20.948
455.63	20.692
455.98	21.667
456.34	21.545
456.69	20.977
457.04	20.495
457.39	20.573
457.74	20.313
458.09	21.047
458.44	20.353
458.79	20.282
459.14	20.316
459.49	21.133
459.84	20.554
460.19	19.328
460.54	19.618
460.89	19.912
461.24	20.704
461.59	21.732
461.94	19.852
462.29	20.950
462.64	19.847
462.99	19.258
463.34	20.867
463.69	19.762
464.04	19.072
464.39	18.957
464.74	19.727
465.09	20.084
465.44	19.778
465.79	19.016
466.14	19.485
466.49	19.410
466.84	19.615
467.19	20.157
467.54	19.125
467.89	18.307
468.24	19.023
468.59	19.902
468.94	19.426
469.29	19.923
469.64	19.478
469.99	19.892
470.34	18.428
470.68	18.894
471.03	19.116
471.38	20.083
471.73	19.054
472.08	20.263
472.43	18.719
472.78	18.631
473.13	19.063
473.48	18.727
473.83	18.232
474.17	17.735
474.52	18.610
474.87	18.914
475.22	18.630
475.57	18.162
475.92	17.578
476.27	18.151
476.61	18.588
476.96	17.537
477.31	17.478
477.66	18.818
478.01	17.041
478.36	17.663
478.70	17.030
479.05	17.199
479.40	17.656
479.75	17.133
480.10	16.948
480.45	17.040
480.79	17.057
481.14	17.906
481.49	17.038
481.84	16.872
482.19	17.129
482.53	16.927
482.88	17.357
483.23	16.776
483.58	16.879
483.92	16.589
484.27	15.730
484.62	16.853
484.97	15.885
485.31	15.788
485.66	14.872
486.01	14.628
486.36	14.228
486.70	14.056
487.05	14.659
487.40	14.811
487.75	14.896
488.09	14.983
488.44	15.444
488.79	15.769
489.13	15.661
489.48	15.579
489.83	15.667
490.17	16.352
490.52	15.633
490.87	15.242
491.22	15.871
491.56	14.989
491.91	15.961
492.26	15.388
492.60	16.037
492.95	15.201
493.30	14.720
493.64	15.352
493.99	15.552
494.34	16.050
494.68	15.476
495.03	15.038
495.37	15.170
495.72	14.912
496.07	15.267
496.41	14.823
496.76	15.259
497.11	14.633
497.45	15.603
497.80	14.491
498.14	14.541
498.49	14.537
498.84	14.813
499.18	14.619
499.53	14.957
499.87	14.818
500.22	15.073
500.56	15.340
500.91	14.135
501.26	15.031
501.60	15.520
501.95	14.390
502.29	14.808
502.64	14.292
502.98	14.353
503.33	14.580
503.67	14.664
504.02	14.312
504.36	14.974
504.71	14.460
505.06	14.554
505.40	14.584
505.75	14.658
506.09	14.334
506.44	14.356
506.78	14.954
507.13	14.740
507.47	15.051
507.82	14.134
508.16	14.032
508.51	14.409
508.85	14.350
509.19	13.571
509.54	14.133
509.88	14.426
510.23	14.344
510.57	15.222
510.92	14.863
511.26	14.337
511.61	14.263
511.95	13.570
512.30	13.945
512.64	13.971
512.98	13.558
513.33	14.293
513.67	14.034
514.02	13.961
514.36	14.746
514.70	14.112
515.05	14.110
515.39	14.526
515.74	14.358
516.08	14.310
516.42	14.317
516.77	14.493
517.11	13.984
517.46	15.124
517.80	13.879
518.14	14.418
518.49	14.527
518.83	14.545
519.17	14.319
519.52	13.809
519.86	14.832
520.20	13.642
520.55	15.320
520.89	14.538
521.23	14.355
521.58	14.526
521.92	14.758
522.26	14.765
522.61	14.579
522.95	13.812
523.29	14.425
523.64	14.512
523.98	14.787
524.32	14.596
524.66	13.891
525.01	14.154
525.35	14.126
525.69	13.855
526.04	14.206
526.38	14.033
526.72	14.601
527.06	14.501
527.41	12.933
527.75	14.148
528.09	14.001
528.43	14.277
528.78	14.259
529.12	12.970
529.46	14.513
529.80	15.037
530.15	14.766
530.49	14.277
530.83	14.937
531.17	14.491
531.51	15.435
531.86	13.935
532.20	14.733
532.54	13.965
532.88	14.634
533.22	13.741
533.57	14.568
533.91	13.426
534.25	14.399
534.59	13.850
534.93	13.385
535.27	14.001
535.62	14.408
535.96	14.062
536.30	14.812
536.64	15.003
536.98	13.404
537.32	13.167
537.66	14.067
538.01	13.891
538.35	14.350
538.69	15.635
539.03	14.035
539.37	13.419
539.71	12.832
540.05	14.118
540.39	13.821
540.73	13.713
541.07	14.406
541.42	14.155
541.76	14.774
542.10	14.101
542.44	14.106
542.78	14.888
543.12	13.500
543.46	14.164
543.80	13.988
544.14	13.030
544.48	14.095
544.82	13.855
545.16	12.752
545.50	12.661
545.84	13.172
546.18	13.333
546.52	13.558
546.86	14.158
547.20	14.295
547.54	13.560
547.88	14.732
548.22	13.076
548.56	13.899
548.90	13.316
549.24	12.997
549.58	13.915
549.92	13.942
550.26	14.418
550.60	13.762
550.94	13.873
551.28	12.509
551.62	13.947
551.96	14.596
552.30	14.061
552.64	13.590
552.98	14.169
553.32	13.891
553.66	13.497
554.00	12.972
554.34	13.251
554.68	13.591
555.02	13.258
555.36	13.431
555.69	13.532
556.03	13.324
556.37	13.779
556.71	13.302
557.05	13.235
557.39	13.506
557.73	12.985
558.07	13.561
558.41	13.097
558.75	13.740
559.08	13.423
559.42	13.454
559.76	13.750
560.10	13.062
560.44	13.836
560.78	12.442
561.12	13.456
561.45	13.625
561.79	12.854
562.13	12.072
562.47	13.525
562.81	13.389
563.15	12.508
563.48	12.997
563.82	12.459
564.16	12.492
564.50	12.305
564.84	12.389
565.17	12.999
565.51	12.971
565.85	11.739
566.19	12.273
566.52	12.033
566.86	12.176
567.20	12.736
567.54	12.100
567.88	11.950
568.21	12.751
568.55	12.285
568.89	12.111
569.23	11.319
569.56	11.781
569.90	11.434
570.24	11.087
570.57	10.473
570.91	10.472
571.25	10.716
571.59	10.633
571.92	10.369
572.26	10.427
572.60	10.871
572.93	10.255
573.27	10.618
573.61	10.469
573.95	10.413
574.28	10.000
574.62	10.107
574.96	9.964
575.29	9.918
575.63	10.188
575.97	10.049
576.30	10.276
576.64	9.932
576.98	9.674
577.31	9.935
577.65	9.794
577.98	9.731
578.32	9.651
578.66	9.853
578.99	9.861
579.33	10.046
579.67	9.462
580.00	9.878
580.34	10.062
580.67	9.856
581.01	9.804
581.35	9.961
581.68	9.541
582.02	9.795
582.35	10.018
582.69	9.930
583.02	9.688
583.36	10.007
583.70	10.015
584.03	9.848
584.37	10.224
584.70	9.404
585.04	10.103
585.37	9.716
585.71	10.244
586.04	9.954
586.38	10.084
586.72	10.522
587.05	10.079
587.39	9.710
587.72	10.049
588.06	9.899
588.39	9.849
588.73	10.150
589.06	10.439
589.40	10.000
589.73	10.137
590.07	10.498
590.40	10.230
590.73	10.539
591.07	10.745
591.40	11.008
591.74	10.563
592.07	11.082
592.41	10.955
592.74	10.637
593.08	10.726
593.41	10.376
593.75	9.869
594.08	10.057
594.41	10.569
594.75	10.018
595.08	10.236
595.42	10.508
595.75	10.185
596.09	10.590
596.42	11.159
596.75	10.975
597.09	10.952
597.42	10.582
597.75	10.608
598.09	10.696
598.42	10.481
598.76	10.215
599.09	10.376
599.42	9.789
599.76	10.286
600.09	10.055
600.42	10.153
600.76	9.714
601.09	9.800
601.42	10.198
601.76	10.057
602.09	10.395
602.42	10.549
602.76	10.762
603.09	10.307
603.42	10.035
603.76	10.290
604.09	10.004
604.42	10.192
604.76	11.472
605.09	10.703
605.42	10.688
605.75	11.010
606.09	10.167
606.42	10.339
606.75	10.577
607.09	11.302
607.42	10.398
607.75	10.211
608.08	10.161
608.42	10.533
608.75	10.415
609.08	10.916
609.41	10.852
609.75	11.053
610.08	10.556
610.41	10.289
610.74	10.738
611.07	10.672
611.41	10.844
611.74	11.362
612.07	11.335
612.40	11.175
612.73	10.632
613.07	10.345
613.40	12.006
613.73	10.645
614.06	10.645
614.39	11.484
614.72	10.737
615.06	11.082
615.39	10.244
615.72	10.787
616.05	10.420
616.38	11.062
616.71	11.876
617.05	10.777
617.38	11.365
617.71	10.991
618.04	11.358
618.37	11.413
618.70	11.263
619.03	12.632
619.36	11.134
619.69	11.831
620.03	12.431
620.36	12.567
620.69	12.534
621.02	13.348
621.35	11.355
621.68	12.150
622.01	12.307
622.34	12.632
622.67	11.787
623.00	11.445
623.33	11.365
623.66	12.437
623.99	11.856
624.32	12.553
624.65	11.158
624.99	11.402
625.32	12.093
625.65	11.871
625.98	12.068
626.31	13.530
626.64	12.653
626.97	12.219
627.30	12.801
627.63	13.454
627.96	12.784
628.29	12.161
628.62	13.541
628.95	14.245
629.28	13.412
629.61	13.749
629.94	12.476
630.26	12.107
630.59	13.155
630.92	13.410
631.25	12.340
631.58	14.214
631.91	13.185
632.24	13.397
632.57	15.005
632.90	13.048
633.23	12.975
633.56	13.559
633.89	14.383
634.22	15.096
634.55	14.438
634.88	14.371
635.20	14.695
635.53	15.422
635.86	12.376
636.19	14.353
636.52	13.956
636.85	13.975
637.18	13.249
637.51	15.839
637.83	12.084
638.16	14.962
638.49	15.491
638.82	15.044
639.15	15.625
639.48	15.835
639.81	13.941
640.13	16.016
640.46	15.705
640.79	16.248
641.12	14.030
641.45	13.827
641.77	15.464
642.10	16.520
642.43	12.913
642.76	14.087
643.09	16.718
643.41	15.326
643.74	15.741
644.07	15.854
644.40	17.485
644.73	17.795
645.05	18.225
645.38	14.692
645.71	15.781
646.04	16.611
646.36	18.197
646.69	15.552
647.02	15.646
647.35	16.495
647.67	16.283
648.00	17.398
648.33	15.017
648.66	15.909
648.98	18.141
649.31	15.546
649.64	15.845
649.96	15.350
650.29	15.482
650.62	15.696
650.94	16.694
651.27	17.061
651.60	16.140
651.92	17.252
652.25	15.798
652.58	14.330
652.90	15.324
653.23	15.254
653.56	14.331
653.88	16.799
654.21	17.536
654.54	16.337
654.86	16.667
655.19	13.784
655.52	9.444
655.84	7.157
656.17	8.873
656.49	11.981
656.82	12.001
657.15	8.904
657.47	6.806
657.80	5.123
658.13	5.465
658.45	8.150
658.78	8.522
659.10	8.906
659.43	9.394
659.75	9.960
660.08	11.329
660.41	12.197
660.73	14.867
661.06	13.535
661.38	17.636
661.71	19.615
662.03	18.540
662.36	17.495
662.68	17.871
663.01	17.172
663.33	17.834
663.66	18.277
663.98	17.279
664.31	15.966
664.63	19.231
664.96	13.883
665.28	18.033
665.61	17.154
665.93	16.298
666.26	14.807
666.58	16.109
666.91	20.507
667.23	17.303
667.56	15.119
667.88	20.085
668.21	19.190
668.53	16.486
668.86	18.615
669.18	20.896
669.50	19.565
669.83	21.351
670.15	18.222
670.48	18.301
670.80	17.026
671.13	18.047
671.45	17.447
671.77	17.312
672.10	17.006
672.42	15.724
672.75	16.086
673.07	17.077
673.39	15.732
673.72	14.844
674.04	16.471
674.37	16.117
674.69	14.110
675.01	15.900
675.34	20.739
675.66	19.579
675.98	18.941
676.31	19.118
676.63	19.533
676.95	16.981
677.28	18.925
677.60	18.022
677.92	17.511
678.25	16.838
678.57	15.339
678.89	17.635
679.22	16.699
679.54	17.939
679.86	19.450
680.18	16.100
680.51	16.489
680.83	18.327
681.15	16.604
681.48	17.958
681.80	17.602
682.12	16.475
682.44	16.248
682.77	17.312
683.09	19.313
683.41	16.408
683.73	20.088
684.06	18.182
684.38	18.982
684.70	18.605
685.02	17.824
685.34	16.117
685.67	14.685
685.99	16.323
686.31	16.724
686.63	15.371
686.96	15.893
687.28	16.787
687.60	16.486
687.92	17.367
688.24	14.259
688.56	17.871
688.89	16.805
689.21	17.686
689.53	19.624
689.85	18.625
690.17	15.735
690.49	20.170
690.82	17.290
691.14	18.527
691.46	16.245
691.78	16.265
692.10	17.355
692.42	18.762
692.74	13.900
693.06	16.596
693.39	17.248
693.71	15.939
694.03	17.684
694.35	17.965
694.67	17.849
694.99	20.488
695.31	17.647
695.63	14.593
695.95	17.115
696.27	14.467
696.59	20.725
696.91	17.876
697.23	15.493
697.56	21.109
697.88	16.360
698.20	15.833
698.52	17.204
698.84	19.822
699.16	19.124
699.48	18.052
699.80	18.841
700.12	18.442
700.44	22.016
700.76	19.613
701.08	17.529
701.40	20.950
701.72	22.741
702.04	25.852
702.36	18.414
702.68	18.130
703.00	20.222
703.32	17.819
703.64	21.180
703.96	20.891
704.28	21.512
704.60	22.287
704.91	20.772
705.23	23.460
705.55	23.920
705.87	25.914
706.19	23.322
706.51	22.430
706.83	22.727
707.15	20.168
707.47	18.939
707.79	17.936
708.11	20.776
708.43	19.048
708.74	17.857
709.06	20.779
709.38	19.160
709.70	18.895
710.02	25.519
710.34	20.303
710.66	20.597
710.98	22.159
711.29	25.581
711.61	24.484
711.93	20.192
712.25	18.006
712.57	20.221
712.89	23.875
713.20	24.924
713.52	23.026
713.84	22.785
714.16	21.951
714.48	18.391
714.80	27.052
715.11	18.156
715.43	20.475
715.75	22.899
716.07	23.962
716.39	25.392
716.70	21.262
717.02	24.820
717.34	24.735
717.66	24.627
717.97	27.888
718.29	26.667
718.61	22.628
718.93	29.412
719.24	24.221
719.56	24.746
719.88	23.390
720.20	24.324
720.51	25.436
720.83	24.164
721.15	20.522
721.46	21.986
721.78	24.014
722.10	23.019
722.42	24.060
722.73	26.966
723.05	22.131
723.37	27.126
723.68	28.571
724.00	26.423
724.32	25.806
724.63	27.642
724.95	21.339
725.27	26.721
725.58	28.125
725.90	29.562
726.22	26.038
726.53	25.694
726.85	22.867
727.16	24.911
727.48	24.113
727.80	23.106
728.11	22.101
728.43	19.231
728.74	22.939
729.06	27.372
729.38	28.676
729.69	27.758
730.01	21.502
730.32	23.611
730.64	25.753
730.96	23.102
731.27	23.841
731.59	24.159
731.90	20.408
732.22	24.845
732.53	20.743
732.85	22.436
733.16	22.186
733.48	23.920
733.80	19.156
734.11	26.115
734.43	23.669
734.74	18.857
735.06	18.052
735.37	23.699
735.69	22.293
736.00	23.203
736.32	24.922
736.63	19.489
736.95	25.240
737.26	17.687
737.58	20.323
737.89	27.425
738.21	24.232
738.52	23.571
738.83	23.019
739.15	25.769
739.46	29.562
739.78	23.611
740.09	21.846
740.41	23.226
740.72	21.603
741.04	25.556
741.35	28.333
741.66	31.556
741.98	25.943
742.29	31.579
742.61	31.897
742.92	27.602
743.23	30.342
743.55	26.400
743.86	29.825
744.18	30.531
744.49	31.100
744.80	32.394
745.12	33.636
745.43	29.956
745.74	34.234
746.06	31.193
746.37	30.942
746.68	28.959
747.00	30.093
747.31	33.810
747.62	23.451
747.94	28.634
748.25	27.234
748.56	30.396
748.88	25.248
749.19	31.000
749.50	29.767
749.82	27.642
750.13	24.898
750.44	25.182
750.75	19.649
751.07	27.974
751.38	23.693
751.69	24.549
752.01	27.068
752.32	21.300
752.63	24.823
752.94	27.049
753.26	30.400
753.57	27.236
753.88	30.078
754.19	21.071
754.51	26.389
754.82	19.495
755.13	27.925
755.44	22.932
755.75	24.818
756.07	26.241
756.38	19.708
756.69	21.812
757.00	21.257
757.31	19.288
757.63	22.515
757.94	20.643
758.25	19.608
758.56	17.531
758.87	19.624
759.18	21.818
759.50	21.944
759.81	21.495
760.12	21.875
760.43	22.350
760.74	20.109
761.05	22.316
761.36	21.123
761.67	22.443
761.99	20.186
762.30	21.875
762.61	25.191
762.92	30.469
763.23	28.571
763.54	28.400
763.85	22.266
764.16	27.692
764.47	24.335
764.78	20.495
765.10	18.987
765.41	21.534
765.72	21.856
766.03	20.376
766.34	21.667
766.65	26.809
766.96	24.359
767.27	28.426
767.58	34.896
767.89	34.211
768.20	35.057
768.51	31.980
768.82	27.064
769.13	22.358
769.44	25.911
769.75	26.609
770.06	20.642
770.37	30.317
770.68	27.778
770.99	31.556
771.30	22.951
771.61	29.596
771.92	25.820
772.23	29.832
772.54	30.256
772.85	30.890
773.16	34.574
773.47	34.783
773.78	39.594
774.09	33.333
774.39	38.596
774.70	35.185
775.01	34.058
775.32	43.791
775.63	40.789
775.94	33.813
776.25	44.094
776.56	38.806
776.87	45.902
777.18	42.188
777.48	45.038
777.79	46.212
778.10	51.111
778.41	45.536
778.72	35.766
779.03	41.611
779.34	34.899
779.65	36.486
779.95	40.491
780.26	39.216
780.57	38.621
780.88	46.875
781.19	51.880
781.50	42.568
781.80	35.849
782.11	33.898
782.42	37.975
782.73	40.491
783.04	43.919
783.34	40.141
783.65	47.945
783.96	45.522
784.27	41.958
784.57	41.727
784.88	38.889
785.19	45.238
785.50	49.057
785.81	43.284
786.11	54.918
786.42	46.512
786.73	45.133
787.04	46.226
787.34	44.643
787.65	61.000
787.96	44.144
788.26	43.802
788.57	44.915
788.88	48.760
789.19	41.667
789.49	50.000
789.80	53.435
790.11	56.190
790.41	56.436
790.72	60.241
791.03	53.261
791.33	60.465
791.64	53.608
791.95	53.465
792.25	57.778
792.56	71.429
792.87	76.923
793.17	78.481
793.48	63.218
793.79	58.621
794.09	60.227
794.40	46.218
794.70	55.882
795.01	38.519
795.32	41.007
795.62	43.307
795.93	55.172
796.23	55.752
796.54	56.471
796.85	71.622
797.15	97.183
797.46	78.788
797.76	69.880
798.07	63.291
798.37	67.692
798.68	72.727
798.99	61.972
799.29	51.948
799.60	62.500
799.90	76.712
800.21	82.090
800.51	79.310
800.82	114.035
801.12	100.000
801.43	72.727
801.73	59.459
802.04	93.651
802.34	61.728
802.65	79.687
802.95	86.441
803.26	89.063
803.56	80.000
803.87	67.692
804.17	83.824
804.48	94.444
804.78	87.931
805.09	76.471
805.39	105.769
805.70	82.143
806.00	91.803
806.30	66.667
806.61	70.732
806.91	70.886
807.22	77.632
807.52	55.224
807.83	88.732
808.13	87.500
808.43	78.333
808.74	67.105
809.04	72.464
809.35	76.119
809.65	80.263
809.95	101.613
810.26	79.661
810.56	80.952
810.86	145.455
811.17	111.905
811.47	93.333
811.77	107.407
812.08	96.364
812.38	106.000
812.69	91.667
812.99	113.636
813.29	102.041
813.59	97.619
813.90	106.122
814.20	89.091
814.50	84.615
814.81	86.765
815.11	130.612
815.41	106.557
815.72	111.905
816.02	107.273
816.32	121.429
816.62	120.000
816.93	134.146
817.23	119.048
817.53	113.636
817.84	145.455
818.14	117.391
818.44	122.222
818.74	117.647
819.04	127.500
819.35	117.143
819.65	138.235
819.95	189.286
820.25	180.000
820.56	117.949
820.86	125.000
821.16	144.186
821.46	107.692
821.76	104.000
822.07	140.000
822.37	125.000
822.67	154.545
822.97	109.804
823.27	167.857
823.57	113.514
823.88	165.000
824.18	160.000
824.48	126.190
824.78	180.000
825.08	112.500
825.38	145.946
825.69	112.195
825.99	195.833
826.29	158.621
826.59	155.263
826.89	123.684
827.19	147.059
827.49	158.065
827.79	129.545
828.09	129.545
828.39	106.383
828.70	126.531
829.00	92.593
829.30	161.290
829.60	135.000
829.90	240.000
830.20	175.000
830.50	160.870
830.80	200.000
831.10	193.333
831.40	160.000
831.70	191.304
832.00	165.385
832.30	185.185
832.60	237.500
832.90	193.333
833.20	335.714
833.50	174.194
833.80	158.621
834.10	181.250
834.40	219.231
834.70	238.889
835.00	280.952
835.30	145.714
835.60	253.846
835.90	210.345
836.20	371.429
836.50	158.621
836.80	176.000
837.10	161.111
837.40	276.190
837.70	252.941
838.00	200.000
838.30	228.571
838.60	242.857
838.90	203.846
839.19	230.000
839.49	328.571
839.79	290.000
840.09	270.000
840.39	233.333
840.69	243.478
840.99	283.333
841.29	490.000
841.59	208.333
841.88	262.500
842.18	168.966
842.48	276.190
842.78	160.000
843.08	234.783
843.38	175.000
843.68	816.667
843.97	192.308
844.27	206.897
844.57	285.714
844.87	325.000
845.17	159.259
845.47	1500.000
845.76	377.778
846.06	282.353
846.36	500.000
846.66	335.714
846.96	287.500
847.25	418.182
847.55	363.636
847.85	291.304
848.15	430.000
848.44	350.000
848.74	227.778
849.04	270.588
849.34	440.000
849.63	252.632
849.93	427.273
850.23	880.000
850.53	392.857
850.82	1600.000
851.12	-4100.000
851.42	3400.000
851.71	250.000
852.01	-1300.000
852.31	216.667
852.61	1366.667
852.90	247.619
853.20	216.000
853.50	317.647
853.79	247.619
854.09	195.833
854.39	268.750
854.68	191.892
854.98	161.290
855.28	166.667
855.57	203.448
855.87	225.926
856.17	226.316
856.46	286.667
856.76	247.059
857.05	227.586
857.35	200.000
857.65	340.000
857.94	243.478
858.24	253.846
858.53	300.000
858.83	268.182
859.13	293.333
859.42	0.000
859.72	544.444
860.01	481.818
860.31	254.545
860.60	257.895
860.90	213.043
861.20	400.000
861.49	458.333
861.79	-4700.000
862.08	612.500
862.38	204.762
862.67	346.154
862.97	347.059
863.26	544.444
863.56	233.333
863.85	316.667
864.15	562.500
864.44	360.000
864.74	766.667
865.03	537.500
865.33	294.737
865.62	390.909
865.92	430.769
866.21	325.000
866.51	0.000
866.80	354.545
867.10	920.000
867.39	361.538
867.69	445.455
867.98	273.684
868.27	527.273
868.57	252.632
868.86	-4000.000
869.16	325.000
869.45	2350.000
869.75	-3200.000
870.04	408.333
870.33	671.429
870.63	1050.000
870.92	2450.000
871.22	771.429
871.51	335.294
871.80	238.095
872.10	350.000
>>>>>End Processed Spectral Data<<<<<
