SpectraSuite Data File
++++++++++++++++++++++++++++++++++++
Date: Tue May 12 19:42:19 PDT 2015
User: schluterlab
Dark Spectrum Present: Yes
Reference Spectrum Present: Yes
Number of Sampled Component Spectra: 1
Spectrometers: USB2E3373
Integration Time (usec): 3000 (USB2E3373)
Spectra Averaged: 3 (USB2E3373)
Boxcar Smoothing: 0 (USB2E3373)
Correct for Electrical Dark: No (USB2E3373)
Strobe/Lamp Enabled: No (USB2E3373)
Correct for Detector Non-linearity: No (USB2E3373)
Correct for Stray Light: No (USB2E3373)
Number of Pixels in Processed Spectrum: 2048
>>>>>Begin Processed Spectral Data<<<<<
178.53	0.000
178.91	80.000
179.29	-50.000
179.67	200.000
180.04	0.000
180.42	-40.000
180.80	-366.667
181.18	550.000
181.56	-400.000
181.94	216.667
182.31	2200.000
182.69	-42.857
183.07	0.000
183.45	191.667
183.83	260.000
184.20	300.000
184.58	350.000
184.96	166.667
185.34	-133.333
185.72	-28.571
186.09	-316.667
186.47	-1700.000
186.85	-120.000
187.23	150.000
187.61	42.857
187.98	-200.000
188.36	200.000
188.74	75.000
189.12	-88.889
189.49	-40.000
189.87	300.000
190.25	133.333
190.63	100.000
191.00	280.000
191.38	0.000
191.76	120.000
192.14	-71.429
192.51	60.000
192.89	160.000
193.27	120.000
193.65	-466.667
194.02	-250.000
194.40	-0.000
194.78	-75.000
195.15	-142.857
195.53	233.333
195.91	160.000
196.29	-375.000
196.66	-333.333
197.04	-157.143
197.42	-20.000
197.79	-112.500
198.17	-16.667
198.55	-100.000
198.92	-11.111
199.30	200.000
199.68	100.000
200.05	-450.000
200.43	-27.778
200.81	-50.000
201.18	350.000
201.56	-450.000
201.94	-400.000
202.31	-50.000
202.69	-22.222
203.07	-75.000
203.44	-350.000
203.82	0.000
204.19	237.500
204.57	-300.000
204.95	145.455
205.32	100.000
205.70	100.000
206.08	-500.000
206.45	-140.000
206.83	1700.000
207.20	-77.778
207.58	30.769
207.96	166.667
208.33	900.000
208.71	533.333
209.08	200.000
209.46	11.111
209.84	466.667
210.21	-466.667
210.59	700.000
210.96	211.111
211.34	-125.000
211.71	850.000
212.09	180.000
212.46	-125.000
212.84	-162.500
213.22	71.429
213.59	-75.000
213.97	0.000
214.34	-100.000
214.72	200.000
215.09	700.000
215.47	26.667
215.84	-87.500
216.22	-1100.000
216.59	1500.000
216.97	0.000
217.34	-83.333
217.72	22.222
218.09	500.000
218.47	-42.105
218.84	-175.000
219.22	-57.143
219.59	-60.000
219.97	-30.000
220.34	-0.000
220.72	-0.000
221.09	-700.000
221.47	0.000
221.84	600.000
222.22	-25.000
222.59	-325.000
222.97	17.391
223.34	113.333
223.72	357.143
224.09	-83.333
224.46	130.769
224.84	-6.667
225.21	-150.000
225.59	-350.000
225.96	25.000
226.34	316.667
226.71	130.000
227.08	-76.923
227.46	-85.714
227.83	0.000
228.21	-650.000
228.58	200.000
228.95	-21.053
229.33	-6.250
229.70	-200.000
230.08	-100.000
230.45	-400.000
230.82	-400.000
231.20	14.286
231.57	-420.000
231.95	-233.333
232.32	177.778
232.69	-600.000
233.07	-18.750
233.44	0.000
233.81	29.032
234.19	-60.000
234.56	-22.222
234.93	-100.000
235.31	29.630
235.68	0.000
236.05	19.231
236.43	-5.263
236.80	-27.273
237.17	-85.714
237.55	5.000
237.92	32.558
238.29	-3.226
238.67	21.429
239.04	28.571
239.41	13.725
239.79	14.000
240.16	0.000
240.53	8.621
240.91	21.918
241.28	12.676
241.65	26.562
242.02	-3.509
242.40	17.333
242.77	21.053
243.14	17.647
243.51	18.280
243.89	5.714
244.26	25.000
244.63	32.653
245.00	6.250
245.38	2.521
245.75	11.017
246.12	24.219
246.49	27.200
246.87	27.869
247.24	14.085
247.61	17.881
247.98	21.910
248.36	25.786
248.73	23.864
249.10	18.333
249.47	23.958
249.84	20.812
250.22	10.417
250.59	16.854
250.96	18.182
251.33	28.774
251.70	22.936
252.08	23.377
252.45	16.327
252.82	20.675
253.19	22.179
253.56	29.412
253.94	22.764
254.31	26.978
254.68	21.875
255.05	25.497
255.42	19.636
255.79	26.821
256.16	23.958
256.54	22.121
256.91	25.321
257.28	23.052
257.65	18.033
258.02	23.724
258.39	26.888
258.76	22.324
259.14	20.882
259.51	25.070
259.88	25.648
260.25	21.591
260.62	20.225
260.99	23.398
261.36	20.977
261.73	25.067
262.10	24.523
262.47	26.171
262.85	22.108
263.22	22.581
263.59	21.716
263.96	22.977
264.33	20.485
264.70	25.307
265.07	22.906
265.44	20.843
265.81	30.602
266.18	22.951
266.55	25.476
266.92	25.670
267.29	22.667
267.66	19.773
268.03	25.806
268.40	23.341
268.77	24.722
269.14	23.739
269.51	24.434
269.88	26.068
270.25	21.308
270.62	25.630
270.99	22.105
271.36	24.062
271.73	20.417
272.10	24.481
272.47	22.600
272.84	22.930
273.21	20.668
273.58	20.408
273.95	20.120
274.32	23.598
274.69	25.440
275.06	23.265
275.43	20.600
275.80	23.709
276.17	21.146
276.54	23.574
276.91	24.184
277.28	23.791
277.65	20.983
278.02	23.295
278.39	21.960
278.76	22.905
279.13	22.361
279.50	23.646
279.87	23.019
280.23	26.412
280.60	19.965
280.97	23.023
281.34	20.847
281.71	21.314
282.08	23.077
282.45	22.222
282.82	20.875
283.19	22.054
283.56	24.061
283.92	23.381
284.29	22.166
284.66	21.416
285.03	19.554
285.40	23.833
285.77	22.496
286.14	20.444
286.51	21.383
286.87	20.259
287.24	19.712
287.61	20.062
287.98	23.944
288.35	22.326
288.72	21.101
289.08	19.654
289.45	20.749
289.82	19.255
290.19	20.303
290.56	19.247
290.93	20.532
291.29	20.142
291.66	19.803
292.03	21.234
292.40	21.295
292.77	19.971
293.13	19.677
293.50	18.457
293.87	18.031
294.24	18.539
294.60	20.082
294.97	16.759
295.34	18.904
295.71	17.892
296.08	17.760
296.44	19.499
296.81	18.111
297.18	18.629
297.55	16.080
297.91	17.766
298.28	17.647
298.65	17.076
299.02	19.482
299.38	17.092
299.75	16.345
300.12	17.146
300.48	17.371
300.85	16.504
301.22	15.986
301.59	16.788
301.95	18.171
302.32	16.646
302.69	15.220
303.05	17.119
303.42	17.029
303.79	16.292
304.15	17.894
304.52	16.313
304.89	16.234
305.25	16.972
305.62	15.909
305.99	15.230
306.35	15.660
306.72	15.795
307.09	15.887
307.45	16.397
307.82	17.076
308.19	16.942
308.55	16.350
308.92	16.102
309.29	17.573
309.65	16.615
310.02	15.304
310.38	16.525
310.75	15.676
311.12	16.277
311.48	17.677
311.85	17.325
312.22	15.702
312.58	15.206
312.95	16.119
313.31	15.733
313.68	15.690
314.05	17.378
314.41	16.110
314.78	15.276
315.14	16.748
315.51	15.988
315.87	16.895
316.24	16.419
316.61	16.019
316.97	16.078
317.34	16.172
317.70	15.313
318.07	15.333
318.43	15.974
318.80	16.758
319.16	15.843
319.53	15.849
319.89	15.625
320.26	16.224
320.62	16.957
320.99	16.735
321.35	16.700
321.72	17.273
322.08	16.436
322.45	16.075
322.81	16.355
323.18	16.587
323.54	16.493
323.91	16.224
324.27	14.368
324.64	16.120
325.00	16.561
325.37	16.457
325.73	15.511
326.10	15.587
326.46	16.682
326.83	16.623
327.19	15.546
327.56	17.772
327.92	14.497
328.29	15.591
328.65	16.102
329.01	15.505
329.38	15.611
329.74	15.599
330.11	15.377
330.47	15.922
330.84	13.722
331.20	15.342
331.56	14.811
331.93	16.011
332.29	14.986
332.66	15.642
333.02	14.856
333.38	17.188
333.75	15.554
334.11	14.919
334.48	15.474
334.84	15.587
335.20	14.772
335.57	15.985
335.93	14.605
336.29	15.539
336.66	15.301
337.02	15.050
337.38	15.094
337.75	17.000
338.11	15.770
338.47	15.320
338.84	15.193
339.20	15.765
339.56	15.564
339.93	15.045
340.29	16.047
340.65	15.799
341.02	15.146
341.38	14.916
341.74	16.103
342.11	15.208
342.47	15.385
342.83	14.224
343.20	14.589
343.56	14.773
343.92	15.398
344.28	14.151
344.65	15.240
345.01	13.937
345.37	15.043
345.73	14.729
346.10	15.644
346.46	13.632
346.82	14.613
347.19	15.307
347.55	14.881
347.91	13.268
348.27	14.238
348.63	14.434
349.00	15.109
349.36	15.416
349.72	15.353
350.08	14.975
350.45	14.565
350.81	14.038
351.17	14.415
351.53	15.378
351.89	13.212
352.26	14.878
352.62	14.636
352.98	14.895
353.34	14.202
353.70	14.074
354.07	13.921
354.43	13.189
354.79	14.016
355.15	13.559
355.51	14.507
355.87	14.405
356.24	15.196
356.60	13.523
356.96	14.376
357.32	15.967
357.68	15.036
358.04	13.614
358.40	15.057
358.77	14.538
359.13	13.735
359.49	14.400
359.85	13.749
360.21	14.036
360.57	14.354
360.93	14.252
361.29	14.019
361.66	12.697
362.02	14.207
362.38	14.297
362.74	13.759
363.10	14.857
363.46	14.372
363.82	13.859
364.18	14.383
364.54	13.664
364.90	12.889
365.26	14.456
365.62	13.702
365.98	14.693
366.35	14.070
366.71	15.310
367.07	14.760
367.43	13.285
367.79	13.081
368.15	14.381
368.51	13.408
368.87	14.464
369.23	14.610
369.59	14.265
369.95	14.232
370.31	14.394
370.67	14.511
371.03	14.861
371.39	14.577
371.75	14.413
372.11	13.852
372.47	13.512
372.83	14.317
373.19	13.931
373.55	13.548
373.91	14.091
374.27	15.011
374.63	13.991
374.99	13.250
375.35	14.006
375.71	14.132
376.07	13.498
376.42	13.416
376.78	13.937
377.14	14.036
377.50	13.680
377.86	13.510
378.22	13.672
378.58	14.408
378.94	14.735
379.30	13.127
379.66	14.213
380.02	14.050
380.38	13.677
380.74	14.667
381.09	14.104
381.45	13.841
381.81	14.031
382.17	14.593
382.53	14.793
382.89	13.727
383.25	14.394
383.61	13.350
383.97	14.360
384.32	14.194
384.68	14.879
385.04	13.240
385.40	13.738
385.76	13.789
386.12	14.257
386.48	13.764
386.83	13.496
387.19	13.921
387.55	13.277
387.91	13.707
388.27	13.116
388.62	13.212
388.98	14.885
389.34	13.273
389.70	13.846
390.06	13.795
390.42	13.590
390.77	13.749
391.13	13.338
391.49	14.690
391.85	13.639
392.20	13.729
392.56	13.294
392.92	13.296
393.28	14.423
393.64	13.680
393.99	13.377
394.35	13.433
394.71	12.914
395.07	13.727
395.42	13.968
395.78	13.038
396.14	13.058
396.50	14.360
396.85	13.417
397.21	13.713
397.57	13.825
397.92	13.359
398.28	13.789
398.64	13.206
399.00	14.335
399.35	13.423
399.71	13.353
400.07	14.268
400.42	14.038
400.78	13.564
401.14	14.015
401.49	14.054
401.85	14.222
402.21	13.959
402.57	13.329
402.92	14.210
403.28	13.654
403.63	13.974
403.99	14.069
404.35	12.930
404.70	13.426
405.06	13.825
405.42	13.858
405.77	13.615
406.13	14.456
406.49	13.312
406.84	14.570
407.20	13.197
407.55	13.293
407.91	13.287
408.27	13.564
408.62	13.633
408.98	14.607
409.34	14.213
409.69	13.378
410.05	13.925
410.40	12.075
410.76	14.072
411.11	14.221
411.47	13.537
411.83	13.780
412.18	13.940
412.54	14.295
412.89	14.054
413.25	13.480
413.60	14.158
413.96	13.269
414.31	13.576
414.67	13.504
415.03	13.831
415.38	13.997
415.74	13.969
416.09	14.197
416.45	13.730
416.80	12.935
417.16	13.752
417.51	14.087
417.87	14.979
418.22	13.703
418.58	13.269
418.93	14.120
419.29	14.043
419.64	14.148
420.00	13.949
420.35	14.689
420.71	13.956
421.06	14.471
421.42	14.304
421.77	13.581
422.12	12.877
422.48	13.878
422.83	13.313
423.19	14.765
423.54	14.050
423.90	13.844
424.25	14.985
424.61	13.871
424.96	14.312
425.31	14.010
425.67	14.667
426.02	13.540
426.38	12.870
426.73	14.206
427.09	13.657
427.44	13.951
427.79	15.470
428.15	14.014
428.50	14.008
428.85	14.368
429.21	14.286
429.56	14.144
429.92	14.224
430.27	13.600
430.62	14.224
430.98	13.756
431.33	14.238
431.68	14.442
432.04	14.845
432.39	13.963
432.74	14.295
433.10	15.100
433.45	14.376
433.80	14.762
434.16	14.902
434.51	14.381
434.86	13.414
435.22	14.028
435.57	14.842
435.92	13.560
436.28	14.072
436.63	14.371
436.98	14.012
437.34	14.267
437.69	14.012
438.04	14.002
438.39	14.034
438.75	13.846
439.10	14.583
439.45	13.479
439.81	14.095
440.16	14.966
440.51	13.073
440.86	14.457
441.22	13.996
441.57	13.105
441.92	14.301
442.27	14.629
442.63	14.052
442.98	14.976
443.33	14.571
443.68	13.810
444.03	13.866
444.39	13.639
444.74	14.482
445.09	14.168
445.44	13.353
445.79	15.318
446.15	14.402
446.50	14.286
446.85	14.686
447.20	14.223
447.55	14.427
447.91	14.286
448.26	13.650
448.61	14.441
448.96	14.311
449.31	14.286
449.66	14.165
450.02	14.556
450.37	15.310
450.72	14.901
451.07	15.227
451.42	14.625
451.77	13.871
452.12	14.662
452.47	14.431
452.83	14.508
453.18	14.922
453.53	14.696
453.88	15.252
454.23	14.377
454.58	15.796
454.93	14.578
455.28	14.800
455.63	15.335
455.98	14.467
456.34	14.200
456.69	14.218
457.04	14.764
457.39	15.169
457.74	14.539
458.09	13.877
458.44	15.144
458.79	14.311
459.14	14.908
459.49	15.287
459.84	14.804
460.19	14.947
460.54	14.268
460.89	14.353
461.24	15.000
461.59	14.953
461.94	15.187
462.29	14.787
462.64	15.181
462.99	14.576
463.34	14.652
463.69	15.844
464.04	15.010
464.39	14.920
464.74	15.055
465.09	15.884
465.44	15.057
465.79	14.501
466.14	14.439
466.49	15.051
466.84	15.172
467.19	14.815
467.54	15.385
467.89	14.958
468.24	14.962
468.59	14.921
468.94	15.602
469.29	15.709
469.64	15.244
469.99	15.501
470.34	14.498
470.68	15.308
471.03	15.182
471.38	14.959
471.73	15.625
472.08	16.299
472.43	15.353
472.78	14.576
473.13	16.491
473.48	14.938
473.83	15.125
474.17	14.877
474.52	16.477
474.87	15.909
475.22	15.121
475.57	15.805
475.92	14.440
476.27	15.431
476.61	16.135
476.96	15.293
477.31	15.868
477.66	15.456
478.01	15.656
478.36	15.587
478.70	15.775
479.05	15.032
479.40	14.815
479.75	15.311
480.10	15.368
480.45	15.393
480.79	15.413
481.14	15.551
481.49	15.064
481.84	15.101
482.19	14.878
482.53	14.902
482.88	15.709
483.23	15.980
483.58	15.446
483.92	14.673
484.27	15.537
484.62	15.747
484.97	15.510
485.31	15.043
485.66	14.349
486.01	13.853
486.36	14.326
486.70	14.357
487.05	14.714
487.40	14.891
487.75	14.858
488.09	14.693
488.44	15.205
488.79	15.329
489.13	15.337
489.48	15.194
489.83	15.858
490.17	15.846
490.52	15.631
490.87	15.826
491.22	16.321
491.56	16.008
491.91	15.813
492.26	16.573
492.60	16.633
492.95	16.068
493.30	16.466
493.64	16.531
493.99	16.273
494.34	17.131
494.68	16.204
495.03	15.517
495.37	15.661
495.72	16.297
496.07	16.075
496.41	15.761
496.76	15.759
497.11	15.903
497.45	16.675
497.80	16.926
498.14	16.262
498.49	16.604
498.84	16.143
499.18	16.295
499.53	16.199
499.87	16.692
500.22	16.468
500.56	16.850
500.91	16.728
501.26	16.588
501.60	16.769
501.95	16.018
502.29	16.521
502.64	16.227
502.98	16.507
503.33	15.976
503.67	16.641
504.02	16.599
504.36	16.025
504.71	16.809
505.06	16.765
505.40	17.265
505.75	15.903
506.09	16.360
506.44	16.685
506.78	16.435
507.13	16.830
507.47	16.620
507.82	16.908
508.16	15.980
508.51	17.670
508.85	16.978
509.19	16.950
509.54	16.997
509.88	17.146
510.23	16.966
510.57	16.468
510.92	16.667
511.26	16.600
511.61	17.237
511.95	16.831
512.30	17.449
512.64	17.126
512.98	17.484
513.33	16.061
513.67	16.048
514.02	17.127
514.36	17.972
514.70	17.911
515.05	17.439
515.39	17.942
515.74	18.609
516.08	17.012
516.42	17.837
516.77	17.950
517.11	18.532
517.46	17.614
517.80	17.996
518.14	18.722
518.49	18.111
518.83	18.547
519.17	17.802
519.52	18.051
519.86	19.759
520.20	18.280
520.55	17.428
520.89	18.556
521.23	17.902
521.58	19.114
521.92	17.891
522.26	18.144
522.61	18.703
522.95	18.425
523.29	18.556
523.64	18.385
523.98	17.742
524.32	18.384
524.66	18.695
525.01	18.625
525.35	18.605
525.69	19.270
526.04	19.309
526.38	18.232
526.72	18.750
527.06	18.565
527.41	18.781
527.75	19.598
528.09	19.024
528.43	18.781
528.78	18.588
529.12	18.630
529.46	17.674
529.80	18.108
530.15	18.555
530.49	19.317
530.83	17.570
531.17	18.220
531.51	18.487
531.86	19.328
532.20	18.470
532.54	18.993
532.88	17.745
533.22	19.612
533.57	18.414
533.91	19.133
534.25	17.787
534.59	18.707
534.93	17.931
535.27	17.912
535.62	19.716
535.96	18.842
536.30	18.650
536.64	18.097
536.98	19.100
537.32	19.122
537.66	18.988
538.01	19.293
538.35	18.545
538.69	18.047
539.03	18.673
539.37	18.306
539.71	19.058
540.05	18.669
540.39	18.373
540.73	19.121
541.07	18.456
541.42	18.460
541.76	18.417
542.10	17.719
542.44	18.931
542.78	17.375
543.12	17.906
543.46	18.033
543.80	17.155
544.14	18.638
544.48	17.263
544.82	17.104
545.16	18.043
545.50	18.486
545.84	19.532
546.18	18.352
546.52	18.678
546.86	18.592
547.20	18.712
547.54	18.120
547.88	18.020
548.22	17.370
548.56	19.168
548.90	18.526
549.24	19.079
549.58	19.598
549.92	19.624
550.26	18.610
550.60	19.112
550.94	19.683
551.28	19.593
551.62	18.919
551.96	18.930
552.30	18.837
552.64	18.107
552.98	18.871
553.32	18.333
553.66	19.196
554.00	18.919
554.34	19.844
554.68	18.820
555.02	18.175
555.36	18.666
555.69	17.218
556.03	19.438
556.37	18.980
556.71	19.080
557.05	18.203
557.39	18.474
557.73	18.632
558.07	18.545
558.41	18.196
558.75	18.589
559.08	18.383
559.42	19.482
559.76	18.871
560.10	18.989
560.44	18.290
560.78	18.933
561.12	19.534
561.45	18.304
561.79	17.254
562.13	19.348
562.47	18.578
562.81	17.817
563.15	17.643
563.48	17.453
563.82	18.413
564.16	17.126
564.50	17.479
564.84	18.285
565.17	19.027
565.51	19.001
565.85	18.873
566.19	18.789
566.52	18.853
566.86	18.443
567.20	17.299
567.54	17.741
567.88	17.112
568.21	17.409
568.55	17.317
568.89	16.703
569.23	16.968
569.56	16.598
569.90	16.488
570.24	16.548
570.57	16.554
570.91	16.485
571.25	15.944
571.59	16.000
571.92	15.845
572.26	15.674
572.60	15.555
572.93	15.815
573.27	15.477
573.61	15.754
573.95	15.332
574.28	14.648
574.62	15.206
574.96	14.785
575.29	14.972
575.63	14.999
575.97	15.170
576.30	15.703
576.64	15.022
576.98	15.071
577.31	15.113
577.65	14.642
577.98	15.056
578.32	14.932
578.66	14.509
578.99	15.307
579.33	15.035
579.67	15.154
580.00	15.057
580.34	15.125
580.67	15.132
581.01	14.670
581.35	14.565
581.68	14.218
582.02	14.394
582.35	14.550
582.69	14.605
583.02	14.502
583.36	14.774
583.70	15.115
584.03	14.997
584.37	15.758
584.70	14.723
585.04	14.536
585.37	14.388
585.71	14.904
586.04	15.148
586.38	14.819
586.72	15.308
587.05	15.084
587.39	15.446
587.72	15.449
588.06	15.139
588.39	15.308
588.73	15.053
589.06	15.519
589.40	15.945
589.73	15.744
590.07	15.370
590.40	15.856
590.73	15.993
591.07	16.234
591.40	16.080
591.74	16.091
592.07	16.094
592.41	16.307
592.74	15.552
593.08	15.740
593.41	15.050
593.75	15.740
594.08	15.588
594.41	16.014
594.75	16.014
595.08	16.011
595.42	15.772
595.75	15.644
596.09	15.292
596.42	15.645
596.75	16.727
597.09	15.578
597.42	16.002
597.75	17.120
598.09	16.713
598.42	15.902
598.76	16.211
599.09	15.504
599.42	15.657
599.76	15.379
600.09	15.777
600.42	14.648
600.76	15.473
601.09	15.647
601.42	15.258
601.76	15.869
602.09	15.417
602.42	16.457
602.76	16.056
603.09	15.753
603.42	16.141
603.76	15.443
604.09	16.082
604.42	16.187
604.76	15.472
605.09	15.730
605.42	15.829
605.75	15.715
606.09	16.978
606.42	15.879
606.75	15.719
607.09	16.418
607.42	16.430
607.75	16.162
608.08	16.511
608.42	15.761
608.75	15.908
609.08	15.346
609.41	16.641
609.75	16.693
610.08	16.021
610.41	15.420
610.74	16.229
611.07	16.288
611.41	16.274
611.74	16.431
612.07	16.016
612.40	17.103
612.73	16.204
613.07	16.559
613.40	16.274
613.73	16.667
614.06	16.042
614.39	16.286
614.72	16.470
615.06	17.107
615.39	17.436
615.72	16.517
616.05	15.884
616.38	16.726
616.71	16.169
617.05	16.394
617.38	17.355
617.71	16.525
618.04	18.397
618.37	16.547
618.70	16.848
619.03	16.679
619.36	17.378
619.69	16.719
620.03	17.239
620.36	17.989
620.69	16.999
621.02	18.131
621.35	18.553
621.68	17.912
622.01	17.291
622.34	18.090
622.67	17.285
623.00	18.018
623.33	17.323
623.66	18.167
623.99	17.624
624.32	17.236
624.65	16.953
624.99	16.797
625.32	16.430
625.65	17.614
625.98	19.250
626.31	17.489
626.64	17.748
626.97	18.842
627.30	18.333
627.63	17.767
627.96	18.715
628.29	19.120
628.62	19.072
628.95	18.902
629.28	18.802
629.61	20.376
629.94	19.295
630.26	19.665
630.59	20.314
630.92	19.494
631.25	19.330
631.58	20.465
631.91	21.185
632.24	19.882
632.57	21.641
632.90	21.402
633.23	19.742
633.56	20.252
633.89	21.240
634.22	21.795
634.55	19.185
634.88	19.946
635.20	22.329
635.53	21.927
635.86	21.060
636.19	19.645
636.52	21.563
636.85	18.644
637.18	20.855
637.51	21.545
637.83	22.207
638.16	21.479
638.49	21.758
638.82	19.972
639.15	20.571
639.48	19.942
639.81	20.119
640.13	21.286
640.46	19.528
640.79	20.155
641.12	22.326
641.45	20.218
641.77	19.904
642.10	22.476
642.43	23.401
642.76	22.043
643.09	21.280
643.41	19.355
643.74	21.181
644.07	19.224
644.40	22.383
644.73	22.099
645.05	23.473
645.38	21.923
645.71	22.901
646.04	22.119
646.36	22.159
646.69	24.758
647.02	24.219
647.35	25.000
647.67	25.451
648.00	24.854
648.33	23.121
648.66	22.449
648.98	19.153
649.31	20.998
649.64	20.138
649.96	19.426
650.29	19.823
650.62	21.336
650.94	23.475
651.27	20.231
651.60	21.415
651.92	20.229
652.25	17.973
652.58	19.569
652.90	19.573
653.23	20.841
653.56	22.049
653.88	20.255
654.21	20.605
654.54	20.450
654.86	22.482
655.19	18.548
655.52	18.263
655.84	14.567
656.17	13.888
656.49	18.745
656.82	21.714
657.15	16.880
657.47	13.256
657.80	10.126
658.13	8.314
658.45	14.051
658.78	13.762
659.10	14.009
659.43	13.522
659.75	13.071
660.08	14.744
660.41	14.314
660.73	15.235
661.06	19.455
661.38	21.774
661.71	20.350
662.03	21.296
662.36	22.196
662.68	22.542
663.01	21.154
663.33	23.585
663.66	24.402
663.98	23.227
664.31	23.171
664.63	20.642
664.96	22.328
665.28	22.459
665.61	24.065
665.93	22.581
666.26	20.971
666.58	22.706
666.91	24.122
667.23	21.429
667.56	26.173
667.88	21.053
668.21	24.619
668.53	23.096
668.86	20.663
669.18	19.289
669.50	22.622
669.83	20.500
670.15	20.500
670.48	21.805
670.80	24.365
671.13	20.241
671.45	20.918
671.77	22.464
672.10	17.363
672.42	21.315
672.75	18.252
673.07	18.879
673.39	19.650
673.72	19.835
674.04	20.638
674.37	23.326
674.69	20.327
675.01	23.023
675.34	18.137
675.66	20.000
675.98	20.202
676.31	22.922
676.63	20.361
676.95	18.705
677.28	20.297
677.60	24.060
677.92	21.554
678.25	20.418
678.57	19.722
678.89	20.183
679.22	19.954
679.54	20.267
679.86	23.555
680.18	20.502
680.51	21.971
680.83	20.625
681.15	21.351
681.48	22.128
681.80	19.565
682.12	21.413
682.44	19.612
682.77	22.955
683.09	20.098
683.41	20.301
683.73	20.854
684.06	19.797
684.38	21.583
684.70	21.709
685.02	20.346
685.34	17.992
685.67	16.996
685.99	17.365
686.31	22.388
686.63	18.252
686.96	18.699
687.28	18.275
687.60	20.945
687.92	18.987
688.24	18.947
688.56	20.879
688.89	22.603
689.21	15.581
689.53	20.972
689.85	22.532
690.17	19.118
690.49	21.647
690.82	21.130
691.14	21.149
691.46	20.000
691.78	18.182
692.10	21.330
692.42	18.349
692.74	20.616
693.06	20.482
693.39	21.675
693.71	19.767
694.03	18.357
694.35	18.812
694.67	19.847
694.99	20.485
695.31	20.397
695.63	21.622
695.95	20.506
696.27	21.246
696.59	19.288
696.91	23.077
697.23	22.636
697.56	17.098
697.88	16.862
698.20	18.160
698.52	19.952
698.84	19.799
699.16	16.887
699.48	20.419
699.80	19.231
700.12	20.937
700.44	16.519
700.76	21.136
701.08	21.587
701.40	25.329
701.72	24.000
702.04	20.068
702.36	23.607
702.68	21.812
703.00	25.237
703.32	18.563
703.64	21.451
703.96	21.203
704.28	17.254
704.60	22.945
704.91	19.408
705.23	19.649
705.55	21.561
705.87	19.065
706.19	21.912
706.51	18.359
706.83	16.484
707.15	20.000
707.47	20.060
707.79	16.905
708.11	18.519
708.43	21.067
708.74	21.311
709.06	20.859
709.38	16.320
709.70	22.403
710.02	19.580
710.34	18.440
710.66	21.348
710.98	20.979
711.29	24.399
711.61	19.504
711.93	19.476
712.25	21.132
712.57	23.047
712.89	24.898
713.20	16.935
713.52	14.634
713.84	18.248
714.16	21.959
714.48	18.771
714.80	20.539
715.11	21.306
715.43	20.137
715.75	23.509
716.07	20.364
716.39	18.430
716.70	20.800
717.02	16.532
717.34	22.511
717.66	21.364
717.97	17.130
718.29	23.556
718.61	18.018
718.93	15.546
719.24	17.992
719.56	18.750
719.88	18.039
720.20	17.521
720.51	22.807
720.83	22.594
721.15	21.224
721.46	18.565
721.78	15.152
722.10	24.419
722.42	20.435
722.73	16.290
723.05	21.659
723.37	19.005
723.68	20.853
724.00	18.981
724.32	26.168
724.63	20.814
724.95	16.895
725.27	20.188
725.58	17.808
725.90	10.360
726.22	17.031
726.53	18.852
726.85	15.926
727.16	16.194
727.48	22.177
727.80	15.068
728.11	20.444
728.43	19.342
728.74	16.667
729.06	22.707
729.38	25.581
729.69	17.600
730.01	16.736
730.32	17.131
730.64	21.923
730.96	15.830
731.27	17.375
731.59	17.172
731.90	16.447
732.22	19.601
732.53	10.175
732.85	15.845
733.16	19.780
733.48	13.433
733.80	13.455
734.11	18.440
734.43	15.523
734.74	16.511
735.06	16.399
735.37	12.141
735.69	15.493
736.00	15.556
736.32	18.531
736.63	17.778
736.95	18.288
737.26	22.826
737.58	17.153
737.89	15.849
738.21	18.321
738.52	23.770
738.83	19.658
739.15	15.909
739.46	20.270
739.78	16.988
740.09	16.667
740.41	17.045
740.72	18.725
741.04	16.601
741.35	16.143
741.66	18.817
741.98	16.327
742.29	25.907
742.61	20.809
742.92	18.137
743.23	16.418
743.55	20.207
743.86	17.391
744.18	14.500
744.49	15.000
744.80	17.742
745.12	23.077
745.43	19.786
745.74	10.160
746.06	20.690
746.37	18.889
746.68	18.919
747.00	13.812
747.31	20.419
747.62	23.684
747.94	21.226
748.25	27.094
748.56	18.687
748.88	16.393
749.19	21.762
749.50	13.529
749.82	18.500
750.13	20.388
750.44	14.163
750.75	18.400
751.07	13.808
751.38	19.922
751.69	16.270
752.01	15.966
752.32	18.595
752.63	16.157
752.94	11.600
753.26	12.329
753.57	17.536
753.88	15.814
754.19	15.859
754.51	16.736
754.82	14.583
755.13	13.274
755.44	22.078
755.75	19.277
756.07	15.451
756.38	16.318
756.69	17.736
757.00	15.603
757.31	17.993
757.63	15.359
757.94	13.636
758.25	16.667
758.56	12.973
758.87	13.393
759.18	19.003
759.50	13.523
759.81	16.602
760.12	17.082
760.43	17.276
760.74	17.365
761.05	16.667
761.36	21.662
761.67	15.198
761.99	15.050
762.30	19.273
762.61	19.512
762.92	15.556
763.23	17.209
763.54	21.320
763.85	17.647
764.16	15.217
764.47	18.696
764.78	18.952
765.10	10.630
765.41	16.722
765.72	14.381
766.03	16.722
766.34	16.288
766.65	14.844
766.96	19.111
767.27	20.112
767.58	16.352
767.89	13.636
768.20	12.838
768.51	17.816
768.82	15.000
769.13	18.056
769.44	14.151
769.75	15.196
770.06	12.136
770.37	17.553
770.68	13.846
770.99	17.766
771.30	17.010
771.61	14.350
771.92	16.509
772.23	14.423
772.54	13.529
772.85	10.959
773.16	9.677
773.47	18.471
773.78	20.359
774.09	11.842
774.39	9.559
774.70	14.286
775.01	16.923
775.32	6.349
775.63	14.173
775.94	5.660
776.25	17.037
776.56	10.909
776.87	23.932
777.18	18.000
777.48	12.500
777.79	12.963
778.10	18.868
778.41	24.510
778.72	12.264
779.03	12.281
779.34	14.286
779.65	14.085
779.95	14.388
780.26	-0.806
780.57	15.217
780.88	11.927
781.19	17.593
781.50	11.475
781.80	24.088
782.11	10.897
782.42	11.724
782.73	20.280
783.04	16.000
783.34	5.600
783.65	20.325
783.96	7.377
784.27	10.924
784.57	18.692
784.88	5.357
785.19	5.155
785.50	18.947
785.81	15.000
786.11	13.861
786.42	-14.118
786.73	12.500
787.04	10.204
787.34	22.222
787.65	15.094
787.96	1.031
788.26	5.941
788.57	17.391
788.88	16.514
789.19	0.000
789.49	6.087
789.80	18.966
790.11	4.878
790.41	24.719
790.72	5.814
791.03	9.302
791.33	0.000
791.64	23.171
791.95	21.951
792.25	4.819
792.56	-2.469
792.87	-9.859
793.17	7.229
793.48	10.588
793.79	25.000
794.09	-1.667
794.40	19.565
794.70	17.391
795.01	11.927
795.32	7.874
795.62	5.882
795.93	14.706
796.23	12.121
796.54	-2.326
796.85	18.841
797.15	15.625
797.46	-3.390
797.76	8.197
798.07	14.474
798.37	6.452
798.68	-3.125
798.99	20.000
799.29	10.606
799.60	15.942
799.90	11.429
800.21	14.035
800.51	13.793
800.82	5.660
801.12	-5.882
801.43	17.742
801.73	14.516
802.04	12.000
802.34	1.887
802.65	5.263
802.95	21.818
803.26	16.981
803.56	-3.279
803.87	22.000
804.17	7.407
804.48	15.385
804.78	-16.327
805.09	4.255
805.39	27.119
805.70	8.333
806.00	3.571
806.30	3.390
806.61	23.077
806.91	9.231
807.22	-3.947
807.52	7.143
807.83	6.897
808.13	20.253
808.43	13.115
808.74	11.475
809.04	21.622
809.35	20.370
809.65	19.643
809.95	16.949
810.26	-6.122
810.56	5.660
810.86	17.647
811.17	2.703
811.47	-44.444
811.77	17.647
812.08	18.182
812.38	0.000
812.69	-23.077
812.99	16.667
813.29	-15.217
813.59	-28.571
813.90	11.905
814.20	3.636
814.50	-10.204
814.81	-17.647
815.11	-12.500
815.41	7.317
815.72	-50.000
816.02	2.128
816.32	9.375
816.62	-24.242
816.93	-39.394
817.23	18.919
817.53	-2.941
817.84	30.000
818.14	-20.588
818.44	0.000
818.74	-76.190
819.04	-17.143
819.35	17.143
819.65	4.545
819.95	10.256
820.25	-44.444
820.56	-31.034
820.86	-10.714
821.16	-69.565
821.46	30.952
821.76	33.333
822.07	-26.087
822.37	2.041
822.67	-9.302
822.97	-4.348
823.27	0.000
823.57	-18.519
823.88	10.714
824.18	15.385
824.48	10.714
824.78	15.152
825.08	-33.333
825.38	10.000
825.69	-61.111
825.99	-22.222
826.29	31.111
826.59	-37.037
826.89	-44.444
827.19	-14.286
827.49	-9.091
827.79	-18.182
828.09	0.000
828.39	-8.696
828.70	-11.111
829.00	7.143
829.30	21.429
829.60	35.484
829.90	-11.538
830.20	2.564
830.50	-18.182
830.80	-52.381
831.10	-44.444
831.40	-50.000
831.70	3.704
832.00	-23.529
832.30	8.696
832.60	-8.333
832.90	-45.455
833.20	-11.111
833.50	6.250
833.80	-3.846
834.10	40.000
834.40	37.500
834.70	-9.091
835.00	-3.846
835.30	-40.000
835.60	-220.000
835.90	-45.000
836.20	-92.857
836.50	43.478
836.80	-72.222
837.10	-13.333
837.40	-130.000
837.70	-4.348
838.00	-71.429
838.30	1400.000
838.60	72.000
838.90	-80.000
839.19	-133.333
839.49	100.000
839.79	-17.647
840.09	-111.111
840.39	17.857
840.69	-38.889
840.99	-75.000
841.29	31.034
841.59	-86.667
841.88	18.182
842.18	-166.667
842.48	18.750
842.78	11.538
843.08	-11.765
843.38	15.000
843.68	23.077
843.97	-47.059
844.27	-40.000
844.57	33.333
844.87	-45.455
845.17	-31.579
845.47	-61.111
845.76	2.778
846.06	-33.333
846.36	-7.143
846.66	-211.111
846.96	-10.000
847.25	-140.000
847.55	-50.000
847.85	-73.333
848.15	75.000
848.44	15.789
848.74	-33.333
849.04	5.263
849.34	0.000
849.63	-216.667
849.93	-29.412
850.23	-18.182
850.53	-233.333
850.82	-120.000
851.12	-133.333
851.42	-14.286
851.71	-20.000
852.01	-57.143
852.31	-266.667
852.61	-100.000
852.90	-100.000
853.20	11.111
853.50	-144.444
853.79	-10.000
854.09	-35.000
854.39	-42.105
854.68	35.000
854.98	-300.000
855.28	-27.778
855.57	-121.429
855.87	-26.316
856.17	-75.000
856.46	-7.692
856.76	13.333
857.05	-87.500
857.35	0.000
857.65	-33.333
857.94	25.000
858.24	-8.696
858.53	-110.000
858.83	-166.667
859.13	-63.636
859.42	-160.000
859.72	150.000
860.01	-38.462
860.31	-60.000
860.60	-150.000
860.90	-250.000
861.20	-283.333
861.49	-375.000
861.79	650.000
862.08	29.032
862.38	-5.263
862.67	-53.846
862.97	-100.000
863.26	-58.333
863.56	-4.348
863.85	-100.000
864.15	-14.286
864.44	68.750
864.74	-8.333
865.03	-11.111
865.33	-400.000
865.62	-2000.000
865.92	-150.000
866.21	-16.667
866.51	-63.636
866.80	-166.667
867.10	28.571
867.39	-44.444
867.69	-41.667
867.98	120.000
868.27	-225.000
868.57	475.000
868.86	-53.333
869.16	-23.077
869.45	700.000
869.75	-150.000
870.04	-91.667
870.33	23.529
870.63	-85.714
870.92	47.826
871.22	-87.500
871.51	380.000
871.80	18.750
872.10	-33.333
>>>>>End Processed Spectral Data<<<<<
