SpectraSuite Data File
++++++++++++++++++++++++++++++++++++
Date: Wed May 13 19:25:03 PDT 2015
User: schluterlab
Dark Spectrum Present: Yes
Reference Spectrum Present: Yes
Number of Sampled Component Spectra: 1
Spectrometers: USB2E3373
Integration Time (usec): 3000 (USB2E3373)
Spectra Averaged: 3 (USB2E3373)
Boxcar Smoothing: 0 (USB2E3373)
Correct for Electrical Dark: No (USB2E3373)
Strobe/Lamp Enabled: No (USB2E3373)
Correct for Detector Non-linearity: No (USB2E3373)
Correct for Stray Light: No (USB2E3373)
Number of Pixels in Processed Spectrum: 2048
>>>>>Begin Processed Spectral Data<<<<<
178.53	0.000
178.91	-1400.000
179.29	-1225.000
179.67	-277.778
180.04	-1225.000
180.42	2450.000
180.80	1140.000
181.18	-1175.000
181.56	714.286
181.94	0.000
182.31	-742.857
182.69	1733.333
183.07	-700.000
183.45	-588.889
183.83	490.909
184.20	-390.000
184.58	2850.000
184.96	6100.000
185.34	-940.000
185.72	-600.000
186.09	-2450.000
186.47	2600.000
186.85	2550.000
187.23	6100.000
187.61	-1766.667
187.98	1575.000
188.36	572.727
188.74	545.455
189.12	-1000.000
189.49	610.000
189.87	-4500.000
190.25	-1300.000
190.63	435.714
191.00	453.846
191.38	1033.333
191.76	-1350.000
192.14	1725.000
192.51	587.500
192.89	1000.000
193.27	612.500
193.65	-1325.000
194.02	570.000
194.40	1000.000
194.78	580.000
195.15	508.333
195.53	640.000
195.91	-2600.000
196.29	362.500
196.66	315.789
197.04	-330.000
197.42	0.000
197.79	590.000
198.17	-5500.000
198.55	814.286
198.92	725.000
199.30	700.000
199.68	0.000
200.05	316.667
200.43	857.143
200.81	4600.000
201.18	1733.333
201.56	-1633.333
201.94	600.000
202.31	644.444
202.69	408.333
203.07	570.000
203.44	0.000
203.82	1100.000
204.19	800.000
204.57	428.571
204.95	675.000
205.32	1533.333
205.70	572.727
206.08	421.429
206.45	2600.000
206.83	368.750
207.20	966.667
207.58	900.000
207.96	333.333
208.33	750.000
208.71	-1066.667
209.08	928.571
209.46	655.556
209.84	518.182
210.21	-1533.333
210.59	1350.000
210.96	-400.000
211.34	3000.000
211.71	540.000
212.09	750.000
212.46	0.000
212.84	1866.667
213.22	1500.000
213.59	-5900.000
213.97	966.667
214.34	714.286
214.72	609.091
215.09	1240.000
215.47	-2750.000
215.84	-2050.000
216.22	1833.333
216.59	407.143
216.97	1325.000
217.34	563.636
217.72	-733.333
218.09	0.000
218.47	-6200.000
218.84	711.111
219.22	685.714
219.59	1733.333
219.97	-657.143
220.34	1180.000
220.72	-2033.333
221.09	421.429
221.47	1400.000
221.84	-1016.667
222.22	0.000
222.59	1425.000
222.97	-3000.000
223.34	1100.000
223.72	461.538
224.09	1060.000
224.46	2100.000
224.84	-5300.000
225.21	-1140.000
225.59	-5000.000
225.96	660.000
226.34	400.000
226.71	3000.000
227.08	675.000
227.46	620.000
227.83	-1225.000
228.21	-2500.000
228.58	566.667
228.95	-2400.000
229.33	-2600.000
229.70	1900.000
230.08	885.714
230.45	-1000.000
230.82	500.000
231.20	800.000
231.57	757.143
231.95	550.000
232.32	240.909
232.69	418.182
233.07	800.000
233.44	384.615
233.81	-1500.000
234.19	331.579
234.56	475.000
234.93	400.000
235.31	527.273
235.68	361.538
236.05	300.000
236.43	187.879
236.80	300.000
237.17	4400.000
237.55	219.048
237.92	210.714
238.29	266.667
238.67	187.097
239.04	189.655
239.41	152.778
239.79	132.609
240.16	135.714
240.53	125.000
240.91	113.725
241.28	96.000
241.65	90.000
242.02	98.551
242.40	82.258
242.77	73.333
243.14	69.892
243.51	85.393
243.89	77.647
244.26	54.444
244.63	65.591
245.00	56.383
245.38	65.347
245.75	58.879
246.12	46.789
246.49	52.555
246.87	51.200
247.24	57.692
247.61	52.143
247.98	45.098
248.36	44.595
248.73	40.127
249.10	49.682
249.47	38.983
249.84	40.642
250.22	37.968
250.59	34.911
250.96	39.899
251.33	38.863
251.70	37.624
252.08	32.381
252.45	29.596
252.82	31.739
253.19	31.489
253.56	30.588
253.94	35.270
254.31	32.031
254.68	31.538
255.05	31.734
255.42	30.488
255.79	31.618
256.16	26.354
256.54	27.562
256.91	29.181
257.28	24.820
257.65	27.393
258.02	25.466
258.39	24.921
258.76	25.753
259.14	29.762
259.51	23.708
259.88	26.087
260.25	24.169
260.62	23.410
260.99	23.913
261.36	25.225
261.73	22.923
262.10	23.256
262.47	25.070
262.85	25.070
263.22	22.222
263.59	26.496
263.96	21.154
264.33	22.454
264.70	23.947
265.07	22.762
265.44	22.222
265.81	18.248
266.18	23.618
266.55	22.927
266.92	21.130
267.29	21.759
267.66	18.119
268.03	20.682
268.40	20.093
268.77	19.093
269.14	21.396
269.51	23.702
269.88	20.047
270.25	20.993
270.62	20.674
270.99	21.290
271.36	23.605
271.73	19.393
272.10	21.087
272.47	22.151
272.84	20.346
273.21	19.078
273.58	17.904
273.95	17.400
274.32	19.215
274.69	20.343
275.06	18.701
275.43	17.660
275.80	18.236
276.17	19.145
276.54	20.166
276.91	18.775
277.28	17.383
277.65	17.795
278.02	15.942
278.39	20.703
278.76	18.727
279.13	19.245
279.50	18.808
279.87	19.323
280.23	20.559
280.60	17.021
280.97	19.224
281.34	17.522
281.71	19.091
282.08	19.770
282.45	18.545
282.82	18.472
283.19	15.865
283.56	17.368
283.92	18.105
284.29	16.578
284.66	17.604
285.03	16.094
285.40	16.901
285.77	15.993
286.14	16.062
286.51	17.167
286.87	14.872
287.24	17.264
287.61	17.335
287.98	16.234
288.35	16.323
288.72	16.822
289.08	17.684
289.45	17.298
289.82	15.610
290.19	15.542
290.56	16.080
290.93	14.502
291.29	15.184
291.66	15.044
292.03	17.006
292.40	16.593
292.77	14.793
293.13	16.716
293.50	15.015
293.87	14.815
294.24	14.963
294.60	14.556
294.97	15.116
295.34	15.656
295.71	15.767
296.08	15.100
296.44	14.580
296.81	14.399
297.18	14.634
297.55	12.929
297.91	13.588
298.28	14.190
298.65	15.666
299.02	13.702
299.38	13.413
299.75	12.264
300.12	11.750
300.48	14.125
300.85	13.440
301.22	13.248
301.59	13.763
301.95	14.106
302.32	12.580
302.69	13.142
303.05	12.364
303.42	11.111
303.79	13.364
304.15	12.587
304.52	10.545
304.89	12.079
305.25	11.833
305.62	13.024
305.99	14.050
306.35	12.752
306.72	11.771
307.09	12.320
307.45	13.626
307.82	11.049
308.19	13.355
308.55	12.621
308.92	12.030
309.29	11.404
309.65	11.983
310.02	12.262
310.38	11.290
310.75	11.404
311.12	12.487
311.48	12.330
311.85	12.055
312.22	12.487
312.58	12.474
312.95	12.460
313.31	12.136
313.68	12.682
314.05	12.229
314.41	11.055
314.78	11.178
315.14	12.214
315.51	11.637
315.87	11.782
316.24	12.314
316.61	11.111
316.97	10.861
317.34	10.568
317.70	11.663
318.07	11.453
318.43	11.742
318.80	11.996
319.16	11.205
319.53	10.788
319.89	11.810
320.26	10.900
320.62	10.714
320.99	11.616
321.35	10.707
321.72	12.218
322.08	12.043
322.45	12.736
322.81	11.725
323.18	11.657
323.54	11.874
323.91	12.170
324.27	11.281
324.64	10.065
325.00	10.099
325.37	11.101
325.73	11.221
326.10	10.680
326.46	10.215
326.83	11.303
327.19	10.504
327.56	10.627
327.92	11.286
328.29	11.446
328.65	11.050
329.01	11.191
329.38	11.193
329.74	10.619
330.11	10.368
330.47	11.295
330.84	11.857
331.20	9.381
331.56	10.826
331.93	10.648
332.29	10.914
332.66	10.531
333.02	10.603
333.38	10.208
333.75	11.319
334.11	11.299
334.48	10.382
334.84	11.213
335.20	11.000
335.57	10.698
335.93	9.286
336.29	10.256
336.66	11.001
337.02	9.955
337.38	10.463
337.75	10.963
338.11	10.474
338.47	9.300
338.84	10.816
339.20	9.450
339.56	10.858
339.93	9.545
340.29	9.601
340.65	10.517
341.02	10.384
341.38	10.498
341.74	9.825
342.11	10.655
342.47	10.661
342.83	11.130
343.20	11.342
343.56	9.604
343.92	9.386
344.28	10.884
344.65	9.716
345.01	9.343
345.37	7.976
345.73	9.222
346.10	10.145
346.46	9.322
346.82	9.555
347.19	9.440
347.55	9.195
347.91	10.194
348.27	11.011
348.63	10.870
349.00	9.628
349.36	9.606
349.72	9.623
350.08	9.400
350.45	10.334
350.81	9.504
351.17	9.806
351.53	9.500
351.89	8.911
352.26	10.418
352.62	10.265
352.98	10.211
353.34	9.860
353.70	9.002
354.07	9.516
354.43	9.524
354.79	8.930
355.15	9.816
355.51	9.432
355.87	9.469
356.24	10.098
356.60	9.864
356.96	9.171
357.32	9.321
357.68	9.843
358.04	9.264
358.40	10.372
358.77	9.624
359.13	8.840
359.49	8.706
359.85	7.460
360.21	9.091
360.57	9.650
360.93	8.769
361.29	9.221
361.66	8.824
362.02	10.149
362.38	9.202
362.74	8.929
363.10	9.104
363.46	8.584
363.82	8.768
364.18	8.664
364.54	9.584
364.90	9.278
365.26	8.529
365.62	9.715
365.98	8.619
366.35	9.097
366.71	8.243
367.07	9.323
367.43	9.361
367.79	9.279
368.15	9.626
368.51	8.430
368.87	8.708
369.23	8.705
369.59	8.689
369.95	8.235
370.31	9.473
370.67	9.493
371.03	9.064
371.39	9.621
371.75	8.824
372.11	8.819
372.47	10.044
372.83	9.150
373.19	8.526
373.55	9.091
373.91	9.057
374.27	8.866
374.63	7.782
374.99	9.181
375.35	7.886
375.71	8.225
376.07	9.534
376.42	7.634
376.78	8.615
377.14	7.938
377.50	8.278
377.86	8.777
378.22	9.292
378.58	7.519
378.94	8.297
379.30	7.379
379.66	8.503
380.02	8.661
380.38	7.407
380.74	8.283
381.09	8.252
381.45	9.035
381.81	8.354
382.17	8.854
382.53	7.421
382.89	8.025
383.25	7.630
383.61	8.550
383.97	7.817
384.32	7.798
384.68	7.993
385.04	8.175
385.40	8.050
385.76	8.108
386.12	7.707
386.48	8.244
386.83	7.890
387.19	8.411
387.55	7.669
387.91	7.981
388.27	8.093
388.62	9.281
388.98	8.231
389.34	8.698
389.70	8.768
390.06	8.745
390.42	8.236
390.77	8.842
391.13	8.041
391.49	9.264
391.85	7.193
392.20	6.940
392.56	8.207
392.92	7.710
393.28	6.746
393.64	8.094
393.99	8.430
394.35	7.878
394.71	8.657
395.07	7.165
395.42	8.035
395.78	8.842
396.14	8.007
396.50	8.333
396.85	8.582
397.21	7.213
397.57	8.431
397.92	7.993
398.28	7.287
398.64	8.423
399.00	8.170
399.35	7.332
399.71	7.581
400.07	8.043
400.42	7.975
400.78	8.384
401.14	7.500
401.49	7.522
401.85	8.469
402.21	7.365
402.57	7.156
402.92	8.008
403.28	7.870
403.63	7.673
403.99	7.516
404.35	8.606
404.70	8.153
405.06	6.523
405.42	7.174
405.77	7.029
406.13	7.788
406.49	7.865
406.84	8.151
407.20	7.624
407.55	7.530
407.91	7.267
408.27	7.530
408.62	8.308
408.98	8.088
409.34	8.057
409.69	8.000
410.05	8.302
410.40	8.563
410.76	8.005
411.11	8.866
411.47	7.093
411.83	8.613
412.18	7.483
412.54	7.472
412.89	8.193
413.25	7.556
413.60	7.906
413.96	7.590
414.31	7.655
414.67	8.365
415.03	7.285
415.38	8.634
415.74	8.103
416.09	8.099
416.45	7.363
416.80	7.667
417.16	8.780
417.51	7.697
417.87	7.900
418.22	7.760
418.58	8.263
418.93	8.415
419.29	8.020
419.64	8.438
420.00	8.232
420.35	8.406
420.71	8.069
421.06	8.174
421.42	6.959
421.77	8.464
422.12	7.748
422.48	7.124
422.83	7.222
423.19	7.901
423.54	7.081
423.90	8.580
424.25	8.096
424.61	7.917
424.96	8.163
425.31	8.416
425.67	7.247
426.02	7.600
426.38	7.814
426.73	7.139
427.09	7.416
427.44	7.476
427.79	7.073
428.15	8.214
428.50	7.841
428.85	8.164
429.21	8.172
429.56	7.672
429.92	7.750
430.27	7.349
430.62	7.271
430.98	7.628
431.33	8.041
431.68	7.853
432.04	7.827
432.39	7.367
432.74	7.899
433.10	7.527
433.45	7.172
433.80	7.594
434.16	7.532
434.51	7.632
434.86	7.583
435.22	8.282
435.57	8.389
435.92	7.197
436.28	7.533
436.63	9.051
436.98	7.613
437.34	7.812
437.69	8.518
438.04	7.701
438.39	7.522
438.75	7.844
439.10	8.212
439.45	7.851
439.81	7.734
440.16	6.945
440.51	8.026
440.86	7.933
441.22	7.620
441.57	7.431
441.92	7.421
442.27	7.643
442.63	7.583
442.98	8.282
443.33	7.935
443.68	8.260
444.03	7.711
444.39	7.108
444.74	7.738
445.09	7.817
445.44	7.983
445.79	7.571
446.15	7.888
446.50	7.862
446.85	7.760
447.20	7.700
447.55	7.426
447.91	7.501
448.26	7.624
448.61	8.366
448.96	7.973
449.31	7.762
449.66	7.878
450.02	7.744
450.37	8.503
450.72	7.896
451.07	7.617
451.42	7.720
451.77	8.573
452.12	8.141
452.47	8.147
452.83	7.401
453.18	8.191
453.53	8.101
453.88	7.265
454.23	8.129
454.58	8.540
454.93	8.264
455.28	7.606
455.63	7.949
455.98	8.810
456.34	7.601
456.69	8.391
457.04	8.111
457.39	7.890
457.74	8.299
458.09	8.338
458.44	7.697
458.79	7.809
459.14	7.619
459.49	8.290
459.84	8.310
460.19	7.484
460.54	8.044
460.89	7.735
461.24	7.832
461.59	8.542
461.94	7.953
462.29	8.487
462.64	8.105
462.99	7.742
463.34	9.267
463.69	8.443
464.04	8.406
464.39	8.058
464.74	8.794
465.09	7.600
465.44	7.590
465.79	7.271
466.14	8.593
466.49	8.009
466.84	7.881
467.19	8.328
467.54	8.250
467.89	8.643
468.24	8.610
468.59	8.669
468.94	7.941
469.29	7.905
469.64	9.572
469.99	8.119
470.34	7.662
470.68	7.974
471.03	8.231
471.38	8.409
471.73	9.194
472.08	8.487
472.43	8.040
472.78	8.756
473.13	8.408
473.48	8.739
473.83	8.293
474.17	7.530
474.52	8.871
474.87	8.173
475.22	8.241
475.57	7.523
475.92	7.700
476.27	7.779
476.61	7.557
476.96	7.257
477.31	8.320
477.66	7.713
478.01	7.632
478.36	8.091
478.70	6.957
479.05	7.668
479.40	7.574
479.75	7.982
480.10	7.058
480.45	7.615
480.79	7.310
481.14	7.730
481.49	8.116
481.84	6.722
482.19	7.587
482.53	7.156
482.88	7.818
483.23	7.523
483.58	7.916
483.92	7.545
484.27	7.146
484.62	7.371
484.97	7.213
485.31	6.986
485.66	6.096
486.01	5.619
486.36	5.479
486.70	5.527
487.05	5.683
487.40	6.078
487.75	5.997
488.09	6.339
488.44	6.538
488.79	6.872
489.13	7.028
489.48	6.933
489.83	7.251
490.17	7.409
490.52	7.174
490.87	6.739
491.22	7.367
491.56	7.062
491.91	7.120
492.26	7.120
492.60	7.051
492.95	6.876
493.30	7.103
493.64	7.559
493.99	7.521
494.34	7.678
494.68	7.463
495.03	7.472
495.37	7.631
495.72	6.871
496.07	7.471
496.41	7.080
496.76	7.388
497.11	7.429
497.45	7.685
497.80	7.965
498.14	7.391
498.49	7.317
498.84	7.143
499.18	7.333
499.53	7.217
499.87	7.363
500.22	7.348
500.56	7.864
500.91	7.067
501.26	7.444
501.60	8.211
501.95	7.012
502.29	7.685
502.64	7.728
502.98	7.433
503.33	7.130
503.67	7.564
504.02	7.530
504.36	7.815
504.71	7.767
505.06	7.614
505.40	7.535
505.75	7.763
506.09	7.775
506.44	7.351
506.78	7.355
507.13	8.178
507.47	8.283
507.82	8.105
508.16	7.700
508.51	7.407
508.85	7.547
509.19	7.857
509.54	7.857
509.88	7.728
510.23	7.661
510.57	8.462
510.92	8.234
511.26	8.068
511.61	8.247
511.95	7.777
512.30	7.953
512.64	7.899
512.98	8.682
513.33	8.137
513.67	8.271
514.02	7.413
514.36	8.465
514.70	8.246
515.05	6.972
515.39	8.301
515.74	8.108
516.08	8.776
516.42	8.824
516.77	9.142
517.11	7.492
517.46	8.521
517.80	8.188
518.14	7.817
518.49	8.343
518.83	8.977
519.17	8.025
519.52	9.225
519.86	8.500
520.20	8.324
520.55	8.917
520.89	9.063
521.23	9.530
521.58	8.523
521.92	9.247
522.26	8.298
522.61	8.723
522.95	8.656
523.29	8.338
523.64	8.537
523.98	8.564
524.32	9.047
524.66	8.960
525.01	8.395
525.35	8.860
525.69	9.236
526.04	8.972
526.38	8.603
526.72	9.080
527.06	8.537
527.41	7.859
527.75	8.553
528.09	9.056
528.43	8.668
528.78	8.912
529.12	8.667
529.46	9.124
529.80	8.601
530.15	9.907
530.49	8.615
530.83	8.987
531.17	9.465
531.51	9.922
531.86	9.032
532.20	9.192
532.54	9.737
532.88	9.756
533.22	9.994
533.57	8.272
533.91	9.392
534.25	9.478
534.59	8.786
534.93	8.685
535.27	8.630
535.62	8.852
535.96	8.600
536.30	8.328
536.64	9.144
536.98	9.423
537.32	8.690
537.66	9.400
538.01	8.163
538.35	9.438
538.69	10.019
539.03	8.642
539.37	8.562
539.71	7.907
540.05	8.301
540.39	9.302
540.73	8.279
541.07	10.188
541.42	9.524
541.76	9.677
542.10	9.638
542.44	8.874
542.78	8.827
543.12	8.573
543.46	9.246
543.80	9.174
544.14	8.729
544.48	9.397
544.82	8.595
545.16	9.044
545.50	8.290
545.84	8.871
546.18	8.889
546.52	9.635
546.86	9.622
547.20	9.710
547.54	9.486
547.88	9.758
548.22	9.215
548.56	9.371
548.90	8.515
549.24	8.350
549.58	9.345
549.92	9.478
550.26	9.091
550.60	9.267
550.94	9.366
551.28	7.681
551.62	9.633
551.96	8.561
552.30	10.307
552.64	9.466
552.98	10.034
553.32	9.238
553.66	9.952
554.00	10.021
554.34	10.007
554.68	10.157
555.02	10.014
555.36	9.743
555.69	8.796
556.03	9.287
556.37	9.618
556.71	9.209
557.05	9.104
557.39	9.657
557.73	9.880
558.07	10.007
558.41	8.828
558.75	9.331
559.08	10.142
559.42	9.826
559.76	10.294
560.10	10.136
560.44	9.294
560.78	9.381
561.12	9.763
561.45	9.648
561.79	9.492
562.13	8.786
562.47	10.178
562.81	9.135
563.15	9.431
563.48	9.549
563.82	9.132
564.16	8.306
564.50	8.333
564.84	9.355
565.17	8.366
565.51	8.882
565.85	9.454
566.19	8.954
566.52	9.246
566.86	8.800
567.20	8.903
567.54	8.562
567.88	8.039
568.21	8.624
568.55	8.140
568.89	8.609
569.23	8.111
569.56	7.652
569.90	7.623
570.24	7.463
570.57	6.902
570.91	6.626
571.25	7.103
571.59	7.128
571.92	6.624
572.26	6.817
572.60	7.027
572.93	7.106
573.27	6.832
573.61	7.203
573.95	7.158
574.28	6.683
574.62	6.560
574.96	6.499
575.29	6.741
575.63	6.987
575.97	6.899
576.30	7.143
576.64	6.722
576.98	6.368
577.31	6.354
577.65	6.298
577.98	6.634
578.32	6.156
578.66	6.646
578.99	6.619
579.33	6.294
579.67	6.495
580.00	6.857
580.34	6.882
580.67	6.571
581.01	6.791
581.35	6.279
581.68	6.621
582.02	5.965
582.35	6.203
582.69	6.595
583.02	6.487
583.36	6.779
583.70	7.043
584.03	6.818
584.37	6.772
584.70	6.609
585.04	7.069
585.37	6.873
585.71	6.814
586.04	6.910
586.38	6.975
586.72	7.125
587.05	6.819
587.39	6.781
587.72	6.931
588.06	6.804
588.39	6.859
588.73	7.304
589.06	7.385
589.40	7.374
589.73	7.216
590.07	7.544
590.40	6.978
590.73	7.533
591.07	7.896
591.40	8.098
591.74	8.398
592.07	7.810
592.41	8.020
592.74	7.041
593.08	7.662
593.41	7.213
593.75	6.621
594.08	7.375
594.41	7.529
594.75	6.987
595.08	7.409
595.42	7.706
595.75	7.407
596.09	8.074
596.42	8.369
596.75	7.894
597.09	8.182
597.42	7.293
597.75	8.064
598.09	8.304
598.42	7.732
598.76	7.742
599.09	7.336
599.42	7.496
599.76	7.723
600.09	7.432
600.42	6.903
600.76	7.250
601.09	7.286
601.42	7.610
601.76	7.287
602.09	7.391
602.42	8.280
602.76	7.819
603.09	8.065
603.42	7.731
603.76	7.660
604.09	7.445
604.42	7.705
604.76	8.815
605.09	7.427
605.42	7.140
605.75	7.906
606.09	7.523
606.42	7.765
606.75	7.756
607.09	8.372
607.42	7.488
607.75	7.595
608.08	8.033
608.42	8.292
608.75	8.521
609.08	7.909
609.41	7.711
609.75	8.147
610.08	8.247
610.41	7.868
610.74	7.569
611.07	8.152
611.41	7.900
611.74	8.949
612.07	8.178
612.40	9.234
612.73	8.789
613.07	8.944
613.40	9.005
613.73	7.656
614.06	8.387
614.39	8.967
614.72	8.579
615.06	8.141
615.39	8.864
615.72	8.742
616.05	7.868
616.38	9.172
616.71	8.610
617.05	9.069
617.38	8.779
617.71	8.288
618.04	9.075
618.37	8.752
618.70	9.334
619.03	10.000
619.36	9.844
619.69	9.225
620.03	9.066
620.36	10.294
620.69	9.863
621.02	9.218
621.35	9.397
621.68	9.034
622.01	8.901
622.34	10.817
622.67	9.734
623.00	8.731
623.33	9.650
623.66	10.150
623.99	9.426
624.32	8.916
624.65	9.675
624.99	8.640
625.32	9.413
625.65	9.016
625.98	10.223
626.31	10.809
626.64	10.204
626.97	10.806
627.30	9.726
627.63	10.911
627.96	10.093
628.29	10.936
628.62	11.070
628.95	11.698
629.28	9.945
629.61	12.191
629.94	10.762
630.26	10.582
630.59	10.772
630.92	11.398
631.25	11.254
631.58	10.511
631.91	10.243
632.24	11.181
632.57	12.592
632.90	11.952
633.23	11.969
633.56	12.655
633.89	12.684
634.22	12.032
634.55	11.953
634.88	12.096
635.20	12.545
635.53	12.530
635.86	11.881
636.19	11.529
636.52	12.572
636.85	10.997
637.18	10.599
637.51	13.948
637.83	9.988
638.16	12.148
638.49	13.854
638.82	13.401
639.15	13.125
639.48	13.965
639.81	12.198
640.13	13.932
640.46	13.691
640.79	12.814
641.12	11.004
641.45	12.849
641.77	11.487
642.10	14.181
642.43	13.363
642.76	11.920
643.09	13.497
643.41	14.568
643.74	14.660
644.07	14.482
644.40	15.184
644.73	15.748
645.05	15.214
645.38	15.008
645.71	14.493
646.04	13.953
646.36	15.860
646.69	15.050
647.02	15.306
647.35	14.777
647.67	14.336
648.00	17.236
648.33	14.851
648.66	14.697
648.98	16.042
649.31	13.453
649.64	14.499
649.96	13.711
650.29	14.376
650.62	13.269
650.94	15.559
651.27	17.230
651.60	16.306
651.92	16.933
652.25	13.518
652.58	13.863
652.90	13.902
653.23	14.022
653.56	12.913
653.88	15.531
654.21	13.744
654.54	13.861
654.86	15.109
655.19	14.730
655.52	6.814
655.84	5.003
656.17	6.309
656.49	8.553
656.82	8.946
657.15	6.928
657.47	5.236
657.80	4.241
658.13	4.581
658.45	6.896
658.78	7.006
659.10	7.690
659.43	8.203
659.75	9.424
660.08	9.810
660.41	12.849
660.73	14.485
661.06	13.535
661.38	17.636
661.71	17.308
662.03	16.963
662.36	14.911
662.68	18.072
663.01	18.182
663.33	15.499
663.66	17.017
663.98	15.335
664.31	14.706
664.63	16.599
664.96	15.091
665.28	17.828
665.61	16.569
665.93	13.883
666.26	16.227
666.58	16.736
666.91	20.930
667.23	17.303
667.56	17.063
667.88	19.658
668.21	19.190
668.53	19.089
668.86	17.532
669.18	17.484
669.50	18.043
669.83	18.083
670.15	16.000
670.48	17.647
670.80	17.026
671.13	17.197
671.45	16.383
671.77	17.108
672.10	17.745
672.42	15.194
672.75	15.257
673.07	15.493
673.39	15.552
673.72	14.844
674.04	15.490
674.37	17.670
674.69	14.519
675.01	14.854
675.34	17.659
675.66	19.158
675.98	18.941
676.31	18.277
676.63	17.622
676.95	19.078
677.28	14.252
677.60	17.802
677.92	18.987
678.25	18.275
678.57	14.940
678.89	15.431
679.22	14.342
679.54	16.412
679.86	21.284
680.18	15.564
680.51	15.780
680.83	16.726
681.15	16.981
681.48	17.958
681.80	14.894
682.12	15.134
682.44	14.700
682.77	16.090
683.09	20.172
683.41	18.404
683.73	17.439
684.06	18.182
684.38	16.438
684.70	18.217
685.02	16.135
685.34	15.568
685.67	13.986
685.99	14.433
686.31	14.334
686.63	13.428
686.96	14.286
687.28	14.801
687.60	14.493
687.92	15.539
688.24	14.259
688.56	17.671
688.89	15.975
689.21	18.777
689.53	18.163
689.85	18.847
690.17	16.977
690.49	18.896
690.82	17.757
691.14	15.625
691.46	16.034
691.78	17.068
692.10	17.562
692.42	18.563
692.74	18.465
693.06	18.085
693.39	17.454
693.71	16.594
694.03	17.684
694.35	17.316
694.67	16.247
694.99	19.756
695.31	18.627
695.63	16.507
695.95	17.359
696.27	15.482
696.59	18.653
696.91	21.244
697.23	17.371
697.56	16.418
697.88	13.701
698.20	14.792
698.52	18.925
698.84	18.263
699.16	16.359
699.48	15.677
699.80	18.357
700.12	22.597
700.44	19.363
700.76	19.890
701.08	20.977
701.40	18.156
701.72	21.574
702.04	27.273
702.36	19.263
702.68	18.697
703.00	20.222
703.32	20.213
703.64	18.499
703.96	17.549
704.28	20.930
704.60	21.994
704.91	23.145
705.23	23.167
705.55	23.920
705.87	26.246
706.19	25.088
706.51	22.430
706.83	26.061
707.15	21.289
707.47	19.697
707.79	18.919
708.11	20.548
708.43	16.429
708.74	16.837
709.06	20.000
709.38	18.635
709.70	21.221
710.02	23.145
710.34	19.697
710.66	22.388
710.98	23.580
711.29	23.256
711.61	22.714
711.93	19.551
712.25	22.508
712.57	24.265
712.89	20.069
713.20	22.492
713.52	22.697
713.84	22.468
714.16	22.561
714.48	24.713
714.80	28.571
715.11	21.902
715.43	21.365
715.75	22.029
716.07	22.364
716.39	23.824
716.70	24.585
717.02	22.662
717.34	22.615
717.66	24.627
717.97	29.482
718.29	27.037
718.61	22.993
718.93	25.735
719.24	21.107
719.56	24.746
719.88	25.085
720.20	27.703
720.51	22.300
720.83	26.394
721.15	24.627
721.46	23.404
721.78	26.165
722.10	23.396
722.42	27.444
722.73	27.341
723.05	20.492
723.37	28.340
723.68	26.641
724.00	23.171
724.32	30.242
724.63	22.764
724.95	25.941
725.27	28.340
725.58	28.906
725.90	29.562
726.22	26.038
726.53	23.264
726.85	23.891
727.16	25.623
727.48	30.851
727.80	28.409
728.11	24.638
728.43	23.462
728.74	26.165
729.06	29.562
729.38	28.309
729.69	25.267
730.01	23.549
730.32	23.611
730.64	25.084
730.96	21.782
731.27	22.848
731.59	23.853
731.90	23.032
732.22	22.671
732.53	17.028
732.85	25.000
733.16	21.865
733.48	22.259
733.80	21.104
734.11	26.115
734.43	22.189
734.74	18.000
735.06	20.344
735.37	23.121
735.69	20.382
736.00	23.529
736.32	21.807
736.63	20.128
736.95	24.281
737.26	20.408
737.58	20.645
737.89	25.084
738.21	27.645
738.52	23.571
738.83	26.792
739.15	23.462
739.46	27.007
739.78	24.306
740.09	22.769
740.41	26.129
740.72	22.997
741.04	28.519
741.35	27.083
741.66	32.000
741.98	29.717
742.29	32.057
742.61	33.621
742.92	26.244
743.23	26.923
743.55	28.800
743.86	27.193
744.18	32.301
744.49	33.014
744.80	34.272
745.12	39.545
745.43	30.396
745.74	30.631
746.06	34.404
746.37	30.942
746.68	30.769
747.00	31.481
747.31	32.857
747.62	26.549
747.94	31.718
748.25	30.638
748.56	33.040
748.88	28.218
749.19	30.500
749.50	27.442
749.82	29.268
750.13	23.673
750.44	24.818
750.75	21.754
751.07	27.010
751.38	25.784
751.69	26.354
752.01	24.812
752.32	25.993
752.63	26.596
752.94	23.770
753.26	29.200
753.57	22.358
753.88	28.906
754.19	25.357
754.51	28.819
754.82	20.939
755.13	25.660
755.44	26.316
755.75	26.642
756.07	23.759
756.38	22.628
756.69	25.839
757.00	20.359
757.31	22.255
757.63	21.637
757.94	21.448
758.25	20.343
758.56	17.778
758.87	18.011
759.18	24.848
759.50	23.197
759.81	24.299
760.12	19.687
760.43	21.777
760.74	22.554
761.05	21.751
761.36	18.182
761.67	23.295
761.99	22.981
762.30	25.000
762.61	25.954
762.92	30.469
763.23	28.571
763.54	27.200
763.85	25.781
764.16	30.000
764.47	23.574
764.78	24.028
765.10	22.468
765.41	24.189
765.72	22.754
766.03	24.451
766.34	22.667
766.65	30.213
766.96	30.769
767.27	34.518
767.58	34.375
767.89	36.842
768.20	40.230
768.51	32.487
768.82	33.028
769.13	28.455
769.44	23.482
769.75	26.180
770.06	27.064
770.37	32.127
770.68	32.870
770.99	30.222
771.30	23.770
771.61	27.803
771.92	24.180
772.23	41.597
772.54	33.333
772.85	38.220
773.16	37.766
773.47	34.239
773.78	39.594
774.09	36.905
774.39	38.596
774.70	37.654
775.01	44.203
775.32	44.444
775.63	38.816
775.94	42.446
776.25	48.031
776.56	49.254
776.87	45.082
777.18	48.437
777.48	53.435
777.79	46.970
778.10	41.481
778.41	50.893
778.72	39.416
779.03	38.255
779.34	40.268
779.65	33.784
779.95	37.423
780.26	45.098
780.57	46.897
780.88	56.250
781.19	34.586
781.50	45.270
781.80	41.509
782.11	33.333
782.42	41.772
782.73	33.742
783.04	43.919
783.34	40.845
783.65	43.836
783.96	43.284
784.27	48.252
784.57	43.165
784.88	42.593
785.19	56.349
785.50	60.377
785.81	54.478
786.11	54.098
786.42	48.837
786.73	45.133
787.04	53.774
787.34	46.429
787.65	59.000
787.96	48.649
788.26	52.066
788.57	55.932
788.88	54.545
789.19	48.611
789.49	43.939
789.80	53.435
790.11	63.810
790.41	57.426
790.72	62.651
791.03	56.522
791.33	69.767
791.64	58.763
791.95	64.356
792.25	71.111
792.56	72.727
792.87	74.359
793.17	82.278
793.48	77.011
793.79	72.414
794.09	73.864
794.40	61.345
794.70	52.941
795.01	45.926
795.32	43.165
795.62	43.307
795.93	55.172
796.23	54.867
796.54	67.059
796.85	71.622
797.15	107.042
797.46	84.848
797.76	84.337
798.07	77.215
798.37	63.077
798.68	72.727
798.99	66.197
799.29	70.130
799.60	60.227
799.90	73.973
800.21	77.612
800.51	96.552
800.82	91.228
801.12	78.689
801.43	86.364
801.73	85.135
802.04	92.063
802.34	77.778
802.65	104.688
802.95	91.525
803.26	96.875
803.56	84.286
803.87	86.154
804.17	83.824
804.48	100.000
804.78	86.207
805.09	92.647
805.39	100.000
805.70	92.857
806.00	96.721
806.30	93.939
806.61	73.171
806.91	69.620
807.22	75.000
807.52	73.134
807.83	78.873
808.13	82.813
808.43	90.000
808.74	75.000
809.04	78.261
809.35	98.507
809.65	76.316
809.95	116.129
810.26	89.831
810.56	93.651
810.86	109.091
811.17	128.571
811.47	100.000
811.77	100.000
812.08	112.727
812.38	124.000
812.69	144.444
812.99	147.727
813.29	134.694
813.59	111.905
813.90	130.612
814.20	100.000
814.50	95.385
814.81	104.412
815.11	116.327
815.41	75.410
815.72	128.571
816.02	109.091
816.32	138.095
816.62	140.000
816.93	136.585
817.23	142.857
817.53	104.545
817.84	169.697
818.14	117.391
818.44	111.111
818.74	164.706
819.04	157.500
819.35	162.857
819.65	182.353
819.95	210.714
820.25	225.000
820.56	156.410
820.86	125.000
821.16	139.535
821.46	148.718
821.76	152.000
822.07	131.429
822.37	140.000
822.67	163.636
822.97	111.765
823.27	210.714
823.57	137.838
823.88	167.500
824.18	203.333
824.48	130.952
824.78	236.000
825.08	233.333
825.38	170.270
825.69	131.707
825.99	208.333
826.29	144.828
826.59	160.526
826.89	126.316
827.19	150.000
827.49	174.194
827.79	161.364
828.09	140.909
828.39	121.277
828.70	128.571
829.00	162.963
829.30	161.290
829.60	127.500
829.90	300.000
830.20	217.857
830.50	204.348
830.80	226.087
831.10	186.667
831.40	190.000
831.70	221.739
832.00	230.769
832.30	218.519
832.60	331.250
832.90	216.667
833.20	400.000
833.50	196.774
833.80	189.655
834.10	193.750
834.40	238.462
834.70	350.000
835.00	304.762
835.30	185.714
835.60	215.385
835.90	196.552
836.20	342.857
836.50	193.103
836.80	248.000
837.10	200.000
837.40	228.571
837.70	347.059
838.00	192.593
838.30	223.810
838.60	271.429
838.90	230.769
839.19	320.000
839.49	392.857
839.79	320.000
840.09	220.000
840.39	276.190
840.69	234.783
840.99	288.889
841.29	500.000
841.59	375.000
841.88	381.250
842.18	168.966
842.48	252.381
842.78	196.667
843.08	239.130
843.38	178.125
843.68	800.000
843.97	269.231
844.27	220.690
844.57	333.333
844.87	318.750
845.17	211.111
845.47	1766.667
845.76	533.333
846.06	358.824
846.36	500.000
846.66	357.143
846.96	325.000
847.25	481.818
847.55	436.364
847.85	230.435
848.15	480.000
848.44	314.286
848.74	261.111
849.04	288.235
849.34	570.000
849.63	236.842
849.93	536.364
850.23	1080.000
850.53	457.143
850.82	2400.000
851.12	-3800.000
851.42	4700.000
851.71	305.000
852.01	-1366.667
852.31	258.333
852.61	2000.000
852.90	342.857
853.20	244.000
853.50	288.235
853.79	252.381
854.09	187.500
854.39	293.750
854.68	183.784
854.98	190.323
855.28	173.333
855.57	213.793
855.87	251.852
856.17	294.737
856.46	253.333
856.76	300.000
857.05	210.345
857.35	275.000
857.65	346.667
857.94	234.783
858.24	230.769
858.53	290.000
858.83	281.818
859.13	373.333
859.42	0.000
859.72	555.556
860.01	436.364
860.31	295.455
860.60	310.526
860.90	234.783
861.20	544.444
861.49	491.667
861.79	-4600.000
862.08	637.500
862.38	295.238
862.67	415.385
862.97	329.412
863.26	522.222
863.56	266.667
863.85	441.667
864.15	587.500
864.44	380.000
864.74	933.333
865.03	562.500
865.33	331.579
865.62	481.818
865.92	500.000
866.21	450.000
866.51	0.000
866.80	590.909
867.10	1160.000
867.39	461.538
867.69	500.000
867.98	294.737
868.27	500.000
868.57	289.474
868.86	-4900.000
869.16	356.250
869.45	2700.000
869.75	-5200.000
870.04	516.667
870.33	728.571
870.63	1050.000
870.92	2450.000
871.22	800.000
871.51	335.294
871.80	228.571
872.10	385.714
>>>>>End Processed Spectral Data<<<<<
