SpectraSuite Data File
++++++++++++++++++++++++++++++++++++
Date: Tue May 12 19:47:40 PDT 2015
User: schluterlab
Dark Spectrum Present: Yes
Reference Spectrum Present: Yes
Number of Sampled Component Spectra: 1
Spectrometers: USB2E3373
Integration Time (usec): 3000 (USB2E3373)
Spectra Averaged: 3 (USB2E3373)
Boxcar Smoothing: 0 (USB2E3373)
Correct for Electrical Dark: No (USB2E3373)
Strobe/Lamp Enabled: No (USB2E3373)
Correct for Detector Non-linearity: No (USB2E3373)
Correct for Stray Light: No (USB2E3373)
Number of Pixels in Processed Spectrum: 2048
>>>>>Begin Processed Spectral Data<<<<<
178.53	0.000
178.91	-110.000
179.29	-66.667
179.67	600.000
180.04	0.000
180.42	-120.000
180.80	-100.000
181.18	1000.000
181.56	-750.000
181.94	266.667
182.31	2200.000
182.69	-142.857
183.07	0.000
183.45	225.000
183.83	360.000
184.20	300.000
184.58	700.000
184.96	383.333
185.34	-500.000
185.72	-35.714
186.09	-233.333
186.47	-1600.000
186.85	-60.000
187.23	116.667
187.61	-185.714
187.98	-80.000
188.36	700.000
188.74	-100.000
189.12	-66.667
189.49	-120.000
189.87	50.000
190.25	122.222
190.63	500.000
191.00	460.000
191.38	-366.667
191.76	260.000
192.14	-14.286
192.51	-40.000
192.89	-20.000
193.27	-280.000
193.65	-500.000
194.02	-250.000
194.40	1600.000
194.78	-212.500
195.15	-171.429
195.53	366.667
195.91	260.000
196.29	-325.000
196.66	33.333
197.04	-242.857
197.42	80.000
197.79	-175.000
198.17	-66.667
198.55	-500.000
198.92	-133.333
199.30	950.000
199.68	-225.000
200.05	-850.000
200.43	-50.000
200.81	-100.000
201.18	350.000
201.56	-650.000
201.94	-1600.000
202.31	-91.667
202.69	11.111
203.07	-41.667
203.44	-525.000
203.82	0.000
204.19	225.000
204.57	-400.000
204.95	145.455
205.32	300.000
205.70	400.000
206.08	-700.000
206.45	-100.000
206.83	1600.000
207.20	-122.222
207.58	-76.923
207.96	333.333
208.33	800.000
208.71	566.667
209.08	450.000
209.46	-88.889
209.84	566.667
210.21	-933.333
210.59	400.000
210.96	155.556
211.34	-150.000
211.71	1250.000
212.09	-120.000
212.46	-187.500
212.84	-150.000
213.22	157.143
213.59	-87.500
213.97	0.000
214.34	-400.000
214.72	-400.000
215.09	200.000
215.47	13.333
215.84	-125.000
216.22	-900.000
216.59	1400.000
216.97	16.667
217.34	-16.667
217.72	5.556
218.09	225.000
218.47	-47.368
218.84	-125.000
219.22	-7.143
219.59	-30.000
219.97	-80.000
220.34	366.667
220.72	9.091
221.09	-600.000
221.47	0.000
221.84	700.000
222.22	-400.000
222.59	-450.000
222.97	-21.739
223.34	200.000
223.72	342.857
224.09	16.667
224.46	184.615
224.84	-60.000
225.21	-250.000
225.59	-350.000
225.96	40.000
226.34	433.333
226.71	140.000
227.08	7.692
227.46	-42.857
227.83	-83.333
228.21	-200.000
228.58	233.333
228.95	10.526
229.33	-25.000
229.70	-183.333
230.08	-88.889
230.45	-500.000
230.82	-700.000
231.20	-38.095
231.57	-340.000
231.95	-566.667
232.32	111.111
232.69	-400.000
233.07	18.750
233.44	-50.000
233.81	19.355
234.19	-220.000
234.56	-50.000
234.93	-233.333
235.31	14.815
235.68	-14.815
236.05	-7.692
236.43	-47.368
236.80	-31.818
237.17	-135.714
237.55	-85.000
237.92	13.953
238.29	-9.677
238.67	-14.286
239.04	8.571
239.41	-15.686
239.79	-8.000
240.16	-22.500
240.53	0.000
240.91	5.479
241.28	-7.042
241.65	3.125
242.02	-3.509
242.40	16.000
242.77	7.368
243.14	9.412
243.51	5.376
243.89	7.619
244.26	8.333
244.63	10.204
245.00	6.250
245.38	0.000
245.75	15.254
246.12	16.406
246.49	8.000
246.87	13.115
247.24	4.930
247.61	19.868
247.98	12.921
248.36	14.465
248.73	18.182
249.10	12.222
249.47	13.021
249.84	12.183
250.22	9.375
250.59	11.236
250.96	15.455
251.33	17.925
251.70	19.266
252.08	18.615
252.45	11.837
252.82	9.705
253.19	20.233
253.56	18.431
253.94	13.415
254.31	20.144
254.68	15.625
255.05	20.530
255.42	19.273
255.79	20.861
256.16	13.194
256.54	17.576
256.91	18.590
257.28	19.805
257.65	14.098
258.02	18.619
258.39	15.106
258.76	19.266
259.14	13.235
259.51	14.648
259.88	19.020
260.25	13.920
260.62	12.640
260.99	16.992
261.36	14.943
261.73	16.800
262.10	18.529
262.47	17.906
262.85	19.280
263.22	13.710
263.59	19.303
263.96	14.883
264.33	11.321
264.70	16.216
265.07	17.241
265.44	17.799
265.81	17.590
266.18	15.457
266.55	15.238
266.92	17.857
267.29	16.444
267.66	13.636
268.03	20.645
268.40	13.272
268.77	18.263
269.14	17.437
269.51	19.005
269.88	16.453
270.25	16.034
270.62	15.966
270.99	16.211
271.36	18.543
271.73	15.208
272.10	15.145
272.47	15.200
272.84	15.287
273.21	15.240
273.58	15.510
273.95	16.335
274.32	18.762
274.69	16.438
275.06	17.448
275.43	15.600
275.80	16.635
276.17	15.415
276.54	16.160
276.91	18.234
277.28	18.375
277.65	16.824
278.02	15.720
278.39	15.971
278.76	18.622
279.13	16.816
279.50	17.870
279.87	16.981
280.23	16.758
280.60	12.367
280.97	16.696
281.34	14.915
281.71	14.920
282.08	17.174
282.45	16.402
282.82	15.657
283.19	15.993
283.56	16.212
283.92	15.482
284.29	16.751
284.66	15.221
285.03	13.379
285.40	15.833
285.77	16.585
286.14	15.848
286.51	15.434
286.87	14.749
287.24	14.263
287.61	16.821
287.98	17.371
288.35	16.899
288.72	15.902
289.08	14.937
289.45	15.133
289.82	15.528
290.19	14.848
290.56	15.051
290.93	15.066
291.29	16.170
291.66	16.011
292.03	14.921
292.40	15.971
292.77	14.723
293.13	14.684
293.50	14.738
293.87	15.534
294.24	15.169
294.60	15.437
294.97	14.266
295.34	14.658
295.71	14.702
296.08	15.437
296.44	15.152
296.81	14.618
297.18	15.265
297.55	13.693
297.91	13.832
298.28	13.939
298.65	16.041
299.02	14.673
299.38	14.796
299.75	15.058
300.12	15.228
300.48	14.202
300.85	13.203
301.22	15.986
301.59	13.504
301.95	15.244
302.32	12.880
302.69	14.269
303.05	12.397
303.42	14.855
303.79	13.483
304.15	14.270
304.52	14.302
304.89	15.445
305.25	15.252
305.62	15.000
305.99	13.886
306.35	14.989
306.72	15.468
307.09	15.125
307.45	14.239
307.82	15.902
308.19	15.292
308.55	16.245
308.92	16.208
309.29	14.854
309.65	16.821
310.02	15.723
310.38	15.991
310.75	18.545
311.12	17.396
311.48	17.575
311.85	16.616
312.22	17.872
312.58	16.717
312.95	18.583
313.31	18.682
313.68	18.669
314.05	21.152
314.41	20.923
314.78	19.397
315.14	19.980
315.51	21.648
315.87	22.949
316.24	23.145
316.61	23.495
316.97	23.824
317.34	24.211
317.70	23.810
318.07	24.204
318.43	26.938
318.80	26.867
319.16	27.027
319.53	27.925
319.89	27.367
320.26	29.892
320.62	31.105
320.99	33.571
321.35	30.929
321.72	32.828
322.08	33.861
322.45	34.911
322.81	36.059
323.18	34.995
323.54	38.863
323.91	37.097
324.27	38.959
324.64	39.644
325.00	41.128
325.37	44.245
325.73	43.887
326.10	46.497
326.46	48.232
326.83	49.868
327.19	49.520
327.56	51.636
327.92	51.302
328.29	52.509
328.65	54.991
329.01	53.761
329.38	54.637
329.74	56.360
330.11	58.434
330.47	60.149
330.84	57.707
331.20	58.318
331.56	58.774
331.93	61.665
332.29	61.795
332.66	61.212
333.02	62.303
333.38	63.879
333.75	63.952
334.11	64.105
334.48	61.807
334.84	63.380
335.20	62.668
335.57	66.122
335.93	67.163
336.29	65.448
336.66	65.301
337.02	66.364
337.38	66.604
337.75	66.000
338.11	66.089
338.47	67.038
338.84	67.772
339.20	67.186
339.56	69.059
339.93	67.748
340.29	67.271
340.65	68.311
341.02	69.619
341.38	67.961
341.74	70.374
342.11	67.816
342.47	68.357
342.83	69.644
343.20	68.789
343.56	69.406
343.92	67.892
344.28	70.240
344.65	70.120
345.01	69.861
345.37	71.368
345.73	71.662
346.10	69.922
346.46	69.198
346.82	70.008
347.19	70.143
347.55	71.088
347.91	70.106
348.27	72.115
348.63	71.737
349.00	71.703
349.36	73.042
349.72	71.429
350.08	73.322
350.45	71.684
350.81	72.007
351.17	72.405
351.53	70.370
351.89	75.475
352.26	70.894
352.62	73.671
352.98	73.640
353.34	75.355
353.70	73.333
354.07	74.053
354.43	75.960
354.79	72.377
355.15	72.397
355.51	76.447
355.87	76.187
356.24	75.899
356.60	75.376
356.96	74.724
357.32	75.638
357.68	74.781
358.04	76.256
358.40	76.350
358.77	75.823
359.13	76.466
359.49	75.920
359.85	79.536
360.21	76.685
360.57	78.947
360.93	79.256
361.29	78.193
361.66	77.208
362.02	80.063
362.38	79.487
362.74	80.553
363.10	78.281
363.46	79.458
363.82	80.168
364.18	79.410
364.54	81.985
364.90	81.407
365.26	82.042
365.62	84.481
365.98	81.409
366.35	83.585
366.71	82.674
367.07	81.624
367.43	81.661
367.79	80.741
368.15	82.357
368.51	83.446
368.87	85.095
369.23	86.525
369.59	84.265
369.95	83.308
370.31	86.515
370.67	85.940
371.03	86.842
371.39	86.254
371.75	83.432
372.11	85.259
372.47	85.375
372.83	85.756
373.19	85.392
373.55	86.976
373.91	87.576
374.27	89.772
374.63	88.439
374.99	86.750
375.35	88.316
375.71	88.881
376.07	89.329
376.42	87.898
376.78	88.502
377.14	88.827
377.50	88.919
377.86	88.719
378.22	90.026
378.58	89.934
378.94	90.570
379.30	89.897
379.66	89.309
380.02	89.701
380.38	89.758
380.74	91.423
381.09	91.105
381.45	91.429
381.81	89.923
382.17	91.270
382.53	93.031
382.89	91.918
383.25	90.108
383.61	90.718
383.97	91.683
384.32	90.581
384.68	92.465
385.04	90.898
385.40	91.565
385.76	91.777
386.12	91.947
386.48	91.716
386.83	92.166
387.19	92.720
387.55	91.256
387.91	91.090
388.27	92.962
388.62	93.588
388.98	92.939
389.34	92.583
389.70	94.103
390.06	93.465
390.42	94.659
390.77	93.696
391.13	92.843
391.49	95.957
391.85	93.413
392.20	95.578
392.56	91.683
392.92	94.620
393.28	91.203
393.64	93.920
393.99	93.442
394.35	94.938
394.71	93.046
395.07	94.363
395.42	93.206
395.78	94.019
396.14	94.137
396.50	91.721
396.85	93.192
397.21	94.308
397.57	92.890
397.92	93.384
398.28	94.365
398.64	91.746
399.00	93.210
399.35	93.728
399.71	92.096
400.07	91.291
400.42	92.115
400.78	93.154
401.14	91.982
401.49	91.006
401.85	91.365
402.21	92.703
402.57	90.470
402.92	93.559
403.28	91.417
403.63	90.385
403.99	91.017
404.35	91.975
404.70	91.070
405.06	90.143
405.42	91.217
405.77	90.844
406.13	89.188
406.49	90.662
406.84	90.847
407.20	90.830
407.55	90.581
407.91	90.280
408.27	90.891
408.62	89.003
408.98	89.833
409.34	87.196
409.69	89.766
410.05	88.795
410.40	89.210
410.76	88.667
411.11	88.688
411.47	90.204
411.83	88.088
412.18	87.631
412.54	86.481
412.89	87.435
413.25	88.150
413.60	88.138
413.96	87.379
414.31	86.233
414.67	90.682
415.03	87.759
415.38	87.953
415.74	87.777
416.09	88.766
416.45	87.969
416.80	87.969
417.16	87.518
417.51	87.023
417.87	87.825
418.22	87.166
418.58	87.008
418.93	88.266
419.29	87.992
419.64	91.003
420.00	88.605
420.35	88.010
420.71	88.540
421.06	89.033
421.42	88.833
421.77	90.560
422.12	88.128
422.48	88.064
422.83	87.477
423.19	87.235
423.54	89.432
423.90	88.999
424.25	89.305
424.61	90.452
424.96	88.268
425.31	89.915
425.67	88.606
426.02	89.938
426.38	89.254
426.73	87.352
427.09	90.611
427.44	89.259
427.79	89.418
428.15	89.030
428.50	91.520
428.85	88.839
429.21	90.257
429.56	90.110
429.92	87.994
430.27	89.547
430.62	89.832
430.98	89.683
431.33	90.712
431.68	90.208
432.04	92.175
432.39	89.542
432.74	88.741
433.10	90.600
433.45	90.627
433.80	90.536
434.16	89.873
434.51	90.691
434.86	92.810
435.22	90.047
435.57	93.140
435.92	90.588
436.28	89.788
436.63	91.413
436.98	92.407
437.34	92.898
437.69	91.790
438.04	91.647
438.39	92.689
438.75	90.646
439.10	93.631
439.45	94.544
439.81	92.127
440.16	94.434
440.51	91.326
440.86	94.066
441.22	92.138
441.57	93.732
441.92	96.135
442.27	95.771
442.63	94.582
442.98	95.660
443.33	93.713
443.68	94.620
444.03	92.990
444.39	95.523
444.74	94.390
445.09	96.163
445.44	95.335
445.79	97.411
446.15	95.044
446.50	96.241
446.85	95.270
447.20	95.897
447.55	93.194
447.91	95.121
448.26	96.024
448.61	96.979
448.96	96.274
449.31	96.986
449.66	96.186
450.02	95.266
450.37	96.841
450.72	95.871
451.07	98.220
451.42	97.299
451.77	97.037
452.12	96.930
452.47	95.122
452.83	98.007
453.18	98.109
453.53	97.322
453.88	97.575
454.23	95.783
454.58	97.324
454.93	96.662
455.28	97.013
455.63	96.621
455.98	97.652
456.34	97.120
456.69	98.307
457.04	95.144
457.39	95.381
457.74	97.661
458.09	94.586
458.44	97.364
458.79	95.760
459.14	95.707
459.49	96.497
459.84	97.503
460.19	95.997
460.54	95.581
460.89	95.000
461.24	97.013
461.59	96.593
461.94	95.924
462.29	95.113
462.64	96.309
462.99	97.825
463.34	96.337
463.69	96.982
464.04	97.178
464.39	96.013
464.74	94.873
465.09	95.498
465.44	94.901
465.79	94.284
466.14	96.480
466.49	95.955
466.84	95.823
467.19	94.802
467.54	93.501
467.89	95.754
468.24	94.508
468.59	93.259
468.94	96.301
469.29	95.156
469.64	94.967
469.99	94.304
470.34	93.847
470.68	95.692
471.03	93.942
471.38	95.363
471.73	95.058
472.08	93.381
472.43	94.537
472.78	95.504
473.13	94.035
473.48	95.297
473.83	95.376
474.17	93.996
474.52	94.307
474.87	95.328
475.22	94.981
475.57	95.476
475.92	94.372
476.27	93.369
476.61	93.262
476.96	95.791
477.31	94.121
477.66	93.666
478.01	93.408
478.36	94.900
478.70	95.324
479.05	95.125
479.40	95.246
479.75	96.915
480.10	94.697
480.45	94.398
480.79	94.655
481.14	93.411
481.49	94.293
481.84	94.545
482.19	94.244
482.53	94.118
482.88	95.069
483.23	93.266
483.58	93.762
483.92	92.915
484.27	93.950
484.62	94.059
484.97	92.267
485.31	91.763
485.66	92.278
486.01	92.096
486.36	93.281
486.70	94.759
487.05	94.369
487.40	94.356
487.75	93.673
488.09	90.883
488.44	92.150
488.79	89.679
489.13	92.228
489.48	91.475
489.83	90.939
490.17	91.421
490.52	89.388
490.87	92.285
491.22	91.617
491.56	91.947
491.91	92.369
492.26	94.391
492.60	92.194
492.95	92.197
493.30	92.734
493.64	92.444
493.99	92.094
494.34	92.397
494.68	91.328
495.03	90.467
495.37	89.255
495.72	91.719
496.07	91.075
496.41	91.848
496.76	91.213
497.11	93.304
497.45	91.210
497.80	90.031
498.14	91.024
498.49	92.579
498.84	89.570
499.18	89.881
499.53	92.108
499.87	91.807
500.22	92.156
500.56	94.244
500.91	92.449
501.26	91.654
501.60	91.488
501.95	92.631
502.29	90.764
502.64	90.642
502.98	89.248
503.33	89.965
503.67	91.475
504.02	91.624
504.36	90.498
504.71	92.766
505.06	92.555
505.40	93.351
505.75	90.785
506.09	91.874
506.44	92.275
506.78	91.970
507.13	91.422
507.47	92.022
507.82	90.960
508.16	92.483
508.51	92.560
508.85	92.582
509.19	90.949
509.54	92.805
509.88	92.002
510.23	92.079
510.57	91.425
510.92	92.063
511.26	91.844
511.61	92.237
511.95	91.903
512.30	92.116
512.64	90.440
512.98	93.089
513.33	90.211
513.67	90.778
514.02	93.750
514.36	92.289
514.70	93.564
515.05	94.146
515.39	94.668
515.74	94.048
516.08	93.032
516.42	96.271
516.77	94.099
517.11	92.905
517.46	95.003
517.80	94.576
518.14	94.307
518.49	95.925
518.83	95.979
519.17	95.051
519.52	93.816
519.86	95.947
520.20	93.567
520.55	94.582
520.89	97.436
521.23	95.658
521.58	94.312
521.92	95.594
522.26	96.838
522.61	96.928
522.95	96.781
523.29	94.062
523.64	96.336
523.98	95.699
524.32	94.747
524.66	97.757
525.01	95.945
525.35	95.280
525.69	94.012
526.04	97.956
526.38	96.299
526.72	96.111
527.06	98.383
527.41	99.362
527.75	97.487
528.09	97.100
528.43	97.378
528.78	97.205
529.12	97.671
529.46	95.615
529.80	97.345
530.15	96.734
530.49	97.350
530.83	98.626
531.17	95.339
531.51	98.358
531.86	96.008
532.20	96.681
532.54	97.338
532.88	97.455
533.22	97.126
533.57	97.517
533.91	98.761
534.25	99.661
534.59	97.868
534.93	97.985
535.27	98.114
535.62	96.894
535.96	100.698
536.30	97.008
536.64	97.568
536.98	97.124
537.32	99.554
537.66	96.848
538.01	97.791
538.35	97.745
538.69	97.240
539.03	97.044
539.37	98.492
539.71	97.754
540.05	99.059
540.39	96.732
540.73	97.729
541.07	98.162
541.42	95.581
541.76	97.554
542.10	96.628
542.44	97.327
542.78	96.921
543.12	97.473
543.46	98.808
543.80	96.926
544.14	98.853
544.48	97.053
544.82	95.245
545.16	99.420
545.50	99.199
545.84	98.171
546.18	97.903
546.52	97.925
546.86	98.776
547.20	99.697
547.54	98.332
547.88	96.368
548.22	96.976
548.56	98.732
548.90	97.193
549.24	95.833
549.58	96.870
549.92	95.038
550.26	96.834
550.60	99.683
550.94	98.968
551.28	97.317
551.62	99.918
551.96	99.521
552.30	97.287
552.64	96.544
552.98	96.434
553.32	94.394
553.66	95.068
554.00	98.842
554.34	98.750
554.68	97.608
555.02	97.778
555.36	96.346
555.69	97.694
556.03	94.752
556.37	95.274
556.71	96.078
557.05	96.875
557.39	99.036
557.73	95.676
558.07	96.401
558.41	95.291
558.75	98.755
559.08	98.723
559.42	96.656
559.76	98.905
560.10	96.088
560.44	95.724
560.78	95.718
561.12	97.671
561.45	97.842
561.79	96.402
562.13	97.480
562.47	97.706
562.81	97.119
563.15	94.677
563.48	95.206
563.82	96.361
564.16	93.179
564.50	94.771
564.84	95.535
565.17	97.139
565.51	95.355
565.85	96.268
566.19	94.572
566.52	97.706
566.86	95.628
567.20	96.740
567.54	96.809
567.88	95.752
568.21	95.193
568.55	94.567
568.89	96.099
569.23	95.131
569.56	95.172
569.90	94.690
570.24	93.184
570.57	94.169
570.91	94.105
571.25	93.664
571.59	92.754
571.92	92.093
572.26	90.589
572.60	92.367
572.93	92.371
573.27	91.045
573.61	91.767
573.95	91.174
574.28	91.559
574.62	89.645
574.96	91.604
575.29	89.855
575.63	89.565
575.97	89.362
576.30	90.110
576.64	89.691
576.98	89.864
577.31	90.678
577.65	90.630
577.98	89.767
578.32	89.916
578.66	89.548
578.99	90.619
579.33	89.491
579.67	89.437
580.00	89.564
580.34	89.349
580.67	89.598
581.01	89.016
581.35	88.757
581.68	88.498
582.02	89.489
582.35	89.456
582.69	90.415
583.02	90.203
583.36	89.255
583.70	90.847
584.03	89.204
584.37	89.323
584.70	89.589
585.04	88.129
585.37	88.704
585.71	88.746
586.04	90.704
586.38	89.621
586.72	91.021
587.05	89.766
587.39	90.095
587.72	90.358
588.06	88.982
588.39	90.272
588.73	89.975
589.06	89.127
589.40	90.285
589.73	90.539
590.07	90.321
590.40	89.719
590.73	89.671
591.07	89.221
591.40	88.990
591.74	90.625
592.07	89.351
592.41	91.518
592.74	92.245
593.08	88.881
593.41	89.750
593.75	89.619
594.08	91.455
594.41	91.258
594.75	89.193
595.08	88.235
595.42	89.410
595.75	87.727
596.09	90.192
596.42	89.979
596.75	89.500
597.09	88.246
597.42	89.254
597.75	89.634
598.09	88.390
598.42	89.636
598.76	88.980
599.09	89.538
599.42	86.349
599.76	89.643
600.09	89.561
600.42	87.266
600.76	88.722
601.09	87.922
601.42	87.923
601.76	86.851
602.09	87.683
602.42	89.145
602.76	87.958
603.09	89.861
603.42	89.182
603.76	88.544
604.09	88.847
604.42	87.591
604.76	89.366
605.09	88.663
605.42	88.389
605.75	87.483
606.09	89.333
606.42	86.570
606.75	87.256
607.09	89.739
607.42	86.783
607.75	87.236
608.08	87.746
608.42	86.421
608.75	89.245
609.08	86.875
609.41	88.699
609.75	87.309
610.08	87.959
610.41	88.092
610.74	88.271
611.07	89.001
611.41	87.527
611.74	86.942
612.07	88.058
612.40	88.858
612.73	88.773
613.07	87.023
613.40	87.809
613.73	87.514
614.06	88.407
614.39	88.401
614.72	87.072
615.06	87.026
615.39	87.009
615.72	86.170
616.05	86.783
616.38	86.773
616.71	87.189
617.05	86.558
617.38	86.774
617.71	87.786
618.04	90.079
618.37	87.639
618.70	88.859
619.03	88.832
619.36	87.850
619.69	89.036
620.03	89.016
620.36	89.872
620.69	87.879
621.02	87.332
621.35	88.340
621.68	89.919
622.01	88.592
622.34	87.270
622.67	88.280
623.00	88.206
623.33	85.984
623.66	90.677
623.99	86.922
624.32	86.736
624.65	88.047
624.99	86.953
625.32	88.310
625.65	86.389
625.98	87.500
626.31	87.013
626.64	88.919
626.97	89.706
627.30	88.796
627.63	89.953
627.96	86.778
628.29	87.667
628.62	90.722
628.95	89.335
629.28	87.810
629.61	89.655
629.94	89.004
630.26	88.912
630.59	86.911
630.92	85.564
631.25	88.268
631.58	88.023
631.91	88.497
632.24	87.574
632.57	88.109
632.90	89.053
633.23	88.774
633.56	88.302
633.89	89.842
634.22	89.872
634.55	91.853
634.88	90.629
635.20	91.096
635.53	92.039
635.86	91.848
636.19	88.950
636.52	91.779
636.85	87.875
637.18	86.788
637.51	90.921
637.83	88.827
638.16	93.314
638.49	87.896
638.82	89.311
639.15	88.429
639.48	87.773
639.81	90.611
640.13	90.352
640.46	89.291
640.79	88.062
641.12	88.527
641.45	88.336
641.77	88.217
642.10	87.948
642.43	90.404
642.76	90.143
643.09	88.408
643.41	90.143
643.74	85.938
644.07	88.183
644.40	90.975
644.73	88.214
645.05	90.649
645.38	91.538
645.71	91.031
646.04	88.476
646.36	89.394
646.69	90.135
647.02	91.602
647.35	88.600
647.67	90.180
648.00	88.932
648.33	89.210
648.66	90.167
648.98	85.424
649.31	88.985
649.64	88.468
649.96	87.331
650.29	84.248
650.62	87.199
650.94	85.028
651.27	87.091
651.60	87.763
651.92	87.405
652.25	85.086
652.58	85.637
652.90	83.630
653.23	86.654
653.56	82.639
653.88	87.409
654.21	85.444
654.54	87.054
654.86	87.770
655.19	84.839
655.52	89.087
655.84	85.753
656.17	83.164
656.49	100.000
656.82	100.000
657.15	100.000
657.47	95.590
657.80	56.958
658.13	46.606
658.45	77.544
658.78	75.813
659.10	72.922
659.43	71.342
659.75	69.881
660.08	70.052
660.41	71.372
660.73	74.931
661.06	80.545
661.38	82.056
661.71	82.713
662.03	89.815
662.36	87.112
662.68	85.372
663.01	90.865
663.33	84.906
663.66	88.517
663.98	88.998
664.31	86.098
664.63	82.569
664.96	84.323
665.28	84.634
665.61	86.449
665.93	86.406
666.26	84.106
666.58	83.945
666.91	83.372
667.23	84.975
667.56	83.210
667.88	85.965
668.21	86.802
668.53	86.802
668.86	89.031
669.18	82.487
669.50	87.404
669.83	83.750
670.15	83.500
670.48	82.206
670.80	88.579
671.13	84.819
671.45	85.969
671.77	84.783
672.10	81.319
672.42	82.072
672.75	82.913
673.07	82.617
673.39	82.879
673.72	84.917
674.04	81.489
674.37	87.991
674.69	81.776
675.01	83.256
675.34	83.088
675.66	80.238
675.98	82.576
676.31	85.642
676.63	83.505
676.95	79.616
677.28	78.465
677.60	83.960
677.92	83.709
678.25	80.278
678.57	80.046
678.89	81.422
679.22	83.028
679.54	82.183
679.86	80.086
680.18	77.615
680.51	81.520
680.83	82.917
681.15	84.967
681.48	77.872
681.80	81.087
682.12	79.229
682.44	81.466
682.77	81.591
683.09	84.559
683.41	85.464
683.73	79.397
684.06	81.218
684.38	85.132
684.70	84.527
685.02	80.952
685.34	76.987
685.67	77.075
685.99	83.034
686.31	79.478
686.63	78.252
686.96	78.455
687.28	79.671
687.60	76.181
687.92	79.325
688.24	78.947
688.56	79.560
688.89	78.082
689.21	73.721
689.53	82.097
689.85	80.759
690.17	79.412
690.49	75.059
690.82	77.396
691.14	81.984
691.46	80.250
691.78	78.230
692.10	77.982
692.42	78.440
692.74	80.806
693.06	79.277
693.39	81.773
693.71	75.581
694.03	78.019
694.35	78.218
694.67	78.626
694.99	77.358
695.31	81.303
695.63	82.162
695.95	80.618
696.27	82.720
696.59	79.822
696.91	76.068
697.23	77.937
697.56	80.052
697.88	76.347
698.20	75.303
698.52	75.962
698.84	75.188
699.16	79.683
699.48	79.581
699.80	79.670
700.12	76.309
700.44	71.976
700.76	75.710
701.08	74.286
701.40	81.579
701.72	78.667
702.04	77.891
702.36	80.984
702.68	81.879
703.00	78.864
703.32	71.257
703.64	80.126
703.96	75.316
704.28	81.338
704.60	80.137
704.91	74.013
705.23	74.737
705.55	72.862
705.87	77.698
706.19	80.080
706.51	76.953
706.83	79.487
707.15	76.271
707.47	73.353
707.79	76.218
708.11	75.926
708.43	75.467
708.74	74.590
709.06	74.847
709.38	72.997
709.70	78.896
710.02	78.671
710.34	73.050
710.66	79.026
710.98	77.972
711.29	76.632
711.61	75.532
711.93	79.026
712.25	73.962
712.57	75.391
712.89	77.143
713.20	80.242
713.52	73.577
713.84	72.628
714.16	72.973
714.48	78.157
714.80	77.441
715.11	75.945
715.43	74.744
715.75	74.035
716.07	72.000
716.39	71.672
716.70	82.400
717.02	72.984
717.34	74.892
717.66	78.636
717.97	70.833
718.29	78.667
718.61	75.676
718.93	76.050
719.24	77.406
719.56	77.679
719.88	66.667
720.20	76.068
720.51	79.825
720.83	71.548
721.15	72.245
721.46	74.262
721.78	73.593
722.10	68.605
722.42	73.478
722.73	69.231
723.05	79.724
723.37	72.398
723.68	73.934
724.00	73.148
724.32	77.103
724.63	69.683
724.95	70.776
725.27	76.056
725.58	77.169
725.90	64.865
726.22	78.603
726.53	71.311
726.85	73.704
727.16	70.850
727.48	73.387
727.80	72.603
728.11	73.333
728.43	67.078
728.74	68.421
729.06	74.236
729.38	68.605
729.69	68.000
730.01	72.803
730.32	70.518
730.64	70.769
730.96	65.637
731.27	70.656
731.59	63.636
731.90	68.421
732.22	69.103
732.53	63.860
732.85	67.254
733.16	71.062
733.48	64.179
733.80	64.000
734.11	68.794
734.43	72.924
734.74	67.913
735.06	70.740
735.37	65.815
735.69	66.549
736.00	69.259
736.32	65.035
736.63	68.889
736.95	74.708
737.26	67.391
737.58	63.139
737.89	66.415
738.21	64.504
738.52	71.311
738.83	68.803
739.15	72.727
739.46	68.468
739.78	70.656
740.09	66.667
740.41	69.318
740.72	64.940
741.04	65.613
741.35	67.265
741.66	71.505
741.98	63.265
742.29	63.212
742.61	72.832
742.92	65.686
743.23	66.169
743.55	63.731
743.86	71.498
744.18	63.500
744.49	71.111
744.80	66.667
745.12	65.128
745.43	67.380
745.74	66.310
746.06	78.161
746.37	70.000
746.68	72.432
747.00	62.431
747.31	68.586
747.62	73.158
747.94	66.509
748.25	68.473
748.56	71.717
748.88	71.038
749.19	64.767
749.50	70.588
749.82	68.000
750.13	73.301
750.44	63.948
750.75	69.200
751.07	68.201
751.38	64.063
751.69	63.492
752.01	65.546
752.32	61.157
752.63	64.629
752.94	60.800
753.26	57.534
753.57	65.877
753.88	60.000
754.19	65.639
754.51	65.690
754.82	68.333
755.13	65.487
755.44	62.771
755.75	63.454
756.07	67.811
756.38	71.548
756.69	70.943
757.00	62.766
757.31	66.090
757.63	65.033
757.94	59.394
758.25	63.690
758.56	60.541
758.87	59.821
759.18	61.994
759.50	61.210
759.81	65.251
760.12	64.769
760.43	64.452
760.74	61.976
761.05	64.423
761.36	65.875
761.67	61.398
761.99	61.538
762.30	65.091
762.61	60.976
762.92	62.222
763.23	64.651
763.54	65.990
763.85	62.443
764.16	62.609
764.47	61.304
764.78	59.677
765.10	61.417
765.41	59.532
765.72	56.522
766.03	60.870
766.34	62.500
766.65	64.062
766.96	61.333
767.27	71.508
767.58	76.101
767.89	59.740
768.20	60.811
768.51	60.920
768.82	63.750
769.13	61.111
769.44	58.019
769.75	62.255
770.06	60.194
770.37	64.362
770.68	58.462
770.99	63.452
771.30	68.041
771.61	55.605
771.92	63.208
772.23	62.019
772.54	65.294
772.85	59.589
773.16	60.645
773.47	56.688
773.78	56.886
774.09	57.895
774.39	55.147
774.70	58.647
775.01	70.769
775.32	54.762
775.63	62.992
775.94	52.830
776.25	54.074
776.56	60.909
776.87	63.248
777.18	61.000
777.48	54.808
777.79	54.630
778.10	48.113
778.41	64.706
778.72	66.981
779.03	51.754
779.34	54.622
779.65	55.634
779.95	49.640
780.26	58.065
780.57	47.826
780.88	53.211
781.19	58.333
781.50	53.279
781.80	53.285
782.11	60.897
782.42	48.966
782.73	52.448
783.04	63.200
783.34	48.800
783.65	62.602
783.96	58.197
784.27	58.824
784.57	48.598
784.88	48.214
785.19	56.701
785.50	62.105
785.81	59.000
786.11	55.446
786.42	49.412
786.73	61.458
787.04	47.959
787.34	55.556
787.65	66.981
787.96	54.639
788.26	40.594
788.57	52.174
788.88	40.367
789.19	51.240
789.49	54.783
789.80	58.621
790.11	54.878
790.41	62.921
790.72	43.023
791.03	52.326
791.33	28.571
791.64	47.561
791.95	54.878
792.25	33.735
792.56	43.210
792.87	47.887
793.17	49.398
793.48	37.647
793.79	47.500
794.09	50.000
794.40	43.478
794.70	49.565
795.01	47.706
795.32	50.394
795.62	54.902
795.93	60.784
796.23	45.455
796.54	40.698
796.85	44.928
797.15	46.875
797.46	50.847
797.76	57.377
798.07	30.263
798.37	25.806
798.68	39.063
798.99	52.308
799.29	31.818
799.60	46.377
799.90	47.143
800.21	26.316
800.51	48.276
800.82	28.302
801.12	37.255
801.43	30.645
801.73	45.161
802.04	66.000
802.34	37.736
802.65	18.421
802.95	41.818
803.26	0.000
803.56	27.869
803.87	44.000
804.17	20.370
804.48	34.615
804.78	22.449
805.09	34.043
805.39	61.017
805.70	18.750
806.00	37.500
806.30	23.729
806.61	46.154
806.91	46.154
807.22	36.842
807.52	28.571
807.83	24.138
808.13	31.646
808.43	52.459
808.74	60.656
809.04	48.649
809.35	40.741
809.65	41.071
809.95	37.288
810.26	20.408
810.56	28.302
810.86	31.373
811.17	29.730
811.47	33.333
811.77	29.412
812.08	43.182
812.38	33.333
812.69	35.897
812.99	40.476
813.29	50.000
813.59	34.286
813.90	35.714
814.20	36.364
814.50	30.612
814.81	33.333
815.11	20.833
815.41	17.073
815.72	15.385
816.02	42.553
816.32	65.625
816.62	57.576
816.93	12.121
817.23	21.622
817.53	32.353
817.84	60.000
818.14	11.765
818.44	50.000
818.74	33.333
819.04	20.000
819.35	20.000
819.65	27.273
819.95	23.077
820.25	-22.222
820.56	6.897
820.86	25.000
821.16	21.739
821.46	7.143
821.76	33.333
822.07	17.391
822.37	12.245
822.67	-2.326
822.97	47.826
823.27	42.308
823.57	-3.704
823.88	21.429
824.18	2.564
824.48	14.286
824.78	18.182
825.08	-46.667
825.38	22.500
825.69	-11.111
825.99	3.704
826.29	26.667
826.59	14.815
826.89	18.519
827.19	14.286
827.49	9.091
827.79	-40.909
828.09	9.091
828.39	26.087
828.70	40.741
829.00	-3.571
829.30	11.905
829.60	25.806
829.90	-7.692
830.20	25.641
830.50	-31.818
830.80	-9.524
831.10	-22.222
831.40	-21.429
831.70	3.704
832.00	5.882
832.30	39.130
832.60	16.667
832.90	-54.545
833.20	-55.556
833.50	28.125
833.80	-7.692
834.10	36.000
834.40	-12.500
834.70	-9.091
835.00	61.538
835.30	0.000
835.60	-120.000
835.90	-35.000
836.20	78.571
836.50	47.826
836.80	-22.222
837.10	-13.333
837.40	-140.000
837.70	-13.043
838.00	-35.714
838.30	1200.000
838.60	48.000
838.90	-120.000
839.19	11.111
839.49	-150.000
839.79	-11.765
840.09	-44.444
840.39	21.429
840.69	-33.333
840.99	25.000
841.29	0.000
841.59	6.667
841.88	-81.818
842.18	-100.000
842.48	6.250
842.78	-3.846
843.08	-35.294
843.38	10.000
843.68	-15.385
843.97	23.529
844.27	-30.000
844.57	-8.333
844.87	-9.091
845.17	-78.947
845.47	-88.889
845.76	27.778
846.06	-33.333
846.36	-42.857
846.66	-111.111
846.96	15.000
847.25	60.000
847.55	-100.000
847.85	-73.333
848.15	-225.000
848.44	21.053
848.74	-46.667
849.04	-42.105
849.34	-400.000
849.63	-266.667
849.93	29.412
850.23	-118.182
850.53	-33.333
850.82	120.000
851.12	-200.000
851.42	-71.429
851.71	-120.000
852.01	-21.429
852.31	-533.333
852.61	-38.462
852.90	-240.000
853.20	-255.556
853.50	-122.222
853.79	-100.000
854.09	-85.000
854.39	-52.632
854.68	5.000
854.98	-250.000
855.28	11.111
855.57	-71.429
855.87	26.316
856.17	-18.750
856.46	26.923
856.76	-6.667
857.05	-12.500
857.35	0.000
857.65	-5.556
857.94	12.500
858.24	-17.391
858.53	-120.000
858.83	-33.333
859.13	-218.182
859.42	-100.000
859.72	83.333
860.01	0.000
860.31	20.000
860.60	-187.500
860.90	-100.000
861.20	-233.333
861.49	-50.000
861.79	750.000
862.08	41.935
862.38	-47.368
862.67	7.692
862.97	-80.000
863.26	-25.000
863.56	-17.391
863.85	-166.667
864.15	-64.286
864.44	6.250
864.74	-83.333
865.03	-133.333
865.33	-266.667
865.62	-1700.000
865.92	-750.000
866.21	-250.000
866.51	27.273
866.80	-266.667
867.10	-171.429
867.39	-100.000
867.69	-33.333
867.98	240.000
868.27	-625.000
868.57	575.000
868.86	-66.667
869.16	0.000
869.45	750.000
869.75	-233.333
870.04	-166.667
870.33	11.765
870.63	-185.714
870.92	56.522
871.22	-225.000
871.51	500.000
871.80	50.000
872.10	-533.333
>>>>>End Processed Spectral Data<<<<<
