SpectraSuite Data File
++++++++++++++++++++++++++++++++++++
Date: Wed May 13 19:36:09 PDT 2015
User: schluterlab
Dark Spectrum Present: Yes
Reference Spectrum Present: Yes
Number of Sampled Component Spectra: 1
Spectrometers: USB2E3373
Integration Time (usec): 3000 (USB2E3373)
Spectra Averaged: 3 (USB2E3373)
Boxcar Smoothing: 0 (USB2E3373)
Correct for Electrical Dark: No (USB2E3373)
Strobe/Lamp Enabled: No (USB2E3373)
Correct for Detector Non-linearity: No (USB2E3373)
Correct for Stray Light: No (USB2E3373)
Number of Pixels in Processed Spectrum: 2048
>>>>>Begin Processed Spectral Data<<<<<
178.53	0.000
178.91	-1500.000
179.29	-1425.000
179.67	-233.333
180.04	-1250.000
180.42	3200.000
180.80	1080.000
181.18	-1300.000
181.56	685.714
181.94	0.000
182.31	-671.429
182.69	1766.667
183.07	-637.500
183.45	-566.667
183.83	636.364
184.20	-500.000
184.58	1800.000
184.96	7500.000
185.34	-780.000
185.72	-700.000
186.09	-2700.000
186.47	2950.000
186.85	2850.000
187.23	5900.000
187.61	-2033.333
187.98	1375.000
188.36	572.727
188.74	572.727
189.12	-1080.000
189.49	600.000
189.87	-5800.000
190.25	-1500.000
190.63	478.571
191.00	400.000
191.38	866.667
191.76	-1325.000
192.14	1250.000
192.51	625.000
192.89	1100.000
193.27	725.000
193.65	-1325.000
194.02	550.000
194.40	1180.000
194.78	640.000
195.15	516.667
195.53	700.000
195.91	-2350.000
196.29	400.000
196.66	357.895
197.04	-460.000
197.42	0.000
197.79	670.000
198.17	-6200.000
198.55	800.000
198.92	712.500
199.30	900.000
199.68	0.000
200.05	338.889
200.43	728.571
200.81	4200.000
201.18	1600.000
201.56	-1800.000
201.94	644.444
202.31	600.000
202.69	458.333
203.07	610.000
203.44	0.000
203.82	1325.000
204.19	871.429
204.57	500.000
204.95	675.000
205.32	1833.333
205.70	409.091
206.08	414.286
206.45	3000.000
206.83	425.000
207.20	1066.667
207.58	820.000
207.96	338.889
208.33	812.500
208.71	-883.333
209.08	728.571
209.46	700.000
209.84	554.545
210.21	-1800.000
210.59	1600.000
210.96	-575.000
211.34	2700.000
211.71	550.000
212.09	850.000
212.46	0.000
212.84	1633.333
213.22	1475.000
213.59	-6100.000
213.97	1083.333
214.34	957.143
214.72	672.727
215.09	1140.000
215.47	-2250.000
215.84	-2900.000
216.22	2066.667
216.59	471.429
216.97	1475.000
217.34	545.455
217.72	-800.000
218.09	0.000
218.47	-5900.000
218.84	711.111
219.22	900.000
219.59	1766.667
219.97	-642.857
220.34	1020.000
220.72	-1966.667
221.09	442.857
221.47	1550.000
221.84	-933.333
222.22	0.000
222.59	1500.000
222.97	-2700.000
223.34	1400.000
223.72	453.846
224.09	1200.000
224.46	2750.000
224.84	-5800.000
225.21	-1080.000
225.59	-4600.000
225.96	660.000
226.34	300.000
226.71	2800.000
227.08	812.500
227.46	520.000
227.83	-1375.000
228.21	-2350.000
228.58	766.667
228.95	-2450.000
229.33	-2700.000
229.70	1733.333
230.08	800.000
230.45	-980.000
230.82	575.000
231.20	883.333
231.57	714.286
231.95	541.667
232.32	268.182
232.69	481.818
233.07	742.857
233.44	369.231
233.81	-1900.000
234.19	363.158
234.56	483.333
234.93	508.333
235.31	472.727
235.68	369.231
236.05	400.000
236.43	215.152
236.80	321.053
237.17	5900.000
237.55	271.429
237.92	242.857
238.29	276.190
238.67	193.548
239.04	241.379
239.41	163.889
239.79	143.478
240.16	147.619
240.53	118.182
240.91	119.608
241.28	116.000
241.65	120.000
242.02	98.551
242.40	108.065
242.77	130.000
243.14	80.645
243.51	83.146
243.89	83.529
244.26	77.778
244.63	81.720
245.00	75.532
245.38	76.238
245.75	65.421
246.12	66.972
246.49	67.883
246.87	73.600
247.24	71.538
247.61	69.286
247.98	56.863
248.36	54.730
248.73	53.503
249.10	59.236
249.47	52.542
249.84	51.872
250.22	48.128
250.59	54.438
250.96	54.040
251.33	49.763
251.70	50.495
252.08	49.048
252.45	48.430
252.82	47.391
253.19	44.255
253.56	47.451
253.94	47.718
254.31	49.609
254.68	46.923
255.05	45.018
255.42	47.561
255.79	45.221
256.16	46.570
256.54	42.403
256.91	45.552
257.28	43.165
257.65	42.574
258.02	40.994
258.39	39.748
258.76	40.468
259.14	43.750
259.51	39.514
259.88	38.509
260.25	40.785
260.62	38.439
260.99	39.441
261.36	41.441
261.73	39.828
262.10	43.895
262.47	39.718
262.85	37.047
263.22	36.182
263.59	41.880
263.96	34.890
264.33	38.903
264.70	39.211
265.07	38.619
265.44	38.384
265.81	35.523
266.18	35.678
266.55	40.000
266.92	37.346
267.29	36.111
267.66	36.697
268.03	35.455
268.40	35.514
268.77	33.652
269.14	35.811
269.51	35.666
269.88	35.664
270.25	33.183
270.62	35.730
270.99	37.204
271.36	33.047
271.73	36.916
272.10	33.696
272.47	36.774
272.84	33.117
273.21	33.333
273.58	33.188
273.95	32.495
274.32	33.884
274.69	34.690
275.06	31.890
275.43	34.468
275.80	33.667
276.17	32.994
276.54	33.056
276.91	33.399
277.28	33.203
277.65	34.429
278.02	34.990
278.39	34.375
278.76	31.091
279.13	33.019
279.50	32.030
279.87	32.470
280.23	31.337
280.60	30.561
280.97	32.163
281.34	31.504
281.71	32.364
282.08	32.630
282.45	31.091
282.82	30.728
283.19	30.303
283.56	31.754
283.92	32.487
284.29	30.864
284.66	32.486
285.03	30.741
285.40	29.049
285.77	31.145
286.14	28.670
286.51	30.833
286.87	30.427
287.24	28.664
287.61	27.287
287.98	31.006
288.35	26.783
288.72	28.505
289.08	28.795
289.45	28.666
289.82	28.293
290.19	27.786
290.56	26.034
290.93	27.795
291.29	27.301
291.66	27.434
292.03	28.779
292.40	27.166
292.77	27.959
293.13	27.761
293.50	28.426
293.87	26.222
294.24	25.037
294.60	25.328
294.97	26.599
295.34	26.375
295.71	26.705
296.08	23.932
296.44	24.347
296.81	24.306
297.18	26.016
297.55	21.636
297.91	25.066
298.28	25.033
298.65	24.674
299.02	22.925
299.38	24.568
299.75	22.237
300.12	23.116
300.48	22.750
300.85	22.811
301.22	24.204
301.59	21.212
301.95	24.685
302.32	22.465
302.69	23.178
303.05	22.909
303.42	22.963
303.79	22.763
304.15	22.378
304.52	21.900
304.89	20.674
305.25	20.650
305.62	22.877
305.99	23.495
306.35	22.931
306.72	21.300
307.09	22.420
307.45	22.973
307.82	20.424
308.19	22.075
308.55	22.546
308.92	22.127
309.29	21.225
309.65	21.845
310.02	22.093
310.38	21.505
310.75	22.281
311.12	21.904
311.48	21.526
311.85	23.166
312.22	21.956
312.58	22.765
312.95	22.703
313.31	22.233
313.68	22.661
314.05	24.260
314.41	24.121
314.78	22.860
315.14	23.436
315.51	23.687
315.87	23.564
316.24	23.535
316.61	25.341
316.97	23.288
317.34	24.364
317.70	26.195
318.07	25.505
318.43	25.832
318.80	26.898
319.16	25.518
319.53	26.923
319.89	27.714
320.26	28.300
320.62	29.167
320.99	28.687
321.35	29.495
321.72	31.006
322.08	31.194
322.45	32.836
322.81	32.364
323.18	33.526
323.54	33.488
323.91	33.208
324.27	33.078
324.64	33.178
325.00	34.265
325.37	36.761
325.73	36.176
326.10	36.628
326.46	36.738
326.83	39.258
327.19	38.429
327.56	39.024
327.92	39.545
328.29	40.905
328.65	41.529
329.01	41.426
329.38	41.721
329.74	42.382
330.11	43.167
330.47	43.159
330.84	44.853
331.20	43.260
331.56	43.303
331.93	42.778
332.29	42.857
332.66	44.336
333.02	43.876
333.38	45.167
333.75	44.742
334.11	45.552
334.48	44.898
334.84	46.140
335.20	45.091
335.57	45.331
335.93	46.250
336.29	45.238
336.66	45.987
337.02	45.430
337.38	47.685
337.75	45.900
338.11	45.927
338.47	47.238
338.84	47.113
339.20	47.339
339.56	47.536
339.93	47.455
340.29	46.286
340.65	46.881
341.02	46.859
341.38	48.754
341.74	47.281
342.11	48.210
342.47	48.106
342.83	48.202
343.20	47.186
343.56	46.925
343.92	47.895
344.28	47.534
344.65	47.893
345.01	47.727
345.37	47.084
345.73	47.885
346.10	49.020
346.46	48.644
346.82	46.705
347.19	47.452
347.55	49.261
347.91	50.081
348.27	49.055
348.63	48.913
349.00	48.220
349.36	48.440
349.72	49.559
350.08	49.028
350.45	50.122
350.81	49.472
351.17	48.865
351.53	50.369
351.89	48.597
352.26	50.513
352.62	50.120
352.98	50.891
353.34	49.384
353.70	49.100
354.07	51.210
354.43	49.286
354.79	50.845
355.15	49.082
355.51	51.399
355.87	50.694
356.24	50.896
356.60	50.441
356.96	51.730
357.32	51.922
357.68	51.496
358.04	51.781
358.40	52.573
358.77	51.800
359.13	53.039
359.49	53.020
359.85	51.111
360.21	53.349
360.57	52.840
360.93	54.462
361.29	52.457
361.66	52.632
362.02	53.582
362.38	54.677
362.74	53.795
363.10	53.072
363.46	52.238
363.82	54.422
364.18	53.231
364.54	54.903
364.90	53.895
365.26	55.147
365.62	55.442
365.98	54.492
366.35	53.510
366.71	56.110
367.07	54.989
367.43	55.515
367.79	55.603
368.15	57.112
368.51	54.797
368.87	56.531
369.23	55.230
369.59	55.974
369.95	55.515
370.31	55.840
370.67	56.014
371.03	57.528
371.39	57.434
371.75	57.059
372.11	56.188
372.47	58.431
372.83	59.438
373.19	57.225
373.55	58.537
373.91	59.867
374.27	56.082
374.63	58.909
374.99	58.051
375.35	58.758
375.71	58.739
376.07	59.877
376.42	59.560
376.78	60.106
377.14	59.430
377.50	60.530
377.86	58.644
378.22	58.850
378.58	59.148
378.94	59.334
379.30	61.069
379.66	60.406
380.02	60.442
380.38	59.502
380.74	60.444
381.09	61.675
381.45	62.323
381.81	60.627
382.17	61.529
382.53	60.629
382.89	61.111
383.25	61.914
383.61	63.817
383.97	60.851
384.32	62.321
384.68	62.887
385.04	62.139
385.40	60.867
385.76	61.794
386.12	63.601
386.48	61.674
386.83	65.234
387.19	65.430
387.55	63.575
387.91	63.603
388.27	62.538
388.62	63.307
388.98	62.838
389.34	63.267
389.70	63.642
390.06	64.005
390.42	66.018
390.77	64.186
391.13	64.327
391.49	63.261
391.85	64.863
392.20	64.290
392.56	65.025
392.92	64.391
393.28	64.320
393.64	64.149
393.99	64.325
394.35	64.950
394.71	63.990
395.07	64.174
395.42	66.131
395.78	63.359
396.14	64.308
396.50	65.852
396.85	65.162
397.21	64.612
397.57	64.290
397.92	64.543
398.28	63.733
398.64	65.591
399.00	64.969
399.35	64.072
399.71	64.931
400.07	65.642
400.42	64.724
400.78	64.415
401.14	65.427
401.49	66.149
401.85	64.791
402.21	64.910
402.57	65.145
402.92	67.150
403.28	66.521
403.63	65.532
403.99	66.561
404.35	65.212
404.70	66.067
405.06	64.240
405.42	67.124
405.77	64.171
406.13	65.293
406.49	65.701
406.84	64.796
407.20	64.184
407.55	65.795
407.91	66.733
408.27	65.858
408.62	65.322
408.98	65.870
409.34	65.006
409.69	66.516
410.05	65.861
410.40	66.300
410.76	64.516
411.11	64.837
411.47	65.048
411.83	65.180
412.18	64.811
412.54	64.944
412.89	63.795
413.25	65.762
413.60	66.152
413.96	63.631
414.31	64.885
414.67	64.892
415.03	65.762
415.38	65.335
415.74	66.302
416.09	66.297
416.45	65.797
416.80	64.970
417.16	65.952
417.51	67.551
417.87	64.997
418.22	64.606
418.58	65.268
418.93	64.803
419.29	65.372
419.64	65.554
420.00	65.305
420.35	64.638
420.71	65.093
421.06	63.962
421.42	63.918
421.77	63.789
422.12	64.121
422.48	64.382
422.83	65.929
423.19	64.309
423.54	64.597
423.90	64.290
424.25	63.596
424.61	63.869
424.96	64.898
425.31	64.341
425.67	63.258
426.02	64.229
426.38	65.751
426.73	64.950
427.09	63.465
427.44	63.485
427.79	63.887
428.15	63.452
428.50	63.546
428.85	64.005
429.21	64.108
429.56	64.541
429.92	62.456
430.27	62.463
430.62	62.570
430.98	63.259
431.33	62.526
431.68	63.927
432.04	61.821
432.39	63.221
432.74	64.333
433.10	64.516
433.45	64.665
433.80	63.304
434.16	62.340
434.51	62.684
434.86	62.828
435.22	63.313
435.57	63.951
435.92	63.078
436.28	64.947
436.63	63.466
436.98	63.022
437.34	62.970
437.69	63.769
438.04	62.901
438.39	62.806
438.75	62.754
439.10	63.073
439.45	63.754
439.81	63.263
440.16	62.564
440.51	62.273
440.86	62.015
441.22	61.680
441.57	62.208
441.92	62.590
442.27	63.563
442.63	61.664
442.98	62.592
443.33	62.554
443.68	62.158
444.03	62.421
444.39	61.344
444.74	61.905
445.09	61.995
445.44	61.072
445.79	61.801
446.15	60.138
446.50	60.474
446.85	62.179
447.20	61.040
447.55	62.423
447.91	62.052
448.26	62.159
448.61	60.938
448.96	62.126
449.31	61.249
449.66	60.551
450.02	61.114
450.37	61.508
450.72	61.591
451.07	61.182
451.42	59.818
451.77	61.186
452.12	61.201
452.47	60.261
452.83	60.431
453.18	60.269
453.53	62.090
453.88	59.835
454.23	59.952
454.58	61.236
454.93	62.873
455.28	59.476
455.63	59.102
455.98	61.190
456.34	60.553
456.69	61.553
457.04	61.734
457.39	59.322
457.74	60.186
458.09	59.402
458.44	59.920
458.79	58.406
459.14	59.312
459.49	58.435
459.84	58.892
460.19	57.808
460.54	57.523
460.89	59.408
461.24	59.806
461.59	58.803
461.94	59.125
462.29	59.347
462.64	57.690
462.99	56.994
463.34	59.133
463.69	58.849
464.04	57.391
464.39	57.101
464.74	57.457
465.09	57.419
465.44	56.898
465.79	57.830
466.14	56.377
466.49	56.452
466.84	56.217
467.19	55.944
467.54	58.125
467.89	56.783
468.24	57.068
468.59	56.899
468.94	55.467
469.29	57.005
469.64	57.497
469.99	56.495
470.34	57.133
470.68	56.250
471.03	55.782
471.38	57.123
471.73	56.562
472.08	57.171
472.43	55.465
472.78	55.365
473.13	54.493
473.48	55.930
473.83	55.610
474.17	54.885
474.52	54.653
474.87	55.400
475.22	54.034
475.57	54.057
475.92	54.381
476.27	53.833
476.61	54.385
476.96	54.700
477.31	54.055
477.66	53.775
478.01	52.222
478.36	53.570
478.70	52.440
479.05	53.035
479.40	53.378
479.75	52.567
480.10	51.541
480.45	51.832
480.79	50.932
481.14	51.712
481.49	51.922
481.84	51.715
482.19	52.840
482.53	51.055
482.88	51.094
483.23	50.981
483.58	50.773
483.92	51.874
484.27	49.891
484.62	50.991
484.97	49.468
485.31	50.342
485.66	48.009
486.01	46.610
486.36	44.876
486.70	44.290
487.05	45.467
487.40	46.808
487.75	46.961
488.09	47.953
488.44	47.899
488.79	48.571
489.13	49.847
489.48	48.654
489.83	49.029
490.17	49.320
490.52	49.159
490.87	48.892
491.22	47.931
491.56	48.200
491.91	47.976
492.26	48.599
492.60	47.926
492.95	48.410
493.30	47.383
493.64	48.110
493.99	47.354
494.34	47.456
494.68	48.031
495.03	48.449
495.37	46.533
495.72	47.515
496.07	47.425
496.41	45.619
496.76	46.482
497.11	47.321
497.45	47.788
497.80	46.017
498.14	46.908
498.49	47.122
498.84	46.548
499.18	46.810
499.53	46.866
499.87	45.760
500.22	45.266
500.56	47.136
500.91	45.000
501.26	45.614
501.60	46.417
501.95	45.234
502.29	45.783
502.64	45.903
502.98	46.096
503.33	44.196
503.67	44.594
504.02	46.258
504.36	45.344
504.71	45.823
505.06	46.169
505.40	45.649
505.75	44.118
506.09	44.752
506.44	44.993
506.78	44.131
507.13	45.280
507.47	45.253
507.82	44.833
508.16	45.491
508.51	45.205
508.85	44.538
509.19	44.847
509.54	45.408
509.88	43.998
510.23	44.267
510.57	44.221
510.92	43.604
511.26	44.553
511.61	43.932
511.95	43.372
512.30	43.478
512.64	43.579
512.98	44.480
513.33	43.737
513.67	42.529
514.02	42.532
514.36	44.184
514.70	43.498
515.05	43.168
515.39	44.083
515.74	44.032
516.08	43.823
516.42	44.118
516.77	43.924
517.11	42.286
517.46	43.397
517.80	44.019
518.14	43.138
518.49	43.816
518.83	43.295
519.17	43.533
519.52	43.011
519.86	43.582
520.20	42.890
520.55	43.447
520.89	43.005
521.23	43.848
521.58	42.797
521.92	43.172
522.26	41.245
522.61	43.676
522.95	43.401
523.29	42.970
523.64	43.476
523.98	42.760
524.32	42.943
524.66	42.514
525.01	42.708
525.35	42.379
525.69	42.672
526.04	42.118
526.38	42.160
526.72	41.779
527.06	43.252
527.41	40.470
527.75	41.736
528.09	42.518
528.43	42.192
528.78	41.364
529.12	40.061
529.46	40.968
529.80	42.079
530.15	41.308
530.49	39.938
530.83	40.380
531.17	42.363
531.51	42.023
531.86	40.516
532.20	42.243
532.54	41.127
532.88	40.565
533.22	40.162
533.57	39.568
533.91	39.856
534.25	39.793
534.59	39.902
534.93	39.084
535.27	39.409
535.62	40.537
535.96	40.176
536.30	39.987
536.64	39.858
536.98	40.279
537.32	39.895
537.66	40.467
538.01	40.816
538.35	40.142
538.69	38.736
539.03	38.337
539.37	39.297
539.71	38.691
540.05	40.131
540.39	39.203
540.73	38.422
541.07	39.520
541.42	39.465
541.76	38.710
542.10	39.198
542.44	39.007
542.78	40.119
543.12	38.516
543.46	38.689
543.80	39.558
544.14	38.383
544.48	38.667
544.82	37.524
545.16	39.037
545.50	38.111
545.84	38.239
546.18	39.327
546.52	39.160
546.86	37.869
547.20	38.166
547.54	38.410
547.88	38.265
548.22	36.488
548.56	37.673
548.90	36.364
549.24	38.047
549.58	37.244
549.92	37.363
550.26	38.920
550.60	36.584
550.94	38.662
551.28	37.089
551.62	37.527
551.96	37.614
552.30	38.498
552.64	37.593
552.98	37.356
553.32	36.952
553.66	37.764
554.00	37.886
554.34	36.370
554.68	38.841
555.02	36.883
555.36	36.813
555.69	36.739
556.03	36.070
556.37	36.426
556.71	36.153
557.05	36.905
557.39	37.019
557.73	37.191
558.07	37.418
558.41	36.469
558.75	37.546
559.08	37.808
559.42	37.339
559.76	37.279
560.10	36.831
560.44	36.618
560.78	34.864
561.12	35.224
561.45	35.919
561.79	34.476
562.13	35.345
562.47	36.407
562.81	36.402
563.15	34.916
563.48	36.074
563.82	35.551
564.16	34.598
564.50	35.026
564.84	34.956
565.17	35.264
565.51	35.272
565.85	35.343
566.19	34.126
566.52	35.339
566.86	34.117
567.20	35.200
567.54	34.418
567.88	33.080
568.21	33.757
568.55	33.215
568.89	32.636
569.23	31.952
569.56	31.336
569.90	31.245
570.24	31.073
570.57	30.228
570.91	30.187
571.25	30.173
571.59	29.691
571.92	29.608
572.26	30.069
572.60	30.090
572.93	29.265
573.27	29.902
573.61	29.592
573.95	29.845
574.28	29.171
574.62	28.620
574.96	28.865
575.29	28.734
575.63	28.659
575.97	29.263
576.30	29.129
576.64	28.936
576.98	28.488
577.31	28.466
577.65	28.817
577.98	27.945
578.32	27.383
578.66	27.799
578.99	28.167
579.33	28.540
579.67	28.241
580.00	28.003
580.34	28.239
580.67	28.055
581.01	28.379
581.35	28.329
581.68	27.636
582.02	27.322
582.35	27.324
582.69	27.781
583.02	27.433
583.36	28.268
583.70	28.971
584.03	28.422
584.37	28.959
584.70	28.710
585.04	27.935
585.37	28.215
585.71	28.219
586.04	28.340
586.38	28.997
586.72	28.942
587.05	27.737
587.39	27.493
587.72	28.369
588.06	28.282
588.39	28.313
588.73	29.099
589.06	29.355
589.40	29.697
589.73	28.581
590.07	29.644
590.40	29.302
590.73	29.586
591.07	30.403
591.40	30.156
591.74	29.827
592.07	30.497
592.41	29.475
592.74	29.251
593.08	28.847
593.41	28.440
593.75	27.826
594.08	28.193
594.41	28.491
594.75	28.799
595.08	28.776
595.42	29.142
595.75	28.597
596.09	29.290
596.42	29.470
596.75	29.211
597.09	30.173
597.42	28.836
597.75	29.280
598.09	29.304
598.42	29.381
598.76	28.861
599.09	28.506
599.42	27.729
599.76	28.624
600.09	27.760
600.42	28.050
600.76	27.964
601.09	27.869
601.42	28.425
601.76	27.780
602.09	28.617
602.42	28.583
602.76	29.343
603.09	28.521
603.42	28.387
603.76	28.544
604.09	27.763
604.42	28.455
604.76	28.258
605.09	28.746
605.42	28.345
605.75	29.180
606.09	27.654
606.42	28.402
606.75	28.453
607.09	28.464
607.42	28.712
607.75	27.215
608.08	28.094
608.42	29.135
608.75	28.314
609.08	27.845
609.41	28.177
609.75	28.394
610.08	29.453
610.41	29.236
610.74	28.997
611.07	29.792
611.41	28.950
611.74	29.261
612.07	29.089
612.40	29.381
612.73	28.474
613.07	28.933
613.40	29.542
613.73	28.579
614.06	29.301
614.39	28.684
614.72	29.684
615.06	28.939
615.39	27.972
615.72	28.119
616.05	29.080
616.38	28.460
616.71	29.513
617.05	28.269
617.38	30.307
617.71	29.730
618.04	30.349
618.37	29.923
618.70	30.118
619.03	30.987
619.36	30.821
619.69	30.563
620.03	30.220
620.36	31.083
620.69	31.027
621.02	31.490
621.35	30.932
621.68	30.763
622.01	30.263
622.34	32.224
622.67	31.559
623.00	30.227
623.33	31.165
623.66	31.022
623.99	31.370
624.32	29.601
624.65	29.590
624.99	29.391
625.32	29.761
625.65	30.804
625.98	31.284
626.31	31.182
626.64	30.694
626.97	31.671
627.30	31.588
627.63	32.158
627.96	32.044
628.29	33.071
628.62	33.669
628.95	32.358
629.28	31.569
629.61	34.097
629.94	33.429
630.26	32.602
630.59	31.459
630.92	32.375
631.25	32.083
631.58	32.633
631.91	31.440
632.24	33.228
632.57	30.955
632.90	33.662
633.23	34.676
633.56	34.011
633.89	36.014
634.22	35.755
634.55	36.095
634.88	34.251
635.20	34.648
635.53	33.133
635.86	35.520
636.19	34.353
636.52	32.872
636.85	34.135
637.18	33.525
637.51	34.279
637.83	31.813
638.16	32.992
638.49	33.753
638.82	34.893
639.15	33.750
639.48	34.788
639.81	34.987
640.13	32.943
640.46	36.242
640.79	33.818
641.12	32.462
641.45	34.637
641.77	36.524
642.10	33.626
642.43	33.333
642.76	35.759
643.09	38.344
643.41	36.571
643.74	36.728
644.07	35.213
644.40	37.423
644.73	36.535
645.05	38.510
645.38	36.967
645.71	38.808
646.04	39.037
646.36	36.060
646.69	36.120
647.02	37.075
647.35	39.691
647.67	35.575
648.00	37.886
648.33	36.469
648.66	35.000
648.98	36.282
649.31	33.333
649.64	34.529
649.96	34.575
650.29	35.229
650.62	35.113
650.94	39.222
651.27	36.655
651.60	36.772
651.92	34.345
652.25	35.016
652.58	34.268
652.90	36.651
653.23	34.361
653.56	34.331
653.88	35.024
654.21	36.019
654.54	34.488
654.86	34.735
655.19	34.865
655.52	21.996
655.84	19.355
656.17	25.448
656.49	34.272
656.82	35.274
657.15	26.467
657.47	19.917
657.80	15.285
658.13	16.006
658.45	24.088
658.78	23.765
659.10	25.026
659.43	27.332
659.75	28.450
660.08	31.076
660.41	33.985
660.73	35.070
661.06	35.191
661.38	37.273
661.71	38.077
662.03	39.448
662.36	32.406
662.68	38.956
663.01	39.394
663.33	40.127
663.66	38.235
663.98	37.365
664.31	39.286
664.63	38.259
664.96	36.821
665.28	39.344
665.61	34.893
665.93	35.010
666.26	39.554
666.58	39.121
666.91	39.323
667.23	43.146
667.56	38.661
667.88	37.607
668.21	38.593
668.53	37.744
668.86	37.662
669.18	39.232
669.50	36.957
669.83	40.523
670.15	38.667
670.48	38.344
670.80	38.793
671.13	36.306
671.45	37.660
671.77	37.067
672.10	36.414
672.42	35.512
672.75	35.821
673.07	36.268
673.39	35.624
673.72	34.766
674.04	36.471
674.37	36.311
674.69	39.264
675.01	36.611
675.34	38.809
675.66	36.421
675.98	37.882
676.31	37.605
676.63	38.004
676.95	38.365
677.28	39.486
677.60	36.484
677.92	35.865
678.25	37.166
678.57	36.653
678.89	35.070
679.22	37.132
679.54	36.069
679.86	35.046
680.18	34.168
680.51	35.106
680.83	33.986
681.15	35.849
681.48	36.484
681.80	35.397
682.12	33.908
682.44	33.849
682.77	37.067
683.09	39.700
683.41	37.694
683.73	37.528
684.06	39.050
684.38	35.421
684.70	37.403
685.02	37.336
685.34	35.714
685.67	30.769
685.99	31.959
686.31	33.106
686.63	31.449
686.96	33.393
687.28	34.477
687.60	34.420
687.92	34.186
688.24	35.551
688.56	35.944
688.89	38.174
689.21	36.245
689.53	34.656
689.85	40.133
690.17	34.161
690.49	38.641
690.82	37.150
691.14	35.714
691.46	35.232
691.78	35.944
692.10	36.777
692.42	35.130
692.74	34.855
693.06	38.298
693.39	34.292
693.71	35.590
694.03	37.895
694.35	35.498
694.67	33.638
694.99	40.976
695.31	37.255
695.63	38.038
695.95	38.386
696.27	36.041
696.59	37.306
696.91	37.824
697.23	34.272
697.56	35.821
697.88	31.902
698.20	36.458
698.52	33.118
698.84	35.635
699.16	37.327
699.48	38.005
699.80	37.440
700.12	40.260
700.44	35.809
700.76	40.884
701.08	41.092
701.40	36.592
701.72	42.566
702.04	44.318
702.36	40.793
702.68	39.943
703.00	37.396
703.32	38.564
703.64	37.534
703.96	42.061
704.28	41.279
704.60	44.575
704.91	39.466
705.23	41.642
705.55	44.186
705.87	45.183
706.19	42.403
706.51	39.252
706.83	42.424
707.15	40.056
707.47	37.626
707.79	37.346
708.11	37.671
708.43	36.667
708.74	33.673
709.06	37.403
709.38	35.958
709.70	36.337
710.02	39.763
710.34	37.576
710.66	42.090
710.98	39.773
711.29	39.244
711.61	45.133
711.93	41.346
712.25	45.338
712.57	41.544
712.89	42.215
713.20	42.857
713.52	42.434
713.84	41.456
714.16	42.073
714.48	39.368
714.80	39.210
715.11	38.617
715.43	38.872
715.75	39.710
716.07	41.534
716.39	39.498
716.70	43.854
717.02	44.604
717.34	42.403
717.66	44.030
717.97	47.410
718.29	49.630
718.61	41.971
718.93	46.691
719.24	40.484
719.56	41.017
719.88	36.949
720.20	46.622
720.51	42.509
720.83	46.097
721.15	45.149
721.46	44.326
721.78	44.086
722.10	44.528
722.42	46.241
722.73	44.195
723.05	43.033
723.37	44.130
723.68	44.015
724.00	46.341
724.32	39.919
724.63	43.902
724.95	43.933
725.27	46.964
725.58	39.062
725.90	47.810
726.22	47.547
726.53	39.236
726.85	41.297
727.16	43.060
727.48	41.489
727.80	47.348
728.11	42.754
728.43	40.000
728.74	43.011
729.06	43.431
729.38	46.691
729.69	41.281
730.01	39.249
730.32	40.625
730.64	40.803
730.96	40.924
731.27	46.026
731.59	39.450
731.90	39.067
732.22	39.752
732.53	38.700
732.85	38.462
733.16	40.514
733.48	36.213
733.80	41.234
734.11	37.898
734.43	39.941
734.74	36.000
735.06	37.536
735.37	39.595
735.69	38.535
736.00	42.157
736.32	42.056
736.63	38.658
736.95	40.895
737.26	33.673
737.58	36.452
737.89	37.458
738.21	38.567
738.52	40.000
738.83	39.245
739.15	43.846
739.46	42.336
739.78	44.792
740.09	34.769
740.41	39.677
740.72	33.449
741.04	40.741
741.35	44.167
741.66	47.556
741.98	42.925
742.29	48.325
742.61	51.293
742.92	47.059
743.23	45.726
743.55	39.200
743.86	45.614
744.18	50.000
744.49	56.938
744.80	48.826
745.12	50.000
745.43	39.648
745.74	46.847
746.06	41.284
746.37	49.776
746.68	47.059
747.00	47.685
747.31	49.048
747.62	43.805
747.94	50.220
748.25	41.702
748.56	48.899
748.88	49.505
749.19	53.000
749.50	40.930
749.82	41.057
750.13	44.490
750.44	41.606
750.75	40.000
751.07	42.765
751.38	42.857
751.69	37.906
752.01	43.985
752.32	42.238
752.63	39.716
752.94	46.311
753.26	43.200
753.57	45.122
753.88	42.969
754.19	43.929
754.51	38.889
754.82	42.599
755.13	45.660
755.44	41.729
755.75	40.511
756.07	40.071
756.38	34.672
756.69	37.248
757.00	36.527
757.31	40.059
757.63	35.673
757.94	34.584
758.25	31.618
758.56	31.852
758.87	37.634
759.18	37.879
759.50	39.185
759.81	32.710
760.12	35.312
760.43	38.395
760.74	35.054
761.05	36.441
761.36	32.888
761.67	39.205
761.99	36.646
762.30	39.583
762.61	43.511
762.92	46.484
763.23	43.277
763.54	46.800
763.85	40.625
764.16	44.231
764.47	43.726
764.78	36.749
765.10	36.392
765.41	35.103
765.72	36.527
766.03	38.245
766.34	39.333
766.65	47.234
766.96	47.436
767.27	53.299
767.58	56.771
767.89	51.579
768.20	56.322
768.51	48.731
768.82	44.954
769.13	43.902
769.44	36.437
769.75	40.773
770.06	39.450
770.37	41.176
770.68	46.759
770.99	44.889
771.30	34.016
771.61	42.601
771.92	48.770
772.23	48.319
772.54	51.282
772.85	47.120
773.16	50.532
773.47	53.804
773.78	52.792
774.09	52.381
774.39	50.292
774.70	54.321
775.01	60.870
775.32	59.477
775.63	55.263
775.94	65.468
776.25	62.992
776.56	61.194
776.87	69.672
777.18	63.281
777.48	61.832
777.79	61.364
778.10	60.741
778.41	58.036
778.72	56.934
779.03	55.034
779.34	58.389
779.65	46.622
779.95	59.509
780.26	63.399
780.57	56.552
780.88	75.000
781.19	64.662
781.50	56.081
781.80	51.572
782.11	46.893
782.42	58.228
782.73	54.601
783.04	56.757
783.34	61.972
783.65	64.384
783.96	67.164
784.27	55.245
784.57	55.396
784.88	69.444
785.19	68.254
785.50	72.642
785.81	61.194
786.11	69.672
786.42	66.667
786.73	68.142
787.04	66.038
787.34	82.143
787.65	77.000
787.96	66.667
788.26	65.289
788.57	76.271
788.88	71.074
789.19	69.444
789.49	68.939
789.80	64.885
790.11	75.238
790.41	85.149
790.72	72.289
791.03	81.522
791.33	95.349
791.64	65.979
791.95	84.158
792.25	70.000
792.56	83.117
792.87	92.308
793.17	107.595
793.48	80.460
793.79	78.161
794.09	89.773
794.40	78.151
794.70	68.382
795.01	60.741
795.32	52.518
795.62	67.717
795.93	68.103
796.23	69.027
796.54	77.647
796.85	89.189
797.15	121.127
797.46	93.939
797.76	89.157
798.07	88.608
798.37	98.462
798.68	98.485
798.99	78.873
799.29	94.805
799.60	82.955
799.90	104.110
800.21	110.448
800.51	115.517
800.82	110.526
801.12	118.033
801.43	98.485
801.73	100.000
802.04	114.286
802.34	83.951
802.65	103.125
802.95	128.814
803.26	101.563
803.56	97.143
803.87	95.385
804.17	97.059
804.48	135.185
804.78	115.517
805.09	102.941
805.39	103.846
805.70	119.643
806.00	119.672
806.30	100.000
806.61	95.122
806.91	86.076
807.22	88.158
807.52	100.000
807.83	104.225
808.13	103.125
808.43	105.000
808.74	89.474
809.04	98.551
809.35	98.507
809.65	94.737
809.95	117.742
810.26	113.559
810.56	106.349
810.86	152.273
811.17	166.667
811.47	120.000
811.77	112.963
812.08	130.909
812.38	152.000
812.69	155.556
812.99	172.727
813.29	124.490
813.59	100.000
813.90	146.939
814.20	114.545
814.50	104.615
814.81	102.941
815.11	124.490
815.41	119.672
815.72	161.905
816.02	136.364
816.32	140.476
816.62	140.000
816.93	114.634
817.23	173.810
817.53	143.182
817.84	227.273
818.14	132.609
818.44	153.333
818.74	188.235
819.04	150.000
819.35	182.857
819.65	170.588
819.95	210.714
820.25	250.000
820.56	176.923
820.86	138.636
821.16	172.093
821.46	164.103
821.76	132.000
822.07	177.143
822.37	182.500
822.67	163.636
822.97	129.412
823.27	214.286
823.57	178.378
823.88	180.000
824.18	223.333
824.48	183.333
824.78	232.000
825.08	258.333
825.38	194.595
825.69	148.780
825.99	212.500
826.29	186.207
826.59	176.316
826.89	176.316
827.19	191.176
827.49	193.548
827.79	150.000
828.09	143.182
828.39	127.660
828.70	126.531
829.00	174.074
829.30	167.742
829.60	142.500
829.90	373.333
830.20	189.286
830.50	265.217
830.80	269.565
831.10	240.000
831.40	206.667
831.70	247.826
832.00	261.538
832.30	229.630
832.60	343.750
832.90	240.000
833.20	442.857
833.50	225.806
833.80	196.552
834.10	196.875
834.40	246.154
834.70	344.444
835.00	300.000
835.30	200.000
835.60	453.846
835.90	231.034
836.20	392.857
836.50	220.690
836.80	176.000
837.10	219.444
837.40	276.190
837.70	382.353
838.00	225.926
838.30	257.143
838.60	266.667
838.90	273.077
839.19	285.000
839.49	421.429
839.79	335.000
840.09	340.000
840.39	323.810
840.69	265.217
840.99	311.111
841.29	550.000
841.59	350.000
841.88	381.250
842.18	193.103
842.48	261.905
842.78	220.000
843.08	300.000
843.38	193.750
843.68	1000.000
843.97	246.154
844.27	213.793
844.57	338.095
844.87	400.000
845.17	237.037
845.47	1933.333
845.76	644.444
846.06	388.235
846.36	625.000
846.66	492.857
846.96	300.000
847.25	409.091
847.55	381.818
847.85	269.565
848.15	560.000
848.44	464.286
848.74	266.667
849.04	323.529
849.34	710.000
849.63	294.737
849.93	463.636
850.23	1040.000
850.53	435.714
850.82	2600.000
851.12	-5000.000
851.42	4900.000
851.71	280.000
852.01	-1333.333
852.31	254.167
852.61	1766.667
852.90	309.524
853.20	288.000
853.50	376.471
853.79	338.095
854.09	262.500
854.39	387.500
854.68	178.378
854.98	216.129
855.28	180.000
855.57	186.207
855.87	255.556
856.17	226.316
856.46	260.000
856.76	352.941
857.05	231.034
857.35	295.833
857.65	346.667
857.94	313.043
858.24	273.077
858.53	330.000
858.83	277.273
859.13	393.333
859.42	0.000
859.72	644.444
860.01	427.273
860.31	254.545
860.60	284.211
860.90	278.261
861.20	544.444
861.49	483.333
861.79	-6100.000
862.08	612.500
862.38	266.667
862.67	469.231
862.97	388.235
863.26	611.111
863.56	272.222
863.85	408.333
864.15	762.500
864.44	420.000
864.74	1000.000
865.03	687.500
865.33	342.105
865.62	509.091
865.92	461.538
866.21	458.333
866.51	0.000
866.80	472.727
867.10	1160.000
867.39	415.385
867.69	600.000
867.98	284.211
868.27	481.818
868.57	342.105
868.86	-4700.000
869.16	362.500
869.45	2250.000
869.75	-4400.000
870.04	483.333
870.33	757.143
870.63	1050.000
870.92	2400.000
871.22	828.571
871.51	352.941
871.80	228.571
872.10	471.429
>>>>>End Processed Spectral Data<<<<<
