SpectraSuite Data File
++++++++++++++++++++++++++++++++++++
Date: Tue May 12 20:00:23 PDT 2015
User: schluterlab
Dark Spectrum Present: Yes
Reference Spectrum Present: Yes
Number of Sampled Component Spectra: 1
Spectrometers: USB2E3373
Integration Time (usec): 3000 (USB2E3373)
Spectra Averaged: 3 (USB2E3373)
Boxcar Smoothing: 0 (USB2E3373)
Correct for Electrical Dark: No (USB2E3373)
Strobe/Lamp Enabled: No (USB2E3373)
Correct for Detector Non-linearity: No (USB2E3373)
Correct for Stray Light: No (USB2E3373)
Number of Pixels in Processed Spectrum: 2048
>>>>>Begin Processed Spectral Data<<<<<
178.53	0.000
178.91	-150.000
179.29	-283.333
179.67	533.333
180.04	0.000
180.42	-420.000
180.80	-733.333
181.18	1100.000
181.56	-1250.000
181.94	400.000
182.31	3200.000
182.69	-157.143
183.07	0.000
183.45	250.000
183.83	360.000
184.20	283.333
184.58	1400.000
184.96	616.667
185.34	-733.333
185.72	-100.000
186.09	-316.667
186.47	-1800.000
186.85	-220.000
187.23	241.667
187.61	-271.429
187.98	-280.000
188.36	1250.000
188.74	-325.000
189.12	-166.667
189.49	-140.000
189.87	600.000
190.25	255.556
190.63	566.667
191.00	460.000
191.38	-766.667
191.76	480.000
192.14	-228.571
192.51	-100.000
192.89	-120.000
193.27	-320.000
193.65	-700.000
194.02	-383.333
194.40	1700.000
194.78	-150.000
195.15	-357.143
195.53	433.333
195.91	520.000
196.29	-500.000
196.66	-666.667
197.04	-342.857
197.42	140.000
197.79	-175.000
198.17	-125.000
198.55	-600.000
198.92	-300.000
199.30	1100.000
199.68	-625.000
200.05	-1600.000
200.43	-61.111
200.81	-200.000
201.18	433.333
201.56	-1100.000
201.94	-2500.000
202.31	-141.667
202.69	-122.222
203.07	-208.333
203.44	-850.000
203.82	0.000
204.19	312.500
204.57	-700.000
204.95	254.545
205.32	420.000
205.70	675.000
206.08	-1300.000
206.45	-340.000
206.83	2400.000
207.20	-100.000
207.58	-46.154
207.96	233.333
208.33	800.000
208.71	833.333
209.08	1250.000
209.46	-155.556
209.84	1200.000
210.21	-866.667
210.59	1100.000
210.96	322.222
211.34	-600.000
211.71	1950.000
212.09	-300.000
212.46	-250.000
212.84	-275.000
213.22	157.143
213.59	-137.500
213.97	0.000
214.34	-450.000
214.72	-800.000
215.09	1150.000
215.47	-106.667
215.84	-225.000
216.22	-2800.000
216.59	2200.000
216.97	-66.667
217.34	-100.000
217.72	-33.333
218.09	875.000
218.47	-68.421
218.84	-250.000
219.22	-107.143
219.59	-200.000
219.97	-230.000
220.34	183.333
220.72	154.545
221.09	-1650.000
221.47	0.000
221.84	1000.000
222.22	-500.000
222.59	-350.000
222.97	-21.739
223.34	226.667
223.72	471.429
224.09	-366.667
224.46	246.154
224.84	-86.667
225.21	-800.000
225.59	-625.000
225.96	-25.000
226.34	400.000
226.71	280.000
227.08	-138.462
227.46	-142.857
227.83	-158.333
228.21	-1450.000
228.58	433.333
228.95	5.263
229.33	-75.000
229.70	-350.000
230.08	-122.222
230.45	-833.333
230.82	-1700.000
231.20	-47.619
231.57	-380.000
231.95	-766.667
232.32	255.556
232.69	-900.000
233.07	-43.750
233.44	-62.500
233.81	-6.452
234.19	-180.000
234.56	-66.667
234.93	-366.667
235.31	-40.741
235.68	-37.037
236.05	-38.462
236.43	-78.947
236.80	-27.273
237.17	-78.571
237.55	-55.000
237.92	4.651
238.29	-35.484
238.67	25.000
239.04	25.714
239.41	19.608
239.79	18.000
240.16	0.000
240.53	8.621
240.91	31.507
241.28	26.761
241.65	28.125
242.02	12.281
242.40	16.000
242.77	24.211
243.14	17.647
243.51	21.505
243.89	17.143
244.26	41.667
244.63	31.633
245.00	17.857
245.38	18.487
245.75	19.492
246.12	18.750
246.49	28.000
246.87	31.967
247.24	28.873
247.61	32.450
247.98	32.584
248.36	30.189
248.73	34.091
249.10	30.000
249.47	30.729
249.84	32.487
250.22	32.292
250.59	33.708
250.96	31.818
251.33	41.038
251.70	33.945
252.08	38.528
252.45	32.653
252.82	30.380
253.19	37.354
253.56	41.961
253.94	32.520
254.31	42.086
254.68	34.722
255.05	36.755
255.42	37.455
255.79	38.742
256.16	39.583
256.54	39.394
256.91	42.949
257.28	35.390
257.65	36.393
258.02	39.640
258.39	40.483
258.76	37.615
259.14	35.588
259.51	37.746
259.88	38.905
260.25	37.216
260.62	37.079
260.99	39.554
261.36	35.632
261.73	41.333
262.10	39.237
262.47	38.843
262.85	40.360
263.22	38.172
263.59	37.534
263.96	38.903
264.33	37.197
264.70	36.855
265.07	37.931
265.44	39.578
265.81	39.759
266.18	37.237
266.55	38.333
266.92	40.848
267.29	39.333
267.66	36.818
268.03	41.075
268.40	38.673
268.77	39.198
269.14	36.975
269.51	38.462
269.88	40.598
270.25	38.819
270.62	39.916
270.99	37.684
271.36	39.514
271.73	38.333
272.10	40.456
272.47	38.200
272.84	36.943
273.21	36.534
273.58	36.735
273.95	37.450
274.32	39.072
274.69	40.313
275.06	38.837
275.43	34.800
275.80	38.050
276.17	37.747
276.54	38.783
276.91	39.539
277.28	37.911
277.65	36.295
278.02	37.879
278.39	37.931
278.76	37.058
279.13	39.177
279.50	38.628
279.87	36.981
280.23	39.344
280.60	33.922
280.97	38.313
281.34	40.169
281.71	37.123
282.08	37.209
282.45	38.272
282.82	37.037
283.19	37.374
283.56	39.761
283.92	37.125
284.29	37.056
284.66	36.814
285.03	34.648
285.40	37.500
285.77	37.274
286.14	35.658
286.51	36.656
286.87	34.360
287.24	34.776
287.61	35.185
287.98	35.524
288.35	34.729
288.72	33.945
289.08	33.019
289.45	34.009
289.82	32.919
290.19	34.545
290.56	33.285
290.93	33.678
291.29	34.184
291.66	33.006
292.03	34.146
292.40	34.676
292.77	30.175
293.13	32.599
293.50	34.435
293.87	32.732
294.24	30.618
294.60	31.011
294.97	28.947
295.34	30.137
295.71	31.484
296.08	30.464
296.44	29.776
296.81	28.849
297.18	31.436
297.55	30.528
297.91	31.726
298.28	28.517
298.65	30.013
299.02	28.237
299.38	27.806
299.75	28.829
300.12	28.297
300.48	27.582
300.85	27.751
301.22	27.644
301.59	28.102
301.95	27.927
302.32	26.731
302.69	27.824
303.05	27.509
303.42	29.106
303.79	26.629
304.15	27.860
304.52	26.816
304.89	26.719
305.25	27.064
305.62	26.591
305.99	26.316
306.35	27.852
306.72	27.342
307.09	26.877
307.45	25.135
307.82	27.215
308.19	27.063
308.55	28.165
308.92	27.436
309.29	26.255
309.65	27.554
310.02	27.463
310.38	27.612
310.75	26.332
311.12	26.348
311.48	27.646
311.85	25.431
312.22	27.273
312.58	27.190
312.95	26.797
313.31	25.762
313.68	25.621
314.05	29.593
314.41	27.603
314.78	26.231
315.14	27.914
315.51	27.805
315.87	28.027
316.24	28.388
316.61	28.738
316.97	28.039
317.34	28.612
317.70	27.451
318.07	28.255
318.43	28.828
318.80	28.142
319.16	27.773
319.53	31.132
319.89	28.788
320.26	31.268
320.62	31.298
320.99	31.735
321.35	31.126
321.72	33.636
322.08	32.277
322.45	32.742
322.81	35.468
323.18	34.132
323.54	35.735
323.91	35.863
324.27	35.873
324.64	37.582
325.00	38.308
325.37	40.018
325.73	38.869
326.10	39.842
326.46	41.614
326.83	41.337
327.19	40.437
327.56	43.236
327.92	41.406
328.29	43.638
328.65	45.669
329.01	44.037
329.38	45.914
329.74	46.890
330.11	45.760
330.47	47.114
330.84	47.086
331.20	47.412
331.56	48.679
331.93	48.216
332.29	48.289
332.66	49.819
333.02	49.489
333.38	50.368
333.75	50.320
334.11	50.181
334.48	50.000
334.84	51.080
335.20	50.134
335.57	50.318
335.93	50.884
336.29	51.097
336.66	52.368
337.02	51.949
337.38	50.660
337.75	52.182
338.11	51.139
338.47	51.811
338.84	52.855
339.20	52.521
339.56	54.334
339.93	52.703
340.29	52.765
340.65	53.242
341.02	53.853
341.38	52.339
341.74	54.270
342.11	52.520
342.47	53.497
342.83	52.732
343.20	53.935
343.56	51.661
343.92	52.668
344.28	52.316
344.65	52.997
345.01	54.530
345.37	51.966
345.73	53.144
346.10	53.500
346.46	51.855
346.82	52.761
347.19	52.902
347.55	54.337
347.91	51.597
348.27	56.529
348.63	53.846
349.00	54.591
349.36	53.504
349.72	53.120
350.08	53.273
350.45	52.644
350.81	53.014
351.17	51.730
351.53	51.691
351.89	53.541
352.26	52.439
352.62	52.330
352.98	53.640
353.34	52.966
353.70	53.498
354.07	54.366
354.43	52.337
354.79	52.295
355.15	52.139
355.51	52.649
355.87	53.539
356.24	54.493
356.60	52.504
356.96	50.869
357.32	52.922
357.68	53.461
358.04	53.079
358.40	52.782
358.77	53.333
359.13	52.129
359.49	52.800
359.85	53.078
360.21	51.546
360.57	52.711
360.93	54.473
361.29	52.648
361.66	51.577
362.02	52.669
362.38	52.758
362.74	52.652
363.10	52.790
363.46	52.445
363.82	52.067
364.18	52.612
364.54	52.595
364.90	51.111
365.26	52.683
365.62	52.687
365.98	52.849
366.35	52.874
366.71	51.456
367.07	52.841
367.43	51.408
367.79	51.163
368.15	53.225
368.51	52.135
368.87	52.570
369.23	54.201
369.59	51.765
369.95	50.820
370.31	52.576
370.67	52.556
371.03	52.012
371.39	53.776
371.75	52.006
372.11	50.741
372.47	50.334
372.83	52.155
373.19	52.108
373.55	51.722
373.91	51.970
374.27	52.612
374.63	52.577
374.99	51.977
375.35	52.104
375.71	51.435
376.07	50.813
376.42	51.452
376.78	51.220
377.14	51.676
377.50	52.052
377.86	51.393
378.22	51.453
378.58	52.303
378.94	51.343
379.30	51.030
379.66	51.793
380.02	52.003
380.38	52.290
380.74	51.833
381.09	51.652
381.45	51.238
381.81	52.232
382.17	51.596
382.53	53.057
382.89	51.636
383.25	51.554
383.61	50.985
383.97	50.552
384.32	50.968
384.68	51.788
385.04	50.796
385.40	51.310
385.76	51.423
386.12	50.693
386.48	50.228
386.83	51.086
387.19	51.213
387.55	50.777
387.91	49.221
388.27	50.352
388.62	51.554
388.98	50.954
389.34	49.187
389.70	49.872
390.06	50.825
390.42	51.386
390.77	51.777
391.13	51.204
391.49	50.876
391.85	50.100
392.20	51.683
392.56	49.443
392.92	49.969
393.28	49.551
393.64	50.728
393.99	50.779
394.35	50.162
394.71	49.205
395.07	48.674
395.42	48.317
395.78	48.925
396.14	49.500
396.50	48.577
396.85	48.645
397.21	47.801
397.57	48.980
397.92	48.219
398.28	49.221
398.64	47.048
399.00	49.275
399.35	48.066
399.71	47.904
400.07	47.251
400.42	48.718
400.78	47.729
401.14	47.854
401.49	47.783
401.85	48.190
402.21	47.145
402.57	45.654
402.92	48.539
403.28	47.269
403.63	45.449
403.99	47.292
404.35	47.197
404.70	46.738
405.06	45.691
405.42	45.608
405.77	45.838
406.13	45.400
406.49	45.615
406.84	46.389
407.20	44.857
407.55	45.625
407.91	43.846
408.27	45.146
408.62	43.923
408.98	45.431
409.34	43.790
409.69	44.147
410.05	43.847
410.40	43.353
410.76	44.147
411.11	43.374
411.47	42.857
411.83	42.563
412.18	43.652
412.54	42.950
412.89	43.264
413.25	43.135
413.60	42.602
413.96	42.071
414.31	40.727
414.67	43.011
415.03	42.254
415.38	43.036
415.74	41.370
416.09	40.868
416.45	41.401
416.80	40.682
417.16	41.467
417.51	40.944
417.87	42.613
418.22	41.444
418.58	39.806
418.93	41.328
419.29	41.180
419.64	40.728
420.00	39.555
420.35	40.804
420.71	39.501
421.06	39.714
421.42	40.025
421.77	40.256
422.12	39.220
422.48	39.235
422.83	39.271
423.19	39.294
423.54	38.302
423.90	39.493
424.25	38.852
424.61	39.355
424.96	38.882
425.31	38.829
425.67	38.061
426.02	38.944
426.38	38.288
426.73	38.380
427.09	38.411
427.44	38.086
427.79	37.624
428.15	37.603
428.50	38.442
428.85	36.947
429.21	38.255
429.56	37.293
429.92	37.101
430.27	35.253
430.62	36.831
430.98	35.895
431.33	38.209
431.68	37.199
432.04	36.364
432.39	34.938
432.74	36.053
433.10	36.446
433.45	36.162
433.80	36.190
434.16	35.673
434.51	35.842
434.86	35.710
435.22	35.739
435.57	36.939
435.92	34.861
436.28	34.371
436.63	35.897
436.98	34.938
437.34	35.829
437.69	35.864
438.04	34.736
438.39	34.661
438.75	34.400
439.10	35.179
439.45	36.585
439.81	33.651
440.16	35.312
440.51	34.201
440.86	34.217
441.22	34.366
441.57	34.188
441.92	34.953
442.27	34.514
442.63	34.989
442.98	34.108
443.33	33.843
443.68	33.943
444.03	33.814
444.39	34.461
444.74	33.257
445.09	34.238
445.44	32.770
445.79	34.844
446.15	34.344
446.50	34.471
446.85	34.048
447.20	34.300
447.55	32.635
447.91	33.510
448.26	33.056
448.61	34.139
448.96	31.815
449.31	33.876
449.66	32.324
450.02	33.314
450.37	33.536
450.72	32.436
451.07	33.289
451.42	33.663
451.77	32.409
452.12	33.584
452.47	32.927
452.83	32.877
453.18	33.828
453.53	33.508
453.88	32.546
454.23	32.971
454.58	33.943
454.93	33.106
455.28	33.062
455.63	32.878
455.98	33.249
456.34	32.217
456.69	32.701
457.04	32.480
457.39	31.898
457.74	32.427
458.09	31.487
458.44	32.741
458.79	32.214
459.14	32.677
459.49	32.739
459.84	31.986
460.19	32.083
460.54	31.187
460.89	32.059
461.24	32.338
461.59	32.177
461.94	32.150
462.29	32.832
462.64	32.591
462.99	32.415
463.34	30.842
463.69	32.099
464.04	32.713
464.39	32.733
464.74	31.733
465.09	31.576
465.44	31.794
465.79	31.408
466.14	31.146
466.49	31.707
466.84	31.265
467.19	31.124
467.54	31.034
467.89	31.940
468.24	31.566
468.59	31.348
468.94	31.876
469.29	32.526
469.64	31.510
469.99	31.507
470.34	30.905
470.68	30.923
471.03	30.730
471.38	31.414
471.73	30.959
472.08	31.886
472.43	31.466
472.78	30.457
473.13	31.158
473.48	31.466
473.83	31.506
474.17	30.821
474.52	30.476
474.87	31.313
475.22	30.940
475.57	30.964
475.92	30.756
476.27	30.621
476.61	32.151
476.96	30.943
477.31	31.393
477.66	31.551
478.01	30.547
478.36	30.544
478.70	31.380
479.05	30.354
479.40	30.735
479.75	32.025
480.10	31.006
480.45	31.937
480.79	31.240
481.14	31.049
481.49	30.694
481.84	31.818
482.19	30.780
482.53	30.833
482.88	31.418
483.23	32.111
483.58	30.545
483.92	30.804
484.27	30.397
484.62	31.730
484.97	30.404
485.31	30.240
485.66	28.521
486.01	28.777
486.36	29.260
486.70	29.969
487.05	30.654
487.40	30.154
487.75	30.060
488.09	29.135
488.44	29.703
488.79	30.008
489.13	29.925
489.48	30.080
489.83	29.820
490.17	30.614
490.52	30.019
490.87	31.454
491.22	30.868
491.56	31.176
491.91	29.418
492.26	32.075
492.60	30.816
492.95	30.801
493.30	31.103
493.64	31.136
493.99	30.955
494.34	31.374
494.68	30.030
495.03	29.919
495.37	31.171
495.72	31.065
496.07	30.274
496.41	29.348
496.76	30.516
497.11	30.034
497.45	30.789
497.80	30.841
498.14	30.517
498.49	30.806
498.84	29.612
499.18	30.306
499.53	30.530
499.87	30.159
500.22	30.545
500.56	31.502
500.91	30.991
501.26	30.919
501.60	30.377
501.95	31.013
502.29	30.221
502.64	29.467
502.98	29.278
503.33	30.404
503.67	30.271
504.02	30.490
504.36	29.944
504.71	29.734
505.06	30.262
505.40	30.188
505.75	30.700
506.09	30.607
506.44	30.955
506.78	30.782
507.13	30.185
507.47	31.247
507.82	31.250
508.16	31.292
508.51	30.908
508.85	30.604
509.19	30.993
509.54	30.878
509.88	30.783
510.23	31.180
510.57	30.494
510.92	31.406
511.26	29.925
511.61	30.251
511.95	31.001
512.30	30.957
512.64	30.850
512.98	30.951
513.33	30.950
513.67	30.539
514.02	31.490
514.36	30.724
514.70	31.573
515.05	31.220
515.39	31.179
515.74	30.890
516.08	31.011
516.42	31.200
516.77	31.677
517.11	31.498
517.46	32.230
517.80	31.972
518.14	31.120
518.49	31.436
518.83	31.453
519.17	32.005
519.52	31.793
519.86	31.666
520.20	30.764
520.55	31.593
520.89	31.916
521.23	31.263
521.58	30.754
521.92	30.641
522.26	31.821
522.61	32.628
522.95	33.219
523.29	32.254
523.64	32.429
523.98	31.586
524.32	31.717
524.66	32.087
525.01	31.546
525.35	31.943
525.69	31.521
526.04	32.840
526.38	30.637
526.72	34.236
527.06	32.982
527.41	31.680
527.75	31.874
528.09	31.683
528.43	31.609
528.78	31.726
529.12	31.575
529.46	31.827
529.80	31.110
530.15	31.897
530.49	32.148
530.83	32.466
531.17	31.427
531.51	32.334
531.86	32.143
532.20	31.241
532.54	30.863
532.88	31.636
533.22	31.537
533.57	31.103
533.91	30.970
534.25	31.025
534.59	31.981
534.93	30.759
535.27	31.044
535.62	30.182
535.96	31.333
536.30	30.689
536.64	31.116
536.98	32.006
537.32	31.548
537.66	31.232
538.01	30.044
538.35	31.055
538.69	30.149
539.03	30.786
539.37	30.940
539.71	31.232
540.05	32.200
540.39	31.082
540.73	31.282
541.07	31.324
541.42	30.720
541.76	30.576
542.10	31.492
542.44	30.564
542.78	30.205
543.12	29.964
543.46	31.744
543.80	31.951
544.14	31.111
544.48	31.439
544.82	30.660
545.16	31.522
545.50	31.805
545.84	30.358
546.18	30.936
546.52	31.207
546.86	30.987
547.20	31.515
547.54	30.629
547.88	29.986
548.22	29.395
548.56	31.078
548.90	30.737
549.24	30.775
549.58	31.222
549.92	30.827
550.26	29.884
550.60	31.007
550.94	31.587
551.28	31.707
551.62	32.678
551.96	30.990
552.30	30.853
552.64	30.203
552.98	30.906
553.32	30.909
553.66	30.653
554.00	31.120
554.34	31.484
554.68	31.260
555.02	31.270
555.36	30.898
555.69	30.592
556.03	30.303
556.37	31.283
556.71	30.995
557.05	29.922
557.39	31.566
557.73	29.953
558.07	30.203
558.41	30.088
558.75	32.116
559.08	30.894
559.42	31.438
559.76	30.329
560.10	31.785
560.44	30.958
560.78	30.579
561.12	30.353
561.45	31.176
561.79	29.956
562.13	30.615
562.47	30.963
562.81	30.402
563.15	29.354
563.48	30.487
563.82	30.131
564.16	29.753
564.50	30.229
564.84	29.979
565.17	31.116
565.51	30.823
565.85	29.789
566.19	30.689
566.52	30.036
566.86	29.850
567.20	29.142
567.54	29.355
567.88	29.187
568.21	30.188
568.55	28.636
568.89	29.231
569.23	28.665
569.56	28.966
569.90	29.422
570.24	28.723
570.57	28.856
570.91	28.311
571.25	28.685
571.59	28.098
571.92	27.225
572.26	27.276
572.60	27.710
572.93	27.145
573.27	27.547
573.61	27.329
573.95	27.242
574.28	26.786
574.62	26.395
574.96	26.519
575.29	26.407
575.63	26.661
575.97	26.665
576.30	26.778
576.64	26.709
576.98	26.887
577.31	26.873
577.65	26.719
577.98	26.402
578.32	26.389
578.66	26.703
578.99	26.727
579.33	26.387
579.67	26.474
580.00	26.324
580.34	26.843
580.67	26.246
581.01	26.426
581.35	26.032
581.68	26.132
582.02	26.061
582.35	26.644
582.69	26.996
583.02	26.176
583.36	26.060
583.70	27.223
584.03	26.210
584.37	26.720
584.70	26.326
585.04	25.976
585.37	26.450
585.71	26.007
586.04	26.774
586.38	26.750
586.72	26.023
587.05	26.324
587.39	26.672
587.72	26.452
588.06	26.857
588.39	26.731
588.73	26.577
589.06	26.359
589.40	27.068
589.73	26.402
590.07	26.326
590.40	27.284
590.73	27.405
591.07	27.662
591.40	28.049
591.74	27.425
592.07	27.507
592.41	28.022
592.74	27.524
593.08	27.010
593.41	27.083
593.75	27.334
594.08	27.887
594.41	26.488
594.75	27.134
595.08	27.074
595.42	26.587
595.75	27.235
596.09	27.302
596.42	27.146
596.75	27.955
597.09	27.099
597.42	26.748
597.75	27.345
598.09	26.919
598.42	26.929
598.76	27.823
599.09	26.176
599.42	25.688
599.76	27.109
600.09	26.809
600.42	25.781
600.76	26.059
601.09	26.196
601.42	25.966
601.76	26.948
602.09	26.519
602.42	26.921
602.76	26.920
603.09	26.849
603.42	26.959
603.76	27.402
604.09	26.441
604.42	27.651
604.76	26.426
605.09	26.169
605.42	27.393
605.75	26.587
606.09	27.556
606.42	26.247
606.75	26.687
607.09	28.498
607.42	27.811
607.75	26.860
608.08	26.848
608.42	27.207
608.75	26.613
609.08	26.401
609.41	27.164
609.75	26.751
610.08	26.718
610.41	26.667
610.74	27.604
611.07	27.922
611.41	26.552
611.74	27.312
612.07	26.395
612.40	27.855
612.73	27.373
613.07	27.422
613.40	26.912
613.73	26.460
614.06	27.166
614.39	27.592
614.72	26.919
615.06	27.210
615.39	27.598
615.72	26.148
616.05	26.899
616.38	26.394
616.71	27.425
617.05	27.136
617.38	28.194
617.71	27.956
618.04	28.055
618.37	28.450
618.70	28.125
619.03	28.499
619.36	29.676
619.69	27.294
620.03	28.452
620.36	27.362
620.69	28.086
621.02	28.266
621.35	28.681
621.68	28.263
622.01	28.520
622.34	28.559
622.67	28.162
623.00	28.256
623.33	28.346
623.66	28.207
623.99	27.831
624.32	28.197
624.65	27.500
624.99	28.438
625.32	27.883
625.65	28.022
625.98	29.583
626.31	28.052
626.64	29.730
626.97	29.044
627.30	29.907
627.63	29.209
627.96	28.678
628.29	29.541
628.62	27.423
628.95	28.828
629.28	30.475
629.61	28.840
629.94	29.876
630.26	29.707
630.59	30.681
630.92	27.819
631.25	29.385
631.58	29.651
631.91	29.043
632.24	28.994
632.57	29.964
632.90	30.873
633.23	33.032
633.56	28.679
633.89	28.628
634.22	29.744
634.55	28.909
634.88	30.790
635.20	30.959
635.53	30.866
635.86	31.793
636.19	29.195
636.52	31.267
636.85	27.771
637.18	30.570
637.51	29.404
637.83	29.190
638.16	30.441
638.49	32.421
638.82	29.677
639.15	29.000
639.48	29.840
639.81	30.104
640.13	29.862
640.46	30.709
640.79	29.457
641.12	31.318
641.45	28.460
641.77	29.777
642.10	29.153
642.43	28.620
642.76	31.004
643.09	33.218
643.41	31.183
643.74	31.424
644.07	28.924
644.40	32.130
644.73	30.939
645.05	31.870
645.38	28.846
645.71	30.153
646.04	34.572
646.36	28.409
646.69	31.335
647.02	33.594
647.35	32.200
647.67	32.866
648.00	32.427
648.33	31.792
648.66	30.798
648.98	30.847
649.31	31.153
649.64	30.637
649.96	30.743
650.29	28.673
650.62	28.757
650.94	31.238
651.27	26.782
651.60	29.254
651.92	33.015
652.25	28.107
652.58	31.598
652.90	29.004
653.23	29.982
653.56	30.035
653.88	29.562
654.21	29.301
654.54	28.893
654.86	31.475
655.19	28.226
655.52	30.735
655.84	27.578
656.17	26.079
656.49	34.430
656.82	38.777
657.15	30.702
657.47	23.336
657.80	17.408
658.13	14.847
658.45	24.543
658.78	23.494
659.10	22.582
659.43	22.065
659.75	21.115
660.08	21.756
660.41	23.100
660.73	23.546
661.06	25.273
661.38	30.444
661.71	27.790
662.03	28.009
662.36	29.117
662.68	31.415
663.01	31.010
663.33	31.840
663.66	33.732
663.98	29.095
664.31	30.000
664.63	32.339
664.96	29.454
665.28	28.132
665.61	29.439
665.93	33.641
666.26	28.035
666.58	28.899
666.91	29.742
667.23	27.094
667.56	30.123
667.88	29.073
668.21	26.904
668.53	32.234
668.86	30.867
669.18	28.426
669.50	34.190
669.83	27.750
670.15	29.500
670.48	28.321
670.80	32.487
671.13	26.747
671.45	32.143
671.77	28.261
672.10	27.253
672.42	25.697
672.75	25.825
673.07	28.598
673.39	26.070
673.72	27.273
674.04	29.787
674.37	30.947
674.69	26.402
675.01	29.070
675.34	29.657
675.66	27.143
675.98	31.566
676.31	29.471
676.63	28.866
676.95	27.578
677.28	25.743
677.60	30.827
677.92	30.827
678.25	26.682
678.57	26.682
678.89	24.771
679.22	30.505
679.54	24.276
679.86	32.120
680.18	27.406
680.51	27.310
680.83	25.417
681.15	28.758
681.48	26.809
681.80	28.913
682.12	27.623
682.44	26.293
682.77	28.636
683.09	25.245
683.41	28.822
683.73	27.889
684.06	27.919
684.38	29.017
684.70	28.406
685.02	25.541
685.34	24.477
685.67	25.296
685.99	25.948
686.31	27.052
686.63	27.184
686.96	26.829
687.28	29.158
687.60	26.283
687.92	26.582
688.24	26.947
688.56	26.374
688.89	29.909
689.21	26.279
689.53	23.529
689.85	25.063
690.17	27.696
690.49	26.588
690.82	27.518
691.14	29.243
691.46	25.750
691.78	25.598
692.10	27.752
692.42	25.688
692.74	26.540
693.06	29.157
693.39	25.616
693.71	23.953
694.03	27.295
694.35	22.525
694.67	26.463
694.99	26.146
695.31	27.479
695.63	24.595
695.95	26.685
696.27	27.479
696.59	25.223
696.91	27.350
697.23	27.221
697.56	30.570
697.88	23.653
698.20	24.213
698.52	24.279
698.84	26.065
699.16	27.177
699.48	28.010
699.80	25.000
700.12	23.416
700.44	24.189
700.76	27.129
701.08	23.492
701.40	30.592
701.72	31.667
702.04	25.510
702.36	23.934
702.68	25.839
703.00	25.237
703.32	23.353
703.64	25.552
703.96	25.633
704.28	21.831
704.60	28.082
704.91	21.053
705.23	25.965
705.55	23.792
705.87	22.302
706.19	25.100
706.51	25.781
706.83	20.147
707.15	29.831
707.47	28.144
707.79	22.923
708.11	25.397
708.43	26.400
708.74	24.044
709.06	25.153
709.38	19.881
709.70	25.000
710.02	25.524
710.34	25.532
710.66	23.970
710.98	22.378
711.29	24.399
711.61	22.695
711.93	27.341
712.25	24.906
712.57	23.047
712.89	26.531
713.20	22.984
713.52	19.919
713.84	21.898
714.16	26.689
714.48	24.232
714.80	25.253
715.11	25.086
715.43	23.549
715.75	22.456
716.07	26.182
716.39	27.304
716.70	27.200
717.02	24.194
717.34	25.108
717.66	26.364
717.97	22.222
718.29	23.556
718.61	20.270
718.93	21.849
719.24	25.105
719.56	21.875
719.88	23.529
720.20	24.359
720.51	24.123
720.83	24.686
721.15	18.776
721.46	24.895
721.78	21.645
722.10	25.581
722.42	29.565
722.73	19.457
723.05	23.041
723.37	22.172
723.68	23.697
724.00	28.241
724.32	27.570
724.63	25.339
724.95	21.918
725.27	23.944
725.58	20.548
725.90	22.072
726.22	22.707
726.53	24.180
726.85	23.704
727.16	27.126
727.48	27.419
727.80	16.438
728.11	20.444
728.43	18.930
728.74	21.930
729.06	20.524
729.38	27.132
729.69	19.600
730.01	17.573
730.32	25.498
730.64	23.077
730.96	18.919
731.27	25.483
731.59	21.549
731.90	20.395
732.22	23.588
732.53	19.298
732.85	22.535
733.16	20.879
733.48	22.015
733.80	23.273
734.11	21.986
734.43	21.661
734.74	20.872
735.06	21.222
735.37	23.323
735.69	19.366
736.00	21.111
736.32	23.427
736.63	22.593
736.95	19.066
737.26	18.478
737.58	22.628
737.89	21.132
738.21	22.901
738.52	22.131
738.83	14.530
739.15	21.364
739.46	13.063
739.78	18.147
740.09	21.032
740.41	23.485
740.72	22.311
741.04	22.134
741.35	26.009
741.66	26.344
741.98	15.306
742.29	25.389
742.61	19.653
742.92	22.059
743.23	26.368
743.55	18.135
743.86	14.976
744.18	20.000
744.49	21.667
744.80	22.043
745.12	20.513
745.43	13.904
745.74	14.973
746.06	21.839
746.37	14.444
746.68	26.486
747.00	12.707
747.31	18.848
747.62	23.158
747.94	23.585
748.25	28.571
748.56	26.263
748.88	24.044
749.19	18.135
749.50	21.176
749.82	24.000
750.13	23.786
750.44	23.605
750.75	22.400
751.07	18.828
751.38	18.359
751.69	21.825
752.01	22.689
752.32	24.380
752.63	17.904
752.94	19.600
753.26	13.242
753.57	18.957
753.88	14.884
754.19	19.824
754.51	16.736
754.82	25.000
755.13	19.469
755.44	22.078
755.75	20.080
756.07	14.163
756.38	21.757
756.69	18.868
757.00	20.567
757.31	21.107
757.63	20.261
757.94	16.667
758.25	22.321
758.56	18.378
758.87	18.750
759.18	24.299
759.50	20.641
759.81	22.008
760.12	27.046
760.43	23.256
760.74	20.359
761.05	22.115
761.36	22.849
761.67	17.933
761.99	24.415
762.30	17.818
762.61	25.203
762.92	20.444
763.23	21.860
763.54	23.350
763.85	20.814
764.16	18.261
764.47	17.826
764.78	17.742
765.10	17.323
765.41	18.060
765.72	17.726
766.03	20.401
766.34	18.561
766.65	23.047
766.96	18.222
767.27	22.346
767.58	15.723
767.89	12.338
768.20	11.486
768.51	17.816
768.82	7.500
769.13	26.852
769.44	18.868
769.75	17.647
770.06	15.049
770.37	18.617
770.68	17.949
770.99	21.827
771.30	15.464
771.61	13.453
771.92	12.264
772.23	14.904
772.54	24.118
772.85	14.384
773.16	12.903
773.47	12.739
773.78	17.365
774.09	19.079
774.39	9.559
774.70	16.541
775.01	11.538
775.32	9.524
775.63	16.535
775.94	7.547
776.25	14.074
776.56	10.909
776.87	15.385
777.18	18.000
777.48	2.885
777.79	9.259
778.10	17.925
778.41	16.667
778.72	6.604
779.03	16.667
779.34	14.286
779.65	18.310
779.95	12.230
780.26	4.032
780.57	18.841
780.88	11.009
781.19	12.037
781.50	10.656
781.80	13.139
782.11	16.667
782.42	3.448
782.73	11.888
783.04	-2.400
783.34	13.600
783.65	20.325
783.96	-0.820
784.27	5.882
784.57	-1.869
784.88	11.607
785.19	20.619
785.50	11.579
785.81	7.000
786.11	3.960
786.42	-1.176
786.73	7.292
787.04	4.082
787.34	22.222
787.65	16.038
787.96	0.000
788.26	11.881
788.57	8.696
788.88	2.752
789.19	9.091
789.49	3.478
789.80	14.655
790.11	-4.878
790.41	17.978
790.72	5.814
791.03	3.488
791.33	-14.286
791.64	8.537
791.95	9.756
792.25	-15.663
792.56	3.704
792.87	-5.634
793.17	16.867
793.48	2.353
793.79	11.250
794.09	1.667
794.40	9.783
794.70	4.348
795.01	14.679
795.32	15.748
795.62	11.765
795.93	4.902
796.23	-3.030
796.54	-12.791
796.85	-10.145
797.15	-3.125
797.46	-25.424
797.76	13.115
798.07	-2.632
798.37	-1.613
798.68	-20.312
798.99	3.077
799.29	-9.091
799.60	-2.899
799.90	20.000
800.21	-5.263
800.51	3.448
800.82	-9.434
801.12	0.000
801.43	-6.452
801.73	-16.129
802.04	-10.000
802.34	-16.981
802.65	-26.316
802.95	-1.818
803.26	-3.774
803.56	-6.557
803.87	-16.000
804.17	-18.519
804.48	-9.615
804.78	-26.531
805.09	-19.149
805.39	-6.780
805.70	-22.917
806.00	-14.286
806.30	3.390
806.61	-4.615
806.91	-7.692
807.22	-2.632
807.52	7.143
807.83	-6.897
808.13	3.797
808.43	-8.197
808.74	0.000
809.04	5.405
809.35	-9.259
809.65	-8.929
809.95	-6.780
810.26	-26.531
810.56	-9.434
810.86	-21.569
811.17	2.703
811.47	-62.963
811.77	-11.765
812.08	9.091
812.38	-83.333
812.69	0.000
812.99	0.000
813.29	4.348
813.59	-22.857
813.90	-26.190
814.20	-9.091
814.50	-10.204
814.81	-43.137
815.11	-25.000
815.41	-36.585
815.72	-50.000
816.02	6.383
816.32	-15.625
816.62	-15.152
816.93	-63.636
817.23	-8.108
817.53	-29.412
817.84	-15.000
818.14	-44.118
818.44	6.250
818.74	-104.762
819.04	-31.429
819.35	-14.286
819.65	-6.818
819.95	2.564
820.25	-77.778
820.56	-34.483
820.86	-57.143
821.16	-56.522
821.46	-14.286
821.76	-3.704
822.07	-34.783
822.37	2.041
822.67	-39.535
822.97	-52.174
823.27	-57.692
823.57	-59.259
823.88	-57.143
824.18	-7.692
824.48	-42.857
824.78	-27.273
825.08	-86.667
825.38	-17.500
825.69	-161.111
825.99	-62.963
826.29	11.111
826.59	-62.963
826.89	-59.259
827.19	-53.571
827.49	-68.182
827.79	-104.545
828.09	-50.000
828.39	-86.957
828.70	-37.037
829.00	-57.143
829.30	-11.905
829.60	-48.387
829.90	-23.077
830.20	-17.949
830.50	-81.818
830.80	-95.238
831.10	-88.889
831.40	-185.714
831.70	-70.370
832.00	-17.647
832.30	-26.087
832.60	-50.000
832.90	-227.273
833.20	-83.333
833.50	12.500
833.80	-53.846
834.10	-12.000
834.40	-37.500
834.70	-68.182
835.00	-57.692
835.30	-110.000
835.60	-320.000
835.90	-80.000
836.20	-157.143
836.50	-47.826
836.80	-105.556
837.10	-60.000
837.40	-170.000
837.70	-82.609
838.00	-100.000
838.30	2500.000
838.60	-32.000
838.90	-480.000
839.19	-188.889
839.49	-1050.000
839.79	-141.176
840.09	-244.444
840.39	-35.714
840.69	-55.556
840.99	-141.667
841.29	-62.069
841.59	-106.667
841.88	-109.091
842.18	-366.667
842.48	-25.000
842.78	-34.615
843.08	-94.118
843.38	-90.000
843.68	-84.615
843.97	-135.294
844.27	-290.000
844.57	-50.000
844.87	-63.636
845.17	-100.000
845.47	-105.556
845.76	2.778
846.06	-71.429
846.36	-121.429
846.66	-222.222
846.96	-120.000
847.25	-400.000
847.55	-237.500
847.85	-120.000
848.15	-500.000
848.44	-136.842
848.74	-80.000
849.04	-52.632
849.34	-466.667
849.63	-266.667
849.93	-76.471
850.23	-200.000
850.53	-466.667
850.82	-260.000
851.12	-288.889
851.42	-242.857
851.71	-340.000
852.01	-114.286
852.31	-1100.000
852.61	-107.692
852.90	-500.000
853.20	-155.556
853.50	-322.222
853.79	-190.000
854.09	-110.000
854.39	-100.000
854.68	-65.000
854.98	-250.000
855.28	-66.667
855.57	-128.571
855.87	-94.737
856.17	-125.000
856.46	-38.462
856.76	-53.333
857.05	-118.750
857.35	-50.000
857.65	-88.889
857.94	-250.000
858.24	-82.609
858.53	-240.000
858.83	-333.333
859.13	-181.818
859.42	-160.000
859.72	400.000
860.01	-69.231
860.31	-270.000
860.60	-250.000
860.90	-650.000
861.20	-300.000
861.49	-500.000
861.79	900.000
862.08	0.000
862.38	-94.737
862.67	-69.231
862.97	-220.000
863.26	-125.000
863.56	-95.652
863.85	-450.000
864.15	-121.429
864.44	-68.750
864.74	-166.667
865.03	-100.000
865.33	-566.667
865.62	-2100.000
865.92	-1300.000
866.21	-433.333
866.51	-218.182
866.80	-933.333
867.10	-285.714
867.39	-111.111
867.69	-225.000
867.98	400.000
868.27	-725.000
868.57	450.000
868.86	-86.667
869.16	-107.692
869.45	1950.000
869.75	-416.667
870.04	-275.000
870.33	-129.412
870.63	-257.143
870.92	-13.043
871.22	-300.000
871.51	580.000
871.80	-131.250
872.10	-733.333
>>>>>End Processed Spectral Data<<<<<
