SpectraSuite Data File
++++++++++++++++++++++++++++++++++++
Date: Wed May 13 19:27:39 PDT 2015
User: schluterlab
Dark Spectrum Present: Yes
Reference Spectrum Present: Yes
Number of Sampled Component Spectra: 1
Spectrometers: USB2E3373
Integration Time (usec): 3000 (USB2E3373)
Spectra Averaged: 3 (USB2E3373)
Boxcar Smoothing: 0 (USB2E3373)
Correct for Electrical Dark: No (USB2E3373)
Strobe/Lamp Enabled: No (USB2E3373)
Correct for Detector Non-linearity: No (USB2E3373)
Correct for Stray Light: No (USB2E3373)
Number of Pixels in Processed Spectrum: 2048
>>>>>Begin Processed Spectral Data<<<<<
178.53	0.000
178.91	-1225.000
179.29	-1300.000
179.67	-238.889
180.04	-1275.000
180.42	1850.000
180.80	1300.000
181.18	-1125.000
181.56	814.286
181.94	0.000
182.31	-757.143
182.69	1800.000
183.07	-500.000
183.45	-477.778
183.83	563.636
184.20	-380.000
184.58	2650.000
184.96	5700.000
185.34	-1060.000
185.72	-650.000
186.09	-2600.000
186.47	2800.000
186.85	2200.000
187.23	5900.000
187.61	-1866.667
187.98	1200.000
188.36	627.273
188.74	454.545
189.12	-760.000
189.49	550.000
189.87	-5600.000
190.25	-1150.000
190.63	471.429
191.00	423.077
191.38	900.000
191.76	-1300.000
192.14	1375.000
192.51	687.500
192.89	1133.333
193.27	637.500
193.65	-1150.000
194.02	550.000
194.40	1020.000
194.78	640.000
195.15	575.000
195.53	650.000
195.91	-2350.000
196.29	418.750
196.66	326.316
197.04	-500.000
197.42	0.000
197.79	650.000
198.17	-5300.000
198.55	614.286
198.92	737.500
199.30	1060.000
199.68	0.000
200.05	333.333
200.43	857.143
200.81	4400.000
201.18	1966.667
201.56	-1666.667
201.94	488.889
202.31	611.111
202.69	525.000
203.07	610.000
203.44	0.000
203.82	1000.000
204.19	742.857
204.57	435.714
204.95	800.000
205.32	1400.000
205.70	636.364
206.08	378.571
206.45	2600.000
206.83	337.500
207.20	1050.000
207.58	860.000
207.96	333.333
208.33	737.500
208.71	-900.000
209.08	757.143
209.46	677.778
209.84	563.636
210.21	-1466.667
210.59	1525.000
210.96	-587.500
211.34	2300.000
211.71	610.000
212.09	766.667
212.46	0.000
212.84	1633.333
213.22	1475.000
213.59	-5000.000
213.97	916.667
214.34	771.429
214.72	600.000
215.09	1020.000
215.47	-2600.000
215.84	-2650.000
216.22	1666.667
216.59	371.429
216.97	1150.000
217.34	536.364
217.72	-766.667
218.09	0.000
218.47	-4600.000
218.84	611.111
219.22	757.143
219.59	1733.333
219.97	-528.571
220.34	1040.000
220.72	-2066.667
221.09	435.714
221.47	1600.000
221.84	-916.667
222.22	0.000
222.59	1375.000
222.97	-2550.000
223.34	1120.000
223.72	438.462
224.09	1120.000
224.46	2050.000
224.84	-5800.000
225.21	-980.000
225.59	-4400.000
225.96	600.000
226.34	335.000
226.71	2700.000
227.08	775.000
227.46	560.000
227.83	-1125.000
228.21	-2400.000
228.58	622.222
228.95	-2400.000
229.33	-2250.000
229.70	2000.000
230.08	800.000
230.45	-920.000
230.82	466.667
231.20	866.667
231.57	700.000
231.95	433.333
232.32	231.818
232.69	336.364
233.07	771.429
233.44	407.692
233.81	-1633.333
234.19	315.789
234.56	508.333
234.93	450.000
235.31	463.636
235.68	423.077
236.05	335.714
236.43	209.091
236.80	278.947
237.17	4600.000
237.55	266.667
237.92	228.571
238.29	280.952
238.67	190.323
239.04	234.483
239.41	163.889
239.79	128.261
240.16	169.048
240.53	129.545
240.91	98.039
241.28	114.000
241.65	96.000
242.02	120.290
242.40	101.613
242.77	111.667
243.14	81.720
243.51	88.764
243.89	91.765
244.26	67.778
244.63	79.570
245.00	64.894
245.38	78.218
245.75	66.355
246.12	70.642
246.49	73.723
246.87	72.000
247.24	67.692
247.61	60.714
247.98	60.784
248.36	56.757
248.73	63.057
249.10	63.694
249.47	57.062
249.84	57.754
250.22	48.128
250.59	49.704
250.96	52.525
251.33	59.716
251.70	53.465
252.08	50.952
252.45	48.879
252.82	45.217
253.19	47.234
253.56	48.235
253.94	47.303
254.31	43.750
254.68	47.692
255.05	46.125
255.42	45.122
255.79	44.118
256.16	47.653
256.54	45.230
256.91	46.975
257.28	41.007
257.65	41.914
258.02	44.720
258.39	41.956
258.76	41.472
259.14	41.964
259.51	42.249
259.88	37.888
260.25	42.598
260.62	42.775
260.99	39.752
261.36	38.138
261.73	37.536
262.10	38.663
262.47	41.690
262.85	38.719
263.22	35.328
263.59	41.026
263.96	39.560
264.33	38.381
264.70	37.105
265.07	41.176
265.44	38.636
265.81	36.010
266.18	38.945
266.55	37.073
266.92	37.838
267.29	37.269
267.66	34.404
268.03	35.909
268.40	36.916
268.77	33.652
269.14	32.658
269.51	38.600
269.88	35.897
270.25	33.860
270.62	37.753
270.99	35.914
271.36	35.622
271.73	37.150
272.10	35.652
272.47	36.774
272.84	33.983
273.21	35.010
273.58	34.061
273.95	33.543
274.32	30.579
274.69	35.546
275.06	34.252
275.43	34.043
275.80	33.066
276.17	36.456
276.54	36.175
276.91	35.178
277.28	33.789
277.65	34.429
278.02	33.333
278.39	33.984
278.76	32.000
279.13	35.283
279.50	33.706
279.87	32.869
280.23	34.731
280.60	32.882
280.97	32.902
281.34	30.796
281.71	34.727
282.08	31.670
282.45	30.182
282.82	33.037
283.19	31.016
283.56	31.053
283.92	31.641
284.29	32.099
284.66	31.397
285.03	32.188
285.40	29.930
285.77	30.135
286.14	30.570
286.51	32.667
286.87	30.256
287.24	31.107
287.61	29.856
287.98	30.519
288.35	30.111
288.72	29.128
289.08	29.421
289.45	29.984
289.82	29.756
290.19	26.217
290.56	27.871
290.93	26.133
291.29	28.681
291.66	28.466
292.03	29.360
292.40	28.194
292.77	25.740
293.13	30.000
293.50	26.822
293.87	25.926
294.24	26.963
294.60	24.163
294.97	26.744
295.34	28.491
295.71	26.136
296.08	27.208
296.44	24.622
296.81	25.627
297.18	27.371
297.55	25.066
297.91	25.066
298.28	25.033
298.65	26.893
299.02	25.033
299.38	24.037
299.75	22.372
300.12	24.393
300.48	22.750
300.85	23.674
301.22	22.420
301.59	23.864
301.95	24.181
302.32	23.363
302.69	23.895
303.05	23.515
303.42	23.580
303.79	23.216
304.15	22.494
304.52	23.986
304.89	21.951
305.25	22.274
305.62	22.877
305.99	23.967
306.35	21.253
306.72	21.637
307.09	21.976
307.45	22.410
307.82	21.094
308.19	23.289
308.55	22.546
308.92	22.019
309.29	20.486
309.65	20.679
310.02	22.093
310.38	22.258
310.75	20.063
311.12	22.006
311.48	21.526
311.85	23.166
312.22	20.395
312.58	20.790
312.95	20.908
313.31	20.680
313.68	21.102
314.05	22.091
314.41	21.407
314.78	20.645
315.14	19.960
315.51	21.215
315.87	20.495
316.24	20.655
316.61	20.078
316.97	19.961
317.34	19.472
317.70	20.554
318.07	21.078
318.43	21.037
318.80	20.806
319.16	21.092
319.53	18.949
319.89	21.714
320.26	20.900
320.62	22.321
320.99	20.808
321.35	20.808
321.72	20.637
322.08	21.619
322.45	22.090
322.81	22.190
323.18	21.098
323.54	21.521
323.91	20.943
324.27	21.415
324.64	21.156
325.00	21.100
325.37	21.292
325.73	21.903
326.10	21.183
326.46	21.147
326.83	22.088
327.19	20.581
327.56	21.951
327.92	21.085
328.29	22.715
328.65	21.363
329.01	23.014
329.38	21.739
329.74	22.068
330.11	22.714
330.47	22.590
330.84	22.702
331.20	21.311
331.56	21.009
331.93	20.833
332.29	22.005
332.66	22.655
333.02	22.943
333.38	22.042
333.75	22.460
334.11	21.797
334.48	22.626
334.84	22.151
335.20	22.364
335.57	21.215
335.93	21.607
336.29	22.527
336.66	22.092
337.02	20.814
337.38	22.685
337.75	21.836
338.11	21.576
338.47	22.652
338.84	21.998
339.20	22.110
339.56	21.898
339.93	22.000
340.29	21.649
340.65	21.390
341.02	22.688
341.38	22.064
341.74	20.965
342.11	21.135
342.47	21.233
342.83	22.089
343.20	22.165
343.56	20.893
343.92	21.053
344.28	20.833
344.65	20.808
345.01	20.034
345.37	22.041
345.73	21.320
346.10	20.546
346.46	21.271
346.82	21.746
347.19	21.136
347.55	20.279
347.91	20.955
348.27	21.528
348.63	20.903
349.00	20.874
349.36	20.525
349.72	20.209
350.08	20.178
350.45	21.237
350.81	19.903
351.17	20.746
351.53	21.458
351.89	20.462
352.26	21.231
352.62	21.492
352.98	20.502
353.34	20.542
353.70	20.049
354.07	20.323
354.43	19.206
354.79	18.825
355.15	19.473
355.51	20.464
355.87	19.265
356.24	19.625
356.60	19.407
356.96	20.032
357.32	18.316
357.68	19.843
358.04	19.636
358.40	19.240
358.77	19.875
359.13	19.495
359.49	19.373
359.85	18.730
360.21	19.139
360.57	20.623
360.93	20.692
361.29	18.216
361.66	17.879
362.02	19.851
362.38	19.468
362.74	18.527
363.10	18.727
363.46	19.149
363.82	18.670
364.18	19.163
364.54	19.316
364.90	19.263
365.26	18.971
365.62	19.065
365.98	18.481
366.35	18.338
366.71	18.294
367.07	18.572
367.43	18.868
367.79	19.129
368.15	19.899
368.51	17.733
368.87	19.058
369.23	19.020
369.59	19.261
369.95	19.044
370.31	18.447
370.67	18.406
371.03	18.502
371.39	19.388
371.75	18.529
372.11	19.132
372.47	18.328
372.83	19.308
373.19	18.931
373.55	18.034
373.91	19.293
374.27	18.557
374.63	18.036
374.99	18.997
375.35	18.632
375.71	18.711
376.07	18.450
376.42	17.950
376.78	18.555
377.14	17.503
377.50	17.947
377.86	17.354
378.22	17.193
378.58	16.667
378.94	17.285
379.30	16.985
379.66	18.147
380.02	18.919
380.38	17.001
380.74	16.807
381.09	17.910
381.45	18.070
381.81	17.568
382.17	17.516
382.53	18.050
382.89	17.840
383.25	17.136
383.61	17.348
383.97	17.949
384.32	16.781
384.68	17.286
385.04	17.333
385.40	17.337
385.76	16.830
386.12	17.358
386.48	17.810
386.83	17.640
387.19	17.811
387.55	17.316
387.91	17.291
388.27	17.229
388.62	17.025
388.98	17.076
389.34	18.085
389.70	17.413
390.06	17.871
390.42	16.732
390.77	17.494
391.13	18.443
391.49	17.132
391.85	16.614
392.20	15.962
392.56	16.730
392.92	16.539
393.28	15.444
393.64	17.146
393.99	16.921
394.35	16.625
394.71	16.562
395.07	16.698
395.42	17.429
395.78	18.130
396.14	16.760
396.50	17.105
396.85	17.292
397.21	16.893
397.57	17.173
397.92	17.308
398.28	16.087
398.64	16.667
399.00	16.340
399.35	16.638
399.71	16.435
400.07	17.800
400.42	16.871
400.78	15.923
401.14	16.829
401.49	16.239
401.85	16.576
402.21	16.168
402.57	17.582
402.92	17.339
403.28	16.740
403.63	16.708
403.99	15.924
404.35	16.848
404.70	16.067
405.06	15.842
405.42	17.405
405.77	15.429
406.13	16.817
406.49	16.558
406.84	16.243
407.20	15.957
407.55	16.273
407.91	16.800
408.27	16.146
408.62	16.857
408.98	17.034
409.34	15.867
409.69	16.839
410.05	16.914
410.40	16.453
410.76	16.308
411.11	16.224
411.47	17.508
411.83	16.127
412.18	15.832
412.54	16.625
412.89	16.988
413.25	16.647
413.60	16.553
413.96	16.818
414.31	16.282
414.67	16.603
415.03	16.093
415.38	16.753
415.74	17.363
416.09	16.656
416.45	16.399
416.80	16.061
417.16	17.292
417.51	17.054
417.87	16.313
418.22	16.909
418.58	17.172
418.93	16.585
419.29	16.932
419.64	16.814
420.00	16.159
420.35	16.870
420.71	15.780
421.06	15.692
421.42	15.965
421.77	16.928
422.12	15.497
422.48	15.596
422.83	16.191
423.19	15.912
423.54	16.367
423.90	16.754
424.25	16.415
424.61	15.476
424.96	16.327
425.31	15.781
425.67	15.393
426.02	16.000
426.38	16.239
426.73	15.974
427.09	15.866
427.44	16.216
427.79	16.044
428.15	16.607
428.50	16.267
428.85	16.985
429.21	15.461
429.56	15.656
429.92	15.752
430.27	15.641
430.62	15.003
430.98	16.606
431.33	16.186
431.68	16.073
432.04	15.655
432.39	15.762
432.74	16.098
433.10	16.072
433.45	16.385
433.80	15.466
434.16	16.400
434.51	16.316
434.86	16.249
435.22	15.842
435.57	16.292
435.92	16.150
436.28	16.251
436.63	16.943
436.98	15.627
437.34	15.862
437.69	17.386
438.04	15.627
438.39	15.642
438.75	15.747
439.10	16.480
439.45	16.116
439.81	15.952
440.16	15.697
440.51	16.755
440.86	16.445
441.22	16.129
441.57	16.083
441.92	16.223
442.27	16.416
442.63	15.587
442.98	16.958
443.33	16.413
443.68	16.107
444.03	16.447
444.39	15.385
444.74	16.504
445.09	16.226
445.44	16.566
445.79	16.230
446.15	16.517
446.50	16.047
446.85	15.827
447.20	16.063
447.55	16.750
447.91	15.720
448.26	16.639
448.61	15.998
448.96	16.390
449.31	16.423
449.66	16.263
450.02	15.877
450.37	15.590
450.72	16.074
451.07	16.271
451.42	15.623
451.77	17.029
452.12	15.762
452.47	16.231
452.83	16.550
453.18	16.320
453.53	16.574
453.88	16.657
454.23	15.780
454.58	16.596
454.93	17.483
455.28	15.648
455.63	16.566
455.98	16.845
456.34	16.960
456.69	16.155
457.04	16.099
457.39	16.014
457.74	15.844
458.09	17.539
458.44	15.906
458.79	15.510
459.14	15.914
459.49	16.871
459.84	15.568
460.19	15.675
460.54	15.625
460.89	15.414
461.24	17.243
461.59	16.967
461.94	15.845
462.29	15.668
462.64	16.082
462.99	15.810
463.34	17.400
463.69	16.135
464.04	16.754
464.39	16.464
464.74	16.578
465.09	16.043
465.44	15.568
465.79	16.443
466.14	15.545
466.49	15.628
466.84	16.170
467.19	15.812
467.54	16.062
467.89	16.206
468.24	16.289
468.59	16.972
468.94	15.211
469.29	17.159
469.64	16.667
469.99	16.644
470.34	16.777
470.68	17.170
471.03	16.395
471.38	17.165
471.73	16.322
472.08	17.368
472.43	16.332
472.78	16.524
473.13	16.881
473.48	16.604
473.83	16.280
474.17	15.993
474.52	16.749
474.87	16.754
475.22	16.251
475.57	15.583
475.92	15.879
476.27	16.347
476.61	15.830
476.96	15.558
477.31	15.960
477.66	16.028
478.01	15.734
478.36	16.182
478.70	15.421
479.05	15.708
479.40	15.763
479.75	16.014
480.10	15.905
480.45	15.564
480.79	16.006
481.14	15.411
481.49	15.757
481.84	15.821
482.19	15.675
482.53	15.917
482.88	15.914
483.23	15.280
483.58	15.605
483.92	15.792
484.27	14.074
484.62	15.388
484.97	14.899
485.31	15.171
485.66	13.938
486.01	14.001
486.36	13.535
486.70	13.269
487.05	13.848
487.40	13.943
487.75	14.047
488.09	14.437
488.44	14.310
488.79	14.864
489.13	15.241
489.48	15.212
489.83	15.278
490.17	15.300
490.52	15.013
490.87	15.468
491.22	15.598
491.56	15.308
491.91	14.844
492.26	15.434
492.60	15.069
492.95	14.780
493.30	14.720
493.64	15.306
493.99	14.578
494.34	15.125
494.68	15.568
495.03	15.179
495.37	14.705
495.72	14.961
496.07	15.128
496.41	14.513
496.76	15.084
497.11	15.308
497.45	15.370
497.80	15.643
498.14	15.024
498.49	15.415
498.84	15.340
499.18	14.952
499.53	14.625
499.87	15.610
500.22	15.261
500.56	15.583
500.91	14.712
501.26	14.983
501.60	15.187
501.95	15.078
502.29	14.995
502.64	14.944
502.98	14.867
503.33	14.351
503.67	15.220
504.02	15.341
504.36	15.068
504.71	15.095
505.06	14.988
505.40	14.876
505.75	14.754
506.09	14.820
506.44	15.195
506.78	15.149
507.13	14.488
507.47	15.455
507.82	14.995
508.16	15.096
508.51	15.830
508.85	14.598
509.19	15.153
509.54	15.255
509.88	14.889
510.23	15.064
510.57	15.893
510.92	15.173
511.26	15.211
511.61	15.768
511.95	14.823
512.30	15.483
512.64	14.723
512.98	16.184
513.33	15.846
513.67	15.475
514.02	14.989
514.36	15.729
514.70	15.827
515.05	15.505
515.39	15.536
515.74	15.090
516.08	15.875
516.42	15.483
516.77	17.113
517.11	14.761
517.46	15.745
517.80	15.970
518.14	14.129
518.49	15.928
518.83	15.795
519.17	15.589
519.52	15.167
519.86	15.973
520.20	15.665
520.55	15.560
520.89	16.241
521.23	16.104
521.58	15.486
521.92	15.554
522.26	14.521
522.61	15.327
522.95	15.040
523.29	15.338
523.64	14.939
523.98	16.081
524.32	14.355
524.66	15.815
525.01	15.380
525.35	15.551
525.69	15.271
526.04	16.137
526.38	15.619
526.72	15.337
527.06	15.568
527.41	14.913
527.75	15.627
528.09	15.992
528.43	15.934
528.78	16.533
529.12	15.455
529.46	16.167
529.80	15.470
530.15	16.262
530.49	15.754
530.83	15.886
531.17	16.319
531.51	16.148
531.86	15.806
532.20	16.232
532.54	16.656
532.88	16.239
533.22	15.240
533.57	15.741
533.91	16.195
534.25	15.128
534.59	15.619
534.93	15.943
535.27	16.113
535.62	16.239
535.96	16.510
536.30	15.257
536.64	16.549
536.98	15.594
537.32	16.063
537.66	15.267
538.01	16.063
538.35	15.966
538.69	16.209
539.03	15.205
539.37	15.272
539.71	15.036
540.05	15.490
540.39	16.346
540.73	15.265
541.07	15.185
541.42	15.590
541.76	16.903
542.10	16.429
542.44	15.497
542.78	16.930
543.12	15.867
543.46	16.656
543.80	16.721
544.14	15.404
544.48	16.698
544.82	15.330
545.16	15.680
545.50	15.938
545.84	16.331
546.18	16.027
546.52	14.797
546.86	16.976
547.20	16.588
547.54	16.232
547.88	17.283
548.22	16.252
548.56	16.038
548.90	15.109
549.24	15.892
549.58	15.825
549.92	15.797
550.26	15.696
550.60	15.698
550.94	15.634
551.28	15.508
551.62	17.182
551.96	16.351
552.30	16.519
552.64	16.227
552.98	16.271
553.32	16.116
553.66	16.701
554.00	16.953
554.34	16.218
554.68	15.522
555.02	16.079
555.36	16.701
555.69	16.373
556.03	16.151
556.37	16.166
556.71	15.825
557.05	15.896
557.39	15.675
557.73	15.808
558.07	16.751
558.41	15.557
558.75	16.752
559.08	16.555
559.42	16.327
559.76	15.956
560.10	16.131
560.44	15.863
560.78	16.234
561.12	16.359
561.45	16.819
561.79	15.887
562.13	15.560
562.47	15.984
562.81	15.342
563.15	16.321
563.48	16.379
563.82	15.264
564.16	15.762
564.50	16.211
564.84	16.688
565.17	15.701
565.51	16.358
565.85	16.053
566.19	16.093
566.52	16.086
566.86	16.094
567.20	16.450
567.54	16.324
567.88	14.720
568.21	15.979
568.55	15.066
568.89	14.883
569.23	14.394
569.56	14.899
569.90	14.264
570.24	14.137
570.57	14.553
570.91	13.542
571.25	14.052
571.59	13.844
571.92	14.084
572.26	14.038
572.60	14.474
572.93	13.853
573.27	14.286
573.61	14.098
573.95	14.031
574.28	13.668
574.62	13.946
574.96	13.835
575.29	13.409
575.63	13.694
575.97	13.486
576.30	14.233
576.64	13.520
576.98	13.466
577.31	13.470
577.65	13.529
577.98	13.370
578.32	13.384
578.66	13.438
578.99	13.559
579.33	13.604
579.67	13.403
580.00	13.618
580.34	13.977
580.67	13.850
581.01	13.537
581.35	13.602
581.68	13.911
582.02	13.521
582.35	13.689
582.69	13.455
583.02	13.434
583.36	13.950
583.70	14.011
584.03	14.054
584.37	14.229
584.70	14.028
585.04	14.090
585.37	13.840
585.71	14.121
586.04	13.941
586.38	14.289
586.72	14.609
587.05	13.936
587.39	13.615
587.72	14.146
588.06	13.901
588.39	14.074
588.73	14.227
589.06	14.459
589.40	14.613
589.73	14.009
590.07	14.342
590.40	13.665
590.73	14.364
591.07	15.059
591.40	14.635
591.74	15.411
592.07	14.572
592.41	14.800
592.74	14.532
593.08	14.457
593.41	14.268
593.75	14.210
594.08	14.247
594.41	14.210
594.75	13.789
595.08	14.639
595.42	14.361
595.75	14.566
596.09	14.307
596.42	15.167
596.75	14.436
597.09	15.022
597.42	14.418
597.75	14.705
598.09	15.043
598.42	14.691
598.76	13.863
599.09	13.911
599.42	14.156
599.76	14.495
600.09	14.208
600.42	14.646
600.76	14.071
601.09	14.645
601.42	14.155
601.76	14.118
602.09	13.953
602.42	14.411
602.76	14.913
603.09	14.477
603.42	15.150
603.76	14.748
604.09	13.843
604.42	14.472
604.76	15.816
605.09	14.810
605.42	14.493
605.75	14.321
606.09	14.315
606.42	13.935
606.75	14.517
607.09	15.027
607.42	14.463
607.75	14.135
608.08	14.590
608.42	15.105
608.75	14.518
609.08	14.847
609.41	14.374
609.75	14.435
610.08	15.174
610.41	14.479
610.74	14.759
611.07	15.069
611.41	15.407
611.74	15.636
612.07	15.166
612.40	15.687
612.73	14.789
613.07	15.679
613.40	15.745
613.73	14.316
614.06	14.301
614.39	15.260
614.72	15.474
615.06	15.389
615.39	14.703
615.72	14.673
616.05	15.258
616.38	15.120
616.71	15.796
617.05	15.194
617.38	14.913
617.71	15.676
618.04	15.805
618.37	14.666
618.70	16.366
619.03	15.592
619.36	15.071
619.69	15.563
620.03	16.621
620.36	16.243
620.69	16.507
621.02	16.445
621.35	15.348
621.68	15.966
622.01	16.022
622.34	16.641
622.67	16.882
623.00	16.214
623.33	15.654
623.66	16.226
623.99	15.611
624.32	16.405
624.65	15.678
624.99	14.377
625.32	15.134
625.65	15.778
625.98	15.680
626.31	17.729
626.64	16.490
626.97	16.043
627.30	15.711
627.63	17.063
627.96	16.989
628.29	16.448
628.62	17.017
628.95	18.868
629.28	16.150
629.61	17.415
629.94	17.333
630.26	16.873
630.59	16.969
630.92	15.805
631.25	15.696
631.58	17.217
631.91	17.546
632.24	17.089
632.57	17.419
632.90	17.325
633.23	17.673
633.56	16.949
633.89	18.347
634.22	18.729
634.55	20.000
634.88	18.323
635.20	17.921
635.53	18.193
635.86	18.441
636.19	19.529
636.52	18.916
636.85	18.213
637.18	16.820
637.51	18.558
637.83	16.153
638.16	17.775
638.49	18.766
638.82	19.469
639.15	18.625
639.48	18.953
639.81	19.973
640.13	18.750
640.46	17.987
640.79	20.608
641.12	18.707
641.45	19.972
641.77	18.115
642.10	19.883
642.43	18.318
642.76	19.505
643.09	19.325
643.41	18.816
643.74	20.679
644.07	19.207
644.40	19.479
644.73	20.787
645.05	20.919
645.38	20.063
645.71	18.196
646.04	21.262
646.36	21.202
646.69	21.070
647.02	19.728
647.35	20.619
647.67	21.416
648.00	20.813
648.33	20.462
648.66	19.545
648.98	20.390
649.31	19.581
649.64	18.386
649.96	20.417
650.29	20.537
650.62	20.227
650.94	19.611
651.27	22.297
651.60	20.133
651.92	21.565
652.25	18.730
652.58	20.561
652.90	20.063
653.23	20.955
653.56	19.685
653.88	19.493
654.21	20.853
654.54	19.637
654.86	19.003
655.19	16.757
655.52	12.851
655.84	11.464
656.17	14.834
656.49	19.839
656.82	20.336
657.15	15.188
657.47	11.125
657.80	8.720
658.13	8.827
658.45	13.146
658.78	13.595
659.10	14.614
659.43	15.112
659.75	15.543
660.08	18.165
660.41	19.646
660.73	19.695
661.06	20.541
661.38	20.545
661.71	21.538
662.03	23.077
662.36	19.682
662.68	21.687
663.01	19.798
663.33	21.656
663.66	22.269
663.98	22.246
664.31	19.958
664.63	21.862
664.96	17.706
665.28	21.721
665.61	21.248
665.93	22.334
666.26	22.515
666.58	21.130
666.91	22.622
667.23	21.124
667.56	21.382
667.88	20.726
668.21	23.881
668.53	20.824
668.86	26.623
669.18	24.307
669.50	22.391
669.83	26.362
670.15	23.778
670.48	21.569
670.80	23.276
671.13	23.567
671.45	19.787
671.77	21.792
672.10	21.996
672.42	20.848
672.75	21.227
673.07	19.718
673.39	20.434
673.72	22.070
674.04	19.804
674.37	21.748
674.69	21.472
675.01	21.548
675.34	23.409
675.66	22.526
675.98	22.200
676.31	24.580
676.63	22.505
676.95	21.593
677.28	22.430
677.60	22.418
677.92	25.527
678.25	21.150
678.57	22.311
678.89	22.445
679.22	20.825
679.54	20.992
679.86	22.202
680.18	21.825
680.51	19.504
680.83	19.217
681.15	23.396
681.48	21.550
681.80	21.663
682.12	21.456
682.44	19.923
682.77	22.607
683.09	25.536
683.41	24.169
683.73	21.413
684.06	22.727
684.38	20.548
684.70	21.318
685.02	21.201
685.34	20.330
685.67	19.930
685.99	20.447
686.31	20.478
686.63	16.608
686.96	19.821
687.28	20.758
687.60	19.384
687.92	22.121
688.24	18.821
688.56	22.691
688.89	24.274
689.21	25.546
689.53	20.668
689.85	21.729
690.17	20.911
690.49	23.355
690.82	23.832
691.14	20.089
691.46	20.253
691.78	22.289
692.10	24.174
692.42	22.754
692.74	18.050
693.06	22.766
693.39	23.819
693.71	22.707
694.03	22.947
694.35	24.242
694.67	23.112
694.99	23.171
695.31	22.059
695.63	24.641
695.95	23.227
696.27	20.051
696.59	23.834
696.91	25.648
697.23	21.127
697.56	26.439
697.88	19.632
698.20	22.083
698.52	22.151
698.84	22.494
699.16	22.350
699.48	21.140
699.80	20.773
700.12	25.195
700.44	26.525
700.76	25.138
701.08	24.138
701.40	26.536
701.72	27.114
702.04	31.534
702.36	23.796
702.68	23.796
703.00	25.762
703.32	22.606
703.64	26.810
703.96	26.741
704.28	28.488
704.60	28.152
704.91	27.003
705.23	27.566
705.55	26.578
705.87	29.236
706.19	26.148
706.51	24.611
706.83	28.788
707.15	25.770
707.47	27.020
707.79	24.324
708.11	23.973
708.43	24.048
708.74	22.194
709.06	25.455
709.38	22.572
709.70	26.453
710.02	28.783
710.34	25.758
710.66	26.866
710.98	26.989
711.29	26.453
711.61	28.909
711.93	29.487
712.25	26.367
712.57	33.456
712.89	26.644
713.20	26.140
713.52	27.303
713.84	26.899
714.16	28.354
714.48	26.437
714.80	32.523
715.11	24.496
715.43	26.409
715.75	25.797
716.07	27.796
716.39	29.154
716.70	27.907
717.02	28.058
717.34	28.975
717.66	29.478
717.97	33.466
718.29	28.148
718.61	28.467
718.93	30.882
719.24	28.720
719.56	26.102
719.88	27.797
720.20	28.041
720.51	29.268
720.83	36.431
721.15	25.746
721.46	31.206
721.78	30.466
722.10	29.811
722.42	32.707
722.73	32.959
723.05	30.738
723.37	27.530
723.68	31.660
724.00	29.675
724.32	32.258
724.63	30.894
724.95	32.636
725.27	36.842
725.58	35.156
725.90	34.307
726.22	28.679
726.53	28.472
726.85	27.986
727.16	29.181
727.48	31.915
727.80	25.758
728.11	28.623
728.43	33.462
728.74	27.599
729.06	32.117
729.38	32.721
729.69	29.893
730.01	27.645
730.32	27.083
730.64	28.763
730.96	26.403
731.27	30.464
731.59	27.217
731.90	26.239
732.22	29.193
732.53	26.316
732.85	27.885
733.16	23.473
733.48	29.236
733.80	29.545
734.11	26.752
734.43	26.627
734.74	24.000
735.06	26.074
735.37	28.035
735.69	28.344
736.00	27.124
736.32	30.530
736.63	24.920
736.95	26.837
737.26	23.810
737.58	30.323
737.89	33.110
738.21	28.328
738.52	29.286
738.83	28.679
739.15	28.077
739.46	29.927
739.78	29.167
740.09	29.231
740.41	30.645
740.72	26.132
741.04	29.630
741.35	30.417
741.66	39.111
741.98	33.491
742.29	37.799
742.61	37.069
742.92	28.507
743.23	32.051
743.55	37.600
743.86	32.018
744.18	33.186
744.49	35.407
744.80	37.089
745.12	34.545
745.43	31.718
745.74	33.784
746.06	41.743
746.37	34.978
746.68	33.484
747.00	38.426
747.31	42.381
747.62	31.858
747.94	33.480
748.25	31.915
748.56	34.802
748.88	27.723
749.19	38.500
749.50	36.744
749.82	29.675
750.13	28.163
750.44	29.927
750.75	29.825
751.07	29.904
751.38	27.875
751.69	32.852
752.01	31.955
752.32	27.798
752.63	30.496
752.94	29.918
753.26	40.400
753.57	28.862
753.88	37.109
754.19	31.786
754.51	29.861
754.82	29.242
755.13	31.698
755.44	29.699
755.75	29.197
756.07	28.723
756.38	28.832
756.69	30.201
757.00	24.850
757.31	28.190
757.63	28.070
757.94	24.397
758.25	24.755
758.56	23.210
758.87	26.075
759.18	25.455
759.50	26.646
759.81	25.234
760.12	27.812
760.43	26.648
760.74	29.076
761.05	27.119
761.36	26.203
761.67	26.989
761.99	26.398
762.30	33.333
762.61	30.153
762.92	32.031
763.23	35.294
763.54	30.800
763.85	31.250
764.16	38.077
764.47	31.939
764.78	25.795
765.10	27.215
765.41	29.204
765.72	29.641
766.03	27.900
766.34	31.000
766.65	34.468
766.96	35.043
767.27	32.487
767.58	41.146
767.89	37.895
768.20	37.356
768.51	41.624
768.82	38.073
769.13	28.862
769.44	33.603
769.75	35.193
770.06	28.440
770.37	34.389
770.68	35.648
770.99	31.111
771.30	31.557
771.61	31.839
771.92	32.787
772.23	36.555
772.54	40.000
772.85	41.361
773.16	37.234
773.47	43.478
773.78	48.731
774.09	39.286
774.39	40.351
774.70	37.654
775.01	52.899
775.32	48.366
775.63	49.342
775.94	47.482
776.25	55.118
776.56	53.731
776.87	52.459
777.18	50.781
777.48	61.069
777.79	55.303
778.10	51.852
778.41	48.214
778.72	48.905
779.03	36.913
779.34	40.940
779.65	45.946
779.95	41.104
780.26	49.020
780.57	46.897
780.88	48.438
781.19	51.880
781.50	51.351
781.80	41.509
782.11	42.373
782.42	45.570
782.73	44.172
783.04	43.919
783.34	47.183
783.65	52.740
783.96	59.701
784.27	44.056
784.57	41.727
784.88	48.148
785.19	57.937
785.50	50.000
785.81	55.970
786.11	56.557
786.42	61.240
786.73	53.982
787.04	63.208
787.34	57.143
787.65	59.000
787.96	54.955
788.26	53.719
788.57	61.017
788.88	62.810
789.19	55.556
789.49	58.333
789.80	53.435
790.11	67.619
790.41	63.366
790.72	57.831
791.03	68.478
791.33	70.930
791.64	70.103
791.95	69.307
792.25	81.111
792.56	75.325
792.87	92.308
793.17	83.544
793.48	67.816
793.79	68.966
794.09	72.727
794.40	47.899
794.70	52.941
795.01	45.926
795.32	48.921
795.62	52.756
795.93	62.069
796.23	62.832
796.54	58.824
796.85	74.324
797.15	76.056
797.46	93.939
797.76	84.337
798.07	82.278
798.37	87.692
798.68	84.848
798.99	64.789
799.29	88.312
799.60	75.000
799.90	87.671
800.21	89.552
800.51	96.552
800.82	110.526
801.12	96.721
801.43	100.000
801.73	85.135
802.04	95.238
802.34	76.543
802.65	75.000
802.95	116.949
803.26	117.188
803.56	90.000
803.87	83.077
804.17	89.706
804.48	112.963
804.78	75.862
805.09	89.706
805.39	88.462
805.70	119.643
806.00	104.918
806.30	90.909
806.61	75.610
806.91	73.418
807.22	82.895
807.52	68.657
807.83	84.507
808.13	79.687
808.43	103.333
808.74	80.263
809.04	108.696
809.35	83.582
809.65	75.000
809.95	112.903
810.26	86.441
810.56	96.825
810.86	104.545
811.17	133.333
811.47	116.667
811.77	122.222
812.08	105.455
812.38	128.000
812.69	119.444
812.99	165.909
813.29	124.490
813.59	109.524
813.90	130.612
814.20	89.091
814.50	72.308
814.81	97.059
815.11	122.449
815.41	98.361
815.72	150.000
816.02	112.727
816.32	152.381
816.62	122.500
816.93	153.659
817.23	133.333
817.53	145.455
817.84	139.394
818.14	128.261
818.44	144.444
818.74	179.412
819.04	142.500
819.35	148.571
819.65	179.412
819.95	196.429
820.25	180.000
820.56	148.718
820.86	127.273
821.16	148.837
821.46	128.205
821.76	118.000
822.07	162.857
822.37	162.500
822.67	157.576
822.97	103.922
823.27	175.000
823.57	159.459
823.88	150.000
824.18	203.333
824.48	138.095
824.78	152.000
825.08	191.667
825.38	145.946
825.69	129.268
825.99	208.333
826.29	165.517
826.59	157.895
826.89	150.000
827.19	158.824
827.49	196.774
827.79	127.273
828.09	140.909
828.39	119.149
828.70	122.449
829.00	162.963
829.30	132.258
829.60	135.000
829.90	313.333
830.20	250.000
830.50	217.391
830.80	221.739
831.10	206.667
831.40	170.000
831.70	191.304
832.00	230.769
832.30	214.815
832.60	343.750
832.90	236.667
833.20	442.857
833.50	190.323
833.80	182.759
834.10	187.500
834.40	226.923
834.70	294.444
835.00	271.429
835.30	180.000
835.60	269.231
835.90	220.690
836.20	378.571
836.50	179.310
836.80	204.000
837.10	186.111
837.40	252.381
837.70	317.647
838.00	218.519
838.30	209.524
838.60	247.619
838.90	211.538
839.19	320.000
839.49	350.000
839.79	320.000
840.09	270.000
840.39	266.667
840.69	273.913
840.99	272.222
841.29	490.000
841.59	400.000
841.88	362.500
842.18	189.655
842.48	285.714
842.78	216.667
843.08	226.087
843.38	143.750
843.68	950.000
843.97	211.538
844.27	203.448
844.57	271.429
844.87	375.000
845.17	222.222
845.47	1533.333
845.76	477.778
846.06	317.647
846.36	625.000
846.66	342.857
846.96	300.000
847.25	409.091
847.55	418.182
847.85	243.478
848.15	390.000
848.44	392.857
848.74	205.556
849.04	323.529
849.34	550.000
849.63	305.263
849.93	500.000
850.23	920.000
850.53	428.571
850.82	2550.000
851.12	-4500.000
851.42	4600.000
851.71	290.000
852.01	-1166.667
852.31	245.833
852.61	1866.667
852.90	233.333
853.20	224.000
853.50	311.765
853.79	233.333
854.09	208.333
854.39	293.750
854.68	159.459
854.98	219.355
855.28	200.000
855.57	217.241
855.87	207.407
856.17	231.579
856.46	346.667
856.76	247.059
857.05	203.448
857.35	266.667
857.65	333.333
857.94	226.087
858.24	188.462
858.53	280.000
858.83	272.727
859.13	366.667
859.42	0.000
859.72	644.444
860.01	418.182
860.31	181.818
860.60	242.105
860.90	269.565
861.20	511.111
861.49	466.667
861.79	-5200.000
862.08	750.000
862.38	304.762
862.67	384.615
862.97	341.176
863.26	566.667
863.56	227.778
863.85	416.667
864.15	600.000
864.44	420.000
864.74	716.667
865.03	612.500
865.33	347.368
865.62	418.182
865.92	430.769
866.21	416.667
866.51	0.000
866.80	436.364
867.10	980.000
867.39	507.692
867.69	481.818
867.98	284.211
868.27	490.909
868.57	310.526
868.86	-5100.000
869.16	325.000
869.45	2100.000
869.75	-4700.000
870.04	475.000
870.33	585.714
870.63	1225.000
870.92	2850.000
871.22	757.143
871.51	400.000
871.80	252.381
872.10	450.000
>>>>>End Processed Spectral Data<<<<<
