SpectraSuite Data File
++++++++++++++++++++++++++++++++++++
Date: Wed May 13 19:25:29 PDT 2015
User: schluterlab
Dark Spectrum Present: Yes
Reference Spectrum Present: Yes
Number of Sampled Component Spectra: 1
Spectrometers: USB2E3373
Integration Time (usec): 3000 (USB2E3373)
Spectra Averaged: 3 (USB2E3373)
Boxcar Smoothing: 0 (USB2E3373)
Correct for Electrical Dark: No (USB2E3373)
Strobe/Lamp Enabled: No (USB2E3373)
Correct for Detector Non-linearity: No (USB2E3373)
Correct for Stray Light: No (USB2E3373)
Number of Pixels in Processed Spectrum: 2048
>>>>>Begin Processed Spectral Data<<<<<
178.53	0.000
178.91	-1200.000
179.29	-1325.000
179.67	-250.000
180.04	-1625.000
180.42	2650.000
180.80	1080.000
181.18	-1025.000
181.56	728.571
181.94	0.000
182.31	-614.286
182.69	1966.667
183.07	-600.000
183.45	-511.111
183.83	563.636
184.20	-470.000
184.58	2000.000
184.96	5500.000
185.34	-780.000
185.72	-700.000
186.09	-2300.000
186.47	2450.000
186.85	2850.000
187.23	5000.000
187.61	-1566.667
187.98	1525.000
188.36	518.182
188.74	545.455
189.12	-1100.000
189.49	530.000
189.87	-5700.000
190.25	-1225.000
190.63	464.286
191.00	423.077
191.38	850.000
191.76	-1350.000
192.14	1550.000
192.51	650.000
192.89	1016.667
193.27	662.500
193.65	-1050.000
194.02	560.000
194.40	1120.000
194.78	540.000
195.15	608.333
195.53	680.000
195.91	-2500.000
196.29	381.250
196.66	321.053
197.04	-420.000
197.42	0.000
197.79	660.000
198.17	-5000.000
198.55	785.714
198.92	762.500
199.30	1080.000
199.68	0.000
200.05	327.778
200.43	885.714
200.81	4700.000
201.18	1966.667
201.56	-1833.333
201.94	555.556
202.31	633.333
202.69	408.333
203.07	530.000
203.44	0.000
203.82	1275.000
204.19	814.286
204.57	492.857
204.95	650.000
205.32	1700.000
205.70	554.545
206.08	378.571
206.45	2700.000
206.83	393.750
207.20	900.000
207.58	860.000
207.96	350.000
208.33	850.000
208.71	-950.000
209.08	857.143
209.46	633.333
209.84	609.091
210.21	-1400.000
210.59	1500.000
210.96	-575.000
211.34	2850.000
211.71	630.000
212.09	883.333
212.46	0.000
212.84	1900.000
213.22	1525.000
213.59	-5300.000
213.97	883.333
214.34	828.571
214.72	618.182
215.09	1080.000
215.47	-2150.000
215.84	-2450.000
216.22	1900.000
216.59	421.429
216.97	1400.000
217.34	418.182
217.72	-750.000
218.09	0.000
218.47	-5500.000
218.84	711.111
219.22	842.857
219.59	2000.000
219.97	-814.286
220.34	1020.000
220.72	-1600.000
221.09	378.571
221.47	1575.000
221.84	-983.333
222.22	0.000
222.59	1650.000
222.97	-2950.000
223.34	1140.000
223.72	476.923
224.09	1320.000
224.46	2250.000
224.84	-5800.000
225.21	-1020.000
225.59	-4200.000
225.96	610.000
226.34	385.000
226.71	2850.000
227.08	737.500
227.46	660.000
227.83	-1050.000
228.21	-2450.000
228.58	688.889
228.95	-3150.000
229.33	-2300.000
229.70	1966.667
230.08	785.714
230.45	-1000.000
230.82	458.333
231.20	750.000
231.57	728.571
231.95	508.333
232.32	313.636
232.69	472.727
233.07	757.143
233.44	407.692
233.81	-2000.000
234.19	326.316
234.56	541.667
234.93	391.667
235.31	472.727
235.68	438.462
236.05	428.571
236.43	212.121
236.80	289.474
237.17	5700.000
237.55	290.476
237.92	239.286
238.29	290.476
238.67	212.903
239.04	234.483
239.41	169.444
239.79	145.652
240.16	188.095
240.53	159.091
240.91	125.490
241.28	142.000
241.65	140.000
242.02	130.435
242.40	129.032
242.77	123.333
243.14	98.925
243.51	101.124
243.89	114.118
244.26	87.778
244.63	91.398
245.00	92.553
245.38	90.099
245.75	85.047
246.12	77.982
246.49	83.212
246.87	85.600
247.24	87.692
247.61	72.857
247.98	70.588
248.36	72.297
248.73	70.064
249.10	70.701
249.47	70.056
249.84	69.519
250.22	63.102
250.59	63.905
250.96	67.677
251.33	65.403
251.70	63.366
252.08	63.810
252.45	65.471
252.82	60.870
253.19	56.596
253.56	59.216
253.94	60.996
254.31	55.078
254.68	60.769
255.05	55.351
255.42	58.537
255.79	56.985
256.16	51.625
256.54	55.124
256.91	57.651
257.28	51.079
257.65	52.475
258.02	54.969
258.39	53.943
258.76	55.518
259.14	56.548
259.51	50.760
259.88	50.621
260.25	52.568
260.62	51.445
260.99	49.068
261.36	53.754
261.73	50.430
262.10	50.000
262.47	52.958
262.85	50.139
263.22	51.852
263.59	52.422
263.96	47.527
264.33	50.914
264.70	49.474
265.07	52.685
265.44	48.485
265.81	43.796
266.18	50.000
266.55	49.024
266.92	47.912
267.29	50.463
267.66	45.872
268.03	49.318
268.40	48.364
268.77	47.017
269.14	45.721
269.51	47.404
269.88	49.417
270.25	46.727
270.62	47.640
270.99	47.742
271.36	43.777
271.73	52.804
272.10	47.391
272.47	48.387
272.84	45.455
273.21	46.331
273.58	44.541
273.95	45.493
274.32	44.835
274.69	45.610
275.06	44.685
275.43	47.234
275.80	45.090
276.17	43.381
276.54	44.075
276.91	45.257
277.28	42.383
277.65	43.327
278.02	45.756
278.39	45.312
278.76	44.000
279.13	45.283
279.50	44.507
279.87	45.219
280.23	45.709
280.60	45.261
280.97	45.102
281.34	42.124
281.71	44.727
282.08	47.025
282.45	42.364
282.82	42.806
283.19	42.602
283.56	41.579
283.92	44.501
284.29	42.681
284.66	40.472
285.03	39.241
285.40	42.606
285.77	41.751
286.14	42.660
286.51	42.667
286.87	40.855
287.24	43.160
287.61	38.363
287.98	41.721
288.35	41.046
288.72	39.875
289.08	39.280
289.45	39.209
289.82	38.049
290.19	37.206
290.56	38.285
290.93	36.103
291.29	39.110
291.66	36.431
292.03	38.663
292.40	36.564
292.77	37.130
293.13	38.358
293.50	35.714
293.87	36.000
294.24	34.519
294.60	34.061
294.97	35.029
295.34	36.389
295.71	36.506
296.08	32.621
296.44	34.113
296.81	31.704
297.18	34.553
297.55	32.586
297.91	32.718
298.28	35.074
298.65	34.987
299.02	34.651
299.38	34.529
299.75	30.863
300.12	31.928
300.48	32.500
300.85	30.333
301.22	33.503
301.59	29.924
301.95	32.620
302.32	31.707
302.69	30.466
303.05	29.939
303.42	31.605
303.79	30.238
304.15	30.769
304.52	28.621
304.89	30.894
305.25	30.162
305.62	29.672
305.99	31.051
306.35	31.096
306.72	31.166
307.09	30.966
307.45	31.419
307.82	29.018
308.19	30.022
308.55	31.392
308.92	31.257
309.29	29.567
309.65	30.329
310.02	30.444
310.38	30.753
310.75	30.729
311.12	30.911
311.48	30.825
311.85	31.027
312.22	31.113
312.58	31.081
312.95	30.412
313.31	30.291
313.68	32.536
314.05	33.432
314.41	31.156
314.78	32.830
315.14	30.685
315.51	32.853
315.87	33.960
316.24	31.380
316.61	32.261
316.97	33.268
317.34	34.344
317.70	34.608
318.07	34.745
318.43	36.399
318.80	36.832
319.16	36.252
319.53	35.460
319.89	37.619
320.26	40.100
320.62	39.187
320.99	41.010
321.35	40.404
321.72	40.554
322.08	41.362
322.45	42.886
322.81	43.992
323.18	45.279
323.54	44.434
323.91	44.717
324.27	46.176
324.64	48.183
325.00	48.783
325.37	49.955
325.73	51.795
326.10	51.368
326.46	51.971
326.83	53.753
327.19	54.483
327.56	55.401
327.92	58.268
328.29	58.740
328.65	61.142
329.01	60.289
329.38	60.222
329.74	61.311
330.11	63.242
330.47	64.279
330.84	63.051
331.20	65.118
331.56	64.404
331.93	67.222
332.29	64.862
332.66	66.549
333.02	66.910
333.38	68.112
333.75	67.558
334.11	68.950
334.48	68.500
334.84	69.761
335.20	70.364
335.57	69.538
335.93	68.304
336.29	70.513
336.66	71.326
337.02	70.498
337.38	71.667
337.75	69.608
338.11	71.173
338.47	73.204
338.84	72.869
339.20	72.569
339.56	72.719
339.93	75.000
340.29	72.736
340.65	73.351
341.02	72.164
341.38	74.199
341.74	73.860
342.11	76.507
342.47	74.714
342.83	74.829
343.20	75.584
343.56	75.569
343.92	75.614
344.28	74.320
344.65	75.838
345.01	74.495
345.37	75.214
345.73	75.804
346.10	76.641
346.46	76.186
346.82	77.100
347.19	77.193
347.55	75.780
347.91	78.479
348.27	77.650
348.63	75.502
349.00	75.405
349.36	75.780
349.72	76.423
350.08	77.066
350.45	79.089
350.81	76.604
351.17	77.147
351.53	78.542
351.89	76.485
352.26	77.032
352.62	77.065
352.98	75.284
353.34	78.143
353.70	78.314
354.07	76.935
354.43	77.302
354.79	77.715
355.15	76.377
355.51	79.057
355.87	77.796
356.24	78.664
356.60	78.268
356.96	79.324
357.32	79.804
357.68	79.449
358.04	77.910
358.40	77.751
358.77	77.621
359.13	77.269
359.49	77.882
359.85	78.413
360.21	78.628
360.57	78.755
360.93	80.231
361.29	78.685
361.66	77.786
362.02	78.582
362.38	79.544
362.74	79.613
363.10	78.979
363.46	77.036
363.82	78.609
364.18	75.918
364.54	79.792
364.90	79.037
365.26	79.118
365.62	79.985
365.98	77.210
366.35	77.507
366.71	77.440
367.07	79.534
367.43	79.681
367.79	81.156
368.15	79.813
368.51	77.762
368.87	79.086
369.23	78.493
369.59	79.942
369.95	78.382
370.31	77.920
370.67	77.899
371.03	80.674
371.39	79.300
371.75	78.750
372.11	76.814
372.47	79.032
372.83	80.476
373.19	78.468
373.55	79.970
373.91	80.707
374.27	77.045
374.63	79.636
374.99	77.472
375.35	77.390
375.71	78.478
376.07	78.121
376.42	78.611
376.78	78.595
377.14	78.969
377.50	78.808
377.86	77.793
378.22	78.192
378.58	78.697
378.94	77.938
379.30	77.672
379.66	79.949
380.02	77.948
380.38	77.353
380.74	79.232
381.09	77.262
381.45	79.164
381.81	76.536
382.17	78.025
382.53	77.107
382.89	78.457
383.25	78.799
383.61	79.244
383.97	76.923
384.32	74.548
384.68	76.580
385.04	76.030
385.40	76.161
385.76	77.703
386.12	78.433
386.48	78.540
386.83	78.897
387.19	78.169
387.55	76.809
387.91	77.207
388.27	76.395
388.62	76.583
388.98	77.518
389.34	76.220
389.70	75.475
390.06	76.869
390.42	77.043
390.77	75.763
391.13	77.601
391.49	75.761
391.85	75.175
392.20	75.521
392.56	76.641
392.92	75.221
393.28	75.325
393.64	76.799
393.99	73.977
394.35	74.876
394.71	74.780
395.07	75.265
395.42	76.947
395.78	74.873
396.14	75.047
396.50	77.820
396.85	77.114
397.21	73.983
397.57	76.007
397.92	75.300
398.28	73.991
398.64	73.895
399.00	73.699
399.35	73.773
399.71	74.711
400.07	73.743
400.42	74.908
400.78	74.548
401.14	73.902
401.49	74.507
401.85	74.289
402.21	72.455
402.57	74.028
402.92	74.842
403.28	74.891
403.63	73.824
403.99	74.459
404.35	74.182
404.70	72.422
405.06	72.627
405.42	73.799
405.77	71.714
406.13	71.670
406.49	72.797
406.84	71.825
407.20	72.163
407.55	73.006
407.91	74.067
408.27	73.835
408.62	72.306
408.98	72.855
409.34	72.079
409.69	71.677
410.05	72.739
410.40	71.865
410.76	71.446
411.11	70.205
411.47	70.671
411.83	71.900
412.18	72.233
412.54	71.669
412.89	71.084
413.25	71.251
413.60	71.526
413.96	70.128
414.31	69.259
414.67	71.546
415.03	71.457
415.38	71.263
415.74	70.868
416.09	72.763
416.45	71.151
416.80	71.580
417.16	70.576
417.51	71.002
417.87	70.263
418.22	70.599
418.58	70.110
418.93	71.007
419.29	70.910
419.64	69.710
420.00	69.817
420.35	68.986
420.71	70.293
421.06	68.914
421.42	69.298
421.77	69.619
422.12	68.725
422.48	67.620
422.83	68.725
423.19	67.735
423.54	69.588
423.90	68.406
424.25	68.509
424.61	67.738
424.96	69.738
425.31	67.829
425.67	66.517
426.02	68.914
426.38	69.658
426.73	67.408
427.09	68.936
427.44	68.948
427.79	68.028
428.15	68.452
428.50	67.876
428.85	69.011
429.21	67.918
429.56	67.341
429.92	66.432
430.27	66.038
430.62	66.155
430.98	66.788
431.33	65.412
431.68	67.539
432.04	65.389
432.39	66.077
432.74	66.727
433.10	67.629
433.45	67.055
433.80	66.075
434.16	65.064
434.51	64.947
434.86	66.705
435.22	65.314
435.57	67.781
435.92	65.945
436.28	68.327
436.63	65.839
436.98	66.514
437.34	66.249
437.69	66.686
438.04	66.329
438.39	65.612
438.75	66.996
439.10	66.257
439.45	65.643
439.81	65.076
440.16	65.500
440.51	65.495
440.86	66.242
441.22	66.018
441.57	65.074
441.92	66.479
442.27	65.339
442.63	65.508
442.98	65.408
443.33	65.380
443.68	64.843
444.03	64.275
444.39	64.411
444.74	65.530
445.09	64.636
445.44	64.461
445.79	63.780
446.15	63.367
446.50	65.159
446.85	64.029
447.20	64.406
447.55	64.936
447.91	64.203
448.26	64.886
448.61	63.369
448.96	65.282
449.31	64.736
449.66	63.365
450.02	62.284
450.37	63.549
450.72	63.339
451.07	64.168
451.42	62.310
451.77	64.827
452.12	63.799
452.47	63.868
452.83	64.744
453.18	62.653
453.53	64.688
453.88	63.674
454.23	64.196
454.58	63.780
454.93	65.480
455.28	64.900
455.63	64.988
455.98	64.821
456.34	64.887
456.69	63.870
457.04	64.334
457.39	62.127
457.74	63.494
458.09	62.680
458.44	63.056
458.79	61.443
459.14	62.077
459.49	62.288
459.84	62.770
460.19	62.935
460.54	60.417
460.89	63.467
461.24	62.113
461.59	64.846
461.94	63.317
462.29	64.392
462.64	63.178
462.99	62.004
463.34	64.133
463.69	64.040
464.04	62.783
464.39	61.275
464.74	62.805
465.09	60.977
465.44	60.166
465.79	60.906
466.14	60.208
466.49	60.567
466.84	61.529
467.19	61.074
467.54	62.375
467.89	59.904
468.24	61.547
468.59	61.416
468.94	60.843
469.29	63.046
469.64	62.450
469.99	62.179
470.34	63.342
470.68	63.362
471.03	61.769
471.38	62.335
471.73	61.825
472.08	63.816
472.43	61.055
472.78	63.792
473.13	60.847
473.48	60.612
473.83	60.915
474.17	61.108
474.52	62.903
474.87	61.588
475.22	60.592
475.57	59.323
475.92	59.055
476.27	61.218
476.61	60.342
476.96	60.528
477.31	59.236
477.66	61.160
478.01	59.749
478.36	60.656
478.70	59.553
479.05	60.809
479.40	60.082
479.75	60.244
480.10	59.592
480.45	58.782
480.79	58.624
481.14	59.687
481.49	59.279
481.84	58.573
482.19	59.200
482.53	57.615
482.88	58.865
483.23	59.486
483.58	58.872
483.92	58.997
484.27	57.952
484.62	58.405
484.97	56.405
485.31	56.301
485.66	54.695
486.01	51.769
486.36	50.097
486.70	49.506
487.05	51.240
487.40	53.166
487.75	52.820
488.09	54.231
488.44	55.037
488.79	57.034
489.13	56.379
489.48	57.953
489.83	56.927
490.17	57.738
490.52	58.060
490.87	57.983
491.22	57.344
491.56	57.540
491.91	58.585
492.26	57.924
492.60	57.465
492.95	56.782
493.30	57.757
493.64	58.096
493.99	56.360
494.34	57.632
494.68	58.379
495.03	57.895
495.37	57.189
495.72	58.333
496.07	57.541
496.41	55.752
496.76	57.432
497.11	57.091
497.45	57.848
497.80	58.781
498.14	56.957
498.49	58.098
498.84	56.855
499.18	56.619
499.53	57.265
499.87	55.871
500.22	55.535
500.56	58.544
500.91	56.779
501.26	55.334
501.60	57.095
501.95	55.591
502.29	57.404
502.64	56.844
502.98	56.755
503.33	55.850
503.67	56.566
504.02	55.893
504.36	55.873
504.71	56.717
505.06	57.157
505.40	55.566
505.75	56.075
506.09	55.879
506.44	57.326
506.78	56.698
507.13	57.799
507.47	56.768
507.82	58.257
508.16	57.396
508.51	59.411
508.85	57.349
509.19	56.939
509.54	55.969
509.88	57.445
510.23	57.481
510.57	57.843
510.92	56.758
511.26	56.423
511.61	57.469
511.95	55.898
512.30	57.582
512.64	58.141
512.98	58.092
513.33	58.619
513.67	58.004
514.02	57.359
514.36	58.438
514.70	57.554
515.05	57.613
515.39	57.880
515.74	57.601
516.08	58.133
516.42	59.545
516.77	59.365
517.11	57.436
517.46	58.296
517.80	59.117
518.14	58.193
518.49	59.452
518.83	58.580
519.17	57.910
519.52	58.461
519.86	58.928
520.20	58.324
520.55	59.844
520.89	60.036
521.23	59.288
521.58	60.264
521.92	60.992
522.26	58.389
522.61	60.000
522.95	58.932
523.29	58.491
523.64	60.061
523.98	59.519
524.32	59.590
524.66	58.569
525.01	60.478
525.35	58.364
525.69	58.621
526.04	58.879
526.38	59.426
526.72	58.098
527.06	58.506
527.41	58.973
527.75	60.450
528.09	59.859
528.43	59.401
528.78	59.127
529.12	59.091
529.46	58.175
529.80	59.406
530.15	59.065
530.49	57.415
530.83	58.671
531.17	60.444
531.51	59.792
531.86	59.161
532.20	58.735
532.54	59.257
532.88	59.756
533.22	57.964
533.57	58.086
533.91	56.833
534.25	56.865
534.59	56.681
534.93	55.622
535.27	57.333
535.62	56.777
535.96	56.246
536.30	57.216
536.64	58.403
536.98	57.532
537.32	59.052
537.66	58.067
538.01	58.460
538.35	56.755
538.69	57.881
539.03	56.270
539.37	56.102
539.71	56.967
540.05	57.516
540.39	57.342
540.73	55.110
541.07	58.923
541.42	58.187
541.76	57.419
542.10	56.921
542.44	56.026
542.78	57.378
543.12	55.022
543.46	56.000
543.80	57.189
544.14	55.905
544.48	56.000
544.82	55.484
545.16	57.189
545.50	55.977
545.84	56.183
546.18	56.566
546.52	57.330
546.86	59.313
547.20	56.305
547.54	55.979
547.88	56.633
548.22	54.234
548.56	55.220
548.90	55.378
549.24	56.027
549.58	57.367
549.92	56.731
550.26	58.239
550.60	56.293
550.94	57.042
551.28	57.937
551.62	57.297
551.96	56.561
552.30	57.338
552.64	57.201
552.98	56.678
553.32	55.563
553.66	56.510
554.00	56.829
554.34	55.487
554.68	57.797
555.02	57.264
555.36	55.950
555.69	54.601
556.03	54.576
556.37	54.775
556.71	56.480
557.05	54.622
557.39	53.814
557.73	55.822
558.07	57.360
558.41	56.006
558.75	56.943
559.08	57.271
559.42	58.352
559.76	57.132
560.10	55.675
560.44	56.953
560.78	54.158
561.12	55.739
561.45	54.628
561.79	54.515
562.13	55.131
562.47	54.850
562.81	56.974
563.15	53.445
563.48	54.708
563.82	54.534
564.16	54.807
564.50	54.362
564.84	52.845
565.17	53.153
565.51	54.505
565.85	53.553
566.19	52.724
566.52	53.515
566.86	52.562
567.20	53.066
567.54	52.454
567.88	50.896
568.21	52.275
568.55	50.152
568.89	49.514
569.23	48.619
569.56	47.692
569.90	46.340
570.24	45.640
570.57	44.271
570.91	44.312
571.25	43.669
571.59	44.153
571.92	43.088
572.26	44.021
572.60	43.634
572.93	43.268
573.27	43.804
573.61	43.356
573.95	42.661
574.28	42.764
574.62	41.764
574.96	41.314
575.29	41.998
575.63	41.438
575.97	42.229
576.30	42.804
576.64	41.622
576.98	42.027
577.31	40.781
577.65	41.433
577.98	41.194
578.32	40.647
578.66	41.153
578.99	40.813
579.33	41.612
579.67	41.085
580.00	40.518
580.34	41.196
580.67	40.369
581.01	40.904
581.35	40.970
581.68	39.706
582.02	38.971
582.35	39.385
582.69	39.871
583.02	40.804
583.36	41.042
583.70	41.558
584.03	40.987
584.37	41.581
584.70	41.588
585.04	40.974
585.37	41.100
585.71	40.602
586.04	40.058
586.38	41.432
586.72	41.895
587.05	41.212
587.39	40.633
587.72	41.020
588.06	40.475
588.39	41.180
588.73	41.478
589.06	42.100
589.40	42.997
589.73	43.330
590.07	42.918
590.40	42.492
590.73	44.106
591.07	44.526
591.40	45.340
591.74	45.671
592.07	44.764
592.41	44.316
592.74	42.584
593.08	42.239
593.41	42.328
593.75	40.974
594.08	41.636
594.41	41.888
594.75	42.551
595.08	42.269
595.42	42.837
595.75	42.201
596.09	43.184
596.42	43.301
596.75	43.985
597.09	44.632
597.42	43.044
597.75	43.984
598.09	42.957
598.42	44.115
598.76	43.251
599.09	42.645
599.42	41.667
599.76	41.618
600.09	41.858
600.42	41.088
600.76	41.321
601.09	41.421
601.42	41.705
601.76	42.619
602.09	42.846
602.42	42.914
602.76	43.652
603.09	43.352
603.42	42.952
603.76	42.188
604.09	42.187
604.42	42.519
604.76	42.556
605.09	43.687
605.42	42.924
605.75	41.846
606.09	41.968
606.42	42.910
606.75	42.348
607.09	42.277
607.42	42.747
607.75	42.236
608.08	42.293
608.42	43.120
608.75	43.778
609.08	42.461
609.41	43.313
609.75	43.735
610.08	44.109
610.41	43.250
610.74	44.087
611.07	44.071
611.41	43.719
611.74	44.897
612.07	45.807
612.40	44.963
612.73	44.632
613.07	45.636
613.40	44.286
613.73	43.943
614.06	45.376
614.39	44.835
614.72	44.526
615.06	44.275
615.39	44.586
615.72	44.121
616.05	44.551
616.38	46.359
616.71	45.724
617.05	45.583
617.38	46.482
617.71	45.946
618.04	45.853
618.37	45.653
618.70	47.355
619.03	47.895
619.36	47.454
619.69	47.958
620.03	48.420
620.36	47.460
620.69	49.247
621.02	50.221
621.35	48.943
621.68	49.299
622.01	50.232
622.34	50.303
622.67	48.745
623.00	48.863
623.33	47.462
623.66	49.750
623.99	49.190
624.32	48.217
624.65	49.082
624.99	48.229
625.32	48.443
625.65	49.136
625.98	49.424
626.31	50.078
626.64	51.184
626.97	50.790
627.30	50.873
627.63	51.272
627.96	50.799
628.29	51.969
628.62	52.150
628.95	53.774
629.28	52.920
629.61	53.529
629.94	54.000
630.26	52.717
630.59	53.575
630.92	53.161
631.25	53.110
631.58	53.654
631.91	54.564
632.24	54.958
632.57	55.719
632.90	55.921
633.23	57.047
633.56	57.062
633.89	55.832
634.22	57.094
634.55	58.817
634.88	56.287
635.20	58.781
635.53	56.386
635.86	58.416
636.19	55.529
636.52	56.747
636.85	57.732
637.18	57.949
637.51	58.038
637.83	55.487
638.16	58.056
638.49	58.690
638.82	61.441
639.15	58.625
639.48	58.354
639.81	57.775
640.13	58.203
640.46	61.208
640.79	56.935
641.12	56.396
641.45	59.218
641.77	60.825
642.10	62.573
642.43	62.012
642.76	61.765
643.09	62.423
643.41	60.698
643.74	63.735
644.07	63.262
644.40	62.423
644.73	62.835
645.05	63.708
645.38	62.717
645.71	62.802
646.04	64.120
646.36	63.773
646.69	62.709
647.02	63.265
647.35	66.838
647.67	66.726
648.00	63.577
648.33	63.696
648.66	58.636
648.98	59.670
649.31	60.090
649.64	59.492
649.96	59.613
650.29	59.558
650.62	61.165
650.94	61.588
651.27	64.020
651.60	61.398
651.92	62.300
652.25	60.261
652.58	60.903
652.90	61.769
653.23	58.552
653.56	59.213
653.88	61.648
654.21	60.979
654.54	62.541
654.86	59.346
655.19	53.919
655.52	36.701
655.84	30.174
656.17	38.253
656.49	50.895
656.82	51.027
657.15	38.060
657.47	28.318
657.80	21.741
658.13	22.634
658.45	33.207
658.78	33.780
659.10	35.650
659.43	36.828
659.75	40.063
660.08	43.671
660.41	51.862
660.73	56.798
661.06	59.554
661.38	64.364
661.71	65.577
662.03	64.694
662.36	62.028
662.68	66.867
663.01	65.455
663.33	67.304
663.66	66.807
663.98	67.603
664.31	67.437
664.63	63.360
664.96	62.978
665.28	65.779
665.61	61.404
665.93	64.185
666.26	64.503
666.58	67.364
666.91	68.710
667.23	67.191
667.56	64.579
667.88	65.385
668.21	66.738
668.53	63.774
668.86	62.771
669.18	66.525
669.50	66.739
669.83	66.885
670.15	64.222
670.48	64.052
670.80	67.457
671.13	66.879
671.45	65.532
671.77	62.729
672.10	59.519
672.42	56.890
672.75	58.706
673.07	57.218
673.39	58.047
673.72	63.477
674.04	64.118
674.37	62.136
674.69	63.599
675.01	65.481
675.34	65.914
675.66	65.684
675.98	64.358
676.31	62.605
676.63	64.331
676.95	63.312
677.28	67.056
677.60	63.736
677.92	64.979
678.25	62.628
678.57	60.757
678.89	63.527
679.22	60.707
679.54	57.061
679.86	61.651
680.18	55.635
680.51	60.284
680.83	56.940
681.15	58.491
681.48	60.870
681.80	60.348
682.12	59.004
682.44	58.221
682.77	62.525
683.09	63.519
683.41	63.415
683.73	59.603
684.06	64.876
684.38	59.883
684.70	60.271
685.02	59.099
685.34	56.227
685.67	54.720
685.99	56.529
686.31	55.802
686.63	54.417
686.96	55.357
687.28	55.776
687.60	56.159
687.92	60.146
688.24	56.844
688.56	62.450
688.89	58.506
689.21	64.192
689.53	62.004
689.85	63.636
690.17	57.143
690.49	62.633
690.82	66.355
691.14	61.161
691.46	57.806
691.78	57.430
692.10	62.603
692.42	57.685
692.74	58.299
693.06	60.426
693.39	60.780
693.71	59.170
694.03	60.211
694.35	61.255
694.67	59.954
694.99	68.293
695.31	62.500
695.63	61.483
695.95	65.281
696.27	62.690
696.59	65.803
696.91	63.990
697.23	58.216
697.56	59.915
697.88	55.419
698.20	55.625
698.52	60.860
698.84	56.125
699.16	60.138
699.48	61.758
699.80	63.043
700.12	64.935
700.44	66.313
700.76	66.298
701.08	66.954
701.40	64.525
701.72	69.388
702.04	68.750
702.36	60.907
702.68	67.139
703.00	66.759
703.32	63.032
703.64	64.075
703.96	68.524
704.28	69.767
704.60	68.915
704.91	69.139
705.23	67.155
705.55	70.100
705.87	72.757
706.19	71.025
706.51	66.978
706.83	69.697
707.15	64.146
707.47	59.848
707.79	58.722
708.11	56.849
708.43	58.333
708.74	60.204
709.06	59.481
709.38	59.318
709.70	69.767
710.02	65.875
710.34	64.242
710.66	65.672
710.98	64.205
711.29	65.116
711.61	65.192
711.93	66.346
712.25	73.955
712.57	73.529
712.89	73.010
713.20	65.046
713.52	70.066
713.84	68.038
714.16	63.720
714.48	65.230
714.80	69.301
715.11	61.383
715.43	62.018
715.75	61.739
716.07	66.134
716.39	64.263
716.70	69.435
717.02	70.144
717.34	73.145
717.66	72.761
717.97	76.494
718.29	70.370
718.61	66.058
718.93	71.324
719.24	69.896
719.56	66.102
719.88	68.475
720.20	68.581
720.51	70.732
720.83	71.004
721.15	67.537
721.46	68.794
721.78	69.176
722.10	72.453
722.42	70.677
722.73	72.285
723.05	70.902
723.37	69.231
723.68	70.656
724.00	69.512
724.32	69.355
724.63	73.984
724.95	72.803
725.27	74.899
725.58	66.016
725.90	66.788
726.22	70.943
726.53	63.194
726.85	67.235
727.16	67.972
727.48	64.539
727.80	66.288
728.11	65.580
728.43	62.692
728.74	64.158
729.06	71.168
729.38	73.897
729.69	67.260
730.01	60.410
730.32	72.222
730.64	65.217
730.96	63.036
731.27	64.901
731.59	63.914
731.90	62.682
732.22	59.938
732.53	59.443
732.85	60.577
733.16	59.486
733.48	60.797
733.80	62.987
734.11	62.420
734.43	58.284
734.74	57.429
735.06	57.593
735.37	59.249
735.69	60.191
736.00	64.052
736.32	61.059
736.63	61.981
736.95	63.259
737.26	59.184
737.58	60.323
737.89	60.535
738.21	65.188
738.52	63.929
738.83	67.547
739.15	60.769
739.46	66.058
739.78	65.278
740.09	58.154
740.41	61.613
740.72	64.808
741.04	65.185
741.35	72.500
741.66	74.667
741.98	74.528
742.29	78.469
742.61	67.672
742.92	71.493
743.23	67.949
743.55	66.400
743.86	67.105
744.18	72.124
744.49	78.469
744.80	75.587
745.12	70.455
745.43	71.366
745.74	72.973
746.06	71.560
746.37	73.543
746.68	76.018
747.00	77.315
747.31	77.143
747.62	68.142
747.94	66.960
748.25	71.064
748.56	76.652
748.88	74.752
749.19	79.500
749.50	75.814
749.82	67.480
750.13	66.531
750.44	63.869
750.75	66.667
751.07	59.807
751.38	66.202
751.69	65.704
752.01	66.917
752.32	61.733
752.63	65.603
752.94	65.574
753.26	70.800
753.57	62.602
753.88	65.234
754.19	61.071
754.51	68.056
754.82	63.177
755.13	67.170
755.44	65.414
755.75	58.394
756.07	62.766
756.38	66.058
756.69	62.081
757.00	51.796
757.31	57.567
757.63	56.433
757.94	55.228
758.25	50.490
758.56	52.593
758.87	51.882
759.18	55.758
759.50	60.502
759.81	56.698
760.12	55.937
760.43	57.880
760.74	55.435
761.05	53.955
761.36	50.535
761.67	53.125
761.99	56.522
762.30	60.069
762.61	64.122
762.92	67.969
763.23	65.126
763.54	64.400
763.85	66.016
764.16	67.692
764.47	65.779
764.78	56.890
765.10	57.595
765.41	56.047
765.72	53.593
766.03	55.172
766.34	54.000
766.65	65.532
766.96	65.812
767.27	74.619
767.58	77.604
767.89	75.263
768.20	81.609
768.51	74.112
768.82	69.266
769.13	66.260
769.44	64.372
769.75	61.373
770.06	61.468
770.37	66.968
770.68	64.815
770.99	68.000
771.30	56.557
771.61	69.955
771.92	63.115
772.23	67.227
772.54	70.769
772.85	72.775
773.16	76.596
773.47	73.913
773.78	70.558
774.09	73.214
774.39	80.702
774.70	75.309
775.01	85.507
775.32	83.007
775.63	82.237
775.94	86.331
776.25	92.126
776.56	83.582
776.87	85.246
777.18	85.938
777.48	95.420
777.79	93.182
778.10	89.630
778.41	100.000
778.72	74.453
779.03	81.208
779.34	79.866
779.65	81.757
779.95	73.006
780.26	79.739
780.57	81.379
780.88	98.437
781.19	84.962
781.50	77.703
781.80	72.956
782.11	63.842
782.42	74.051
782.73	70.552
783.04	75.000
783.34	80.986
783.65	90.411
783.96	88.806
784.27	84.615
784.57	73.381
784.88	86.111
785.19	92.857
785.50	89.623
785.81	85.075
786.11	86.885
786.42	90.698
786.73	97.345
787.04	96.226
787.34	95.536
787.65	100.000
787.96	96.396
788.26	82.645
788.57	91.525
788.88	95.041
789.19	81.944
789.49	92.424
789.80	81.679
790.11	100.952
790.41	100.990
790.72	119.277
791.03	101.087
791.33	106.977
791.64	96.907
791.95	99.010
792.25	118.889
792.56	131.169
792.87	107.692
793.17	137.975
793.48	97.701
793.79	105.747
794.09	97.727
794.40	87.395
794.70	94.118
795.01	77.037
795.32	78.417
795.62	87.402
795.93	83.621
796.23	91.150
796.54	118.824
796.85	97.297
797.15	118.310
797.46	118.182
797.76	113.253
798.07	121.519
798.37	127.692
798.68	125.758
798.99	123.944
799.29	116.883
799.60	102.273
799.90	124.658
800.21	143.284
800.51	141.379
800.82	149.123
801.12	145.902
801.43	115.152
801.73	116.216
802.04	131.746
802.34	113.580
802.65	134.375
802.95	147.458
803.26	159.375
803.56	102.857
803.87	116.923
804.17	126.471
804.48	155.556
804.78	118.966
805.09	132.353
805.39	163.462
805.70	133.929
806.00	152.459
806.30	124.242
806.61	117.073
806.91	101.266
807.22	121.053
807.52	111.940
807.83	125.352
808.13	123.438
808.43	136.667
808.74	102.632
809.04	127.536
809.35	125.373
809.65	106.579
809.95	148.387
810.26	142.373
810.56	122.222
810.86	177.273
811.17	180.952
811.47	145.000
811.77	137.037
812.08	140.000
812.38	156.000
812.69	161.111
812.99	190.909
813.29	173.469
813.59	159.524
813.90	151.020
814.20	147.273
814.50	104.615
814.81	125.000
815.11	165.306
815.41	131.148
815.72	192.857
816.02	136.364
816.32	178.571
816.62	197.500
816.93	192.683
817.23	176.190
817.53	172.727
817.84	245.455
818.14	173.913
818.44	186.667
818.74	200.000
819.04	192.500
819.35	188.571
819.65	211.765
819.95	225.000
820.25	285.000
820.56	200.000
820.86	168.182
821.16	169.767
821.46	184.615
821.76	182.000
822.07	225.714
822.37	157.500
822.67	221.212
822.97	141.176
823.27	275.000
823.57	194.595
823.88	202.500
824.18	246.667
824.48	183.333
824.78	288.000
825.08	283.333
825.38	164.865
825.69	173.171
825.99	241.667
826.29	210.345
826.59	186.842
826.89	194.737
827.19	214.706
827.49	241.935
827.79	159.091
828.09	165.909
828.39	153.191
828.70	173.469
829.00	207.407
829.30	193.548
829.60	175.000
829.90	446.667
830.20	235.714
830.50	260.870
830.80	286.957
831.10	226.667
831.40	236.667
831.70	243.478
832.00	307.692
832.30	248.148
832.60	400.000
832.90	233.333
833.20	521.429
833.50	196.774
833.80	206.897
834.10	253.125
834.40	269.231
834.70	344.444
835.00	366.667
835.30	202.857
835.60	338.462
835.90	234.483
836.20	478.571
836.50	262.069
836.80	224.000
837.10	205.556
837.40	290.476
837.70	411.765
838.00	240.741
838.30	290.476
838.60	328.571
838.90	269.231
839.19	330.000
839.49	528.571
839.79	360.000
840.09	345.000
840.39	328.571
840.69	282.609
840.99	350.000
841.29	600.000
841.59	483.333
841.88	412.500
842.18	182.759
842.48	333.333
842.78	216.667
843.08	247.826
843.38	234.375
843.68	1100.000
843.97	284.615
844.27	224.138
844.57	314.286
844.87	393.750
845.17	237.037
845.47	1766.667
845.76	622.222
846.06	352.941
846.36	675.000
846.66	371.429
846.96	350.000
847.25	536.364
847.55	536.364
847.85	286.957
848.15	600.000
848.44	442.857
848.74	350.000
849.04	335.294
849.34	730.000
849.63	278.947
849.93	490.909
850.23	1260.000
850.53	435.714
850.82	3300.000
851.12	-4500.000
851.42	5700.000
851.71	340.000
852.01	-1866.667
852.31	270.833
852.61	2200.000
852.90	300.000
853.20	256.000
853.50	329.412
853.79	338.095
854.09	262.500
854.39	350.000
854.68	208.108
854.98	219.355
855.28	226.667
855.57	231.034
855.87	237.037
856.17	310.526
856.46	333.333
856.76	329.412
857.05	251.724
857.35	262.500
857.65	406.667
857.94	278.261
858.24	292.308
858.53	325.000
858.83	304.545
859.13	440.000
859.42	0.000
859.72	733.333
860.01	545.455
860.31	300.000
860.60	321.053
860.90	273.913
861.20	644.444
861.49	533.333
861.79	-4600.000
862.08	712.500
862.38	333.333
862.67	400.000
862.97	341.176
863.26	722.222
863.56	294.444
863.85	466.667
864.15	662.500
864.44	380.000
864.74	1016.667
865.03	700.000
865.33	321.053
865.62	536.364
865.92	484.615
866.21	350.000
866.51	0.000
866.80	536.364
867.10	1200.000
867.39	561.538
867.69	536.364
867.98	305.263
868.27	563.636
868.57	284.211
868.86	-3900.000
869.16	381.250
869.45	2350.000
869.75	-4800.000
870.04	516.667
870.33	785.714
870.63	1325.000
870.92	2850.000
871.22	814.286
871.51	370.588
871.80	276.190
872.10	364.286
>>>>>End Processed Spectral Data<<<<<
