SpectraSuite Data File
++++++++++++++++++++++++++++++++++++
Date: Wed May 13 19:15:34 PDT 2015
User: schluterlab
Dark Spectrum Present: Yes
Reference Spectrum Present: Yes
Number of Sampled Component Spectra: 1
Spectrometers: USB2E3373
Integration Time (usec): 3000 (USB2E3373)
Spectra Averaged: 3 (USB2E3373)
Boxcar Smoothing: 0 (USB2E3373)
Correct for Electrical Dark: No (USB2E3373)
Strobe/Lamp Enabled: No (USB2E3373)
Correct for Detector Non-linearity: No (USB2E3373)
Correct for Stray Light: No (USB2E3373)
Number of Pixels in Processed Spectrum: 2048
>>>>>Begin Processed Spectral Data<<<<<
178.53	0.000
178.91	-1550.000
179.29	-1450.000
179.67	-305.556
180.04	-1625.000
180.42	2950.000
180.80	1220.000
181.18	-1200.000
181.56	800.000
181.94	0.000
182.31	-785.714
182.69	1766.667
183.07	-600.000
183.45	-566.667
183.83	536.364
184.20	-520.000
184.58	2300.000
184.96	5100.000
185.34	-920.000
185.72	-625.000
186.09	-2550.000
186.47	3100.000
186.85	2550.000
187.23	6000.000
187.61	-1933.333
187.98	1450.000
188.36	672.727
188.74	545.455
189.12	-780.000
189.49	680.000
189.87	-5000.000
190.25	-1475.000
190.63	400.000
191.00	492.308
191.38	900.000
191.76	-1275.000
192.14	1825.000
192.51	662.500
192.89	1133.333
193.27	675.000
193.65	-1250.000
194.02	610.000
194.40	1060.000
194.78	550.000
195.15	566.667
195.53	650.000
195.91	-2850.000
196.29	343.750
196.66	352.632
197.04	-450.000
197.42	0.000
197.79	690.000
198.17	-5600.000
198.55	828.571
198.92	675.000
199.30	1240.000
199.68	0.000
200.05	327.778
200.43	800.000
200.81	4500.000
201.18	2066.667
201.56	-2066.667
201.94	666.667
202.31	666.667
202.69	450.000
203.07	640.000
203.44	0.000
203.82	1175.000
204.19	885.714
204.57	471.429
204.95	750.000
205.32	1766.667
205.70	572.727
206.08	400.000
206.45	2900.000
206.83	431.250
207.20	1016.667
207.58	980.000
207.96	372.222
208.33	787.500
208.71	-1083.333
209.08	814.286
209.46	677.778
209.84	563.636
210.21	-1700.000
210.59	1525.000
210.96	-550.000
211.34	2750.000
211.71	710.000
212.09	850.000
212.46	0.000
212.84	1933.333
213.22	1300.000
213.59	-5500.000
213.97	1116.667
214.34	914.286
214.72	518.182
215.09	1080.000
215.47	-2300.000
215.84	-2950.000
216.22	2066.667
216.59	492.857
216.97	1550.000
217.34	509.091
217.72	-950.000
218.09	0.000
218.47	-4300.000
218.84	744.444
219.22	857.143
219.59	1733.333
219.97	-828.571
220.34	960.000
220.72	-1966.667
221.09	478.571
221.47	1450.000
221.84	-1033.333
222.22	0.000
222.59	1450.000
222.97	-2750.000
223.34	1380.000
223.72	430.769
224.09	980.000
224.46	2300.000
224.84	-5400.000
225.21	-940.000
225.59	-6200.000
225.96	680.000
226.34	300.000
226.71	3000.000
227.08	750.000
227.46	650.000
227.83	-1475.000
228.21	-2300.000
228.58	600.000
228.95	-3100.000
229.33	-3100.000
229.70	2100.000
230.08	900.000
230.45	-920.000
230.82	483.333
231.20	900.000
231.57	857.143
231.95	516.667
232.32	286.364
232.69	463.636
233.07	742.857
233.44	376.923
233.81	-2133.333
234.19	368.421
234.56	516.667
234.93	466.667
235.31	545.455
235.68	353.846
236.05	435.714
236.43	193.939
236.80	310.526
237.17	6000.000
237.55	266.667
237.92	210.714
238.29	300.000
238.67	222.581
239.04	258.621
239.41	202.778
239.79	134.783
240.16	171.429
240.53	163.636
240.91	125.490
241.28	132.000
241.65	144.000
242.02	118.841
242.40	122.581
242.77	98.333
243.14	88.172
243.51	94.382
243.89	102.353
244.26	83.333
244.63	82.796
245.00	84.043
245.38	69.307
245.75	78.505
246.12	66.972
246.49	75.912
246.87	80.000
247.24	63.846
247.61	67.857
247.98	62.092
248.36	60.811
248.73	56.051
249.10	64.968
249.47	55.932
249.84	56.684
250.22	52.941
250.59	55.621
250.96	60.606
251.33	48.815
251.70	58.911
252.08	53.333
252.45	51.570
252.82	44.783
253.19	51.915
253.56	48.627
253.94	52.697
254.31	44.531
254.68	47.692
255.05	44.280
255.42	48.374
255.79	47.059
256.16	46.570
256.54	44.170
256.91	48.399
257.28	46.403
257.65	41.254
258.02	43.168
258.39	41.956
258.76	44.482
259.14	42.560
259.51	41.337
259.88	40.683
260.25	43.202
260.62	41.040
260.99	42.236
261.36	42.042
261.73	41.547
262.10	36.628
262.47	43.099
262.85	40.947
263.22	38.177
263.59	41.880
263.96	37.088
264.33	39.164
264.70	38.158
265.07	40.921
265.44	39.394
265.81	34.793
266.18	43.216
266.55	36.585
266.92	39.312
267.29	40.278
267.66	38.303
268.03	35.909
268.40	37.150
268.77	36.516
269.14	36.036
269.51	38.375
269.88	37.762
270.25	37.020
270.62	37.303
270.99	38.495
271.36	36.481
271.73	34.112
272.10	36.522
272.47	38.065
272.84	37.229
273.21	36.688
273.58	35.371
273.95	36.897
274.32	33.678
274.69	36.831
275.06	32.874
275.43	38.085
275.80	36.673
276.17	34.623
276.54	35.967
276.91	34.585
277.28	34.180
277.65	36.750
278.02	33.954
278.39	34.961
278.76	35.091
279.13	32.453
279.50	35.009
279.87	34.661
280.23	33.533
280.60	35.203
280.97	32.717
281.34	33.982
281.71	32.727
282.08	35.701
282.45	32.000
282.82	31.972
283.19	33.512
283.56	32.105
283.92	34.687
284.29	31.746
284.66	33.938
285.03	30.380
285.40	31.866
285.77	31.481
286.14	29.016
286.51	31.333
286.87	33.162
287.24	33.876
287.61	31.140
287.98	30.032
288.35	31.379
288.72	31.620
289.08	31.455
289.45	29.984
289.82	29.106
290.19	30.141
290.56	27.565
290.93	28.852
291.29	29.601
291.66	28.614
292.03	30.378
292.40	28.928
292.77	29.734
293.13	28.060
293.50	27.405
293.87	28.000
294.24	27.259
294.60	27.948
294.97	26.890
295.34	27.786
295.71	26.847
296.08	27.920
296.44	25.997
296.81	25.363
297.18	28.726
297.55	23.615
297.91	25.198
298.28	27.175
298.65	24.935
299.02	25.296
299.38	24.701
299.75	22.237
300.12	24.393
300.48	24.500
300.85	24.538
301.22	24.459
301.59	23.611
301.95	24.307
302.32	25.160
302.69	23.417
303.05	24.242
303.42	21.852
303.79	23.669
304.15	22.727
304.52	22.364
304.89	22.416
305.25	22.158
305.62	23.783
305.99	24.439
306.35	21.924
306.72	24.552
307.09	23.973
307.45	22.748
307.82	21.987
308.19	22.185
308.55	24.056
308.92	22.986
309.29	21.753
309.65	22.057
310.02	22.093
310.38	22.151
310.75	22.070
311.12	22.927
311.48	22.989
311.85	21.698
312.22	21.852
312.58	22.557
312.95	23.865
313.31	20.388
313.68	23.389
314.05	22.978
314.41	22.814
314.78	22.860
315.14	22.542
315.51	22.863
315.87	23.168
316.24	22.344
316.61	21.442
316.97	21.135
317.34	21.820
317.70	22.562
318.07	24.447
318.43	23.973
318.80	24.649
319.16	23.729
319.53	21.857
319.89	23.905
320.26	24.400
320.62	24.702
320.99	24.444
321.35	26.566
321.72	24.641
322.08	25.962
322.45	25.373
322.81	26.550
323.18	25.915
323.54	24.861
323.91	24.811
324.27	26.673
324.64	25.722
325.00	25.158
325.37	26.570
325.73	27.648
326.10	27.979
326.46	26.971
326.83	28.387
327.19	27.925
327.56	27.352
327.92	28.171
328.29	28.483
328.65	29.558
329.01	28.069
329.38	29.140
329.74	27.886
330.11	28.275
330.47	28.926
330.84	29.504
331.20	28.415
331.56	28.899
331.93	29.444
332.29	28.660
332.66	29.115
333.02	29.982
333.38	30.894
333.75	29.412
334.11	30.338
334.48	29.547
334.84	30.699
335.20	30.182
335.57	29.193
335.93	28.839
336.29	29.945
336.66	28.855
337.02	29.412
337.38	29.630
337.75	29.501
338.11	30.081
338.47	29.650
338.84	30.431
339.20	29.174
339.56	29.106
339.93	29.182
340.29	28.533
340.65	29.144
341.02	29.232
341.38	29.448
341.74	29.912
342.11	29.607
342.47	29.692
342.83	29.366
343.20	30.476
343.56	28.559
343.92	29.474
344.28	28.912
344.65	28.719
345.01	28.620
345.37	27.959
345.73	28.849
346.10	28.559
346.46	29.492
346.82	29.819
347.19	28.154
347.55	28.982
347.91	29.935
348.27	29.663
348.63	29.264
349.00	28.560
349.36	27.586
349.72	29.190
350.08	28.525
350.45	28.723
350.81	28.757
351.17	28.525
351.53	27.682
351.89	28.548
352.26	29.676
352.62	29.110
352.98	28.768
353.34	28.431
353.70	27.741
354.07	29.274
354.43	27.619
354.79	27.755
355.15	28.013
355.51	29.496
355.87	27.347
356.24	28.990
356.60	28.709
356.96	27.031
357.32	28.700
357.68	28.268
358.04	28.029
358.40	27.553
358.77	26.604
359.13	28.019
359.49	29.569
359.85	27.540
360.21	27.751
360.57	29.105
360.93	28.308
361.29	26.757
361.66	27.941
362.02	27.612
362.38	27.529
362.74	29.613
363.10	27.239
363.46	27.660
363.82	28.345
364.18	28.561
364.54	29.718
364.90	27.691
365.26	29.044
365.62	28.050
365.98	27.684
366.35	26.648
366.71	28.200
367.07	28.842
367.43	28.737
367.79	28.908
368.15	28.376
368.51	28.343
368.87	28.765
369.23	28.310
369.59	29.182
369.95	28.750
370.31	28.775
370.67	28.406
371.03	28.914
371.39	28.207
371.75	28.309
372.11	28.663
372.47	28.739
372.83	29.251
373.19	28.107
373.55	28.825
373.91	29.234
374.27	27.423
374.63	28.582
374.99	28.602
375.35	27.983
375.71	28.787
376.07	29.698
376.42	29.436
376.78	29.357
377.14	28.833
377.50	29.073
377.86	27.460
378.22	28.508
378.58	28.321
378.94	28.850
379.30	29.262
379.66	29.442
380.02	28.931
380.38	28.112
380.74	29.892
381.09	29.218
381.45	29.318
381.81	29.975
382.17	29.554
382.53	29.811
382.89	30.309
383.25	28.956
383.61	31.041
383.97	30.206
384.32	30.006
384.68	29.244
385.04	29.994
385.40	29.226
385.76	30.221
386.12	30.246
386.48	30.711
386.83	31.430
387.19	31.540
387.55	30.860
387.91	30.411
388.27	30.104
388.62	30.977
388.98	30.098
389.34	30.225
389.70	30.901
390.06	31.622
390.42	31.388
390.77	31.170
391.13	30.440
391.49	31.345
391.85	31.127
392.20	29.716
392.56	30.808
392.92	31.195
393.28	30.178
393.64	31.475
393.99	30.422
394.35	31.079
394.71	32.622
395.07	31.526
395.42	31.520
395.78	32.188
396.14	31.285
396.50	32.143
396.85	32.994
397.21	31.381
397.57	32.610
397.92	32.031
398.28	31.446
398.64	32.855
399.00	32.233
399.35	32.205
399.71	32.002
400.07	33.057
400.42	32.945
400.78	33.172
401.14	33.171
401.49	32.955
401.85	32.547
402.21	32.934
402.57	33.436
402.92	33.417
403.28	33.167
403.63	32.488
403.99	32.866
404.35	33.879
404.70	33.273
405.06	33.023
405.42	33.812
405.77	33.486
406.13	33.352
406.49	34.358
406.84	34.495
407.20	33.333
407.55	34.652
407.91	35.000
408.27	34.780
408.62	34.859
408.98	34.314
409.34	34.379
409.69	35.677
410.05	34.634
410.40	34.618
410.76	34.588
411.11	35.163
411.47	34.058
411.83	35.247
412.18	35.127
412.54	34.932
412.89	34.217
413.25	35.124
413.60	34.342
413.96	36.308
414.31	35.115
414.67	36.122
415.03	36.159
415.38	37.049
415.74	36.141
416.09	36.643
416.45	37.082
416.80	36.153
417.16	37.131
417.51	36.828
417.87	36.352
418.22	36.341
418.58	36.475
418.93	37.592
419.29	35.964
419.64	37.028
420.00	36.524
420.35	37.449
420.71	37.956
421.06	35.859
421.42	37.544
421.77	36.715
422.12	36.946
422.48	36.104
422.83	37.507
423.19	36.740
423.54	37.551
423.90	38.377
424.25	38.414
424.61	37.321
424.96	37.959
425.31	37.763
425.67	36.292
426.02	38.114
426.38	38.584
426.73	38.444
427.09	38.298
427.44	38.298
427.79	37.895
428.15	39.464
428.50	40.140
428.85	37.485
429.21	37.769
429.56	39.606
429.92	38.349
430.27	37.984
430.62	37.942
430.98	38.713
431.33	38.299
431.68	39.424
432.04	38.179
432.39	39.634
432.74	40.096
433.10	40.407
433.45	40.233
433.80	38.914
434.16	39.103
434.51	38.895
434.86	39.909
435.22	40.745
435.57	39.878
435.92	39.789
436.28	41.578
436.63	40.784
436.98	40.927
437.34	41.264
437.69	41.249
438.04	40.753
438.39	41.493
438.75	42.592
439.10	41.117
439.45	41.381
439.81	41.631
440.16	39.752
440.51	41.301
440.86	42.154
441.22	42.214
441.57	42.410
441.92	41.965
442.27	42.034
442.63	41.548
442.98	43.099
443.33	42.011
443.68	42.230
444.03	42.801
444.39	41.967
444.74	42.749
445.09	42.210
445.44	43.302
445.79	42.504
446.15	42.615
446.50	41.842
446.85	43.114
447.20	42.478
447.55	44.444
447.91	43.795
448.26	43.406
448.61	42.906
448.96	44.352
449.31	44.094
449.66	43.219
450.02	43.510
450.37	43.027
450.72	44.106
451.07	43.205
451.42	43.708
451.77	44.275
452.12	43.245
452.47	43.719
452.83	43.065
453.18	44.071
453.53	45.640
453.88	44.595
454.23	43.873
454.58	44.761
454.93	44.565
455.28	44.514
455.63	44.417
455.98	44.702
456.34	44.786
456.69	45.460
457.04	45.449
457.39	44.711
457.74	44.167
458.09	44.738
458.44	44.812
458.79	43.980
459.14	43.623
459.49	45.009
459.84	43.989
460.19	44.844
460.54	42.882
460.89	43.884
461.24	45.841
461.59	43.870
461.94	44.821
462.29	45.282
462.64	45.437
462.99	45.088
463.34	47.067
463.69	46.404
464.04	44.870
464.39	45.333
464.74	44.088
465.09	45.356
465.44	44.377
465.79	44.463
466.14	44.718
466.49	44.216
466.84	45.359
467.19	46.228
467.54	46.875
467.89	44.838
468.24	44.735
468.59	45.482
468.94	45.266
469.29	45.758
469.64	47.590
469.99	47.903
470.34	45.509
470.68	46.695
471.03	46.190
471.38	47.880
471.73	47.302
472.08	47.039
472.43	45.980
472.78	46.346
473.13	46.277
473.48	46.130
473.83	47.073
474.17	46.235
474.52	46.898
474.87	47.344
475.22	46.257
475.57	45.137
475.92	45.566
476.27	45.829
476.61	46.332
476.96	46.509
477.31	45.474
477.66	46.444
478.01	45.792
478.36	47.329
478.70	45.898
479.05	46.326
479.40	47.544
479.75	46.568
480.10	45.278
480.45	45.645
480.79	45.389
481.14	45.890
481.49	46.037
481.84	45.953
482.19	45.298
482.53	45.275
482.88	45.510
483.23	46.822
483.58	46.269
483.92	46.064
484.27	44.139
484.62	44.009
484.97	44.856
485.31	45.308
485.66	44.027
486.01	42.004
486.36	40.316
486.70	40.007
487.05	41.498
487.40	42.901
487.75	43.319
488.09	44.283
488.44	43.729
488.79	45.606
489.13	45.531
489.48	45.840
489.83	45.533
490.17	46.778
490.52	45.217
490.87	45.319
491.22	45.430
491.56	44.419
491.91	44.579
492.26	45.567
492.60	44.747
492.95	44.902
493.30	44.673
493.64	45.404
493.99	45.450
494.34	45.791
494.68	46.245
495.03	46.147
495.37	44.532
495.72	45.906
496.07	46.543
496.41	45.044
496.76	46.174
497.11	44.665
497.45	45.738
497.80	45.250
498.14	46.039
498.49	46.829
498.84	46.165
499.18	44.857
499.53	45.062
499.87	45.107
500.22	45.125
500.56	46.845
500.91	46.106
501.26	46.041
501.60	46.559
501.95	45.005
502.29	46.298
502.64	46.648
502.98	46.424
503.33	45.612
503.67	46.311
504.02	45.837
504.36	46.139
504.71	47.093
505.06	46.843
505.40	46.913
505.75	45.323
506.09	47.279
506.44	47.114
506.78	48.027
507.13	48.460
507.47	47.677
507.82	48.734
508.16	47.923
508.51	49.264
508.85	46.971
509.19	48.622
509.54	48.163
509.88	47.810
510.23	49.203
510.57	50.052
510.92	50.078
511.26	48.407
511.61	49.222
511.95	48.539
512.30	48.091
512.64	49.275
512.98	50.107
513.33	50.054
513.67	50.907
514.02	48.972
514.36	50.246
514.70	50.802
515.05	50.139
515.39	50.421
515.74	51.745
516.08	50.699
516.42	51.110
516.77	53.010
517.11	51.054
517.46	51.862
517.80	52.149
518.14	52.461
518.49	53.676
518.83	51.477
519.17	52.425
519.52	52.122
519.86	51.854
520.20	52.832
520.55	54.339
520.89	54.380
521.23	53.559
521.58	52.761
521.92	52.848
522.26	52.410
522.61	53.956
522.95	53.530
523.29	54.169
523.64	54.573
523.98	54.467
524.32	53.076
524.66	53.097
525.01	54.289
525.35	53.656
525.69	53.756
526.04	54.642
526.38	53.935
526.72	54.049
527.06	55.807
527.41	53.899
527.75	56.270
528.09	55.556
528.43	55.959
528.78	55.562
529.12	53.455
529.46	54.991
529.80	55.012
530.15	55.826
530.49	53.662
530.83	55.443
531.17	56.593
531.51	57.263
531.86	56.452
532.20	56.649
532.54	55.221
532.88	56.098
533.22	55.465
533.57	54.506
533.91	55.027
534.25	55.164
534.59	55.522
534.93	54.432
535.27	55.341
535.62	55.311
535.96	55.932
536.30	55.435
536.64	54.926
536.98	56.204
537.32	55.892
537.66	55.800
538.01	56.024
538.35	54.880
538.69	55.839
539.03	55.556
539.37	54.569
539.71	54.828
540.05	55.556
540.39	55.748
540.73	54.463
541.07	55.548
541.42	56.817
541.76	56.645
542.10	55.821
542.44	55.828
542.78	55.929
543.12	55.022
543.46	54.426
543.80	56.539
544.14	54.942
544.48	55.683
544.82	55.741
545.16	55.498
545.50	55.206
545.84	56.250
546.18	55.488
546.52	57.054
546.86	56.357
547.20	56.642
547.54	55.311
547.88	56.824
548.22	55.604
548.56	55.157
548.90	55.186
549.24	55.286
549.58	56.003
549.92	55.495
550.26	56.108
550.60	55.671
550.94	56.972
551.28	57.425
551.62	57.225
551.96	57.614
552.30	55.222
552.64	56.592
552.98	55.322
553.32	54.147
553.66	55.556
554.00	56.280
554.34	55.141
554.68	57.225
555.02	57.123
555.36	56.089
555.69	54.127
556.03	55.182
556.37	56.003
556.71	56.003
557.05	57.003
557.39	56.823
557.73	56.175
558.07	57.433
558.41	57.381
558.75	57.164
559.08	57.196
559.42	56.614
559.76	56.765
560.10	56.602
560.44	54.717
560.78	55.223
561.12	54.617
561.45	54.824
561.79	55.109
562.13	56.740
562.47	56.421
562.81	58.159
563.15	55.251
563.48	54.708
563.82	53.881
564.16	55.003
564.50	56.771
564.84	54.362
565.17	54.826
565.51	56.102
565.85	54.949
566.19	55.103
566.52	55.098
566.86	55.154
567.20	55.366
567.54	54.795
567.88	53.395
568.21	53.598
568.55	53.084
568.89	53.307
569.23	51.337
569.56	51.296
569.90	51.094
570.24	51.238
570.57	49.405
570.91	49.418
571.25	49.599
571.59	49.161
571.92	49.251
572.26	50.231
572.60	50.450
572.93	49.655
573.27	50.725
573.61	49.302
573.95	50.155
574.28	48.216
574.62	48.907
574.96	48.913
575.29	49.661
575.63	48.831
575.97	49.024
576.30	49.310
576.64	48.825
576.98	48.882
577.31	49.238
577.65	48.469
577.98	48.995
578.32	47.975
578.66	48.344
578.99	49.144
579.33	48.899
579.67	48.601
580.00	49.029
580.34	49.146
580.67	48.570
581.01	48.527
581.35	48.619
581.68	48.280
582.02	47.787
582.35	47.848
582.69	48.228
583.02	48.650
583.36	49.112
583.70	49.775
584.03	49.425
584.37	49.460
584.70	50.183
585.04	48.973
585.37	48.719
585.71	49.154
586.04	48.804
586.38	49.896
586.72	50.069
587.05	49.362
587.39	49.393
587.72	49.575
588.06	49.493
588.39	49.931
588.73	50.132
589.06	51.137
589.40	51.044
589.73	50.792
590.07	50.356
590.40	51.041
590.73	51.952
591.07	52.300
591.40	51.708
591.74	52.468
592.07	51.876
592.41	51.881
592.74	49.625
593.08	50.000
593.41	50.174
593.75	49.126
594.08	49.883
594.41	50.901
594.75	50.721
595.08	50.573
595.42	51.243
595.75	51.318
596.09	51.408
596.42	50.884
596.75	52.132
597.09	51.602
597.42	50.253
597.75	51.962
598.09	51.739
598.42	51.503
598.76	50.628
599.09	49.601
599.42	49.782
599.76	50.183
600.09	50.200
600.42	50.000
600.76	50.179
601.09	49.362
601.42	50.647
601.76	49.715
602.09	50.514
602.42	52.030
602.76	51.552
603.09	51.613
603.42	51.308
603.76	50.381
604.09	50.911
604.42	51.366
604.76	51.497
605.09	50.896
605.42	50.363
605.75	51.738
606.09	50.549
606.42	50.838
606.75	51.058
607.09	51.151
607.42	50.535
607.75	49.494
608.08	50.239
608.42	51.009
608.75	50.947
609.08	51.156
609.41	51.214
609.75	51.120
610.08	51.272
610.41	50.885
610.74	51.325
611.07	53.014
611.41	51.276
611.74	51.634
612.07	52.950
612.40	52.204
612.73	52.211
613.07	52.101
613.40	51.869
613.73	52.229
614.06	51.935
614.39	51.390
614.72	50.895
615.06	51.050
615.39	51.805
615.72	50.767
616.05	51.356
616.38	52.752
616.71	54.216
617.05	53.357
617.38	52.616
617.71	53.874
618.04	53.065
618.37	52.395
618.70	53.205
619.03	53.684
619.36	53.632
619.69	54.085
620.03	54.670
620.36	54.011
620.69	54.384
621.02	54.499
621.35	53.876
621.68	53.193
622.01	53.947
622.34	54.917
622.67	53.308
623.00	53.558
623.33	52.538
623.66	54.753
623.99	53.314
624.32	53.281
624.65	52.684
624.99	52.195
625.32	54.019
625.65	54.095
625.98	54.804
626.31	53.110
626.64	55.429
626.97	56.193
627.30	54.032
627.63	54.553
627.96	55.341
628.29	55.818
628.62	55.352
628.95	55.943
629.28	55.292
629.61	55.362
629.94	56.190
630.26	56.244
630.59	54.719
630.92	54.502
631.25	56.861
631.58	55.656
631.91	55.984
632.24	56.224
632.57	56.348
632.90	56.031
633.23	58.166
633.56	57.514
633.89	56.965
634.22	58.343
634.55	59.172
634.88	57.365
635.20	59.140
635.53	57.831
635.86	58.540
636.19	55.176
636.52	55.825
636.85	56.472
637.18	55.876
637.51	57.565
637.83	54.007
638.16	59.207
638.49	58.942
638.82	60.556
639.15	57.250
639.48	58.354
639.81	58.445
640.13	57.812
640.46	59.195
640.79	58.124
641.12	57.497
641.45	57.123
641.77	61.119
642.10	58.626
642.43	59.760
642.76	60.217
643.09	59.049
643.41	59.636
643.74	58.642
644.07	57.927
644.40	58.896
644.73	61.575
645.05	59.905
645.38	57.030
645.71	59.903
646.04	62.292
646.36	62.104
646.69	60.870
647.02	62.585
647.35	59.966
647.67	62.478
648.00	60.488
648.33	58.086
648.66	56.515
648.98	58.621
649.31	55.605
649.64	59.193
649.96	57.377
650.29	59.242
650.62	58.414
650.94	58.347
651.27	60.473
651.60	60.233
651.92	59.904
652.25	57.329
652.58	56.854
652.90	58.610
653.23	59.168
653.56	57.008
653.88	56.894
654.21	58.926
654.54	60.231
654.86	59.346
655.19	55.135
655.52	40.586
655.84	36.828
656.17	48.323
656.49	65.626
656.82	67.586
657.15	52.273
657.47	39.044
657.80	29.833
658.13	31.709
658.45	47.530
658.78	47.441
659.10	50.079
659.43	53.472
659.75	55.382
660.08	60.823
660.41	64.246
660.73	66.328
661.06	61.624
661.38	66.545
661.71	62.500
662.03	65.483
662.36	60.636
662.68	60.442
663.01	62.828
663.33	61.783
663.66	62.815
663.98	62.635
664.31	57.983
664.63	60.121
664.96	60.161
665.28	58.607
665.61	59.454
665.93	59.557
666.26	59.432
666.58	62.552
666.91	64.059
667.23	64.045
667.56	61.771
667.88	61.538
668.21	61.194
668.53	63.774
668.86	61.472
669.18	62.473
669.50	60.652
669.83	63.834
670.15	60.444
670.48	62.527
670.80	60.129
671.13	60.510
671.45	61.915
671.77	60.285
672.10	58.965
672.42	58.127
672.75	55.390
673.07	54.401
673.39	57.685
673.72	56.445
674.04	59.804
674.37	59.223
674.69	59.305
675.01	59.623
675.34	59.343
675.66	61.684
675.98	59.674
676.31	59.034
676.63	60.297
676.95	61.216
677.28	61.449
677.60	61.758
677.92	61.392
678.25	59.343
678.57	60.757
678.89	59.319
679.22	56.974
679.54	56.679
679.86	57.248
680.18	55.635
680.51	55.851
680.83	54.626
681.15	59.057
681.48	60.681
681.80	56.480
682.12	57.663
682.44	56.673
682.77	59.267
683.09	62.446
683.41	57.206
683.73	60.486
684.06	59.917
684.38	57.730
684.70	55.814
685.02	56.848
685.34	55.495
685.67	53.846
685.99	56.014
686.31	55.119
686.63	56.184
686.96	55.893
687.28	55.415
687.60	55.254
687.92	54.845
688.24	57.034
688.56	58.233
688.89	57.469
689.21	61.572
689.53	58.664
689.85	58.980
690.17	57.143
690.49	57.113
690.82	61.215
691.14	58.705
691.46	57.173
691.78	55.422
692.10	57.438
692.42	57.285
692.74	56.017
693.06	55.319
693.39	58.111
693.71	56.550
694.03	56.421
694.35	56.061
694.67	54.691
694.99	62.195
695.31	59.559
695.63	59.091
695.95	60.391
696.27	59.137
696.59	59.585
696.91	60.104
697.23	57.277
697.56	55.437
697.88	50.716
698.20	54.792
698.52	57.634
698.84	58.575
699.16	55.991
699.48	57.007
699.80	56.522
700.12	67.792
700.44	60.212
700.76	64.917
701.08	60.345
701.40	59.218
701.72	61.224
702.04	65.057
702.36	56.374
702.68	59.207
703.00	60.942
703.32	58.511
703.64	56.568
703.96	64.903
704.28	63.372
704.60	65.396
704.91	62.018
705.23	58.358
705.55	66.777
705.87	66.777
706.19	65.018
706.51	63.551
706.83	58.182
707.15	63.025
707.47	56.818
707.79	59.705
708.11	55.023
708.43	58.571
708.74	58.418
709.06	59.740
709.38	56.430
709.70	61.628
710.02	62.018
710.34	59.394
710.66	60.299
710.98	56.818
711.29	58.140
711.61	60.472
711.93	59.295
712.25	64.309
712.57	64.706
712.89	65.398
713.20	60.790
713.52	64.474
713.84	59.810
714.16	60.976
714.48	61.782
714.80	62.006
715.11	57.925
715.43	61.128
715.75	58.841
716.07	65.495
716.39	59.561
716.70	65.449
717.02	59.353
717.34	59.364
717.66	63.060
717.97	69.721
718.29	64.444
718.61	68.978
718.93	67.279
719.24	62.630
719.56	62.373
719.88	64.068
720.20	63.176
720.51	62.718
720.83	63.941
721.15	56.343
721.46	63.475
721.78	67.384
722.10	66.792
722.42	65.789
722.73	64.419
723.05	61.475
723.37	63.158
723.68	67.568
724.00	65.447
724.32	67.339
724.63	61.789
724.95	60.251
725.27	65.182
725.58	64.062
725.90	61.679
726.22	60.000
726.53	62.500
726.85	57.338
727.16	63.345
727.48	62.057
727.80	62.500
728.11	60.145
728.43	58.077
728.74	59.140
729.06	60.584
729.38	60.294
729.69	61.922
730.01	55.973
730.32	64.236
730.64	58.194
730.96	56.106
731.27	64.238
731.59	55.657
731.90	57.143
732.22	54.658
732.53	53.870
732.85	57.051
733.16	54.984
733.48	61.130
733.80	57.792
734.11	58.917
734.43	56.509
734.74	52.571
735.06	52.149
735.37	57.225
735.69	55.414
736.00	60.131
736.32	56.698
736.63	54.952
736.95	57.188
737.26	56.122
737.58	57.097
737.89	60.870
738.21	61.433
738.52	57.143
738.83	53.962
739.15	61.923
739.46	60.584
739.78	59.028
740.09	57.538
740.41	59.355
740.72	55.052
741.04	61.111
741.35	62.500
741.66	65.333
741.98	65.094
742.29	70.813
742.61	66.810
742.92	66.516
743.23	63.675
743.55	61.600
743.86	61.404
744.18	64.602
744.49	70.813
744.80	69.484
745.12	71.364
745.43	59.471
745.74	67.117
746.06	62.844
746.37	67.713
746.68	67.873
747.00	69.907
747.31	66.667
747.62	60.177
747.94	65.639
748.25	57.447
748.56	65.639
748.88	64.851
749.19	76.500
749.50	66.977
749.82	60.569
750.13	63.265
750.44	57.299
750.75	60.351
751.07	59.486
751.38	57.143
751.69	59.928
752.01	57.895
752.32	54.152
752.63	59.929
752.94	57.787
753.26	69.200
753.57	61.789
753.88	61.719
754.19	55.357
754.51	59.028
754.82	53.069
755.13	57.358
755.44	56.015
755.75	62.044
756.07	57.447
756.38	55.839
756.69	55.034
757.00	51.796
757.31	50.742
757.63	52.339
757.94	52.279
758.25	49.265
758.56	52.593
758.87	48.925
759.18	56.061
759.50	50.470
759.81	53.583
760.12	51.875
760.43	51.003
760.74	52.717
761.05	52.825
761.36	52.406
761.67	54.261
761.99	53.416
762.30	58.681
762.61	58.779
762.92	58.984
763.23	60.084
763.54	62.400
763.85	55.859
764.16	57.308
764.47	58.935
764.78	53.357
765.10	52.848
765.41	53.097
765.72	50.898
766.03	54.232
766.34	54.667
766.65	63.830
766.96	61.111
767.27	71.574
767.58	67.188
767.89	68.947
768.20	65.517
768.51	62.944
768.82	66.055
769.13	56.911
769.44	56.680
769.75	63.948
770.06	58.716
770.37	62.896
770.68	65.278
770.99	60.000
771.30	59.016
771.61	63.229
771.92	59.426
772.23	61.345
772.54	68.205
772.85	69.110
773.16	65.426
773.47	69.022
773.78	67.005
774.09	66.667
774.39	71.345
774.70	68.519
775.01	81.159
775.32	78.431
775.63	72.368
775.94	76.259
776.25	77.953
776.56	79.104
776.87	87.705
777.18	80.469
777.48	83.206
777.79	81.061
778.10	76.296
778.41	92.857
778.72	70.803
779.03	71.812
779.34	75.839
779.65	68.243
779.95	69.939
780.26	77.778
780.57	80.000
780.88	89.062
781.19	69.173
781.50	70.270
781.80	76.730
782.11	72.316
782.42	70.253
782.73	61.963
783.04	71.622
783.34	73.239
783.65	73.973
783.96	83.582
784.27	72.028
784.57	74.820
784.88	74.074
785.19	86.508
785.50	85.849
785.81	87.313
786.11	86.885
786.42	86.047
786.73	84.956
787.04	81.132
787.34	96.429
787.65	99.000
787.96	89.189
788.26	77.686
788.57	90.678
788.88	90.909
789.19	81.250
789.49	86.364
789.80	73.282
790.11	89.524
790.41	85.149
790.72	98.795
791.03	92.391
791.33	86.047
791.64	100.000
791.95	93.069
792.25	103.333
792.56	110.390
792.87	123.077
793.17	121.519
793.48	98.851
793.79	91.954
794.09	110.227
794.40	74.790
794.70	80.882
795.01	77.778
795.32	64.029
795.62	81.890
795.93	79.310
796.23	90.265
796.54	103.529
796.85	100.000
797.15	111.268
797.46	115.152
797.76	109.639
798.07	96.203
798.37	123.077
798.68	128.788
798.99	92.958
799.29	103.896
799.60	94.318
799.90	132.877
800.21	123.881
800.51	117.241
800.82	124.561
801.12	126.230
801.43	122.727
801.73	101.351
802.04	136.508
802.34	104.938
802.65	103.125
802.95	154.237
803.26	140.625
803.56	100.000
803.87	127.692
804.17	116.176
804.48	159.259
804.78	122.414
805.09	117.647
805.39	146.154
805.70	141.071
806.00	134.426
806.30	109.091
806.61	96.341
806.91	87.342
807.22	102.632
807.52	86.567
807.83	118.310
808.13	128.125
808.43	131.667
808.74	93.421
809.04	114.493
809.35	119.403
809.65	96.053
809.95	158.065
810.26	128.814
810.56	114.286
810.86	175.000
811.17	185.714
811.47	111.667
811.77	153.704
812.08	136.364
812.38	146.000
812.69	202.778
812.99	165.909
813.29	122.449
813.59	130.952
813.90	151.020
814.20	127.273
814.50	104.615
814.81	122.059
815.11	140.816
815.41	122.951
815.72	166.667
816.02	132.727
816.32	152.381
816.62	155.000
816.93	156.098
817.23	188.095
817.53	165.909
817.84	209.091
818.14	156.522
818.44	148.889
818.74	185.294
819.04	180.000
819.35	194.286
819.65	211.765
819.95	225.000
820.25	265.000
820.56	202.564
820.86	150.000
821.16	162.791
821.46	189.744
821.76	162.000
822.07	222.857
822.37	185.000
822.67	200.000
822.97	143.137
823.27	207.143
823.57	191.892
823.88	190.000
824.18	230.000
824.48	169.048
824.78	252.000
825.08	212.500
825.38	186.486
825.69	156.098
825.99	279.167
826.29	213.793
826.59	168.421
826.89	176.316
827.19	194.118
827.49	225.806
827.79	181.818
828.09	179.545
828.39	129.787
828.70	148.980
829.00	251.852
829.30	158.065
829.60	180.000
829.90	380.000
830.20	242.857
830.50	226.087
830.80	282.609
831.10	203.333
831.40	226.667
831.70	273.913
832.00	269.231
832.30	244.444
832.60	368.750
832.90	216.667
833.20	385.714
833.50	225.806
833.80	234.483
834.10	253.125
834.40	273.077
834.70	366.667
835.00	380.952
835.30	217.143
835.60	407.692
835.90	227.586
836.20	407.143
836.50	217.241
836.80	232.000
837.10	188.889
837.40	276.190
837.70	347.059
838.00	251.852
838.30	271.429
838.60	314.286
838.90	265.385
839.19	285.000
839.49	442.857
839.79	350.000
840.09	275.000
840.39	271.429
840.69	308.696
840.99	338.889
841.29	650.000
841.59	366.667
841.88	381.250
842.18	241.379
842.48	300.000
842.78	200.000
843.08	260.870
843.38	228.125
843.68	1033.333
843.97	288.462
844.27	210.345
844.57	342.857
844.87	312.500
845.17	248.148
845.47	1533.333
845.76	633.333
846.06	347.059
846.36	662.500
846.66	335.714
846.96	400.000
847.25	527.273
847.55	436.364
847.85	308.696
848.15	610.000
848.44	450.000
848.74	288.889
849.04	335.294
849.34	560.000
849.63	284.211
849.93	590.909
850.23	1080.000
850.53	378.571
850.82	2600.000
851.12	-4600.000
851.42	5600.000
851.71	325.000
852.01	-1333.333
852.31	304.167
852.61	2033.333
852.90	257.143
853.20	252.000
853.50	352.941
853.79	304.762
854.09	254.167
854.39	400.000
854.68	200.000
854.98	212.903
855.28	220.000
855.57	217.241
855.87	248.148
856.17	310.526
856.46	346.667
856.76	382.353
857.05	241.379
857.35	241.667
857.65	460.000
857.94	273.913
858.24	269.231
858.53	330.000
858.83	290.909
859.13	466.667
859.42	0.000
859.72	722.222
860.01	527.273
860.31	286.364
860.60	305.263
860.90	265.217
861.20	611.111
861.49	541.667
861.79	-4400.000
862.08	687.500
862.38	314.286
862.67	392.308
862.97	364.706
863.26	644.444
863.56	350.000
863.85	483.333
864.15	600.000
864.44	406.667
864.74	1133.333
865.03	637.500
865.33	389.474
865.62	572.727
865.92	469.231
866.21	375.000
866.51	0.000
866.80	472.727
867.10	1280.000
867.39	553.846
867.69	590.909
867.98	305.263
868.27	500.000
868.57	363.158
868.86	-5000.000
869.16	400.000
869.45	2350.000
869.75	-5500.000
870.04	500.000
870.33	885.714
870.63	1325.000
870.92	3150.000
871.22	785.714
871.51	335.294
871.80	238.095
872.10	428.571
>>>>>End Processed Spectral Data<<<<<
