SpectraSuite Data File
++++++++++++++++++++++++++++++++++++
Date: Wed May 13 19:11:54 PDT 2015
User: schluterlab
Dark Spectrum Present: Yes
Reference Spectrum Present: Yes
Number of Sampled Component Spectra: 1
Spectrometers: USB2E3373
Integration Time (usec): 3000 (USB2E3373)
Spectra Averaged: 3 (USB2E3373)
Boxcar Smoothing: 0 (USB2E3373)
Correct for Electrical Dark: No (USB2E3373)
Strobe/Lamp Enabled: No (USB2E3373)
Correct for Detector Non-linearity: No (USB2E3373)
Correct for Stray Light: No (USB2E3373)
Number of Pixels in Processed Spectrum: 2048
>>>>>Begin Processed Spectral Data<<<<<
178.53	0.000
178.91	-1300.000
179.29	-1500.000
179.67	-261.111
180.04	-1450.000
180.42	3250.000
180.80	1080.000
181.18	-1275.000
181.56	857.143
181.94	0.000
182.31	-728.571
182.69	1900.000
183.07	-650.000
183.45	-533.333
183.83	581.818
184.20	-500.000
184.58	3050.000
184.96	5800.000
185.34	-900.000
185.72	-687.500
186.09	-2350.000
186.47	3350.000
186.85	2950.000
187.23	5600.000
187.61	-1900.000
187.98	1400.000
188.36	700.000
188.74	554.545
189.12	-1060.000
189.49	590.000
189.87	-5700.000
190.25	-1375.000
190.63	450.000
191.00	469.231
191.38	800.000
191.76	-1275.000
192.14	1475.000
192.51	737.500
192.89	833.333
193.27	575.000
193.65	-1275.000
194.02	550.000
194.40	1020.000
194.78	620.000
195.15	533.333
195.53	620.000
195.91	-2450.000
196.29	375.000
196.66	368.421
197.04	-340.000
197.42	0.000
197.79	630.000
198.17	-5800.000
198.55	714.286
198.92	675.000
199.30	1000.000
199.68	0.000
200.05	355.556
200.43	828.571
200.81	5800.000
201.18	1866.667
201.56	-1866.667
201.94	722.222
202.31	744.444
202.69	458.333
203.07	550.000
203.44	0.000
203.82	1475.000
204.19	914.286
204.57	507.143
204.95	800.000
205.32	1800.000
205.70	436.364
206.08	450.000
206.45	3300.000
206.83	456.250
207.20	950.000
207.58	980.000
207.96	366.667
208.33	800.000
208.71	-916.667
209.08	828.571
209.46	711.111
209.84	590.909
210.21	-1733.333
210.59	1350.000
210.96	-512.500
211.34	2650.000
211.71	530.000
212.09	900.000
212.46	0.000
212.84	1700.000
213.22	1625.000
213.59	-5400.000
213.97	1083.333
214.34	942.857
214.72	700.000
215.09	1040.000
215.47	-2500.000
215.84	-2700.000
216.22	1633.333
216.59	428.571
216.97	1425.000
217.34	554.545
217.72	-816.667
218.09	0.000
218.47	-4900.000
218.84	733.333
219.22	914.286
219.59	2066.667
219.97	-700.000
220.34	840.000
220.72	-2066.667
221.09	478.571
221.47	1650.000
221.84	-800.000
222.22	0.000
222.59	1450.000
222.97	-2750.000
223.34	1240.000
223.72	492.308
224.09	1180.000
224.46	2350.000
224.84	-5500.000
225.21	-1020.000
225.59	-4900.000
225.96	780.000
226.34	325.000
226.71	3000.000
227.08	762.500
227.46	480.000
227.83	-1200.000
228.21	-2900.000
228.58	622.222
228.95	-2750.000
229.33	-2400.000
229.70	1533.333
230.08	900.000
230.45	-760.000
230.82	466.667
231.20	883.333
231.57	700.000
231.95	550.000
232.32	290.909
232.69	481.818
233.07	614.286
233.44	423.077
233.81	-1666.667
234.19	342.105
234.56	441.667
234.93	433.333
235.31	472.727
235.68	369.231
236.05	314.286
236.43	181.818
236.80	263.158
237.17	5100.000
237.55	228.571
237.92	210.714
238.29	195.238
238.67	193.548
239.04	217.241
239.41	169.444
239.79	126.087
240.16	140.476
240.53	140.909
240.91	101.961
241.28	112.000
241.65	96.000
242.02	92.754
242.40	82.258
242.77	70.000
243.14	65.591
243.51	83.146
243.89	49.412
244.26	48.889
244.63	49.462
245.00	53.191
245.38	53.465
245.75	48.598
246.12	44.037
246.49	57.664
246.87	52.800
247.24	52.308
247.61	43.571
247.98	38.562
248.36	29.730
248.73	31.847
249.10	36.943
249.47	31.638
249.84	36.898
250.22	31.551
250.59	35.503
250.96	30.303
251.33	27.014
251.70	31.683
252.08	28.095
252.45	24.664
252.82	23.043
253.19	24.681
253.56	23.529
253.94	29.876
254.31	25.391
254.68	20.385
255.05	23.616
255.42	23.171
255.79	22.794
256.16	22.383
256.54	18.375
256.91	23.843
257.28	19.784
257.65	20.792
258.02	22.360
258.39	19.874
258.76	20.401
259.14	18.452
259.51	18.845
259.88	15.528
260.25	20.242
260.62	21.098
260.99	20.497
261.36	17.718
261.73	16.332
262.10	17.151
262.47	19.718
262.85	17.549
263.22	13.960
263.59	17.664
263.96	13.462
264.33	18.538
264.70	16.053
265.07	16.624
265.44	17.677
265.81	13.869
266.18	17.085
266.55	16.829
266.92	15.233
267.29	16.435
267.66	15.826
268.03	16.818
268.40	13.551
268.77	11.456
269.14	12.613
269.51	13.544
269.88	15.152
270.25	11.964
270.62	13.708
270.99	16.559
271.36	12.661
271.73	12.617
272.10	13.261
272.47	13.763
272.84	14.286
273.21	15.094
273.58	10.917
273.95	12.998
274.32	11.777
274.69	13.490
275.06	10.630
275.43	11.702
275.80	14.028
276.17	10.387
276.54	13.098
276.91	11.858
277.28	12.109
277.65	12.573
278.02	13.665
278.39	11.914
278.76	13.455
279.13	11.698
279.50	12.477
279.87	11.952
280.23	12.176
280.60	9.671
280.97	10.721
281.34	13.274
281.71	14.000
282.08	13.436
282.45	11.636
282.82	11.368
283.19	9.982
283.56	12.105
283.92	12.014
284.29	9.700
284.66	11.434
285.03	9.946
285.40	9.155
285.77	8.249
286.14	9.672
286.51	10.167
286.87	10.598
287.24	11.889
287.61	9.952
287.98	10.877
288.35	9.667
288.72	11.215
289.08	11.581
289.45	9.390
289.82	11.220
290.19	10.047
290.56	10.567
290.93	8.459
291.29	9.049
291.66	10.767
292.03	11.773
292.40	12.335
292.77	9.172
293.13	9.552
293.50	11.079
293.87	8.444
294.24	8.148
294.60	7.860
294.97	9.012
295.34	8.886
295.71	9.517
296.08	8.974
296.44	9.766
296.81	8.587
297.18	10.569
297.55	6.992
297.91	8.179
298.28	8.434
298.65	9.138
299.02	8.037
299.38	9.960
299.75	5.121
300.12	7.791
300.48	8.625
300.85	7.768
301.22	7.516
301.59	6.313
301.95	6.927
302.32	7.702
302.69	8.005
303.05	8.121
303.42	7.901
303.79	7.588
304.15	5.594
304.52	6.837
304.89	6.969
305.25	7.889
305.62	7.928
305.99	7.792
306.35	6.600
306.72	8.408
307.09	8.546
307.45	8.221
307.82	6.696
308.19	8.057
308.55	8.198
308.92	7.519
309.29	7.181
309.65	6.999
310.02	7.505
310.38	7.312
310.75	6.653
311.12	6.960
311.48	7.524
311.85	9.434
312.22	6.764
312.58	6.653
312.95	8.237
313.31	6.893
313.68	6.757
314.05	7.594
314.41	6.432
314.78	7.049
315.14	6.554
315.51	6.694
315.87	6.337
316.24	5.958
316.61	6.530
316.97	6.947
317.34	4.892
317.70	6.214
318.07	6.641
318.43	7.143
318.80	8.341
319.16	6.026
319.53	6.567
319.89	7.810
320.26	6.900
320.62	7.341
320.99	7.071
321.35	6.768
321.72	6.674
322.08	8.193
322.45	7.164
322.81	6.977
323.18	7.033
323.54	7.050
323.91	7.547
324.27	6.119
324.64	6.244
325.00	6.041
325.37	6.642
325.73	7.092
326.10	7.149
326.46	5.824
326.83	6.644
327.19	6.832
327.56	6.359
327.92	6.912
328.29	6.921
328.65	7.459
329.01	6.859
329.38	7.308
329.74	7.202
330.11	5.844
330.47	6.520
330.84	7.813
331.20	6.648
331.56	6.972
331.93	6.481
332.29	6.744
332.66	6.991
333.02	6.856
333.38	6.956
333.75	6.774
334.11	7.206
334.48	7.453
334.84	6.893
335.20	7.455
335.57	6.981
335.93	6.071
336.29	5.495
336.66	6.763
337.02	6.606
337.38	6.204
337.75	5.169
338.11	7.073
338.47	5.985
338.84	6.691
339.20	6.055
339.56	7.208
339.93	5.273
340.29	5.797
340.65	6.506
341.02	6.457
341.38	6.495
341.74	5.702
342.11	6.812
342.47	6.520
342.83	7.021
343.20	7.619
343.56	6.487
343.92	6.667
344.28	6.803
344.65	6.449
345.01	5.556
345.37	4.631
345.73	7.022
346.10	6.820
346.46	7.373
346.82	6.178
347.19	5.848
347.55	5.993
347.91	6.796
348.27	6.574
348.63	6.605
349.00	5.987
349.36	5.829
349.72	6.175
350.08	6.159
350.45	6.672
350.81	6.418
351.17	6.159
351.53	5.897
351.89	5.528
352.26	7.656
352.62	7.698
352.98	6.321
353.34	6.245
353.70	5.728
354.07	6.613
354.43	5.635
354.79	6.597
355.15	5.028
355.51	6.315
355.87	5.551
356.24	7.085
356.60	5.854
356.96	6.516
357.32	6.214
357.68	6.614
358.04	6.413
358.40	6.492
358.77	6.338
359.13	4.893
359.49	5.490
359.85	5.397
360.21	5.582
360.57	6.381
360.93	5.923
361.29	6.349
361.66	4.489
362.02	6.194
362.38	6.312
362.74	6.250
363.10	5.255
363.46	5.282
363.82	5.896
364.18	5.286
364.54	6.761
364.90	5.878
365.26	4.706
365.62	5.771
365.98	4.967
366.35	5.372
366.71	6.508
367.07	5.244
367.43	5.370
367.79	6.424
368.15	5.891
368.51	4.578
368.87	5.710
369.23	5.633
369.59	6.300
369.95	5.221
370.31	6.481
370.67	5.290
371.03	5.693
371.39	6.122
371.75	5.441
372.11	5.192
372.47	5.792
372.83	5.259
373.19	5.564
373.55	4.508
373.91	5.670
374.27	5.704
374.63	4.582
374.99	5.226
375.35	5.373
375.71	5.552
376.07	5.624
376.42	5.846
376.78	5.567
377.14	4.749
377.50	6.093
377.86	4.654
378.22	5.120
378.58	4.574
378.94	4.588
379.30	5.089
379.66	5.013
380.02	5.405
380.38	4.311
380.74	4.862
381.09	6.051
381.45	5.716
381.81	6.020
382.17	5.478
382.53	4.214
382.89	5.370
383.25	4.565
383.61	5.143
383.97	5.253
384.32	5.365
384.68	4.337
385.04	4.794
385.40	4.520
385.76	5.098
386.12	4.793
386.48	5.601
386.83	4.747
387.19	5.442
387.55	5.442
387.91	4.716
388.27	4.782
388.62	5.716
388.98	4.791
389.34	5.757
389.70	5.518
390.06	5.894
390.42	5.318
390.77	5.153
391.13	4.978
391.49	5.266
391.85	4.328
392.20	4.038
392.56	4.987
392.92	4.591
393.28	4.201
393.64	4.916
393.99	4.887
394.35	4.529
394.71	4.956
395.07	4.361
395.42	4.574
395.78	5.216
396.14	5.276
396.50	5.451
396.85	5.531
397.21	4.932
397.57	4.960
397.92	4.808
398.28	4.372
398.64	5.257
399.00	5.092
399.35	4.005
399.71	4.861
400.07	5.381
400.42	5.215
400.78	5.066
401.14	4.573
401.49	4.597
401.85	4.900
402.21	5.030
402.57	4.627
402.92	5.296
403.28	5.122
403.63	4.579
403.99	4.140
404.35	5.152
404.70	4.676
405.06	4.834
405.42	5.240
405.77	4.971
406.13	4.740
406.49	4.672
406.84	5.493
407.20	4.314
407.55	5.233
407.91	5.133
408.27	4.531
408.62	4.576
408.98	4.473
409.34	4.920
409.69	5.613
410.05	4.647
410.40	4.771
410.76	4.719
411.11	5.489
411.47	4.601
411.83	5.254
412.18	4.824
412.54	5.106
412.89	6.024
413.25	5.077
413.60	5.127
413.96	4.857
414.31	5.043
414.67	5.260
415.03	5.166
415.38	4.897
415.74	5.080
416.09	5.748
416.45	4.685
416.80	4.891
417.16	5.898
417.51	5.441
417.87	5.267
418.22	5.615
418.58	5.939
418.93	5.774
419.29	5.220
419.64	5.856
420.00	4.878
420.35	5.449
420.71	5.320
421.06	4.535
421.42	4.737
421.77	5.269
422.12	4.660
422.48	4.047
422.83	4.485
423.19	5.525
423.54	4.875
423.90	5.391
424.25	5.583
424.61	4.821
424.96	4.606
425.31	5.371
425.67	4.382
426.02	4.514
426.38	5.372
426.73	4.272
427.09	4.681
427.44	5.233
427.79	4.600
428.15	4.940
428.50	4.798
428.85	5.662
429.21	4.694
429.56	3.940
429.92	5.184
430.27	4.866
430.62	4.250
430.98	4.619
431.33	4.742
431.68	4.764
432.04	4.526
432.39	5.083
432.74	4.847
433.10	4.810
433.45	5.131
433.80	4.435
434.16	5.075
434.51	4.421
434.86	5.131
435.22	5.225
435.57	4.681
435.92	3.979
436.28	5.042
436.63	6.126
436.98	4.751
437.34	5.188
437.69	5.776
438.04	5.059
438.39	5.194
438.75	5.113
439.10	4.637
439.45	5.431
439.81	4.653
440.16	4.969
440.51	5.038
440.86	5.327
441.22	4.783
441.57	4.512
441.92	4.708
442.27	4.898
442.63	4.529
442.98	5.014
443.33	5.326
443.68	5.008
444.03	4.685
444.39	3.992
444.74	4.978
445.09	5.229
445.44	4.975
445.79	4.899
446.15	5.664
446.50	4.900
446.85	4.162
447.20	4.640
447.55	5.081
447.91	4.688
448.26	4.786
448.61	4.296
448.96	6.091
449.31	5.231
449.66	5.234
450.02	4.513
450.37	5.045
450.72	4.625
451.07	4.631
451.42	4.742
451.77	5.109
452.12	5.139
452.47	5.162
452.83	5.361
453.18	5.318
453.53	5.318
453.88	4.253
454.23	5.140
454.58	5.512
454.93	5.404
455.28	4.800
455.63	5.340
455.98	5.655
456.34	5.276
456.69	5.197
457.04	5.263
457.39	5.085
457.74	4.933
458.09	5.348
458.44	5.758
458.79	4.772
459.14	5.530
459.49	5.604
459.84	4.709
460.19	4.066
460.54	5.208
460.89	5.156
461.24	5.039
461.59	5.811
461.94	4.932
462.29	5.994
462.64	5.233
462.99	5.270
463.34	5.600
463.69	5.066
464.04	5.101
464.39	5.507
464.74	5.645
465.09	4.885
465.44	5.152
465.79	4.642
466.14	5.364
466.49	4.505
466.84	5.254
467.19	5.794
467.54	5.625
467.89	5.282
468.24	5.934
468.59	6.044
468.94	5.681
469.29	4.949
469.64	6.560
469.99	4.804
470.34	5.416
470.68	6.034
471.03	5.374
471.38	5.490
471.73	5.863
472.08	6.250
472.43	5.842
472.78	5.596
473.13	5.969
473.48	5.618
473.83	4.878
474.17	5.227
474.52	5.645
474.87	5.663
475.22	4.933
475.57	4.944
475.92	4.673
476.27	4.115
476.61	5.405
476.96	4.728
477.31	4.343
477.66	5.306
478.01	4.914
478.36	4.918
478.70	4.102
479.05	5.005
479.40	4.913
479.75	5.033
480.10	5.020
480.45	4.902
480.79	4.252
481.14	4.305
481.49	4.983
481.84	4.252
482.19	4.407
482.53	4.312
482.88	5.026
483.23	4.346
483.58	4.914
483.92	4.827
484.27	3.791
484.62	4.310
484.97	3.981
485.31	3.904
485.66	3.392
486.01	2.634
486.36	2.610
486.70	2.709
487.05	3.293
487.40	3.422
487.75	3.012
488.09	3.822
488.44	3.369
488.79	4.304
489.13	4.202
489.48	4.201
489.83	4.143
490.17	4.428
490.52	4.429
490.87	4.251
491.22	4.138
491.56	3.645
491.91	4.141
492.26	4.272
492.60	4.378
492.95	3.835
493.30	4.766
493.64	4.480
493.99	3.760
494.34	4.995
494.68	4.716
495.03	5.075
495.37	4.141
495.72	4.435
496.07	4.548
496.41	4.027
496.76	4.222
497.11	4.638
497.45	4.378
497.80	5.086
498.14	3.913
498.49	4.293
498.84	4.554
499.18	4.714
499.53	4.179
499.87	4.520
500.22	4.569
500.56	4.417
500.91	4.087
501.26	4.457
501.60	4.936
501.95	4.354
502.29	4.827
502.64	4.562
502.98	4.441
503.33	4.113
503.67	4.176
504.02	4.490
504.36	5.428
504.71	4.641
505.06	5.012
505.40	4.181
505.75	4.339
506.09	4.422
506.44	4.095
506.78	5.163
507.13	4.543
507.47	5.000
507.82	4.357
508.16	4.813
508.51	4.617
508.85	4.518
509.19	4.337
509.54	4.592
509.88	5.152
510.23	4.627
510.57	4.592
510.92	5.023
511.26	4.728
511.61	4.979
511.95	4.019
512.30	4.719
512.64	4.729
512.98	4.716
513.33	5.460
513.67	4.322
514.02	4.870
514.36	4.588
514.70	4.815
515.05	4.629
515.39	5.272
515.74	4.899
516.08	5.422
516.42	5.327
516.77	5.741
517.11	4.273
517.46	6.208
517.80	5.459
518.14	4.748
518.49	5.018
518.83	5.227
519.17	4.965
519.52	5.772
519.86	5.876
520.20	5.838
520.55	5.745
520.89	5.596
521.23	5.669
521.58	5.102
521.92	5.450
522.26	4.942
522.61	5.171
522.95	4.297
523.29	5.234
523.64	5.183
523.98	5.792
524.32	5.549
524.66	6.013
525.01	5.576
525.35	5.762
525.69	5.357
526.04	5.732
526.38	5.308
526.72	5.215
527.06	5.399
527.41	5.507
527.75	5.209
528.09	6.230
528.43	5.354
528.78	5.716
529.12	5.333
529.46	5.756
529.80	6.312
530.15	5.857
530.49	5.477
530.83	5.633
531.17	5.679
531.51	6.680
531.86	5.806
532.20	5.671
532.54	6.791
532.88	5.584
533.22	5.559
533.57	5.556
533.91	5.298
534.25	5.468
534.59	5.186
534.93	5.651
535.27	5.733
535.62	5.922
535.96	5.964
536.30	5.340
536.64	6.053
536.98	6.038
537.32	5.267
537.66	5.600
538.01	5.925
538.35	5.559
538.69	6.445
539.03	5.328
539.37	5.112
539.71	4.213
540.05	5.425
540.39	4.718
540.73	5.433
541.07	6.489
541.42	5.871
541.76	6.968
542.10	6.468
542.44	5.166
542.78	6.719
543.12	5.822
543.46	5.836
543.80	6.571
544.14	5.263
544.48	5.460
544.82	6.094
545.16	5.530
545.50	4.692
545.84	5.712
546.18	6.195
546.52	5.643
546.86	5.842
547.20	6.406
547.54	6.480
547.88	6.760
548.22	5.355
548.56	5.723
548.90	5.122
549.24	5.657
549.58	5.662
549.92	5.838
550.26	6.037
550.60	6.777
550.94	6.127
551.28	4.974
551.62	5.823
551.96	5.614
552.30	6.416
552.64	6.153
552.98	6.237
553.32	5.732
553.66	6.544
554.00	6.383
554.34	5.728
554.68	7.439
555.02	5.994
555.36	5.846
555.69	6.292
556.03	6.326
556.37	5.525
556.71	5.730
557.05	6.022
557.39	5.598
557.73	5.857
558.07	6.164
558.41	5.644
558.75	6.319
559.08	6.488
559.42	5.971
559.76	6.618
560.10	5.782
560.44	6.569
560.78	5.389
561.12	5.739
561.45	6.258
561.79	5.867
562.13	6.573
562.47	6.421
562.81	5.579
563.15	6.355
563.48	5.703
563.82	5.284
564.16	4.905
564.50	5.208
564.84	5.626
565.17	5.534
565.51	6.198
565.85	6.028
566.19	5.949
566.52	5.573
566.86	5.124
567.20	6.014
567.54	4.795
567.88	4.563
568.21	5.450
568.55	5.056
568.89	4.280
569.23	5.036
569.56	4.858
569.90	4.075
570.24	4.198
570.57	3.876
570.91	3.911
571.25	4.046
571.59	4.212
571.92	3.687
572.26	3.640
572.60	3.904
572.93	3.628
573.27	3.934
573.61	4.160
573.95	4.031
574.28	3.317
574.62	3.571
574.96	3.393
575.29	3.589
575.63	3.532
575.97	3.567
576.30	3.797
576.64	3.058
576.98	3.403
577.31	3.119
577.65	3.214
577.98	2.935
578.32	2.998
578.66	3.208
578.99	3.333
579.33	3.220
579.67	3.016
580.00	3.524
580.34	3.275
580.67	3.262
581.01	3.441
581.35	3.089
581.68	3.050
582.02	2.904
582.35	2.875
582.69	3.278
583.02	3.139
583.36	3.366
583.70	3.646
584.03	3.501
584.37	3.794
584.70	3.109
585.04	3.767
585.37	3.378
585.71	3.501
586.04	3.697
586.38	3.814
586.72	3.728
587.05	3.450
587.39	3.272
587.72	3.324
588.06	3.308
588.39	3.539
588.73	3.725
589.06	3.864
589.40	3.535
589.73	4.048
590.07	3.986
590.40	3.654
590.73	4.294
591.07	4.640
591.40	4.429
591.74	4.978
592.07	4.319
592.41	4.837
592.74	4.120
593.08	4.197
593.41	3.828
593.75	3.779
594.08	3.654
594.41	4.348
594.75	4.030
595.08	4.116
595.42	4.483
595.75	3.846
596.09	4.732
596.42	5.344
596.75	4.432
597.09	5.022
597.42	4.300
597.75	4.528
598.09	4.826
598.42	4.253
598.76	3.932
599.09	4.371
599.42	3.821
599.76	4.246
600.09	3.934
600.42	3.798
600.76	4.143
601.09	4.335
601.42	3.995
601.76	4.288
602.09	4.387
602.42	4.896
602.76	4.635
603.09	3.816
603.42	4.295
603.76	3.887
604.09	4.343
604.42	4.933
604.76	4.892
605.09	4.937
605.42	4.104
605.75	4.636
606.09	3.904
606.42	4.332
606.75	5.102
607.09	5.023
607.42	3.894
607.75	3.418
608.08	4.386
608.42	5.155
608.75	4.734
609.08	4.949
609.41	5.093
609.75	4.907
610.08	4.713
610.41	4.004
610.74	4.163
611.07	4.941
611.41	5.152
611.74	5.480
612.07	5.331
612.40	5.247
612.73	5.579
613.07	5.711
613.40	5.213
613.73	4.667
614.06	5.108
614.39	5.401
614.72	5.737
615.06	5.882
615.39	5.149
615.72	5.112
616.05	4.785
616.38	5.725
616.71	4.394
617.05	5.713
617.38	5.592
617.71	5.285
618.04	5.469
618.37	5.263
618.70	6.161
619.03	6.776
619.36	6.314
619.69	6.197
620.03	6.387
620.36	6.150
620.69	6.164
621.02	6.268
621.35	6.813
621.68	5.296
622.01	6.811
622.34	6.505
622.67	6.008
623.00	5.943
623.33	6.076
623.66	6.290
623.99	5.817
624.32	6.134
624.65	6.709
624.99	5.524
625.32	5.576
625.65	6.011
625.98	6.764
626.31	7.465
626.64	6.367
626.97	6.816
627.30	6.234
627.63	6.973
627.96	8.158
628.29	6.912
628.62	6.953
628.95	9.434
629.28	7.208
629.61	8.341
629.94	7.143
630.26	6.864
630.59	6.959
630.92	7.854
631.25	7.206
631.58	7.708
631.91	7.708
632.24	6.224
632.57	8.814
632.90	8.114
633.23	9.060
633.56	9.266
633.89	9.173
634.22	8.400
634.55	8.284
634.88	8.503
635.20	8.363
635.53	9.639
635.86	7.673
636.19	8.706
636.52	8.189
636.85	8.362
637.18	8.525
637.51	9.574
637.83	8.631
638.16	8.951
638.49	8.690
638.82	10.619
639.15	9.125
639.48	9.975
639.81	9.920
640.13	10.938
640.46	8.859
640.79	9.643
641.12	7.290
641.45	9.358
641.77	8.837
642.10	10.380
642.43	9.459
642.76	9.443
643.09	10.890
643.41	10.470
643.74	11.420
644.07	10.518
644.40	11.656
644.73	11.496
645.05	12.361
645.38	10.585
645.71	11.594
646.04	11.628
646.36	13.523
646.69	11.873
647.02	13.435
647.35	12.199
647.67	11.327
648.00	11.545
648.33	9.406
648.66	10.455
648.98	10.495
649.31	8.819
649.64	10.015
649.96	11.923
650.29	10.900
650.62	9.871
650.94	11.183
651.27	12.162
651.60	12.313
651.92	12.620
652.25	11.238
652.58	12.305
652.90	11.216
653.23	10.632
653.56	10.079
653.88	11.252
654.21	12.322
654.54	11.386
654.86	10.592
655.19	8.919
655.52	4.662
655.84	2.476
656.17	2.462
656.49	3.335
656.82	3.437
657.15	2.951
657.47	2.232
657.80	1.764
658.13	2.134
658.45	3.078
658.78	3.536
659.10	3.964
659.43	4.799
659.75	5.762
660.08	6.076
660.41	7.728
660.73	10.165
661.06	11.146
661.38	12.909
661.71	12.308
662.03	17.554
662.36	13.320
662.68	13.454
663.01	13.333
663.33	13.163
663.66	12.395
663.98	13.391
664.31	12.185
664.63	12.955
664.96	11.469
665.28	12.705
665.61	14.425
665.93	12.475
666.26	12.982
666.58	13.389
666.91	12.474
667.23	12.809
667.56	11.663
667.88	14.744
668.21	14.712
668.53	11.931
668.86	13.203
669.18	15.352
669.50	15.870
669.83	17.211
670.15	15.556
670.48	13.508
670.80	12.500
671.13	13.588
671.45	14.043
671.77	14.257
672.10	11.830
672.42	13.428
672.75	11.774
673.07	12.148
673.39	10.127
673.72	10.547
674.04	11.961
674.37	14.757
674.69	12.065
675.01	12.343
675.34	12.731
675.66	16.211
675.98	13.238
676.31	12.605
676.63	14.862
676.95	13.627
677.28	14.486
677.60	14.725
677.92	17.089
678.25	14.579
678.57	12.351
678.89	13.026
679.22	14.342
679.54	12.023
679.86	11.560
680.18	12.343
680.51	12.057
680.83	14.235
681.15	13.962
681.48	14.178
681.80	14.120
682.12	13.218
682.44	10.832
682.77	11.609
683.09	15.236
683.41	13.747
683.73	13.245
684.06	14.669
684.38	12.916
684.70	11.240
685.02	14.634
685.34	13.004
685.67	9.965
685.99	10.653
686.31	11.092
686.63	10.601
686.96	10.714
687.28	11.733
687.60	10.688
687.92	13.163
688.24	12.928
688.56	16.064
688.89	14.315
689.21	17.249
689.53	12.109
689.85	12.860
690.17	14.079
690.49	15.711
690.82	13.785
691.14	12.723
691.46	13.080
691.78	14.257
692.10	12.603
692.42	13.174
692.74	13.278
693.06	12.979
693.39	13.758
693.71	13.100
694.03	14.737
694.35	13.203
694.67	14.416
694.99	15.366
695.31	14.706
695.63	14.833
695.95	18.582
696.27	13.959
696.59	16.839
696.91	15.285
697.23	14.554
697.56	15.352
697.88	12.065
698.20	14.375
698.52	12.903
698.84	15.367
699.16	15.207
699.48	15.202
699.80	15.217
700.12	18.961
700.44	15.650
700.76	17.956
701.08	16.667
701.40	16.760
701.72	17.493
702.04	21.875
702.36	12.181
702.68	19.830
703.00	17.452
703.32	17.287
703.64	15.818
703.96	16.992
704.28	21.221
704.60	19.062
704.91	16.617
705.23	18.182
705.55	20.598
705.87	23.256
706.19	16.961
706.51	19.938
706.83	20.606
707.15	18.207
707.47	18.434
707.79	15.725
708.11	16.438
708.43	15.000
708.74	14.031
709.06	17.143
709.38	17.060
709.70	15.698
710.02	18.991
710.34	16.364
710.66	18.209
710.98	21.591
711.29	19.477
711.61	21.829
711.93	16.667
712.25	19.293
712.57	18.750
712.89	20.415
713.20	20.973
713.52	18.092
713.84	18.987
714.16	17.988
714.48	17.816
714.80	24.316
715.11	19.020
715.43	21.068
715.75	17.681
716.07	20.128
716.39	20.690
716.70	22.591
717.02	19.424
717.34	22.968
717.66	25.000
717.97	24.701
718.29	21.481
718.61	18.978
718.93	20.221
719.24	21.453
719.56	20.000
719.88	21.695
720.20	23.311
720.51	23.345
720.83	25.651
721.15	15.672
721.46	20.922
721.78	24.014
722.10	20.377
722.42	23.308
722.73	21.723
723.05	21.311
723.37	31.174
723.68	23.552
724.00	23.984
724.32	22.984
724.63	22.764
724.95	20.084
725.27	25.101
725.58	23.438
725.90	22.993
726.22	24.906
726.53	20.139
726.85	21.160
727.16	21.352
727.48	21.631
727.80	21.591
728.11	22.826
728.43	22.308
728.74	22.939
729.06	27.372
729.38	23.897
729.69	24.199
730.01	20.137
730.32	20.139
730.64	20.401
730.96	21.452
731.27	23.841
731.59	21.101
731.90	19.534
732.22	18.634
732.53	19.505
732.85	19.551
733.16	17.685
733.48	21.595
733.80	20.779
734.11	22.293
734.43	21.598
734.74	17.429
735.06	18.338
735.37	19.942
735.69	19.108
736.00	23.203
736.32	19.003
736.63	19.489
736.95	20.447
737.26	19.388
737.58	17.419
737.89	21.405
738.21	22.867
738.52	18.571
738.83	23.774
739.15	19.231
739.46	25.182
739.78	21.528
740.09	19.077
740.41	21.613
740.72	19.164
741.04	20.741
741.35	25.833
741.66	26.222
741.98	20.755
742.29	27.273
742.61	31.466
742.92	22.624
743.23	27.778
743.55	29.200
743.86	28.070
744.18	26.106
744.49	30.144
744.80	28.638
745.12	30.000
745.43	28.634
745.74	27.027
746.06	28.440
746.37	29.596
746.68	29.864
747.00	28.704
747.31	27.619
747.62	24.779
747.94	25.110
748.25	22.553
748.56	26.872
748.88	25.743
749.19	31.000
749.50	28.372
749.82	23.577
750.13	18.776
750.44	22.993
750.75	25.965
751.07	24.759
751.38	23.693
751.69	21.661
752.01	24.060
752.32	16.968
752.63	24.823
752.94	23.361
753.26	24.800
753.57	19.106
753.88	27.734
754.19	22.500
754.51	25.347
754.82	19.856
755.13	23.396
755.44	22.180
755.75	24.818
756.07	20.922
756.38	17.883
756.69	19.799
757.00	22.156
757.31	18.398
757.63	15.497
757.94	18.499
758.25	15.931
758.56	15.556
758.87	15.860
759.18	21.212
759.50	20.063
759.81	18.692
760.12	15.625
760.43	19.484
760.74	19.565
761.05	19.209
761.36	15.775
761.67	19.602
761.99	18.012
762.30	21.875
762.61	21.756
762.92	28.125
763.23	25.630
763.54	28.000
763.85	21.484
764.16	25.769
764.47	23.954
764.78	22.261
765.10	16.772
765.41	20.354
765.72	17.066
766.03	21.944
766.34	21.667
766.65	21.702
766.96	25.214
767.27	33.503
767.58	28.646
767.89	35.263
768.20	33.908
768.51	32.995
768.82	27.064
769.13	22.358
769.44	21.862
769.75	24.464
770.06	20.642
770.37	28.959
770.68	26.852
770.99	23.556
771.30	21.311
771.61	23.767
771.92	26.639
772.23	32.773
772.54	31.282
772.85	34.031
773.16	32.447
773.47	34.239
773.78	34.010
774.09	34.524
774.39	36.257
774.70	33.951
775.01	41.304
775.32	44.444
775.63	38.158
775.94	38.849
776.25	37.008
776.56	52.985
776.87	46.721
777.18	50.781
777.48	49.618
777.79	42.424
778.10	44.444
778.41	49.107
778.72	39.416
779.03	41.611
779.34	39.597
779.65	35.811
779.95	36.196
780.26	43.137
780.57	42.069
780.88	52.344
781.19	46.617
781.50	37.838
781.80	40.252
782.11	37.853
782.42	31.013
782.73	34.969
783.04	41.216
783.34	45.775
783.65	52.740
783.96	44.776
784.27	35.664
784.57	39.568
784.88	42.593
785.19	51.587
785.50	60.377
785.81	49.254
786.11	39.344
786.42	50.388
786.73	38.053
787.04	53.774
787.34	55.357
787.65	58.000
787.96	50.450
788.26	53.719
788.57	49.153
788.88	57.025
789.19	47.222
789.49	46.212
789.80	46.565
790.11	55.238
790.41	63.366
790.72	54.217
791.03	63.043
791.33	58.140
791.64	53.608
791.95	61.386
792.25	66.667
792.56	74.026
792.87	78.205
793.17	74.684
793.48	82.759
793.79	75.862
794.09	76.136
794.40	44.538
794.70	51.471
795.01	41.481
795.32	43.165
795.62	48.031
795.93	55.172
796.23	51.327
796.54	57.647
796.85	64.865
797.15	81.690
797.46	87.879
797.76	75.904
798.07	67.089
798.37	78.462
798.68	81.818
798.99	69.014
799.29	67.532
799.60	73.864
799.90	71.233
800.21	98.507
800.51	91.379
800.82	112.281
801.12	93.443
801.43	90.909
801.73	68.919
802.04	93.651
802.34	83.951
802.65	76.563
802.95	96.610
803.26	93.750
803.56	78.571
803.87	87.692
804.17	88.235
804.48	107.407
804.78	79.310
805.09	79.412
805.39	88.462
805.70	98.214
806.00	88.525
806.30	81.818
806.61	76.829
806.91	58.228
807.22	64.474
807.52	58.209
807.83	94.366
808.13	85.938
808.43	88.333
808.74	71.053
809.04	100.000
809.35	83.582
809.65	77.632
809.95	111.290
810.26	89.831
810.56	84.127
810.86	122.727
811.17	142.857
811.47	91.667
811.77	96.296
812.08	109.091
812.38	116.000
812.69	155.556
812.99	154.545
813.29	116.327
813.59	121.429
813.90	130.612
814.20	80.000
814.50	76.923
814.81	98.529
815.11	118.367
815.41	98.361
815.72	128.571
816.02	109.091
816.32	109.524
816.62	105.000
816.93	131.707
817.23	147.619
817.53	143.182
817.84	172.727
818.14	123.913
818.44	111.111
818.74	161.765
819.04	132.500
819.35	162.857
819.65	170.588
819.95	171.429
820.25	230.000
820.56	156.410
820.86	138.636
821.16	146.512
821.46	135.897
821.76	146.000
822.07	177.143
822.37	160.000
822.67	166.667
822.97	105.882
823.27	225.000
823.57	156.757
823.88	155.000
824.18	203.333
824.48	140.476
824.78	220.000
825.08	204.167
825.38	156.757
825.69	141.463
825.99	245.833
826.29	186.207
826.59	165.789
826.89	155.263
827.19	179.412
827.49	180.645
827.79	138.636
828.09	150.000
828.39	114.894
828.70	126.531
829.00	159.259
829.30	170.968
829.60	155.000
829.90	280.000
830.20	225.000
830.50	204.348
830.80	221.739
831.10	186.667
831.40	206.667
831.70	204.348
832.00	207.692
832.30	203.704
832.60	350.000
832.90	206.667
833.20	407.143
833.50	212.903
833.80	179.310
834.10	221.875
834.40	238.462
834.70	311.111
835.00	338.095
835.30	188.571
835.60	323.077
835.90	189.655
836.20	378.571
836.50	189.655
836.80	200.000
837.10	180.556
837.40	300.000
837.70	317.647
838.00	207.407
838.30	257.143
838.60	276.190
838.90	261.538
839.19	295.000
839.49	457.143
839.79	365.000
840.09	250.000
840.39	295.238
840.69	247.826
840.99	222.222
841.29	490.000
841.59	375.000
841.88	325.000
842.18	189.655
842.48	271.429
842.78	190.000
843.08	278.261
843.38	178.125
843.68	900.000
843.97	226.923
844.27	220.690
844.57	314.286
844.87	356.250
845.17	181.481
845.47	1533.333
845.76	444.444
846.06	364.706
846.36	475.000
846.66	392.857
846.96	243.750
847.25	436.364
847.55	409.091
847.85	273.913
848.15	550.000
848.44	457.143
848.74	327.778
849.04	388.235
849.34	550.000
849.63	268.421
849.93	418.182
850.23	920.000
850.53	464.286
850.82	2300.000
851.12	-4500.000
851.42	5200.000
851.71	330.000
852.01	-1333.333
852.31	270.833
852.61	1900.000
852.90	285.714
853.20	276.000
853.50	335.294
853.79	257.143
854.09	262.500
854.39	387.500
854.68	197.297
854.98	180.645
855.28	166.667
855.57	244.828
855.87	222.222
856.17	231.579
856.46	326.667
856.76	317.647
857.05	220.690
857.35	262.500
857.65	393.333
857.94	273.913
858.24	250.000
858.53	310.000
858.83	254.545
859.13	420.000
859.42	0.000
859.72	477.778
860.01	445.455
860.31	250.000
860.60	289.474
860.90	273.913
861.20	544.444
861.49	491.667
861.79	-4800.000
862.08	737.500
862.38	304.762
862.67	415.385
862.97	335.294
863.26	633.333
863.56	283.333
863.85	408.333
864.15	637.500
864.44	413.333
864.74	850.000
865.03	750.000
865.33	310.526
865.62	490.909
865.92	430.769
866.21	300.000
866.51	0.000
866.80	600.000
867.10	1360.000
867.39	515.385
867.69	518.182
867.98	300.000
868.27	536.364
868.57	300.000
868.86	-4900.000
869.16	406.250
869.45	2350.000
869.75	-4600.000
870.04	541.667
870.33	700.000
870.63	975.000
870.92	3150.000
871.22	914.286
871.51	423.529
871.80	285.714
872.10	392.857
>>>>>End Processed Spectral Data<<<<<
