SpectraSuite Data File
++++++++++++++++++++++++++++++++++++
Date: Wed May 13 19:49:52 PDT 2015
User: schluterlab
Dark Spectrum Present: Yes
Reference Spectrum Present: Yes
Number of Sampled Component Spectra: 1
Spectrometers: USB2E3373
Integration Time (usec): 3000 (USB2E3373)
Spectra Averaged: 3 (USB2E3373)
Boxcar Smoothing: 0 (USB2E3373)
Correct for Electrical Dark: No (USB2E3373)
Strobe/Lamp Enabled: No (USB2E3373)
Correct for Detector Non-linearity: No (USB2E3373)
Correct for Stray Light: No (USB2E3373)
Number of Pixels in Processed Spectrum: 2048
>>>>>Begin Processed Spectral Data<<<<<
178.53	0.000
178.91	-1275.000
179.29	-1450.000
179.67	-233.333
180.04	-1350.000
180.42	2100.000
180.80	1000.000
181.18	-1275.000
181.56	785.714
181.94	0.000
182.31	-657.143
182.69	1800.000
183.07	-662.500
183.45	-533.333
183.83	663.636
184.20	-400.000
184.58	2450.000
184.96	5000.000
185.34	-800.000
185.72	-550.000
186.09	-2400.000
186.47	2700.000
186.85	2900.000
187.23	4900.000
187.61	-1500.000
187.98	1450.000
188.36	490.909
188.74	500.000
189.12	-820.000
189.49	550.000
189.87	-4400.000
190.25	-1200.000
190.63	414.286
191.00	423.077
191.38	916.667
191.76	-1500.000
192.14	1300.000
192.51	737.500
192.89	883.333
193.27	662.500
193.65	-1375.000
194.02	480.000
194.40	1000.000
194.78	540.000
195.15	591.667
195.53	700.000
195.91	-2500.000
196.29	343.750
196.66	326.316
197.04	-390.000
197.42	0.000
197.79	620.000
198.17	-5600.000
198.55	828.571
198.92	637.500
199.30	1100.000
199.68	0.000
200.05	294.444
200.43	814.286
200.81	4800.000
201.18	2133.333
201.56	-1433.333
201.94	555.556
202.31	622.222
202.69	491.667
203.07	550.000
203.44	0.000
203.82	1300.000
204.19	785.714
204.57	428.571
204.95	737.500
205.32	1733.333
205.70	527.273
206.08	400.000
206.45	2900.000
206.83	468.750
207.20	1000.000
207.58	860.000
207.96	400.000
208.33	600.000
208.71	-850.000
209.08	742.857
209.46	555.556
209.84	463.636
210.21	-1566.667
210.59	1200.000
210.96	-650.000
211.34	2650.000
211.71	660.000
212.09	800.000
212.46	0.000
212.84	1866.667
213.22	1450.000
213.59	-4100.000
213.97	883.333
214.34	771.429
214.72	545.455
215.09	920.000
215.47	-2400.000
215.84	-3250.000
216.22	1633.333
216.59	314.286
216.97	1175.000
217.34	418.182
217.72	-716.667
218.09	0.000
218.47	-4500.000
218.84	655.556
219.22	885.714
219.59	1433.333
219.97	-657.143
220.34	1020.000
220.72	-1700.000
221.09	428.571
221.47	1500.000
221.84	-866.667
222.22	0.000
222.59	1625.000
222.97	-2550.000
223.34	1200.000
223.72	453.846
224.09	1140.000
224.46	2350.000
224.84	-4400.000
225.21	-920.000
225.59	-5300.000
225.96	640.000
226.34	335.000
226.71	2950.000
227.08	800.000
227.46	510.000
227.83	-975.000
228.21	-2250.000
228.58	711.111
228.95	-2450.000
229.33	-2450.000
229.70	1733.333
230.08	857.143
230.45	-920.000
230.82	508.333
231.20	883.333
231.57	614.286
231.95	441.667
232.32	290.909
232.69	536.364
233.07	771.429
233.44	376.923
233.81	-1600.000
234.19	263.158
234.56	450.000
234.93	408.333
235.31	500.000
235.68	353.846
236.05	421.429
236.43	172.727
236.80	315.789
237.17	3700.000
237.55	242.857
237.92	207.143
238.29	314.286
238.67	170.968
239.04	227.586
239.41	161.111
239.79	113.043
240.16	121.429
240.53	136.364
240.91	101.961
241.28	104.000
241.65	118.000
242.02	105.797
242.40	90.323
242.77	101.667
243.14	80.645
243.51	75.281
243.89	81.176
244.26	57.778
244.63	72.043
245.00	63.830
245.38	57.426
245.75	66.355
246.12	49.541
246.49	59.124
246.87	60.800
247.24	61.538
247.61	55.714
247.98	47.059
248.36	42.568
248.73	37.580
249.10	48.408
249.47	44.068
249.84	42.781
250.22	41.176
250.59	48.521
250.96	43.434
251.33	43.128
251.70	42.574
252.08	37.619
252.45	39.910
252.82	39.130
253.19	37.872
253.56	37.255
253.94	40.664
254.31	33.984
254.68	35.769
255.05	40.221
255.42	34.146
255.79	34.191
256.16	36.462
256.54	30.035
256.91	32.028
257.28	30.216
257.65	34.653
258.02	29.503
258.39	31.861
258.76	32.441
259.14	30.952
259.51	30.091
259.88	29.193
260.25	30.514
260.62	31.214
260.99	26.398
261.36	29.730
261.73	31.232
262.10	31.686
262.47	27.324
262.85	26.462
263.22	26.781
263.59	28.775
263.96	27.747
264.33	28.198
264.70	26.579
265.07	28.900
265.44	26.263
265.81	26.764
266.18	27.387
266.55	24.878
266.92	27.027
267.29	26.620
267.66	23.853
268.03	25.000
268.40	27.804
268.77	27.208
269.14	25.225
269.51	27.991
269.88	27.739
270.25	25.734
270.62	25.618
270.99	28.172
271.36	24.678
271.73	25.935
272.10	24.130
272.47	26.882
272.84	24.675
273.21	24.948
273.58	24.017
273.95	22.432
274.32	24.380
274.69	24.625
275.06	23.425
275.43	25.319
275.80	23.046
276.17	24.440
276.54	23.909
276.91	23.715
277.28	23.633
277.65	25.145
278.02	22.567
278.39	21.680
278.76	23.455
279.13	23.774
279.50	22.719
279.87	22.112
280.23	23.952
280.60	23.017
280.97	21.996
281.34	22.124
281.71	24.000
282.08	21.881
282.45	24.000
282.82	21.314
283.19	19.608
283.56	21.228
283.92	23.519
284.29	19.929
284.66	22.323
285.03	20.976
285.40	21.479
285.77	20.539
286.14	20.898
286.51	20.000
286.87	21.538
287.24	19.707
287.61	21.509
287.98	20.455
288.35	20.761
288.72	20.405
289.08	22.848
289.45	21.582
289.82	20.488
290.19	17.582
290.56	19.908
290.93	19.335
291.29	17.945
291.66	19.912
292.03	20.349
292.40	18.649
292.77	17.751
293.13	20.448
293.50	17.638
293.87	18.519
294.24	18.963
294.60	17.322
294.97	17.733
295.34	18.336
295.71	17.756
296.08	16.239
296.44	16.781
296.81	17.569
297.18	18.835
297.55	15.435
297.91	17.678
298.28	19.411
298.65	17.102
299.02	16.469
299.38	16.600
299.75	13.612
300.12	16.603
300.48	16.375
300.85	16.523
301.22	17.325
301.59	15.025
301.95	15.995
302.32	14.121
302.69	16.368
303.05	15.515
303.42	15.556
303.79	14.383
304.15	12.937
304.52	15.064
304.89	15.679
305.25	14.733
305.62	14.836
305.99	15.112
306.35	15.772
306.72	15.695
307.09	15.871
307.45	16.329
307.82	14.732
308.19	15.894
308.55	14.887
308.92	15.145
309.29	15.312
309.65	13.786
310.02	15.751
310.38	13.656
310.75	14.256
311.12	14.841
311.48	15.152
311.85	14.990
312.22	14.984
312.58	15.593
312.95	16.684
313.31	14.466
313.68	14.449
314.05	17.160
314.41	15.377
314.78	15.710
315.14	15.690
315.51	15.242
315.87	15.644
316.24	15.293
316.61	15.789
316.97	17.025
317.34	14.971
317.70	17.113
318.07	16.554
318.43	17.221
318.80	17.338
319.16	17.232
319.53	16.417
319.89	17.429
320.26	18.800
320.62	18.056
320.99	17.778
321.35	18.182
321.72	18.583
322.08	19.941
322.45	19.801
322.81	19.477
323.18	21.965
323.54	20.501
323.91	20.377
324.27	20.650
324.64	19.571
325.00	19.748
325.37	21.019
325.73	21.993
326.10	21.889
326.46	21.326
326.83	23.210
327.19	21.349
327.56	21.951
327.92	22.135
328.29	23.159
328.65	23.481
329.01	22.202
329.38	22.294
329.74	22.530
330.11	24.222
330.47	24.059
330.84	23.254
331.20	23.042
331.56	24.128
331.93	23.519
332.29	23.691
332.66	24.690
333.02	23.492
333.38	23.577
333.75	24.599
334.11	23.399
334.48	22.183
334.84	24.724
335.20	25.273
335.57	24.388
335.93	23.750
336.29	23.443
336.66	24.256
337.02	23.620
337.38	24.259
337.75	24.421
338.11	24.351
338.47	23.389
338.84	23.923
339.20	23.486
339.56	23.540
339.93	23.091
340.29	23.641
340.65	24.599
341.02	24.956
341.38	23.665
341.74	24.211
342.11	23.755
342.47	24.846
342.83	23.716
343.20	23.550
343.56	23.757
343.92	24.298
344.28	24.405
344.65	25.021
345.01	23.232
345.37	23.328
345.73	23.604
346.10	24.126
346.46	24.407
346.82	25.783
347.19	23.893
347.55	23.645
347.91	24.353
348.27	24.404
348.63	25.167
349.00	24.515
349.36	24.302
349.72	24.138
350.08	23.501
350.45	23.841
350.81	25.508
351.17	24.392
351.53	24.652
351.89	23.432
352.26	24.862
352.62	24.298
352.98	24.878
353.34	24.404
353.70	24.059
354.07	24.758
354.43	24.762
354.79	24.698
355.15	24.501
355.51	26.299
355.87	25.469
356.24	24.756
356.60	24.058
356.96	24.940
357.32	23.876
357.68	25.197
358.04	25.178
358.40	26.128
358.77	24.726
359.13	24.783
359.49	25.255
359.85	25.317
360.21	25.120
360.57	26.304
360.93	24.308
361.29	24.792
361.66	24.768
362.02	24.552
362.38	25.551
362.74	25.595
363.10	24.722
363.46	26.192
363.82	26.757
364.18	25.624
364.54	26.077
364.90	26.062
365.26	26.324
365.62	26.224
365.98	26.077
366.35	24.928
366.71	26.970
367.07	26.584
367.43	27.431
367.79	27.123
368.15	27.011
368.51	25.945
368.87	27.480
369.23	26.408
369.59	28.313
369.95	26.765
370.31	26.425
370.67	27.536
371.03	27.416
371.39	26.822
371.75	27.647
372.11	27.312
372.47	27.346
372.83	28.170
373.19	28.035
373.55	28.234
373.91	29.161
374.27	27.010
374.63	28.800
374.99	29.237
375.35	28.402
375.71	29.404
376.07	29.355
376.42	29.711
376.78	28.164
377.14	30.258
377.50	29.934
377.86	27.726
378.22	29.456
378.58	27.506
378.94	28.975
379.30	29.135
379.66	30.457
380.02	29.238
380.38	29.447
380.74	29.112
381.09	29.401
381.45	30.670
381.81	30.467
382.17	30.573
382.53	29.686
382.89	29.815
383.25	29.831
383.61	31.041
383.97	31.207
384.32	31.316
384.68	30.421
385.04	31.223
385.40	30.279
385.76	30.774
386.12	30.959
386.48	31.844
386.83	32.008
387.19	32.529
387.55	31.911
387.91	31.560
388.27	31.576
388.62	32.698
388.98	31.757
389.34	33.479
389.70	32.373
390.06	32.890
390.42	32.296
390.77	31.934
391.13	32.482
391.49	33.122
391.85	31.509
392.20	32.744
392.56	33.649
392.92	32.490
393.28	32.840
393.64	32.794
393.99	32.437
394.35	33.189
394.71	33.438
395.07	33.022
395.42	33.560
395.78	33.461
396.14	33.892
396.50	34.774
396.85	33.185
397.21	33.539
397.57	34.036
397.92	33.954
398.28	33.408
398.64	34.170
399.00	33.800
399.35	34.461
399.71	33.970
400.07	33.767
400.42	33.681
400.78	34.198
401.14	34.817
401.49	34.806
401.85	34.362
402.21	33.653
402.57	34.547
402.92	35.435
403.28	35.166
403.63	34.220
403.99	34.459
404.35	34.182
404.70	35.492
405.06	35.061
405.42	35.184
405.77	34.114
406.13	33.296
406.49	33.412
406.84	33.845
407.20	33.924
407.55	34.525
407.91	35.533
408.27	35.482
408.62	34.437
408.98	33.946
409.34	34.256
409.69	34.903
410.05	34.944
410.40	35.719
410.76	34.946
411.11	34.741
411.47	35.272
411.83	35.736
412.18	35.374
412.54	34.994
412.89	36.506
413.25	35.006
413.60	35.701
413.96	34.791
414.31	35.115
414.67	35.868
415.03	35.430
415.38	35.567
415.74	35.627
416.09	35.924
416.45	35.542
416.80	35.294
417.16	36.729
417.51	36.165
417.87	35.517
418.22	35.962
418.58	35.636
418.93	36.671
419.29	36.346
419.64	36.839
420.00	36.037
420.35	35.420
420.71	35.744
421.06	34.308
421.42	35.673
421.77	35.650
422.12	35.036
422.48	34.808
422.83	36.925
423.19	35.801
423.54	35.055
423.90	36.058
424.25	35.064
424.61	35.893
424.96	36.501
425.31	34.773
425.67	35.281
426.02	34.457
426.38	36.630
426.73	35.576
427.09	34.954
427.44	36.343
427.79	35.078
428.15	35.417
428.50	35.459
428.85	36.532
429.21	34.898
429.56	34.681
429.92	34.625
430.27	35.402
430.62	34.818
430.98	35.132
431.33	34.639
431.68	35.550
432.04	35.517
432.39	34.780
432.74	35.129
433.10	36.559
433.45	35.452
433.80	35.255
434.16	34.402
434.51	34.368
434.86	34.778
435.22	35.631
435.57	35.562
435.92	35.284
436.28	36.477
436.63	35.486
436.98	35.776
437.34	36.136
437.69	35.356
438.04	35.301
438.39	34.925
438.75	34.980
439.10	33.911
439.45	34.416
439.81	35.287
440.16	35.291
440.51	35.208
440.86	35.843
441.22	34.650
441.57	35.828
441.92	35.107
442.27	35.091
442.63	34.123
442.98	35.493
443.33	33.859
443.68	35.570
444.03	34.651
444.39	34.177
444.74	35.335
445.09	34.933
445.44	34.664
445.79	34.438
446.15	34.092
446.50	34.949
446.85	34.687
447.20	33.809
447.55	34.673
447.91	34.639
448.26	34.168
448.61	35.048
448.96	35.493
449.31	35.883
449.66	33.596
450.02	34.373
450.37	34.354
450.72	34.743
451.07	34.796
451.42	33.739
451.77	35.173
452.12	34.815
452.47	34.328
452.83	34.790
453.18	33.802
453.53	35.869
453.88	34.377
454.23	34.071
454.58	34.888
454.93	35.474
455.28	33.978
455.63	34.648
455.98	35.060
456.34	34.611
456.69	34.189
457.04	35.046
457.39	33.665
457.74	34.010
458.09	33.583
458.44	33.808
458.79	33.731
459.14	33.973
459.49	34.501
459.84	33.684
460.19	33.353
460.54	33.623
460.89	33.516
461.24	34.730
461.59	34.805
461.94	33.107
462.29	34.243
462.64	33.184
462.99	34.157
463.34	34.600
463.69	33.959
464.04	32.928
464.39	33.159
464.74	32.620
465.09	32.931
465.44	32.909
465.79	31.991
466.14	31.308
466.49	31.924
466.84	32.925
467.19	33.193
467.54	32.688
467.89	31.873
468.24	32.403
468.59	32.845
468.94	32.071
469.29	31.105
469.64	33.400
469.99	33.153
470.34	32.166
470.68	32.974
471.03	32.177
471.38	32.662
471.73	32.712
472.08	32.829
472.43	31.281
472.78	31.863
473.13	32.221
473.48	32.022
473.83	32.561
474.17	31.798
474.52	31.886
474.87	30.823
475.22	30.876
475.57	31.596
475.92	29.740
476.27	30.722
476.61	30.392
476.96	31.061
477.31	30.194
477.66	31.291
478.01	30.633
478.36	30.460
478.70	30.166
479.05	29.393
479.40	29.939
479.75	30.554
480.10	29.821
480.45	29.986
480.79	29.049
481.14	30.284
481.49	30.043
481.84	28.761
482.19	29.487
482.53	29.404
482.88	29.083
483.23	29.393
483.58	29.936
483.92	29.756
484.27	27.712
484.62	28.793
484.97	29.050
485.31	28.425
485.66	27.114
486.01	26.271
486.36	25.443
486.70	25.146
487.05	26.049
487.40	27.145
487.75	27.163
488.09	27.601
488.44	27.685
488.79	29.042
489.13	28.915
489.48	28.507
489.83	28.054
490.17	27.839
490.52	27.724
490.87	28.132
491.22	27.558
491.56	26.560
491.91	27.687
492.26	26.412
492.60	27.742
492.95	26.988
493.30	27.757
493.64	26.552
493.99	26.834
494.34	26.411
494.68	27.793
495.03	26.974
495.37	26.850
495.72	26.803
496.07	26.775
496.41	25.796
496.76	26.957
497.11	26.610
497.45	26.875
497.80	26.248
498.14	26.184
498.49	26.829
498.84	27.085
499.18	26.619
499.53	25.878
499.87	26.142
500.22	26.189
500.56	26.990
500.91	26.298
501.26	25.699
501.60	27.385
501.95	25.527
502.29	25.961
502.64	26.257
502.98	25.199
503.33	25.274
503.67	25.476
504.02	25.210
504.36	25.082
504.71	24.915
505.06	24.964
505.40	25.036
505.75	25.217
506.09	25.364
506.44	25.456
506.78	24.744
507.13	25.997
507.47	25.354
507.82	25.887
508.16	25.481
508.51	25.571
508.85	24.975
509.19	24.745
509.54	25.051
509.88	24.987
510.23	24.679
510.57	24.200
510.92	24.806
511.26	25.642
511.61	25.207
511.95	24.582
512.30	24.231
512.64	25.631
512.98	25.027
513.33	25.268
513.67	24.546
514.02	24.080
514.36	24.959
514.70	24.405
515.05	23.536
515.39	24.004
515.74	24.212
516.08	25.098
516.42	24.584
516.77	24.749
517.11	23.141
517.46	24.718
517.80	24.739
518.14	23.451
518.49	23.862
518.83	23.466
519.17	25.000
519.52	24.505
519.86	22.761
520.20	23.873
520.55	23.938
520.89	24.635
521.23	24.729
521.58	23.529
521.92	25.291
522.26	23.063
522.61	23.178
522.95	24.002
523.29	24.163
523.64	24.390
523.98	23.537
524.32	23.643
524.66	24.293
525.01	24.326
525.35	23.544
525.69	23.830
526.04	23.302
526.38	23.368
526.72	23.067
527.06	23.792
527.41	21.535
527.75	22.830
528.09	23.057
528.43	23.199
528.78	22.926
529.12	22.909
529.46	23.270
529.80	22.958
530.15	23.489
530.49	22.708
530.83	23.418
531.17	23.172
531.51	24.449
531.86	22.839
532.20	23.990
532.54	23.254
532.88	23.877
533.22	21.237
533.57	22.901
533.91	22.276
534.25	22.600
534.59	23.063
534.93	22.070
535.27	21.786
535.62	22.283
535.96	22.285
536.30	21.615
536.64	23.117
536.98	22.960
537.32	21.856
537.66	22.733
538.01	22.186
538.35	22.689
538.69	23.101
539.03	21.442
539.37	22.236
539.71	21.322
540.05	23.137
540.39	21.794
540.73	20.699
541.07	22.128
541.42	22.179
541.76	22.452
542.10	23.027
542.44	21.391
542.78	22.332
543.12	20.537
543.46	22.164
543.80	21.926
544.14	21.887
544.48	22.286
544.82	21.167
545.16	21.145
545.50	21.530
545.84	20.968
546.18	21.481
546.52	21.748
546.86	21.168
547.20	21.915
547.54	20.975
547.88	22.066
548.22	21.046
548.56	21.698
548.90	19.846
549.24	20.471
549.58	20.737
549.92	20.879
550.26	22.443
550.60	20.954
550.94	20.634
551.28	20.044
551.62	21.711
551.96	20.421
552.30	21.024
552.64	20.960
552.98	20.678
553.32	21.241
553.66	22.018
554.00	20.590
554.34	21.118
554.68	21.030
555.02	20.663
555.36	21.086
555.69	20.365
556.03	20.929
556.37	20.464
556.71	19.782
557.05	19.748
557.39	20.994
557.73	20.113
558.07	20.232
558.41	20.695
558.75	20.647
559.08	21.327
559.42	21.240
559.76	19.926
560.10	19.415
560.44	20.056
560.78	19.960
561.12	20.515
561.45	20.274
561.79	20.237
562.13	19.987
562.47	20.355
562.81	20.432
563.15	20.201
563.48	20.424
563.82	20.352
564.16	19.686
564.50	19.336
564.84	19.912
565.17	18.919
565.51	19.489
565.85	19.099
566.19	18.973
566.52	19.379
566.86	18.264
567.20	19.752
567.54	19.064
567.88	17.925
568.21	18.519
568.55	18.453
568.89	17.996
569.23	17.647
569.56	17.571
569.90	17.283
570.24	16.756
570.57	17.171
570.91	16.613
571.25	16.646
571.59	16.613
571.92	16.763
572.26	16.320
572.60	17.057
572.93	16.942
573.27	16.770
573.61	16.806
573.95	16.589
574.28	16.533
574.62	16.132
574.96	15.890
575.29	16.125
575.63	16.133
575.97	16.142
576.30	16.649
576.64	16.098
576.98	16.067
577.31	16.312
577.65	16.091
577.98	15.541
578.32	15.528
578.66	15.597
578.99	15.864
579.33	16.316
579.67	15.957
580.00	15.824
580.34	16.232
580.67	16.025
581.01	15.966
581.35	15.586
581.68	15.399
582.02	15.130
582.35	15.570
582.69	15.672
583.02	15.484
583.36	15.587
583.70	16.259
584.03	15.752
584.37	16.416
584.70	16.014
585.04	16.120
585.37	15.727
585.71	16.001
586.04	15.753
586.38	16.432
586.72	16.377
587.05	15.403
587.39	15.251
587.72	16.053
588.06	15.795
588.39	15.940
588.73	15.928
589.06	15.893
589.40	16.599
589.73	16.227
590.07	16.406
590.40	16.259
590.73	17.096
591.07	16.850
591.40	16.786
591.74	16.753
592.07	16.230
592.41	16.660
592.74	16.554
593.08	15.956
593.41	15.470
593.75	15.116
594.08	15.387
594.41	15.942
594.75	16.414
595.08	15.999
595.42	16.217
595.75	15.705
596.09	15.884
596.42	16.699
596.75	15.956
597.09	16.753
597.42	15.641
597.75	16.473
598.09	16.783
598.42	15.722
598.76	16.214
599.09	15.203
599.42	15.284
599.76	15.813
600.09	15.373
600.42	15.778
600.76	15.250
601.09	15.228
601.42	16.134
601.76	16.129
602.09	15.929
602.42	16.322
602.76	16.042
603.09	15.342
603.42	15.931
603.76	15.854
604.09	15.471
604.42	15.573
604.76	17.039
605.09	15.902
605.42	16.075
605.75	15.853
606.09	15.047
606.42	15.979
606.75	15.637
607.09	15.823
607.42	15.576
607.75	15.907
608.08	15.024
608.42	16.136
608.75	16.637
609.08	16.004
609.41	15.945
609.75	15.722
610.08	16.400
610.41	15.503
610.74	15.468
611.07	16.206
611.41	16.389
611.74	16.591
612.07	16.356
612.40	16.999
612.73	16.737
613.07	16.649
613.40	16.061
613.73	15.889
614.06	16.452
614.39	15.574
614.72	16.316
615.06	16.439
615.39	15.658
615.72	15.900
616.05	16.427
616.38	16.231
616.71	16.805
617.05	16.726
617.38	16.897
617.71	17.057
618.04	17.188
618.37	16.440
618.70	17.299
619.03	17.039
619.36	17.108
619.69	16.831
620.03	17.651
620.36	17.380
620.69	16.918
621.02	17.330
621.35	17.541
621.68	16.511
622.01	17.337
622.34	18.154
622.67	17.795
623.00	16.141
623.33	16.369
623.66	16.440
623.99	16.863
624.32	17.190
624.65	17.655
624.99	15.864
625.32	16.727
625.65	16.679
625.98	17.371
626.31	17.885
626.64	17.551
626.97	17.706
627.30	16.708
627.63	17.309
627.96	17.914
628.29	17.848
628.62	18.756
628.95	19.057
629.28	18.978
629.61	18.607
629.94	19.333
630.26	17.636
630.59	17.827
630.92	17.625
631.25	17.966
631.58	17.918
631.91	17.748
632.24	17.616
632.57	18.888
632.90	19.189
633.23	17.338
633.56	20.113
633.89	18.913
634.22	18.729
634.55	20.237
634.88	18.683
635.20	21.147
635.53	19.036
635.86	20.173
636.19	18.824
636.52	18.685
636.85	18.213
637.18	19.355
637.51	19.031
637.83	17.879
638.16	20.460
638.49	19.647
638.82	20.354
639.15	18.125
639.48	20.823
639.81	20.241
640.13	19.531
640.46	20.403
640.79	20.476
641.12	18.294
641.45	19.693
641.77	19.293
642.10	19.883
642.43	19.069
642.76	20.588
643.09	21.472
643.41	19.727
643.74	22.068
644.07	21.646
644.40	22.086
644.73	21.732
645.05	22.187
645.38	21.327
645.71	21.095
646.04	23.090
646.36	22.371
646.69	21.906
647.02	22.789
647.35	22.509
647.67	23.009
648.00	22.114
648.33	20.462
648.66	21.061
648.98	22.939
649.31	19.283
649.64	21.525
649.96	20.119
650.29	21.643
650.62	21.359
650.94	21.718
651.27	20.777
651.60	22.463
651.92	22.045
652.25	20.521
652.58	21.807
652.90	21.169
653.23	19.260
653.56	19.370
653.88	19.968
654.21	23.065
654.54	19.802
654.86	20.093
655.19	18.649
655.52	12.373
655.84	10.509
656.17	13.051
656.49	17.785
656.82	18.749
657.15	14.417
657.47	10.735
657.80	8.415
658.13	8.795
658.45	13.735
658.78	13.903
659.10	14.958
659.43	15.861
659.75	16.168
660.08	18.101
660.41	20.112
660.73	21.220
661.06	21.815
661.38	23.818
661.71	24.423
662.03	23.866
662.36	21.074
662.68	23.293
663.01	21.414
663.33	21.656
663.66	22.479
663.98	24.190
664.31	22.689
664.63	20.648
664.96	18.913
665.28	22.131
665.61	23.587
665.93	20.926
666.26	23.732
666.58	22.385
666.91	23.890
667.23	25.169
667.56	21.598
667.88	23.291
668.21	26.866
668.53	22.993
668.86	22.078
669.18	25.373
669.50	24.783
669.83	27.451
670.15	25.111
670.48	22.658
670.80	24.784
671.13	23.779
671.45	22.340
671.77	23.218
672.10	20.518
672.42	21.378
672.75	20.896
673.07	18.486
673.39	20.434
673.72	22.461
674.04	22.549
674.37	21.942
674.69	20.450
675.01	22.176
675.34	22.382
675.66	24.211
675.98	23.625
676.31	23.319
676.63	23.355
676.95	23.899
677.28	22.196
677.60	22.637
677.92	23.207
678.25	23.409
678.57	23.506
678.89	21.443
679.22	20.236
679.54	21.183
679.86	21.835
680.18	23.792
680.51	20.035
680.83	23.488
681.15	22.264
681.48	23.062
681.80	21.277
682.12	19.923
682.44	20.116
682.77	21.181
683.09	27.468
683.41	24.612
683.73	21.854
684.06	24.793
684.38	21.135
684.70	21.512
685.02	23.077
685.34	20.879
685.67	19.755
685.99	20.103
686.31	19.966
686.63	18.905
686.96	21.786
687.28	23.827
687.60	19.928
687.92	22.486
688.24	21.863
688.56	24.498
688.89	23.444
689.21	23.581
689.53	22.129
689.85	25.055
690.17	21.118
690.49	23.779
690.82	23.364
691.14	23.884
691.46	21.097
691.78	23.293
692.10	24.380
692.42	22.355
692.74	21.992
693.06	22.766
693.39	22.587
693.71	22.926
694.03	23.579
694.35	20.563
694.67	22.197
694.99	25.854
695.31	25.000
695.63	22.488
695.95	24.205
696.27	19.797
696.59	24.352
696.91	25.130
697.23	19.718
697.56	25.160
697.88	20.859
698.20	20.000
698.52	22.796
698.84	21.826
699.16	21.429
699.48	21.615
699.80	25.121
700.12	28.571
700.44	24.934
700.76	24.309
701.08	28.448
701.40	24.860
701.72	28.863
702.04	32.102
702.36	22.096
702.68	26.912
703.00	23.823
703.32	25.266
703.64	23.324
703.96	27.855
704.28	27.035
704.60	30.499
704.91	28.783
705.23	29.032
705.55	26.910
705.87	30.565
706.19	30.389
706.51	23.364
706.83	30.606
707.15	26.891
707.47	25.505
707.79	24.570
708.11	24.658
708.43	22.143
708.74	23.469
709.06	26.234
709.38	28.084
709.70	30.814
710.02	27.003
710.34	26.667
710.66	25.672
710.98	28.977
711.29	27.616
711.61	30.383
711.93	26.923
712.25	30.225
712.57	27.574
712.89	27.336
713.20	25.228
713.52	29.934
713.84	26.582
714.16	26.524
714.48	25.862
714.80	29.787
715.11	26.801
715.43	26.409
715.75	27.536
716.07	24.601
716.39	26.646
716.70	30.565
717.02	33.453
717.34	28.622
717.66	35.448
717.97	33.865
718.29	30.741
718.61	32.117
718.93	32.353
719.24	31.142
719.56	28.136
719.88	32.881
720.20	33.108
720.51	28.920
720.83	27.509
721.15	27.612
721.46	34.752
721.78	28.674
722.10	31.321
722.42	32.707
722.73	31.086
723.05	29.098
723.37	30.769
723.68	33.977
724.00	33.740
724.32	34.274
724.63	26.016
724.95	31.381
725.27	34.413
725.58	32.813
725.90	29.927
726.22	30.566
726.53	27.778
726.85	32.765
727.16	29.181
727.48	26.241
727.80	34.848
728.11	29.710
728.43	30.769
728.74	27.957
729.06	35.036
729.38	33.456
729.69	31.673
730.01	25.256
730.32	29.514
730.64	28.094
730.96	27.723
731.27	30.795
731.59	28.746
731.90	27.405
732.22	27.019
732.53	26.625
732.85	28.205
733.16	27.010
733.48	25.249
733.80	25.000
734.11	29.299
734.43	28.107
734.74	24.000
735.06	23.496
735.37	28.613
735.69	26.433
736.00	27.451
736.32	28.660
736.63	27.796
736.95	28.115
737.26	26.190
737.58	24.839
737.89	27.425
738.21	30.375
738.52	28.571
738.83	27.547
739.15	29.231
739.46	32.482
739.78	30.903
740.09	27.692
740.41	26.452
740.72	24.739
741.04	31.852
741.35	30.833
741.66	35.556
741.98	32.547
742.29	36.842
742.61	40.086
742.92	34.842
743.23	32.051
743.55	27.200
743.86	33.333
744.18	37.611
744.49	31.100
744.80	36.150
745.12	36.364
745.43	37.004
745.74	34.234
746.06	38.073
746.37	35.874
746.68	35.294
747.00	37.963
747.31	37.143
747.62	33.628
747.94	31.278
748.25	28.511
748.56	39.207
748.88	40.099
749.19	38.000
749.50	39.070
749.82	29.675
750.13	32.245
750.44	28.102
750.75	31.228
751.07	33.441
751.38	30.662
751.69	29.603
752.01	28.947
752.32	32.852
752.63	29.078
752.94	30.328
753.26	34.800
753.57	25.610
753.88	31.250
754.19	28.571
754.51	30.903
754.82	26.715
755.13	33.585
755.44	28.195
755.75	26.277
756.07	28.014
756.38	21.898
756.69	29.866
757.00	26.946
757.31	23.442
757.63	25.439
757.94	25.469
758.25	21.078
758.56	22.222
758.87	23.118
759.18	26.061
759.50	26.646
759.81	30.530
760.12	23.750
760.43	30.372
760.74	23.913
761.05	27.684
761.36	24.064
761.67	27.273
761.99	25.466
762.30	26.389
762.61	28.626
762.92	32.031
763.23	36.975
763.54	34.400
763.85	27.344
764.16	31.154
764.47	31.179
764.78	25.795
765.10	23.418
765.41	26.844
765.72	27.844
766.03	28.213
766.34	27.667
766.65	32.340
766.96	34.188
767.27	36.548
767.58	30.729
767.89	42.105
768.20	44.253
768.51	39.086
768.82	39.908
769.13	30.894
769.44	30.364
769.75	31.760
770.06	30.275
770.37	38.914
770.68	30.556
770.99	30.222
771.30	32.377
771.61	34.529
771.92	32.787
772.23	32.773
772.54	36.410
772.85	40.314
773.16	38.830
773.47	38.587
773.78	41.624
774.09	36.905
774.39	42.690
774.70	42.593
775.01	52.899
775.32	54.248
775.63	48.684
775.94	43.885
776.25	54.331
776.56	47.015
776.87	56.557
777.18	57.031
777.48	58.779
777.79	53.030
778.10	44.444
778.41	50.000
778.72	46.715
779.03	51.007
779.34	44.966
779.65	45.270
779.95	41.104
780.26	42.484
780.57	52.414
780.88	50.781
781.19	57.895
781.50	51.351
781.80	45.283
782.11	36.723
782.42	35.443
782.73	42.945
783.04	47.973
783.34	52.113
783.65	51.370
783.96	53.731
784.27	45.455
784.57	42.446
784.88	44.444
785.19	56.349
785.50	56.604
785.81	58.955
786.11	62.295
786.42	53.488
786.73	52.212
787.04	59.434
787.34	53.571
787.65	62.000
787.96	54.955
788.26	52.893
788.57	55.085
788.88	59.504
789.19	47.917
789.49	56.818
789.80	50.382
790.11	68.571
790.41	70.297
790.72	63.855
791.03	58.696
791.33	68.605
791.64	60.825
791.95	69.307
792.25	68.889
792.56	84.416
792.87	89.744
793.17	86.076
793.48	68.966
793.79	81.609
794.09	80.682
794.40	57.143
794.70	58.824
795.01	42.222
795.32	55.396
795.62	61.417
795.93	55.172
796.23	68.142
796.54	68.235
796.85	74.324
797.15	74.648
797.46	66.667
797.76	84.337
798.07	82.278
798.37	69.231
798.68	87.879
798.99	56.338
799.29	81.818
799.60	70.455
799.90	78.082
800.21	100.000
800.51	94.828
800.82	96.491
801.12	80.328
801.43	96.970
801.73	81.081
802.04	101.587
802.34	80.247
802.65	100.000
802.95	89.831
803.26	100.000
803.56	80.000
803.87	87.692
804.17	94.118
804.48	114.815
804.78	98.276
805.09	73.529
805.39	117.308
805.70	110.714
806.00	93.443
806.30	86.364
806.61	92.683
806.91	74.684
807.22	71.053
807.52	82.090
807.83	84.507
808.13	92.188
808.43	70.000
808.74	67.105
809.04	86.957
809.35	88.060
809.65	92.105
809.95	112.903
810.26	106.780
810.56	90.476
810.86	138.636
811.17	135.714
811.47	115.000
811.77	109.259
812.08	120.000
812.38	126.000
812.69	161.111
812.99	154.545
813.29	116.327
813.59	119.048
813.90	132.653
814.20	120.000
814.50	69.231
814.81	102.941
815.11	108.163
815.41	100.000
815.72	152.381
816.02	103.636
816.32	128.571
816.62	115.000
816.93	112.195
817.23	145.238
817.53	109.091
817.84	169.697
818.14	132.609
818.44	122.222
818.74	150.000
819.04	117.500
819.35	122.857
819.65	208.824
819.95	178.571
820.25	205.000
820.56	135.897
820.86	150.000
821.16	172.093
821.46	141.026
821.76	116.000
822.07	165.714
822.37	147.500
822.67	160.606
822.97	82.353
823.27	203.571
823.57	170.270
823.88	162.500
824.18	183.333
824.48	169.048
824.78	192.000
825.08	200.000
825.38	159.459
825.69	129.268
825.99	170.833
826.29	186.207
826.59	139.474
826.89	178.947
827.19	167.647
827.49	206.452
827.79	131.818
828.09	140.909
828.39	125.532
828.70	146.939
829.00	166.667
829.30	167.742
829.60	170.000
829.90	340.000
830.20	178.571
830.50	213.043
830.80	252.174
831.10	183.333
831.40	186.667
831.70	226.087
832.00	234.615
832.30	196.296
832.60	243.750
832.90	213.333
833.20	400.000
833.50	187.097
833.80	196.552
834.10	162.500
834.40	207.692
834.70	333.333
835.00	295.238
835.30	151.429
835.60	361.538
835.90	200.000
836.20	328.571
836.50	179.310
836.80	196.000
837.10	183.333
837.40	276.190
837.70	294.118
838.00	240.741
838.30	219.048
838.60	290.476
838.90	242.308
839.19	295.000
839.49	435.714
839.79	325.000
840.09	270.000
840.39	261.905
840.69	256.522
840.99	222.222
841.29	510.000
841.59	333.333
841.88	300.000
842.18	196.552
842.48	242.857
842.78	180.000
843.08	247.826
843.38	203.125
843.68	850.000
843.97	242.308
844.27	186.207
844.57	300.000
844.87	381.250
845.17	251.852
845.47	1566.667
845.76	422.222
846.06	323.529
846.36	587.500
846.66	421.429
846.96	312.500
847.25	490.909
847.55	472.727
847.85	265.217
848.15	550.000
848.44	350.000
848.74	305.556
849.04	317.647
849.34	570.000
849.63	231.579
849.93	436.364
850.23	1120.000
850.53	435.714
850.82	2250.000
851.12	-4200.000
851.42	5400.000
851.71	315.000
852.01	-1466.667
852.31	229.167
852.61	1800.000
852.90	290.476
853.20	252.000
853.50	329.412
853.79	238.095
854.09	208.333
854.39	331.250
854.68	191.892
854.98	190.323
855.28	193.333
855.57	206.897
855.87	207.407
856.17	284.211
856.46	326.667
856.76	264.706
857.05	182.759
857.35	187.500
857.65	286.667
857.94	256.522
858.24	280.769
858.53	285.000
858.83	245.455
859.13	346.667
859.42	0.000
859.72	655.556
860.01	463.636
860.31	281.818
860.60	336.842
860.90	213.043
861.20	633.333
861.49	525.000
861.79	-4900.000
862.08	575.000
862.38	266.667
862.67	353.846
862.97	435.294
863.26	611.111
863.56	338.889
863.85	391.667
864.15	662.500
864.44	386.667
864.74	933.333
865.03	612.500
865.33	321.053
865.62	509.091
865.92	392.308
866.21	383.333
866.51	0.000
866.80	445.455
867.10	1300.000
867.39	446.154
867.69	463.636
867.98	310.526
868.27	500.000
868.57	310.526
868.86	-4800.000
869.16	287.500
869.45	2200.000
869.75	-4900.000
870.04	416.667
870.33	771.429
870.63	1075.000
870.92	2700.000
871.22	857.143
871.51	335.294
871.80	238.095
872.10	407.143
>>>>>End Processed Spectral Data<<<<<
