SpectraSuite Data File
++++++++++++++++++++++++++++++++++++
Date: Wed May 13 19:25:20 PDT 2015
User: schluterlab
Dark Spectrum Present: Yes
Reference Spectrum Present: Yes
Number of Sampled Component Spectra: 1
Spectrometers: USB2E3373
Integration Time (usec): 3000 (USB2E3373)
Spectra Averaged: 3 (USB2E3373)
Boxcar Smoothing: 0 (USB2E3373)
Correct for Electrical Dark: No (USB2E3373)
Strobe/Lamp Enabled: No (USB2E3373)
Correct for Detector Non-linearity: No (USB2E3373)
Correct for Stray Light: No (USB2E3373)
Number of Pixels in Processed Spectrum: 2048
>>>>>Begin Processed Spectral Data<<<<<
178.53	0.000
178.91	-1400.000
179.29	-1400.000
179.67	-283.333
180.04	-1225.000
180.42	2800.000
180.80	1100.000
181.18	-850.000
181.56	642.857
181.94	0.000
182.31	-757.143
182.69	1833.333
183.07	-550.000
183.45	-500.000
183.83	554.545
184.20	-440.000
184.58	1850.000
184.96	5400.000
185.34	-880.000
185.72	-575.000
186.09	-2650.000
186.47	2800.000
186.85	2750.000
187.23	5900.000
187.61	-1500.000
187.98	1575.000
188.36	554.545
188.74	472.727
189.12	-1140.000
189.49	530.000
189.87	-5100.000
190.25	-1000.000
190.63	450.000
191.00	546.154
191.38	833.333
191.76	-1425.000
192.14	1425.000
192.51	712.500
192.89	883.333
193.27	650.000
193.65	-1250.000
194.02	460.000
194.40	1040.000
194.78	580.000
195.15	558.333
195.53	650.000
195.91	-2300.000
196.29	425.000
196.66	326.316
197.04	-420.000
197.42	0.000
197.79	660.000
198.17	-5500.000
198.55	714.286
198.92	762.500
199.30	1040.000
199.68	0.000
200.05	322.222
200.43	628.571
200.81	4600.000
201.18	1966.667
201.56	-1733.333
201.94	722.222
202.31	622.222
202.69	516.667
203.07	630.000
203.44	0.000
203.82	1100.000
204.19	685.714
204.57	450.000
204.95	750.000
205.32	1800.000
205.70	536.364
206.08	407.143
206.45	3150.000
206.83	362.500
207.20	966.667
207.58	960.000
207.96	305.556
208.33	812.500
208.71	-950.000
209.08	857.143
209.46	666.667
209.84	390.909
210.21	-1466.667
210.59	1700.000
210.96	-662.500
211.34	2450.000
211.71	590.000
212.09	866.667
212.46	0.000
212.84	1733.333
213.22	1100.000
213.59	-4600.000
213.97	866.667
214.34	885.714
214.72	645.455
215.09	880.000
215.47	-2700.000
215.84	-3000.000
216.22	2100.000
216.59	421.429
216.97	1450.000
217.34	545.455
217.72	-816.667
218.09	0.000
218.47	-5600.000
218.84	611.111
219.22	871.429
219.59	1733.333
219.97	-585.714
220.34	1000.000
220.72	-1966.667
221.09	450.000
221.47	1575.000
221.84	-1033.333
222.22	0.000
222.59	1500.000
222.97	-2650.000
223.34	1180.000
223.72	507.692
224.09	1060.000
224.46	2850.000
224.84	-4700.000
225.21	-1020.000
225.59	-4600.000
225.96	680.000
226.34	345.000
226.71	2550.000
227.08	650.000
227.46	520.000
227.83	-1075.000
228.21	-2300.000
228.58	722.222
228.95	-1950.000
229.33	-2300.000
229.70	1866.667
230.08	800.000
230.45	-880.000
230.82	433.333
231.20	850.000
231.57	685.714
231.95	541.667
232.32	277.273
232.69	481.818
233.07	785.714
233.44	384.615
233.81	-1700.000
234.19	289.474
234.56	500.000
234.93	408.333
235.31	518.182
235.68	376.923
236.05	350.000
236.43	130.303
236.80	284.211
237.17	4700.000
237.55	219.048
237.92	228.571
238.29	209.524
238.67	151.613
239.04	231.034
239.41	141.667
239.79	117.391
240.16	154.762
240.53	138.636
240.91	100.000
241.28	108.000
241.65	116.000
242.02	73.913
242.40	87.097
242.77	80.000
243.14	74.194
243.51	74.157
243.89	60.000
244.26	56.667
244.63	51.613
245.00	46.809
245.38	52.475
245.75	57.009
246.12	48.624
246.49	51.095
246.87	51.200
247.24	47.692
247.61	45.000
247.98	41.830
248.36	31.757
248.73	36.943
249.10	40.127
249.47	40.113
249.84	39.037
250.22	29.947
250.59	33.136
250.96	32.828
251.33	37.441
251.70	31.188
252.08	31.905
252.45	28.700
252.82	24.783
253.19	27.660
253.56	27.451
253.94	28.216
254.31	24.219
254.68	28.462
255.05	29.520
255.42	22.764
255.79	25.000
256.16	24.188
256.54	22.968
256.91	24.911
257.28	17.986
257.65	20.462
258.02	22.050
258.39	21.767
258.76	23.077
259.14	20.833
259.51	24.316
259.88	18.012
260.25	25.076
260.62	19.942
260.99	22.360
261.36	18.619
261.73	16.905
262.10	16.570
262.47	20.563
262.85	18.942
263.22	16.524
263.59	21.368
263.96	18.407
264.33	18.538
264.70	13.947
265.07	16.624
265.44	17.424
265.81	15.815
266.18	17.588
266.55	15.366
266.92	17.199
267.29	19.676
267.66	16.743
268.03	16.591
268.40	17.290
268.77	15.752
269.14	15.315
269.51	14.221
269.88	17.483
270.25	15.350
270.62	15.281
270.99	18.495
271.36	17.382
271.73	14.252
272.10	16.522
272.47	15.269
272.84	14.935
273.21	16.143
273.58	14.847
273.95	14.256
274.32	14.669
274.69	13.704
275.06	13.386
275.43	16.170
275.80	13.627
276.17	13.646
276.54	15.593
276.91	14.822
277.28	14.453
277.65	17.021
278.02	13.665
278.39	12.305
278.76	14.909
279.13	13.208
279.50	15.084
279.87	15.538
280.23	14.770
280.60	12.959
280.97	11.645
281.34	14.513
281.71	14.182
282.08	14.395
282.45	14.000
282.82	13.854
283.19	12.299
283.56	14.035
283.92	14.890
284.29	13.933
284.66	15.064
285.03	11.754
285.40	11.092
285.77	13.805
286.14	12.608
286.51	13.500
286.87	12.479
287.24	13.355
287.61	11.557
287.98	12.825
288.35	12.044
288.72	12.928
289.08	14.085
289.45	12.850
289.82	13.984
290.19	10.518
290.56	11.945
290.93	10.423
291.29	11.350
291.66	11.357
292.03	13.372
292.40	12.335
292.77	11.391
293.13	12.537
293.50	11.953
293.87	12.889
294.24	9.778
294.60	10.335
294.97	10.320
295.34	12.412
295.71	10.369
296.08	12.251
296.44	11.004
296.81	10.832
297.18	12.737
297.55	8.575
297.91	10.686
298.28	11.647
298.65	10.705
299.02	10.145
299.38	9.827
299.75	7.412
300.12	9.834
300.48	10.625
300.85	9.864
301.22	10.191
301.59	8.081
301.95	9.194
302.32	9.756
302.69	9.319
303.05	10.061
303.42	9.259
303.79	10.079
304.15	7.576
304.52	10.313
304.89	8.827
305.25	9.745
305.62	9.966
305.99	10.626
306.35	8.837
306.72	9.865
307.09	10.988
307.45	10.473
307.82	9.040
308.19	10.155
308.55	11.327
308.92	8.700
309.29	8.553
309.65	9.120
310.02	11.522
310.38	9.570
310.75	8.976
311.12	9.724
311.48	9.091
311.85	10.063
312.22	9.365
312.58	9.875
312.95	9.293
313.31	9.029
313.68	10.291
314.05	11.144
314.41	10.653
314.78	9.466
315.14	9.831
315.51	10.299
315.87	10.396
316.24	9.335
316.61	9.259
316.97	9.980
317.34	8.121
317.70	9.847
318.07	9.240
318.43	10.665
318.80	10.684
319.16	10.546
319.53	9.475
319.89	10.857
320.26	11.500
320.62	10.020
320.99	10.606
321.35	10.101
321.72	11.602
322.08	10.464
322.45	12.139
322.81	11.337
323.18	11.175
323.54	12.245
323.91	12.264
324.27	10.516
324.64	9.040
325.00	10.821
325.37	11.010
325.73	10.233
326.10	10.238
326.46	9.857
326.83	10.871
327.19	9.991
327.56	10.366
327.92	11.024
328.29	11.624
328.65	11.326
329.01	10.289
329.38	10.268
329.74	11.265
330.11	9.708
330.47	11.111
330.84	10.662
331.20	10.838
331.56	11.101
331.93	10.093
332.29	10.825
332.66	11.858
333.02	11.426
333.38	11.743
333.75	12.210
334.11	10.587
334.48	11.269
334.84	11.581
335.20	11.909
335.57	9.882
335.93	9.732
336.29	9.799
336.66	10.099
337.02	10.679
337.38	10.278
337.75	9.715
338.11	10.564
338.47	9.208
338.84	10.632
339.20	10.459
339.56	11.861
339.93	10.273
340.29	10.598
340.65	9.982
341.02	10.471
341.38	11.032
341.74	9.912
342.11	10.480
342.47	10.925
342.83	10.017
343.20	11.169
343.56	10.362
343.92	9.035
344.28	10.034
344.65	11.522
345.01	9.428
345.37	9.691
345.73	10.745
346.10	10.486
346.46	10.339
346.82	10.297
347.19	9.524
347.55	11.002
347.91	10.356
348.27	10.764
348.63	10.619
349.00	10.518
349.36	10.509
349.72	10.425
350.08	9.806
350.45	10.171
350.81	10.885
351.17	10.211
351.53	10.238
351.89	9.571
352.26	10.418
352.62	10.585
352.98	9.968
353.34	10.107
353.70	9.738
354.07	10.726
354.43	9.524
354.79	10.137
355.15	9.657
355.51	10.951
355.87	10.367
356.24	10.668
356.60	10.184
356.96	10.056
357.32	9.648
357.68	10.472
358.04	10.372
358.40	10.768
358.77	9.937
359.13	9.550
359.49	10.196
359.85	8.095
360.21	8.692
360.57	10.506
360.93	10.692
361.29	9.902
361.66	9.520
362.02	11.269
362.38	10.190
362.74	9.524
363.10	8.882
363.46	8.217
363.82	10.128
364.18	9.104
364.54	9.955
364.90	9.632
365.26	9.044
365.62	10.446
365.98	9.058
366.35	8.166
366.71	9.689
367.07	9.614
367.43	9.507
367.79	9.921
368.15	10.632
368.51	9.448
368.87	9.993
369.23	9.217
369.59	10.572
369.95	8.897
370.31	10.328
370.67	9.638
371.03	10.112
371.39	10.204
371.75	9.853
372.11	9.815
372.47	9.604
372.83	10.375
373.19	9.249
373.55	10.052
373.91	10.751
374.27	10.515
374.63	8.945
374.99	9.887
375.35	9.002
375.71	9.870
376.07	10.014
376.42	9.010
376.78	9.940
377.14	10.041
377.50	9.404
377.86	9.641
378.22	10.051
378.58	8.835
378.94	8.988
379.30	8.842
379.66	9.708
380.02	9.337
380.38	8.986
380.74	9.664
381.09	10.269
381.45	9.711
381.81	10.135
382.17	9.554
382.53	8.742
382.89	9.074
383.25	9.631
383.61	9.542
383.97	9.819
384.32	9.607
384.68	8.922
385.04	10.018
385.40	9.536
385.76	9.951
386.12	9.391
386.48	10.321
386.83	9.493
387.19	9.957
387.55	9.400
387.91	9.613
388.27	9.687
388.62	10.080
388.98	9.337
389.34	10.200
389.70	9.994
390.06	10.203
390.42	10.441
390.77	11.069
391.13	10.083
391.49	10.660
391.85	9.930
392.20	9.779
392.56	9.533
392.92	9.653
393.28	8.639
393.64	9.892
393.99	10.263
394.35	9.864
394.71	9.912
395.07	10.156
395.42	10.136
395.78	10.878
396.14	10.366
396.50	10.777
396.85	10.553
397.21	10.049
397.57	10.415
397.92	11.058
398.28	8.800
398.64	10.753
399.00	9.961
399.35	9.306
399.71	10.590
400.07	10.704
400.42	10.061
400.78	10.856
401.14	9.817
401.49	10.746
401.85	10.284
402.21	9.880
402.57	9.747
402.92	10.719
403.28	10.743
403.63	10.210
403.99	10.382
404.35	10.606
404.70	10.432
405.06	10.250
405.42	10.480
405.77	9.771
406.13	10.384
406.49	10.112
406.84	10.514
407.20	9.752
407.55	10.402
407.91	11.267
408.27	10.466
408.62	11.318
408.98	11.152
409.34	10.086
409.69	10.645
410.05	10.223
410.40	10.948
410.76	10.215
411.11	11.037
411.47	10.479
411.83	10.996
412.18	10.019
412.54	11.208
412.89	11.265
413.25	11.688
413.60	11.921
413.96	10.747
414.31	11.179
414.67	11.027
415.03	11.457
415.38	11.598
415.74	11.511
416.09	10.973
416.45	11.178
416.80	11.434
417.16	11.930
417.51	11.015
417.87	11.689
418.22	11.798
418.58	12.201
418.93	11.916
419.29	12.094
419.64	12.154
420.00	11.890
420.35	11.942
420.71	12.433
421.06	11.337
421.42	11.754
421.77	12.052
422.12	11.173
422.48	11.225
422.83	11.648
423.19	12.486
423.54	11.782
423.90	12.174
424.25	12.730
424.61	12.381
424.96	13.294
425.31	12.126
425.67	11.573
426.02	12.229
426.38	13.126
426.73	11.293
427.09	12.280
427.44	11.616
427.79	12.248
428.15	12.083
428.50	11.761
428.85	12.813
429.21	12.258
429.56	11.871
429.92	12.280
430.27	12.066
430.62	11.214
430.98	12.143
431.33	12.320
431.68	12.565
432.04	12.247
432.39	12.736
432.74	12.687
433.10	12.677
433.45	13.061
433.80	12.195
434.16	12.927
434.51	12.789
434.86	13.056
435.22	13.063
435.57	12.158
435.92	12.756
436.28	12.871
436.63	13.962
436.98	12.936
437.34	13.178
437.69	13.302
438.04	13.210
438.39	13.194
438.75	13.248
439.10	13.575
439.45	13.046
439.81	12.689
440.16	12.648
440.51	13.005
440.86	13.955
441.22	12.903
441.57	13.694
441.92	12.845
442.27	13.025
442.63	12.586
442.98	13.915
443.33	13.370
443.68	13.371
444.03	13.128
444.39	12.512
444.74	13.095
445.09	13.801
445.44	13.505
445.79	13.310
446.15	13.870
446.50	13.786
446.85	13.361
447.20	13.208
447.55	13.345
447.91	13.569
448.26	14.079
448.61	14.132
448.96	14.120
449.31	14.004
449.66	14.631
450.02	12.813
450.37	13.152
450.72	13.480
451.07	13.955
451.42	14.103
451.77	13.623
452.12	14.376
452.47	13.744
452.83	14.277
453.18	14.548
453.53	14.533
453.88	13.054
454.23	14.166
454.58	14.294
454.93	14.940
455.28	14.090
455.63	15.170
455.98	15.119
456.34	14.259
456.69	14.590
457.04	14.365
457.39	13.501
457.74	14.452
458.09	13.859
458.44	13.740
458.79	13.720
459.14	14.052
459.49	14.069
459.84	13.186
460.19	14.319
460.54	14.352
460.89	14.536
461.24	14.572
461.59	14.933
461.94	13.995
462.29	14.955
462.64	14.614
462.99	14.574
463.34	15.800
463.69	14.321
464.04	14.957
464.39	14.493
464.74	14.082
465.09	14.656
465.44	14.183
465.79	14.038
466.14	14.559
466.49	14.405
466.84	14.361
467.19	14.906
467.54	14.938
467.89	14.166
468.24	14.776
468.59	15.079
468.94	14.172
469.29	13.882
469.64	16.131
469.99	15.088
470.34	14.927
470.68	14.871
471.03	15.034
471.38	15.566
471.73	15.723
472.08	16.382
472.43	15.013
472.78	16.063
473.13	15.918
473.48	15.231
473.83	15.061
474.17	14.686
474.52	15.136
474.87	15.353
475.22	14.858
475.57	14.723
475.92	14.126
476.27	14.769
476.61	15.113
476.96	14.184
477.31	15.332
477.66	14.934
478.01	14.323
478.36	15.389
478.70	14.538
479.05	14.111
479.40	14.483
479.75	14.947
480.10	14.364
480.45	14.802
480.79	14.333
481.14	14.971
481.49	14.998
481.84	13.900
482.19	14.448
482.53	14.771
482.88	14.798
483.23	14.907
483.58	14.422
483.92	14.386
484.27	14.074
484.62	13.836
484.97	13.835
485.31	13.870
485.66	12.832
486.01	11.791
486.36	11.859
486.70	11.969
487.05	12.111
487.40	12.845
487.75	12.623
488.09	13.618
488.44	13.175
488.79	14.358
489.13	14.400
489.48	14.233
489.83	13.681
490.17	14.511
490.52	14.482
490.87	14.021
491.22	14.234
491.56	13.804
491.91	13.913
492.26	14.194
492.60	14.562
492.95	14.125
493.30	14.299
493.64	14.979
493.99	13.835
494.34	14.847
494.68	14.744
495.03	14.756
495.37	14.332
495.72	14.571
496.07	14.849
496.41	14.204
496.76	14.072
497.11	14.543
497.45	14.765
497.80	14.827
498.14	14.638
498.49	14.780
498.84	14.286
499.18	14.238
499.53	14.767
499.87	14.865
500.22	14.837
500.56	14.951
500.91	14.760
501.26	15.458
501.60	15.235
501.95	14.574
502.29	15.604
502.64	14.711
502.98	14.633
503.33	14.351
503.67	15.406
504.02	14.079
504.36	15.021
504.71	15.291
505.06	15.277
505.40	15.022
505.75	15.333
506.09	15.209
506.44	14.702
506.78	15.246
507.13	16.002
507.47	16.212
507.82	16.008
508.16	16.464
508.51	16.083
508.85	15.591
509.19	16.071
509.54	15.816
509.88	15.456
510.23	15.167
510.57	17.028
510.92	16.157
511.26	15.930
511.61	16.027
511.95	16.075
512.30	16.543
512.64	16.335
512.98	16.452
513.33	16.328
513.67	16.062
514.02	16.126
514.36	16.439
514.70	16.602
515.05	16.118
515.39	16.209
515.74	16.498
516.08	17.272
516.42	16.981
516.77	16.722
517.11	17.148
517.46	17.043
517.80	17.073
518.14	16.792
518.49	17.386
518.83	16.875
519.17	16.975
519.52	17.657
519.86	17.456
520.20	17.572
520.55	17.774
520.89	17.822
521.23	18.878
521.58	17.707
521.92	18.249
522.26	16.962
522.61	17.695
522.95	17.802
523.29	18.259
523.64	18.720
523.98	18.053
524.32	18.034
524.66	19.062
525.01	18.382
525.35	17.720
525.69	17.611
526.04	17.383
526.38	18.121
526.72	18.344
527.06	19.460
527.41	17.512
527.75	19.293
528.09	18.240
528.43	19.439
528.78	18.685
529.12	17.515
529.46	19.228
529.80	18.998
530.15	18.442
530.49	18.277
530.83	18.481
531.17	19.060
531.51	19.261
531.86	19.548
532.20	19.622
532.54	19.154
532.88	18.806
533.22	18.676
533.57	18.704
533.91	18.122
534.25	17.922
534.59	18.487
534.93	17.430
535.27	18.709
535.62	19.109
535.96	19.146
536.30	18.118
536.64	18.802
536.98	18.381
537.32	19.092
537.66	19.600
538.01	19.355
538.35	19.392
538.69	19.655
539.03	18.064
539.37	18.275
539.71	17.563
540.05	19.346
540.39	17.874
540.73	18.176
541.07	18.819
541.42	19.243
541.76	19.613
542.10	18.370
542.44	18.411
542.78	20.026
543.12	17.850
543.46	18.492
543.80	19.323
544.14	18.293
544.48	18.667
544.82	18.730
545.16	18.347
545.50	18.445
545.84	19.489
546.18	19.394
546.52	18.995
546.86	19.381
547.20	19.218
547.54	19.639
547.88	19.196
548.22	18.244
548.56	18.805
548.90	19.270
549.24	18.653
549.58	18.759
549.92	19.299
550.26	19.389
550.60	17.911
550.94	19.155
551.28	17.776
551.62	18.620
551.96	18.877
552.30	19.863
552.64	18.391
552.98	19.525
553.32	19.353
553.66	20.177
554.00	19.355
554.34	19.048
554.68	20.100
555.02	19.394
555.36	19.555
555.69	18.403
556.03	18.573
556.37	18.213
556.71	18.486
557.05	18.557
557.39	18.754
557.73	19.195
558.07	18.927
558.41	18.162
558.75	18.589
559.08	18.867
559.42	19.652
559.76	19.559
560.10	18.986
560.44	19.147
560.78	18.896
561.12	17.678
561.45	18.709
561.79	18.721
562.13	19.182
562.47	18.169
562.81	18.898
563.15	18.395
563.48	17.971
563.82	18.200
564.16	17.986
564.50	17.513
564.84	18.268
565.17	18.597
565.51	18.403
565.85	18.084
566.19	17.408
566.52	18.873
566.86	17.420
567.20	18.101
567.54	17.123
567.88	16.676
568.21	17.566
568.55	17.391
568.89	16.975
569.23	16.355
569.56	15.668
569.90	15.358
570.24	15.213
570.57	15.165
570.91	15.385
571.25	14.608
571.59	14.904
571.92	14.631
572.26	14.645
572.60	15.225
572.93	15.112
573.27	14.729
573.61	15.131
573.95	14.574
574.28	14.347
574.62	14.553
574.96	14.313
575.29	13.943
575.63	14.329
575.97	14.189
576.30	14.604
576.64	14.076
576.98	14.147
577.31	13.771
577.65	13.811
577.98	13.832
578.32	13.801
578.66	13.690
578.99	13.901
579.33	14.210
579.67	13.671
580.00	14.457
580.34	14.167
580.67	14.134
581.01	14.324
581.35	13.847
581.68	13.465
582.02	13.399
582.35	13.363
582.69	13.947
583.02	13.894
583.36	13.742
583.70	14.411
584.03	14.316
584.37	14.809
584.70	14.028
585.04	13.723
585.37	13.956
585.71	14.168
586.04	13.820
586.38	14.289
586.72	14.941
587.05	13.502
587.39	13.852
587.72	14.275
588.06	14.408
588.39	14.403
588.73	14.608
589.06	14.584
589.40	14.613
589.73	15.558
590.07	14.698
590.40	14.359
590.73	15.418
591.07	15.344
591.40	15.563
591.74	15.887
592.07	15.009
592.41	15.130
592.74	15.281
593.08	14.724
593.41	14.521
593.75	14.366
594.08	14.951
594.41	14.351
594.75	14.787
595.08	14.817
595.42	14.746
595.75	14.423
596.09	15.359
596.42	15.756
596.75	15.112
597.09	15.887
597.42	14.882
597.75	15.222
598.09	15.348
598.42	15.034
598.76	15.079
599.09	14.747
599.42	14.119
599.76	14.385
600.09	14.281
600.42	14.061
600.76	14.036
601.09	14.281
601.42	14.193
601.76	14.611
602.09	14.308
602.42	15.287
602.76	15.316
603.09	15.146
603.42	14.174
603.76	14.558
604.09	14.502
604.42	14.717
604.76	15.183
605.09	14.897
605.42	14.878
605.75	15.066
606.09	14.030
606.42	14.303
606.75	14.641
607.09	14.650
607.42	14.805
607.75	14.219
608.08	14.459
608.42	15.016
608.75	14.563
609.08	14.431
609.41	15.231
609.75	15.102
610.08	15.363
610.41	14.711
610.74	14.380
611.07	15.168
611.41	15.751
611.74	15.535
612.07	15.735
612.40	15.005
612.73	14.842
613.07	15.894
613.40	16.324
613.73	14.997
614.06	15.215
614.39	15.207
614.72	15.211
615.06	14.758
615.39	14.809
615.72	15.695
616.05	14.886
616.38	15.842
616.71	15.796
617.05	15.430
617.38	15.334
617.71	15.556
618.04	16.046
618.37	15.730
618.70	16.428
619.03	17.105
619.36	16.565
619.69	16.338
620.03	16.484
620.36	16.377
620.69	16.644
621.02	17.478
621.35	16.836
621.68	16.511
622.01	16.254
622.34	16.490
622.67	17.414
623.00	15.260
623.33	16.369
623.66	16.512
623.99	16.053
624.32	16.762
624.65	16.031
624.99	16.501
625.32	16.365
625.65	16.980
625.98	17.218
626.31	16.719
626.64	16.735
626.97	17.872
627.30	17.872
627.63	16.981
627.96	17.073
628.29	17.585
628.62	19.579
628.95	20.189
629.28	17.974
629.61	19.340
629.94	18.381
630.26	18.303
630.59	17.255
630.92	18.582
631.25	18.460
631.58	18.318
631.91	18.256
632.24	16.772
632.57	20.042
632.90	20.066
633.23	20.470
633.56	18.757
633.89	19.479
634.22	19.296
634.55	20.118
634.88	17.844
635.20	20.789
635.53	20.482
635.86	18.688
636.19	19.647
636.52	19.839
636.85	19.817
637.18	19.931
637.51	20.686
637.83	17.633
638.16	20.972
638.49	20.025
638.82	19.848
639.15	21.500
639.48	18.828
639.81	21.850
640.13	20.052
640.46	22.416
640.79	20.608
641.12	18.982
641.45	20.810
641.77	21.502
642.10	21.784
642.43	21.922
642.76	21.827
643.09	21.626
643.41	23.217
643.74	24.537
644.07	21.646
644.40	21.933
644.73	21.260
645.05	23.296
645.38	21.643
645.71	22.222
646.04	22.093
646.36	25.042
646.69	23.913
647.02	22.449
647.35	23.883
647.67	22.124
648.00	22.927
648.33	21.122
648.66	20.909
648.98	21.439
649.31	19.880
649.64	20.329
649.96	20.119
650.29	21.485
650.62	21.359
650.94	24.311
651.27	21.959
651.60	21.464
651.92	21.246
652.25	19.544
652.58	21.028
652.90	21.643
653.23	20.031
653.56	21.417
653.88	21.553
654.21	22.433
654.54	21.617
654.86	21.651
655.19	18.108
655.52	12.134
655.84	8.446
656.17	10.639
656.49	14.680
656.82	15.422
657.15	12.161
657.47	9.063
657.80	7.337
658.13	7.599
658.45	11.569
658.78	12.409
659.10	13.108
659.43	14.125
659.75	14.515
660.08	17.215
660.41	19.088
660.73	20.584
661.06	21.656
661.38	24.909
661.71	23.846
662.03	24.458
662.36	20.477
662.68	22.289
663.01	22.828
663.33	24.841
663.66	23.319
663.98	24.190
664.31	24.790
664.63	22.267
664.96	21.529
665.28	25.410
665.61	22.612
665.93	22.938
666.26	23.935
666.58	22.176
666.91	23.679
667.23	23.596
667.56	22.246
667.88	25.641
668.21	25.586
668.53	24.946
668.86	24.892
669.18	25.800
669.50	24.348
669.83	25.054
670.15	23.556
670.48	24.183
670.80	23.922
671.13	25.265
671.45	20.426
671.77	23.829
672.10	21.996
672.42	21.908
672.75	21.061
673.07	20.246
673.39	21.338
673.72	17.578
674.04	23.137
674.37	23.689
674.69	22.699
675.01	22.176
675.34	25.873
675.66	24.632
675.98	25.866
676.31	24.160
676.63	25.690
676.95	23.899
677.28	24.065
677.60	22.857
677.92	26.160
678.25	23.409
678.57	21.912
678.89	22.645
679.22	22.593
679.54	22.710
679.86	22.018
680.18	20.572
680.51	21.277
680.83	20.107
681.15	22.642
681.48	24.575
681.80	22.050
682.12	20.690
682.44	20.890
682.77	21.385
683.09	27.253
683.41	24.169
683.73	23.620
684.06	22.521
684.38	24.070
684.70	22.287
685.02	24.015
685.34	21.795
685.67	17.483
685.99	19.931
686.31	21.160
686.63	18.551
686.96	20.714
687.28	18.773
687.60	20.109
687.92	23.035
688.24	19.202
688.56	20.482
688.89	22.407
689.21	24.891
689.53	23.591
689.85	24.390
690.17	20.497
690.49	23.567
690.82	25.701
691.14	21.205
691.46	24.051
691.78	22.691
692.10	20.248
692.42	20.958
692.74	21.369
693.06	21.702
693.39	23.409
693.71	23.581
694.03	25.263
694.35	25.541
694.67	21.739
694.99	24.390
695.31	25.000
695.63	24.641
695.95	22.738
696.27	22.335
696.59	23.834
696.91	22.798
697.23	23.005
697.56	24.520
697.88	19.018
698.20	20.208
698.52	20.430
698.84	21.826
699.16	22.350
699.48	22.565
699.80	25.362
700.12	27.013
700.44	27.321
700.76	26.519
701.08	20.977
701.40	28.771
701.72	24.490
702.04	30.966
702.36	22.096
702.68	26.346
703.00	26.316
703.32	25.798
703.64	25.201
703.96	27.019
704.28	25.872
704.60	26.979
704.91	26.706
705.23	27.566
705.55	28.239
705.87	30.897
706.19	27.562
706.51	29.283
706.83	27.879
707.15	24.370
707.47	22.475
707.79	23.096
708.11	24.429
708.43	22.381
708.74	20.918
709.06	23.377
709.38	25.459
709.70	27.616
710.02	29.377
710.34	26.061
710.66	31.343
710.98	26.136
711.29	22.093
711.61	28.614
711.93	26.603
712.25	31.190
712.57	27.574
712.89	29.412
713.20	31.003
713.52	29.276
713.84	29.114
714.16	26.524
714.48	27.011
714.80	28.267
715.11	24.207
715.43	24.036
715.75	26.087
716.07	27.157
716.39	26.019
716.70	27.243
717.02	27.698
717.34	27.562
717.66	33.582
717.97	31.474
718.29	29.259
718.61	30.292
718.93	31.985
719.24	28.720
719.56	28.814
719.88	27.119
720.20	29.054
720.51	31.010
720.83	31.227
721.15	29.104
721.46	30.142
721.78	31.541
722.10	28.679
722.42	31.579
722.73	31.835
723.05	29.508
723.37	29.960
723.68	33.591
724.00	28.049
724.32	28.226
724.63	30.488
724.95	29.289
725.27	38.057
725.58	32.422
725.90	30.292
726.22	29.811
726.53	25.347
726.85	27.304
727.16	30.961
727.48	28.014
727.80	29.167
728.11	29.348
728.43	28.077
728.74	26.882
729.06	30.292
729.38	32.353
729.69	32.028
730.01	25.256
730.32	29.861
730.64	27.425
730.96	23.102
731.27	24.172
731.59	25.382
731.90	24.490
732.22	26.398
732.53	25.077
732.85	28.526
733.16	27.974
733.48	22.591
733.80	28.896
734.11	28.981
734.43	25.740
734.74	22.571
735.06	20.630
735.37	29.191
735.69	23.248
736.00	28.105
736.32	25.234
736.63	25.559
736.95	25.559
737.26	23.469
737.58	25.806
737.89	27.090
738.21	27.645
738.52	27.500
738.83	25.660
739.15	26.538
739.46	28.832
739.78	30.208
740.09	28.000
740.41	26.452
740.72	25.436
741.04	29.259
741.35	26.667
741.66	35.111
741.98	31.132
742.29	37.321
742.61	34.914
742.92	35.294
743.23	33.761
743.55	33.600
743.86	31.140
744.18	36.726
744.49	37.321
744.80	34.742
745.12	36.364
745.43	32.159
745.74	38.288
746.06	33.486
746.37	34.529
746.68	34.389
747.00	37.500
747.31	34.762
747.62	27.876
747.94	35.242
748.25	28.511
748.56	35.683
748.88	31.683
749.19	36.000
749.50	39.070
749.82	28.862
750.13	28.980
750.44	28.467
750.75	29.123
751.07	32.154
751.38	30.662
751.69	26.354
752.01	29.699
752.32	28.520
752.63	29.433
752.94	25.000
753.26	34.000
753.57	32.114
753.88	32.031
754.19	26.429
754.51	29.514
754.82	24.188
755.13	28.302
755.44	24.436
755.75	28.102
756.07	27.305
756.38	25.547
756.69	28.523
757.00	23.653
757.31	23.739
757.63	20.760
757.94	21.716
758.25	26.471
758.56	20.000
758.87	23.925
759.18	26.061
759.50	26.959
759.81	21.184
760.12	20.312
760.43	25.215
760.74	24.728
761.05	24.294
761.36	20.588
761.67	26.136
761.99	25.155
762.30	25.000
762.61	25.954
762.92	32.422
763.23	26.471
763.54	33.200
763.85	26.562
764.16	28.077
764.47	30.038
764.78	24.735
765.10	21.835
765.41	25.369
765.72	23.353
766.03	23.511
766.34	23.667
766.65	28.936
766.96	31.197
767.27	36.548
767.58	36.979
767.89	45.263
768.20	44.253
768.51	35.025
768.82	31.193
769.13	26.016
769.44	31.984
769.75	30.043
770.06	24.771
770.37	35.294
770.68	37.963
770.99	32.444
771.30	25.410
771.61	28.700
771.92	25.820
772.23	32.353
772.54	33.846
772.85	42.932
773.16	38.830
773.47	40.761
773.78	37.056
774.09	36.310
774.39	49.123
774.70	40.741
775.01	42.029
775.32	49.020
775.63	40.789
775.94	41.727
776.25	52.756
776.56	54.478
776.87	46.721
777.18	53.125
777.48	59.542
777.79	54.545
778.10	48.148
778.41	53.571
778.72	40.146
779.03	40.268
779.34	44.295
779.65	36.486
779.95	44.785
780.26	45.752
780.57	48.966
780.88	55.469
781.19	51.880
781.50	43.243
781.80	40.881
782.11	35.593
782.42	39.241
782.73	34.969
783.04	43.919
783.34	39.437
783.65	53.425
783.96	49.254
784.27	46.853
784.57	46.043
784.88	46.296
785.19	50.794
785.50	50.000
785.81	52.239
786.11	54.918
786.42	44.961
786.73	55.752
787.04	60.377
787.34	46.429
787.65	68.000
787.96	49.550
788.26	44.628
788.57	53.390
788.88	61.157
789.19	53.472
789.49	52.273
789.80	52.672
790.11	70.476
790.41	69.307
790.72	77.108
791.03	69.565
791.33	63.953
791.64	62.887
791.95	59.406
792.25	75.556
792.56	74.026
792.87	83.333
793.17	78.481
793.48	85.057
793.79	77.011
794.09	69.318
794.40	61.345
794.70	52.206
795.01	43.704
795.32	48.921
795.62	48.031
795.93	50.000
796.23	56.637
796.54	63.529
796.85	56.757
797.15	88.732
797.46	86.364
797.76	91.566
798.07	88.608
798.37	80.000
798.68	86.364
798.99	70.423
799.29	80.519
799.60	69.318
799.90	95.890
800.21	89.552
800.51	110.345
800.82	101.754
801.12	86.885
801.43	100.000
801.73	70.270
802.04	98.413
802.34	81.481
802.65	103.125
802.95	100.000
803.26	104.688
803.56	81.429
803.87	76.923
804.17	89.706
804.48	120.370
804.78	81.034
805.09	83.824
805.39	115.385
805.70	107.143
806.00	98.361
806.30	86.364
806.61	85.366
806.91	69.620
807.22	72.368
807.52	79.104
807.83	77.465
808.13	98.437
808.43	90.000
808.74	73.684
809.04	92.754
809.35	88.060
809.65	80.263
809.95	111.290
810.26	100.000
810.56	101.587
810.86	109.091
811.17	152.381
811.47	113.333
811.77	98.148
812.08	116.364
812.38	126.000
812.69	152.778
812.99	140.909
813.29	118.367
813.59	123.810
813.90	132.653
814.20	100.000
814.50	98.462
814.81	89.706
815.11	112.245
815.41	91.803
815.72	150.000
816.02	105.455
816.32	130.952
816.62	107.500
816.93	148.780
817.23	147.619
817.53	131.818
817.84	172.727
818.14	126.087
818.44	102.222
818.74	173.529
819.04	137.500
819.35	125.714
819.65	179.412
819.95	207.143
820.25	245.000
820.56	176.923
820.86	131.818
821.16	139.535
821.46	130.769
821.76	140.000
822.07	157.143
822.37	175.000
822.67	169.697
822.97	111.765
823.27	196.429
823.57	154.054
823.88	162.500
824.18	216.667
824.48	159.524
824.78	212.000
825.08	191.667
825.38	175.676
825.69	126.829
825.99	233.333
826.29	172.414
826.59	150.000
826.89	147.368
827.19	150.000
827.49	193.548
827.79	152.273
828.09	120.455
828.39	119.149
828.70	142.857
829.00	162.963
829.30	164.516
829.60	120.000
829.90	300.000
830.20	164.286
830.50	221.739
830.80	191.304
831.10	206.667
831.40	193.333
831.70	195.652
832.00	219.231
832.30	207.407
832.60	300.000
832.90	196.667
833.20	428.571
833.50	200.000
833.80	210.345
834.10	228.125
834.40	192.308
834.70	327.778
835.00	309.524
835.30	171.429
835.60	292.308
835.90	206.897
836.20	371.429
836.50	186.207
836.80	216.000
837.10	183.333
837.40	261.905
837.70	341.176
838.00	214.815
838.30	223.810
838.60	300.000
838.90	238.462
839.19	255.000
839.49	407.143
839.79	355.000
840.09	240.000
840.39	261.905
840.69	269.565
840.99	344.444
841.29	410.000
841.59	266.667
841.88	331.250
842.18	186.207
842.48	304.762
842.78	226.667
843.08	226.087
843.38	200.000
843.68	750.000
843.97	250.000
844.27	189.655
844.57	252.381
844.87	393.750
845.17	225.926
845.47	1566.667
845.76	433.333
846.06	364.706
846.36	462.500
846.66	435.714
846.96	312.500
847.25	445.455
847.55	309.091
847.85	213.043
848.15	450.000
848.44	364.286
848.74	205.556
849.04	364.706
849.34	560.000
849.63	305.263
849.93	445.455
850.23	1020.000
850.53	392.857
850.82	2400.000
851.12	-4900.000
851.42	4900.000
851.71	300.000
852.01	-1200.000
852.31	270.833
852.61	1466.667
852.90	280.952
853.20	252.000
853.50	335.294
853.79	295.238
854.09	220.833
854.39	337.500
854.68	167.568
854.98	187.097
855.28	180.000
855.57	231.034
855.87	237.037
856.17	257.895
856.46	280.000
856.76	317.647
857.05	189.655
857.35	216.667
857.65	380.000
857.94	256.522
858.24	276.923
858.53	280.000
858.83	290.909
859.13	320.000
859.42	0.000
859.72	544.444
860.01	454.545
860.31	295.455
860.60	289.474
860.90	200.000
861.20	677.778
861.49	433.333
861.79	-5500.000
862.08	525.000
862.38	295.238
862.67	369.231
862.97	347.059
863.26	544.444
863.56	272.222
863.85	475.000
864.15	675.000
864.44	446.667
864.74	900.000
865.03	675.000
865.33	294.737
865.62	481.818
865.92	461.538
866.21	400.000
866.51	0.000
866.80	481.818
867.10	1100.000
867.39	492.308
867.69	472.727
867.98	231.579
868.27	536.364
868.57	315.789
868.86	-4900.000
869.16	418.750
869.45	2400.000
869.75	-4100.000
870.04	450.000
870.33	714.286
870.63	1075.000
870.92	2250.000
871.22	685.714
871.51	352.941
871.80	200.000
872.10	364.286
>>>>>End Processed Spectral Data<<<<<
