SpectraSuite Data File
++++++++++++++++++++++++++++++++++++
Date: Tue May 12 19:44:55 PDT 2015
User: schluterlab
Dark Spectrum Present: Yes
Reference Spectrum Present: Yes
Number of Sampled Component Spectra: 1
Spectrometers: USB2E3373
Integration Time (usec): 3000 (USB2E3373)
Spectra Averaged: 3 (USB2E3373)
Boxcar Smoothing: 0 (USB2E3373)
Correct for Electrical Dark: No (USB2E3373)
Strobe/Lamp Enabled: No (USB2E3373)
Correct for Detector Non-linearity: No (USB2E3373)
Correct for Stray Light: No (USB2E3373)
Number of Pixels in Processed Spectrum: 2048
>>>>>Begin Processed Spectral Data<<<<<
178.53	0.000
178.91	-90.000
179.29	-33.333
179.67	133.333
180.04	0.000
180.42	-40.000
180.80	-266.667
181.18	750.000
181.56	-100.000
181.94	150.000
182.31	1800.000
182.69	-14.286
183.07	0.000
183.45	133.333
183.83	140.000
184.20	233.333
184.58	1050.000
184.96	200.000
185.34	-233.333
185.72	-42.857
186.09	-83.333
186.47	-1200.000
186.85	-80.000
187.23	150.000
187.61	-71.429
187.98	-260.000
188.36	550.000
188.74	0.000
189.12	-22.222
189.49	-30.000
189.87	275.000
190.25	177.778
190.63	700.000
191.00	160.000
191.38	-333.333
191.76	240.000
192.14	-171.429
192.51	0.000
192.89	80.000
193.27	-180.000
193.65	-433.333
194.02	-66.667
194.40	100.000
194.78	-75.000
195.15	-228.571
195.53	333.333
195.91	300.000
196.29	-425.000
196.66	-66.667
197.04	-157.143
197.42	100.000
197.79	-137.500
198.17	8.333
198.55	-300.000
198.92	-188.889
199.30	700.000
199.68	50.000
200.05	-700.000
200.43	-16.667
200.81	-50.000
201.18	300.000
201.56	-50.000
201.94	-600.000
202.31	-66.667
202.69	77.778
203.07	33.333
203.44	-225.000
203.82	0.000
204.19	425.000
204.57	-433.333
204.95	154.545
205.32	180.000
205.70	300.000
206.08	-500.000
206.45	-280.000
206.83	1700.000
207.20	-122.222
207.58	-15.385
207.96	-133.333
208.33	500.000
208.71	533.333
209.08	450.000
209.46	-100.000
209.84	433.333
210.21	-600.000
210.59	550.000
210.96	155.556
211.34	-200.000
211.71	900.000
212.09	-140.000
212.46	-25.000
212.84	-175.000
213.22	142.857
213.59	12.500
213.97	0.000
214.34	-50.000
214.72	-1600.000
215.09	550.000
215.47	13.333
215.84	-37.500
216.22	-900.000
216.59	2100.000
216.97	-66.667
217.34	-200.000
217.72	38.889
218.09	125.000
218.47	-89.474
218.84	-37.500
219.22	-78.571
219.59	-90.000
219.97	-110.000
220.34	216.667
220.72	36.364
221.09	-650.000
221.47	0.000
221.84	100.000
222.22	-100.000
222.59	-125.000
222.97	-30.435
223.34	180.000
223.72	214.286
224.09	-16.667
224.46	138.462
224.84	13.333
225.21	-100.000
225.59	-300.000
225.96	30.000
226.34	300.000
226.71	270.000
227.08	-38.462
227.46	-42.857
227.83	-8.333
228.21	-450.000
228.58	383.333
228.95	-42.105
229.33	6.250
229.70	-283.333
230.08	-155.556
230.45	-466.667
230.82	-1200.000
231.20	4.762
231.57	-180.000
231.95	-500.000
232.32	255.556
232.69	-700.000
233.07	25.000
233.44	-225.000
233.81	32.258
234.19	-200.000
234.56	-61.111
234.93	-466.667
235.31	3.704
235.68	-11.111
236.05	-65.385
236.43	-57.895
236.80	-13.636
237.17	-128.571
237.55	-115.000
237.92	-11.628
238.29	-38.710
238.67	3.571
239.04	-37.143
239.41	-13.725
239.79	-8.000
240.16	-25.000
240.53	-3.448
240.91	6.849
241.28	-8.451
241.65	0.000
242.02	-17.544
242.40	-17.333
242.77	2.105
243.14	5.882
243.51	0.000
243.89	-10.476
244.26	-0.926
244.63	-2.041
245.00	-8.036
245.38	-12.605
245.75	3.390
246.12	0.000
246.49	-4.800
246.87	-2.459
247.24	-6.338
247.61	-7.947
247.98	1.124
248.36	-7.547
248.73	-2.841
249.10	-3.889
249.47	3.125
249.84	2.030
250.22	-2.604
250.59	-3.371
250.96	5.909
251.33	5.189
251.70	6.422
252.08	3.030
252.45	-4.082
252.82	-1.688
253.19	1.556
253.56	9.020
253.94	0.000
254.31	7.554
254.68	4.167
255.05	6.954
255.42	3.273
255.79	5.298
256.16	1.042
256.54	3.939
256.91	6.090
257.28	3.247
257.65	1.639
258.02	4.505
258.39	4.230
258.76	4.893
259.14	1.765
259.51	3.662
259.88	4.323
260.25	2.841
260.62	1.124
260.99	2.507
261.36	0.000
261.73	3.733
262.10	4.905
262.47	4.959
262.85	5.141
263.22	1.344
263.59	4.826
263.96	3.916
264.33	-0.539
264.70	4.423
265.07	3.695
265.44	6.089
265.81	6.506
266.18	2.108
266.55	3.095
266.92	6.920
267.29	4.222
267.66	4.545
268.03	5.591
268.40	4.577
268.77	2.895
269.14	2.941
269.51	2.262
269.88	5.769
270.25	2.321
270.62	6.303
270.99	4.000
271.36	4.194
271.73	4.583
272.10	5.394
272.47	3.400
272.84	1.486
273.21	2.088
273.58	2.449
273.95	4.582
274.32	5.222
274.69	3.523
275.06	4.690
275.43	3.600
275.80	6.119
276.17	2.964
276.54	5.133
276.91	5.182
277.28	4.449
277.65	2.647
278.02	4.735
278.39	5.808
278.76	5.587
279.13	7.692
279.50	6.137
279.87	5.283
280.23	6.740
280.60	2.297
280.97	5.272
281.34	4.407
281.71	2.487
282.08	4.830
282.45	2.293
282.82	4.040
283.19	5.219
283.56	4.949
283.92	4.107
284.29	4.907
284.66	1.593
285.03	1.201
285.40	4.667
285.77	4.105
286.14	4.596
286.51	3.859
286.87	3.241
287.24	2.724
287.61	4.475
287.98	5.947
288.35	4.186
288.72	6.116
289.08	2.673
289.45	4.992
289.82	3.571
290.19	2.727
290.56	4.342
290.93	3.545
291.29	6.241
291.66	5.478
292.03	5.308
292.40	5.324
292.77	3.936
293.13	4.552
293.50	4.821
293.87	3.745
294.24	4.635
294.60	4.918
294.97	2.078
295.34	2.603
295.71	2.358
296.08	3.825
296.44	4.216
296.81	3.105
297.18	4.398
297.55	2.638
297.91	4.061
298.28	3.069
298.65	2.717
299.02	4.192
299.38	2.551
299.75	2.574
300.12	3.357
300.48	4.460
300.85	1.956
301.22	4.327
301.59	4.015
301.95	4.146
302.32	4.374
302.69	2.735
303.05	2.834
303.42	3.623
303.79	2.135
304.15	4.304
304.52	3.911
304.89	2.818
305.25	4.358
305.62	3.182
305.99	3.359
306.35	4.474
306.72	4.793
307.09	3.917
307.45	3.344
307.82	2.775
308.19	5.391
308.55	3.692
308.92	3.919
309.29	3.975
309.65	3.509
310.02	4.088
310.38	4.158
310.75	3.176
311.12	3.357
311.48	4.830
311.85	4.559
312.22	3.616
312.58	4.129
312.95	3.696
313.31	4.130
313.68	4.568
314.05	5.362
314.41	5.697
314.78	3.719
315.14	4.897
315.51	5.065
315.87	5.762
316.24	5.737
316.61	4.854
316.97	5.196
317.34	4.593
317.70	5.042
318.07	4.822
318.43	6.616
318.80	6.193
319.16	4.660
319.53	6.226
319.89	5.966
320.26	6.981
320.62	6.977
320.99	7.245
321.35	8.399
321.72	7.980
322.08	8.317
322.45	7.890
322.81	8.177
323.18	8.341
323.54	8.246
323.91	8.539
324.27	8.004
324.64	9.653
325.00	10.191
325.37	11.151
325.73	10.401
326.10	11.559
326.46	10.517
326.83	12.137
327.19	12.489
327.56	13.705
327.92	12.413
328.29	13.351
328.65	15.160
329.01	13.670
329.38	14.233
329.74	15.877
330.11	15.657
330.47	16.015
330.84	16.071
331.20	15.712
331.56	15.755
331.93	16.926
332.29	17.206
332.66	17.360
333.02	17.270
333.38	18.290
333.75	18.847
334.11	18.264
334.48	18.157
334.84	17.653
335.20	17.726
335.57	19.074
335.93	19.070
336.29	19.653
336.66	19.126
337.02	20.399
337.38	19.151
337.75	20.000
338.11	20.784
338.47	18.663
338.84	20.350
339.20	19.432
339.56	19.105
339.93	20.270
340.29	21.215
340.65	19.909
341.02	20.283
341.38	19.947
341.74	20.374
342.11	19.363
342.47	19.231
342.83	19.081
343.20	20.690
343.56	21.503
343.92	21.260
344.28	18.096
344.65	20.291
345.01	20.557
345.37	18.974
345.73	18.519
346.10	19.965
346.46	20.017
346.82	19.626
347.19	20.101
347.55	20.748
347.91	20.066
348.27	20.556
348.63	20.743
349.00	20.033
349.36	19.703
349.72	20.608
350.08	20.540
350.45	20.504
350.81	19.405
351.17	19.357
351.53	19.887
351.89	19.862
352.26	19.512
352.62	20.605
352.98	20.167
353.34	19.883
353.70	18.930
354.07	20.264
354.43	19.533
354.79	19.262
355.15	19.370
355.51	20.130
355.87	21.066
356.24	20.915
356.60	19.699
356.96	19.668
357.32	20.905
357.68	19.252
358.04	20.097
358.40	20.376
358.77	19.759
359.13	19.518
359.49	19.600
359.85	20.703
360.21	19.508
360.57	20.096
360.93	21.774
361.29	19.626
361.66	19.164
362.02	19.388
362.38	20.979
362.74	20.600
363.10	19.683
363.46	19.037
363.82	19.985
364.18	20.136
364.54	20.153
364.90	19.407
365.26	19.001
365.62	19.682
365.98	20.015
366.35	20.272
366.71	20.687
367.07	21.993
367.43	19.278
367.79	20.058
368.15	18.606
368.51	20.824
368.87	20.485
369.23	20.363
369.59	20.809
369.95	20.045
370.31	19.470
370.67	20.075
371.03	20.666
371.39	20.166
371.75	19.019
372.11	19.704
372.47	20.490
372.83	21.476
373.19	20.181
373.55	19.760
373.91	19.773
374.27	20.530
374.63	21.355
374.99	19.180
375.35	20.174
375.71	20.373
376.07	20.707
376.42	21.162
376.78	20.279
377.14	20.391
377.50	20.725
377.86	21.657
378.22	20.674
378.58	21.447
378.94	21.153
379.30	21.429
379.66	20.999
380.02	20.598
380.38	21.310
380.74	20.385
381.09	20.712
381.45	20.571
381.81	20.472
382.17	21.498
382.53	21.433
382.89	20.590
383.25	21.053
383.61	19.580
383.97	21.053
384.32	20.516
384.68	20.562
385.04	20.242
385.40	20.256
385.76	20.557
386.12	20.000
386.48	21.592
386.83	20.671
387.19	20.817
387.55	20.013
387.91	20.374
388.27	21.433
388.62	20.531
388.98	20.865
389.34	19.779
389.70	21.859
390.06	21.254
390.42	21.095
390.77	21.663
391.13	21.405
391.49	19.946
391.85	21.291
392.20	21.320
392.56	19.974
392.92	22.263
393.28	20.467
393.64	20.899
393.99	21.169
394.35	20.571
394.71	20.662
395.07	21.618
395.42	20.825
395.78	20.766
396.14	21.186
396.50	22.251
396.85	21.018
397.21	20.634
397.57	20.869
397.92	21.056
398.28	20.444
398.64	21.270
399.00	21.242
399.35	20.868
399.71	19.880
400.07	20.321
400.42	21.346
400.78	22.137
401.14	20.328
401.49	21.611
401.85	21.270
402.21	21.193
402.57	19.382
402.92	20.651
403.28	20.416
403.63	21.667
403.99	19.683
404.35	20.382
404.70	20.709
405.06	21.761
405.42	20.755
405.77	20.868
406.13	20.191
406.49	20.505
406.84	21.046
407.20	20.570
407.55	21.242
407.91	20.699
408.27	20.346
408.62	20.257
408.98	20.785
409.34	21.063
409.69	20.602
410.05	20.596
410.40	20.295
410.76	20.797
411.11	20.556
411.47	21.293
411.83	20.219
412.18	21.466
412.54	20.375
412.89	20.725
413.25	20.564
413.60	21.429
413.96	20.000
414.31	20.331
414.67	21.067
415.03	20.885
415.38	20.265
415.74	21.155
416.09	20.469
416.45	21.798
416.80	19.541
417.16	20.874
417.51	20.888
417.87	20.520
418.22	20.722
418.58	21.285
418.93	20.567
419.29	19.267
419.64	21.429
420.00	20.629
420.35	20.402
420.71	20.294
421.06	20.960
421.42	20.201
421.77	20.646
422.12	20.851
422.48	20.788
422.83	19.818
423.19	21.294
423.54	20.098
423.90	21.755
424.25	20.665
424.61	20.839
424.96	20.270
425.31	21.377
425.67	20.667
426.02	21.304
426.38	20.528
426.73	20.872
427.09	20.946
427.44	21.049
427.79	22.525
428.15	21.179
428.50	21.043
428.85	20.141
429.21	21.578
429.56	20.608
429.92	20.930
430.27	19.893
430.62	20.930
430.98	20.956
431.33	20.968
431.68	20.897
432.04	21.289
432.39	21.034
432.74	20.430
433.10	21.528
433.45	20.583
433.80	21.964
434.16	21.059
434.51	21.126
434.86	20.725
435.22	21.071
435.57	21.768
435.92	20.372
436.28	21.606
436.63	21.407
436.98	21.667
437.34	21.689
437.69	21.667
438.04	20.733
438.39	21.149
438.75	21.723
439.10	21.726
439.45	23.107
439.81	22.286
440.16	21.459
440.51	21.561
440.86	22.601
441.22	20.905
441.57	21.595
441.92	21.369
442.27	22.286
442.63	22.630
442.98	22.738
443.33	23.032
443.68	22.296
444.03	21.907
444.39	21.760
444.74	22.610
445.09	22.314
445.44	21.283
445.79	22.977
446.15	21.866
446.50	22.383
446.85	22.717
447.20	21.937
447.55	22.571
447.91	22.457
448.26	22.967
448.61	22.840
448.96	22.590
449.31	22.725
449.66	22.337
450.02	22.367
450.37	22.661
450.72	22.561
451.07	22.544
451.42	23.584
451.77	22.131
452.12	22.807
452.47	23.509
452.83	23.350
453.18	24.308
453.53	23.906
453.88	21.889
454.23	23.323
454.58	23.956
454.93	23.025
455.28	22.132
455.63	23.002
455.98	23.541
456.34	23.175
456.69	23.020
457.04	22.703
457.39	22.784
457.74	22.693
458.09	22.651
458.44	23.360
458.79	21.731
459.14	22.898
459.49	23.376
459.84	23.187
460.19	23.014
460.54	22.917
460.89	22.176
461.24	22.857
461.59	23.281
461.94	23.077
462.29	23.120
462.64	23.886
462.99	22.335
463.34	22.418
463.69	23.731
464.04	23.028
464.39	23.601
464.74	23.361
465.09	24.180
465.44	23.275
465.79	23.345
466.14	22.494
466.49	22.903
466.84	22.297
467.19	22.742
467.54	22.082
467.89	23.187
468.24	23.611
468.59	22.906
468.94	23.268
469.29	22.284
469.64	24.143
469.99	22.422
470.34	22.560
470.68	23.769
471.03	22.701
471.38	22.812
471.73	22.892
472.08	22.491
472.43	23.651
472.78	22.625
473.13	23.649
473.48	23.237
473.83	24.306
474.17	23.749
474.52	23.309
474.87	23.611
475.22	23.062
475.57	22.855
475.92	23.309
476.27	23.508
476.61	23.700
476.96	23.651
477.31	23.345
477.66	23.533
478.01	23.426
478.36	23.152
478.70	23.324
479.05	22.925
479.40	22.775
479.75	23.612
480.10	23.539
480.45	24.398
480.79	23.768
481.14	23.827
481.49	23.393
481.84	23.434
482.19	22.098
482.53	23.137
482.88	23.538
483.23	23.467
483.58	23.614
483.92	22.814
484.27	23.621
484.62	23.385
484.97	22.012
485.31	22.428
485.66	21.479
486.01	21.264
486.36	21.253
486.70	21.425
487.05	21.889
487.40	21.622
487.75	21.701
488.09	21.648
488.44	22.277
488.79	22.286
489.13	22.195
489.48	22.747
489.83	22.515
490.17	23.722
490.52	22.897
490.87	23.492
491.22	23.866
491.56	23.073
491.91	23.243
492.26	24.222
492.60	23.367
492.95	22.895
493.30	23.471
493.64	22.972
493.99	23.357
494.34	24.126
494.68	23.489
495.03	21.907
495.37	23.416
495.72	23.207
496.07	23.327
496.41	23.271
496.76	22.684
497.11	23.387
497.45	23.104
497.80	23.261
498.14	23.548
498.49	23.599
498.84	22.694
499.18	22.730
499.53	23.313
499.87	23.349
500.22	22.545
500.56	23.182
500.91	23.755
501.26	22.940
501.60	23.445
501.95	23.439
502.29	22.986
502.64	22.698
502.98	22.716
503.33	23.065
503.67	22.920
504.02	23.442
504.36	23.626
504.71	22.979
505.06	23.299
505.40	23.056
505.75	23.433
506.09	23.402
506.44	23.552
506.78	23.233
507.13	23.616
507.47	23.380
507.82	22.266
508.16	23.218
508.51	23.578
508.85	23.022
509.19	22.820
509.54	23.173
509.88	23.245
510.23	23.764
510.57	23.112
510.92	23.866
511.26	23.837
511.61	23.973
511.95	23.077
512.30	23.594
512.64	23.695
512.98	23.449
513.33	22.509
513.67	22.874
514.02	22.776
514.36	22.301
514.70	24.226
515.05	23.963
515.39	23.965
515.74	23.559
516.08	23.352
516.42	23.493
516.77	24.224
517.11	23.731
517.46	24.672
517.80	24.442
518.14	24.794
518.49	24.256
518.83	23.930
519.17	23.522
519.52	24.235
519.86	24.383
520.20	23.694
520.55	24.935
520.89	25.034
521.23	23.914
521.58	23.082
521.92	23.031
522.26	24.055
522.61	24.915
522.95	23.973
523.29	25.034
523.64	23.948
523.98	24.261
524.32	24.310
524.66	24.541
525.01	24.399
525.35	24.829
525.69	24.845
526.04	24.877
526.38	24.332
526.72	25.486
527.06	24.473
527.41	23.459
527.75	23.762
528.09	23.692
528.43	24.522
528.78	22.502
529.12	24.384
529.46	23.721
529.80	23.622
530.15	24.114
530.49	24.128
530.83	23.717
531.17	22.599
531.51	24.911
531.86	24.020
532.20	23.232
532.54	24.676
532.88	23.200
533.22	23.994
533.57	24.276
533.91	23.675
534.25	23.354
534.59	23.521
534.93	23.371
535.27	22.694
535.62	22.890
535.96	23.378
536.30	23.312
536.64	23.319
536.98	23.746
537.32	23.438
537.66	23.827
538.01	23.859
538.35	23.855
538.69	22.788
539.03	23.360
539.37	22.900
539.71	23.696
540.05	23.444
540.39	23.602
540.73	23.956
541.07	23.088
541.42	22.309
541.76	22.374
542.10	22.166
542.44	23.772
542.78	22.287
543.12	22.166
543.46	23.174
543.80	23.159
544.14	23.082
544.48	23.789
544.82	21.859
545.16	23.261
545.50	22.562
545.84	22.677
546.18	22.846
546.52	23.290
546.86	23.336
547.20	22.879
547.54	23.048
547.88	22.365
548.22	21.660
548.56	23.044
548.90	22.667
549.24	22.149
549.58	23.547
549.92	23.233
550.26	22.162
550.60	23.077
550.94	24.444
551.28	24.634
551.62	24.079
551.96	22.843
552.30	21.938
552.64	22.840
552.98	23.626
553.32	21.136
553.66	22.155
554.00	21.931
554.34	23.516
554.68	23.684
555.02	24.444
555.36	22.478
555.69	21.676
556.03	22.542
556.37	23.181
556.71	23.077
557.05	22.578
557.39	23.213
557.73	23.035
558.07	23.474
558.41	21.229
558.75	23.237
559.08	23.830
559.42	23.244
559.76	22.325
560.10	23.472
560.44	21.615
560.78	22.915
561.12	21.788
561.45	21.131
561.79	21.586
562.13	22.090
562.47	21.942
562.81	22.517
563.15	22.129
563.48	21.049
563.82	22.416
564.16	21.771
564.50	20.774
564.84	22.041
565.17	22.103
565.51	22.167
565.85	21.127
566.19	21.921
566.52	22.151
566.86	22.131
567.20	21.490
567.54	20.932
567.88	20.934
568.21	22.040
568.55	20.713
568.89	20.769
569.23	19.127
569.56	19.678
569.90	19.700
570.24	19.307
570.57	18.736
570.91	19.578
571.25	19.421
571.59	18.492
571.92	18.140
572.26	17.988
572.60	18.730
572.93	18.042
573.27	18.235
573.61	18.261
573.95	18.727
574.28	17.738
574.62	17.762
574.96	18.070
575.29	17.811
575.63	17.507
575.97	17.353
576.30	18.334
576.64	17.723
576.98	17.631
577.31	17.983
577.65	17.781
577.98	17.390
578.32	17.314
578.66	17.089
578.99	17.826
579.33	17.464
579.67	17.736
580.00	17.264
580.34	17.285
580.67	17.701
581.01	17.410
581.35	17.235
581.68	17.387
582.02	16.761
582.35	16.875
582.69	17.549
583.02	17.177
583.36	17.319
583.70	17.547
584.03	17.418
584.37	17.956
584.70	17.447
585.04	16.958
585.37	17.225
585.71	17.523
586.04	17.763
586.38	17.352
586.72	17.486
587.05	17.450
587.39	17.858
587.72	17.227
588.06	17.185
588.39	17.616
588.73	18.145
589.06	17.891
589.40	18.022
589.73	18.100
590.07	18.157
590.40	18.347
590.73	18.409
591.07	18.009
591.40	18.821
591.74	18.563
592.07	19.102
592.41	18.978
592.74	18.449
593.08	18.219
593.41	17.895
593.75	17.796
594.08	18.162
594.41	18.086
594.75	18.324
595.08	18.153
595.42	18.776
595.75	17.841
596.09	17.734
596.42	18.436
596.75	18.636
597.09	18.424
597.42	18.301
597.75	18.949
598.09	18.071
598.42	18.363
598.76	17.942
599.09	18.235
599.42	17.388
599.76	17.772
600.09	18.545
600.42	17.266
600.76	17.937
601.09	18.275
601.42	17.915
601.76	17.857
602.09	17.805
602.42	18.498
602.76	17.888
603.09	18.407
603.42	17.589
603.76	17.457
604.09	18.045
604.42	18.720
604.76	18.211
605.09	18.233
605.42	19.005
605.75	18.273
606.09	18.933
606.42	17.673
606.75	18.384
607.09	18.610
607.42	18.403
607.75	17.677
608.08	18.709
608.42	18.623
608.75	18.859
609.08	18.122
609.41	18.663
609.75	18.220
610.08	18.656
610.41	18.830
610.74	18.706
611.07	18.403
611.41	17.773
611.74	19.097
612.07	18.304
612.40	19.331
612.73	18.866
613.07	18.908
613.40	19.264
613.73	17.411
614.06	18.150
614.39	18.981
614.72	18.123
615.06	19.173
615.39	18.649
615.72	18.869
616.05	17.971
616.38	19.395
616.71	18.843
617.05	18.781
617.38	19.161
617.71	19.595
618.04	19.842
618.37	19.097
618.70	19.837
619.03	19.144
619.36	19.809
619.69	20.295
620.03	20.519
620.36	20.257
620.69	20.325
621.02	20.665
621.35	20.000
621.68	20.612
622.01	20.677
622.34	20.687
622.67	21.164
623.00	20.147
623.33	20.472
623.66	20.717
623.99	20.096
624.32	19.936
624.65	20.625
624.99	19.219
625.32	19.352
625.65	19.135
625.98	21.917
626.31	19.307
626.64	20.721
626.97	22.059
627.30	21.204
627.63	20.837
627.96	21.601
628.29	20.363
628.62	21.237
628.95	21.859
629.28	23.347
629.61	21.839
629.94	22.199
630.26	22.280
630.59	21.466
630.92	21.180
631.25	21.453
631.58	21.628
631.91	21.982
632.24	23.550
632.57	23.306
632.90	24.354
633.23	24.129
633.56	21.761
633.89	20.976
634.22	23.718
634.55	22.865
634.88	24.498
635.20	22.877
635.53	22.067
635.86	24.457
636.19	23.738
636.52	23.854
636.85	21.904
637.18	22.021
637.51	23.035
637.83	24.721
638.16	22.333
638.49	23.775
638.82	25.457
639.15	22.000
639.48	24.309
639.81	22.951
640.13	22.818
640.46	24.252
640.79	22.481
641.12	26.047
641.45	25.505
641.77	23.567
642.10	28.990
642.43	23.232
642.76	23.297
643.09	25.260
643.41	24.552
643.74	24.479
644.07	21.340
644.40	25.271
644.73	23.204
645.05	25.382
645.38	26.346
645.71	25.573
646.04	27.323
646.36	25.758
646.69	25.338
647.02	28.516
647.35	26.800
647.67	27.054
648.00	26.796
648.33	24.470
648.66	25.788
648.98	25.593
649.31	26.162
649.64	23.064
649.96	24.155
650.29	20.000
650.62	24.490
650.94	25.323
651.27	21.773
651.60	24.474
651.92	26.336
652.25	20.076
652.58	22.801
652.90	21.708
653.23	24.132
653.56	22.917
653.88	23.175
654.21	23.251
654.54	22.326
654.86	25.180
655.19	22.742
655.52	20.824
655.84	15.664
656.17	14.904
656.49	19.666
656.82	22.907
657.15	18.370
657.47	13.954
657.80	10.330
658.13	8.570
658.45	14.685
658.78	14.759
659.10	14.663
659.43	14.766
659.75	14.854
660.08	16.383
660.41	17.473
660.73	20.776
661.06	20.909
661.38	24.194
661.71	24.508
662.03	27.546
662.36	25.776
662.68	23.022
663.01	27.404
663.33	27.123
663.66	28.230
663.98	27.873
664.31	24.878
664.63	23.394
664.96	24.703
665.28	27.187
665.61	24.766
665.93	22.120
666.26	23.400
666.58	25.917
666.91	25.293
667.23	24.384
667.56	24.691
667.88	28.070
668.21	26.142
668.53	26.904
668.86	24.235
669.18	23.096
669.50	27.763
669.83	22.750
670.15	23.000
670.48	26.566
670.80	22.843
671.13	23.614
671.45	25.000
671.77	25.121
672.10	25.275
672.42	21.514
672.75	19.806
673.07	25.047
673.39	21.790
673.72	24.174
674.04	22.340
674.37	25.173
674.69	26.168
675.01	22.558
675.34	22.549
675.66	23.810
675.98	21.970
676.31	28.212
676.63	19.072
676.95	22.062
677.28	23.020
677.60	25.564
677.92	25.564
678.25	22.506
678.57	22.274
678.89	18.807
679.22	23.165
679.54	22.494
679.86	21.627
680.18	18.619
680.51	21.355
680.83	22.708
681.15	22.876
681.48	22.553
681.80	18.913
682.12	24.839
682.44	20.474
682.77	20.909
683.09	22.059
683.41	23.308
683.73	23.618
684.06	23.604
684.38	25.420
684.70	23.326
685.02	20.130
685.34	17.573
685.67	21.739
685.99	20.958
686.31	22.948
686.63	23.107
686.96	20.935
687.28	20.945
687.60	22.998
687.92	19.620
688.24	22.105
688.56	18.242
688.89	23.288
689.21	17.674
689.53	24.297
689.85	20.506
690.17	20.098
690.49	21.647
690.82	24.079
691.14	24.021
691.46	21.000
691.78	19.139
692.10	22.248
692.42	21.789
692.74	22.038
693.06	19.277
693.39	17.241
693.71	20.930
694.03	17.633
694.35	19.059
694.67	22.646
694.99	19.677
695.31	22.663
695.63	21.351
695.95	23.315
696.27	21.813
696.59	21.662
696.91	21.368
697.23	21.203
697.56	22.021
697.88	18.267
698.20	18.886
698.52	20.913
698.84	21.053
699.16	18.734
699.48	23.822
699.80	20.879
700.12	17.631
700.44	19.764
700.76	21.136
701.08	20.317
701.40	21.711
701.72	24.333
702.04	18.707
702.36	26.885
702.68	25.168
703.00	20.820
703.32	21.257
703.64	23.028
703.96	20.253
704.28	21.479
704.60	24.315
704.91	22.368
705.23	20.000
705.55	20.446
705.87	25.540
706.19	23.506
706.51	24.609
706.83	23.077
707.15	20.000
707.47	20.359
707.79	17.479
708.11	20.370
708.43	19.200
708.74	17.213
709.06	19.325
709.38	16.320
709.70	19.805
710.02	19.580
710.34	14.184
710.66	22.846
710.98	20.979
711.29	21.993
711.61	18.794
711.93	22.472
712.25	21.887
712.57	24.609
712.89	21.224
713.20	15.323
713.52	15.447
713.84	15.693
714.16	24.324
714.48	19.454
714.80	19.865
715.11	20.962
715.43	16.041
715.75	17.544
716.07	16.000
716.39	19.454
716.70	21.200
717.02	19.758
717.34	21.645
717.66	22.727
717.97	12.963
718.29	18.222
718.61	18.018
718.93	19.328
719.24	23.849
719.56	16.071
719.88	18.431
720.20	16.239
720.51	21.053
720.83	15.481
721.15	18.776
721.46	18.987
721.78	13.853
722.10	22.868
722.42	19.565
722.73	12.670
723.05	18.433
723.37	18.100
723.68	25.118
724.00	19.907
724.32	20.093
724.63	22.624
724.95	19.635
725.27	20.657
725.58	21.918
725.90	14.865
726.22	19.651
726.53	20.082
726.85	23.704
727.16	24.696
727.48	21.371
727.80	15.068
728.11	20.000
728.43	20.988
728.74	14.035
729.06	20.961
729.38	20.930
729.69	20.000
730.01	17.992
730.32	20.319
730.64	19.231
730.96	15.444
731.27	16.602
731.59	12.795
731.90	15.789
732.22	18.605
732.53	11.930
732.85	15.141
733.16	18.315
733.48	14.552
733.80	19.273
734.11	18.440
734.43	16.968
734.74	14.953
735.06	17.685
735.37	13.099
735.69	14.437
736.00	17.407
736.32	18.881
736.63	17.407
736.95	14.786
737.26	13.406
737.58	18.978
737.89	10.566
738.21	19.847
738.52	22.951
738.83	18.376
739.15	16.818
739.46	12.613
739.78	15.830
740.09	16.270
740.41	18.561
740.72	13.944
741.04	18.577
741.35	17.489
741.66	23.118
741.98	19.388
742.29	16.580
742.61	18.497
742.92	23.529
743.23	21.891
743.55	16.580
743.86	19.807
744.18	23.000
744.49	20.556
744.80	25.269
745.12	18.974
745.43	18.717
745.74	14.973
746.06	19.540
746.37	20.000
746.68	17.838
747.00	14.917
747.31	18.325
747.62	19.474
747.94	21.226
748.25	15.271
748.56	16.667
748.88	15.301
749.19	21.244
749.50	18.824
749.82	26.000
750.13	17.961
750.44	18.455
750.75	18.800
751.07	13.808
751.38	13.672
751.69	23.413
752.01	11.765
752.32	18.595
752.63	17.467
752.94	15.200
753.26	15.525
753.57	13.270
753.88	12.093
754.19	14.537
754.51	12.134
754.82	21.250
755.13	15.044
755.44	16.450
755.75	13.655
756.07	13.305
756.38	16.318
756.69	18.868
757.00	17.730
757.31	11.765
757.63	16.667
757.94	13.636
758.25	12.500
758.56	15.405
758.87	15.476
759.18	18.692
759.50	18.861
759.81	15.444
760.12	17.438
760.43	17.940
760.74	14.970
761.05	13.462
761.36	14.243
761.67	16.109
761.99	15.050
762.30	15.636
762.61	14.634
762.92	16.000
763.23	20.465
763.54	17.259
763.85	22.624
764.16	13.043
764.47	17.391
764.78	19.355
765.10	12.992
765.41	12.709
765.72	17.391
766.03	14.381
766.34	14.015
766.65	11.328
766.96	17.333
767.27	18.994
767.58	17.610
767.89	22.727
768.20	8.784
768.51	13.793
768.82	18.125
769.13	16.667
769.44	12.264
769.75	14.706
770.06	13.592
770.37	20.213
770.68	11.795
770.99	19.797
771.30	15.464
771.61	13.453
771.92	12.264
772.23	13.462
772.54	18.235
772.85	4.110
773.16	14.839
773.47	12.102
773.78	14.970
774.09	19.737
774.39	17.647
774.70	18.797
775.01	23.077
775.32	7.143
775.63	11.811
775.94	18.868
776.25	14.815
776.56	18.182
776.87	18.803
777.18	8.000
777.48	13.462
777.79	17.593
778.10	14.151
778.41	24.510
778.72	16.038
779.03	10.526
779.34	13.445
779.65	14.085
779.95	18.705
780.26	1.613
780.57	16.667
780.88	7.339
781.19	12.037
781.50	12.295
781.80	8.759
782.11	11.538
782.42	7.586
782.73	16.084
783.04	10.400
783.34	12.000
783.65	8.943
783.96	7.377
784.27	6.723
784.57	5.607
784.88	16.071
785.19	18.557
785.50	20.000
785.81	3.000
786.11	12.871
786.42	-15.294
786.73	4.167
787.04	12.245
787.34	22.222
787.65	16.981
787.96	6.186
788.26	10.891
788.57	14.783
788.88	0.917
789.19	11.570
789.49	10.435
789.80	13.793
790.11	-6.098
790.41	20.225
790.72	0.000
791.03	16.279
791.33	-2.597
791.64	7.317
791.95	0.000
792.25	-3.614
792.56	4.938
792.87	7.042
793.17	18.072
793.48	1.176
793.79	6.250
794.09	-8.333
794.40	18.478
794.70	9.565
795.01	7.339
795.32	14.173
795.62	10.784
795.93	11.765
796.23	14.141
796.54	3.488
796.85	8.696
797.15	17.188
797.46	-3.390
797.76	4.918
798.07	7.895
798.37	8.065
798.68	1.563
798.99	12.308
799.29	-1.515
799.60	8.696
799.90	7.143
800.21	-1.754
800.51	3.448
800.82	11.321
801.12	-5.882
801.43	9.677
801.73	24.194
802.04	20.000
802.34	-11.321
802.65	-18.421
802.95	-9.091
803.26	-7.547
803.56	-1.639
803.87	4.000
804.17	3.704
804.48	25.000
804.78	-14.286
805.09	36.170
805.39	23.729
805.70	-37.500
806.00	16.071
806.30	11.864
806.61	0.000
806.91	-4.615
807.22	5.263
807.52	0.000
807.83	-15.517
808.13	22.785
808.43	-8.197
808.74	13.115
809.04	27.027
809.35	1.852
809.65	25.000
809.95	10.169
810.26	-26.531
810.56	9.434
810.86	-9.804
811.17	18.919
811.47	-37.037
811.77	3.922
812.08	0.000
812.38	-25.000
812.69	5.128
812.99	14.286
813.29	39.130
813.59	0.000
813.90	-9.524
814.20	14.545
814.50	8.163
814.81	-9.804
815.11	6.250
815.41	-4.878
815.72	-11.538
816.02	34.043
816.32	15.625
816.62	6.061
816.93	-24.242
817.23	2.703
817.53	-11.765
817.84	27.500
818.14	-55.882
818.44	3.125
818.74	-52.381
819.04	-2.857
819.35	5.714
819.65	27.273
819.95	7.692
820.25	-22.222
820.56	-37.931
820.86	-25.000
821.16	-21.739
821.46	2.381
821.76	12.963
822.07	8.696
822.37	-8.163
822.67	-11.628
822.97	-4.348
823.27	-38.462
823.57	-7.407
823.88	14.286
824.18	5.128
824.48	3.571
824.78	15.152
825.08	-53.333
825.38	5.000
825.69	-127.778
825.99	-29.630
826.29	8.889
826.59	-22.222
826.89	3.704
827.19	7.143
827.49	-59.091
827.79	-63.636
828.09	27.273
828.39	13.043
828.70	-11.111
829.00	28.571
829.30	-7.143
829.60	3.226
829.90	-15.385
830.20	-15.385
830.50	-36.364
830.80	-42.857
831.10	-77.778
831.40	-71.429
831.70	-55.556
832.00	0.000
832.30	-13.043
832.60	29.167
832.90	-118.182
833.20	-61.111
833.50	9.375
833.80	-11.538
834.10	0.000
834.40	-8.333
834.70	-31.818
835.00	15.385
835.30	-25.000
835.60	-110.000
835.90	50.000
836.20	-14.286
836.50	4.348
836.80	-72.222
837.10	0.000
837.40	-160.000
837.70	0.000
838.00	-64.286
838.30	1700.000
838.60	76.000
838.90	0.000
839.19	-66.667
839.49	-750.000
839.79	-11.765
840.09	0.000
840.39	10.714
840.69	-33.333
840.99	-75.000
841.29	-10.345
841.59	-66.667
841.88	-36.364
842.18	-233.333
842.48	-12.500
842.78	-3.846
843.08	0.000
843.38	-10.000
843.68	-61.538
843.97	5.882
844.27	-30.000
844.57	16.667
844.87	-154.545
845.17	-84.211
845.47	-77.778
845.76	-22.222
846.06	-66.667
846.36	-35.714
846.66	-133.333
846.96	-15.000
847.25	-100.000
847.55	-125.000
847.85	-33.333
848.15	-100.000
848.44	0.000
848.74	-13.333
849.04	-36.842
849.34	-533.333
849.63	16.667
849.93	17.647
850.23	-127.273
850.53	-166.667
850.82	140.000
851.12	11.111
851.42	-42.857
851.71	-60.000
852.01	-64.286
852.31	-300.000
852.61	-100.000
852.90	-280.000
853.20	-55.556
853.50	-100.000
853.79	-40.000
854.09	-45.000
854.39	-63.158
854.68	-75.000
854.98	-225.000
855.28	-38.889
855.57	-157.143
855.87	-36.842
856.17	-106.250
856.46	11.538
856.76	0.000
857.05	-43.750
857.35	-4.167
857.65	-22.222
857.94	-75.000
858.24	-30.435
858.53	-140.000
858.83	-200.000
859.13	-154.545
859.42	-170.000
859.72	16.667
860.01	7.692
860.31	-160.000
860.60	-175.000
860.90	25.000
861.20	-216.667
861.49	-75.000
861.79	800.000
862.08	12.903
862.38	-21.053
862.67	15.385
862.97	-60.000
863.26	-58.333
863.56	13.043
863.85	-50.000
864.15	-42.857
864.44	-12.500
864.74	-116.667
865.03	-77.778
865.33	-233.333
865.62	-1600.000
865.92	-550.000
866.21	-166.667
866.51	-54.545
866.80	-433.333
867.10	-157.143
867.39	-11.111
867.69	-100.000
867.98	200.000
868.27	-325.000
868.57	625.000
868.86	-60.000
869.16	-38.462
869.45	700.000
869.75	-33.333
870.04	-116.667
870.33	35.294
870.63	14.286
870.92	21.739
871.22	-225.000
871.51	280.000
871.80	6.250
872.10	-33.333
>>>>>End Processed Spectral Data<<<<<
