SpectraSuite Data File
++++++++++++++++++++++++++++++++++++
Date: Tue May 12 19:58:13 PDT 2015
User: schluterlab
Dark Spectrum Present: Yes
Reference Spectrum Present: Yes
Number of Sampled Component Spectra: 1
Spectrometers: USB2E3373
Integration Time (usec): 3000 (USB2E3373)
Spectra Averaged: 3 (USB2E3373)
Boxcar Smoothing: 0 (USB2E3373)
Correct for Electrical Dark: No (USB2E3373)
Strobe/Lamp Enabled: No (USB2E3373)
Correct for Detector Non-linearity: No (USB2E3373)
Correct for Stray Light: No (USB2E3373)
Number of Pixels in Processed Spectrum: 2048
>>>>>Begin Processed Spectral Data<<<<<
178.53	0.000
178.91	-130.000
179.29	-283.333
179.67	600.000
180.04	0.000
180.42	-300.000
180.80	-866.667
181.18	1250.000
181.56	-700.000
181.94	333.333
182.31	2500.000
182.69	-85.714
183.07	0.000
183.45	208.333
183.83	460.000
184.20	316.667
184.58	1400.000
184.96	500.000
185.34	-533.333
185.72	-114.286
186.09	-166.667
186.47	-200.000
186.85	-320.000
187.23	216.667
187.61	-257.143
187.98	-460.000
188.36	1000.000
188.74	-275.000
189.12	-211.111
189.49	-190.000
189.87	425.000
190.25	344.444
190.63	833.333
191.00	320.000
191.38	-633.333
191.76	560.000
192.14	-200.000
192.51	-130.000
192.89	-300.000
193.27	-360.000
193.65	-600.000
194.02	-266.667
194.40	800.000
194.78	-250.000
195.15	-214.286
195.53	800.000
195.91	540.000
196.29	-500.000
196.66	-233.333
197.04	-385.714
197.42	320.000
197.79	-175.000
198.17	-91.667
198.55	-1600.000
198.92	-211.111
199.30	1250.000
199.68	-450.000
200.05	-850.000
200.43	-38.889
200.81	-33.333
201.18	416.667
201.56	-1300.000
201.94	-1500.000
202.31	-75.000
202.69	-88.889
203.07	-25.000
203.44	-200.000
203.82	0.000
204.19	475.000
204.57	-800.000
204.95	172.727
205.32	440.000
205.70	625.000
206.08	-1300.000
206.45	-340.000
206.83	2300.000
207.20	-188.889
207.58	-123.077
207.96	466.667
208.33	666.667
208.71	933.333
209.08	750.000
209.46	-77.778
209.84	966.667
210.21	-633.333
210.59	100.000
210.96	222.222
211.34	-500.000
211.71	1450.000
212.09	-280.000
212.46	-150.000
212.84	-200.000
213.22	171.429
213.59	-150.000
213.97	0.000
214.34	-1100.000
214.72	-2200.000
215.09	1200.000
215.47	-40.000
215.84	-125.000
216.22	-1800.000
216.59	1500.000
216.97	-125.000
217.34	-266.667
217.72	-44.444
218.09	625.000
218.47	-94.737
218.84	-250.000
219.22	-71.429
219.59	-160.000
219.97	-60.000
220.34	300.000
220.72	145.455
221.09	-1300.000
221.47	0.000
221.84	950.000
222.22	-625.000
222.59	-550.000
222.97	-65.217
223.34	146.667
223.72	414.286
224.09	-266.667
224.46	215.385
224.84	-33.333
225.21	-800.000
225.59	-500.000
225.96	-45.000
226.34	433.333
226.71	310.000
227.08	-130.769
227.46	-228.571
227.83	-83.333
228.21	-1200.000
228.58	366.667
228.95	-42.105
229.33	-93.750
229.70	-350.000
230.08	-255.556
230.45	-700.000
230.82	-1000.000
231.20	-42.857
231.57	-380.000
231.95	-433.333
232.32	244.444
232.69	-1150.000
233.07	-25.000
233.44	-225.000
233.81	16.129
234.19	-480.000
234.56	-83.333
234.93	-183.333
235.31	-51.852
235.68	-18.519
236.05	-57.692
236.43	-68.421
236.80	-50.000
237.17	-114.286
237.55	-80.000
237.92	-11.628
238.29	-48.387
238.67	10.714
239.04	2.857
239.41	-9.804
239.79	0.000
240.16	-25.000
240.53	-1.724
240.91	4.110
241.28	0.000
241.65	-6.250
242.02	-14.035
242.40	-4.000
242.77	2.105
243.14	9.412
243.51	-9.677
243.89	4.762
244.26	19.444
244.63	7.143
245.00	-2.679
245.38	0.000
245.75	8.475
246.12	10.156
246.49	3.200
246.87	0.820
247.24	4.225
247.61	9.934
247.98	13.483
248.36	13.208
248.73	1.136
249.10	10.000
249.47	13.021
249.84	7.614
250.22	10.938
250.59	8.989
250.96	12.727
251.33	16.038
251.70	10.550
252.08	11.688
252.45	11.020
252.82	11.392
253.19	15.175
253.56	16.863
253.94	9.756
254.31	16.547
254.68	12.153
255.05	19.205
255.42	15.636
255.79	19.205
256.16	14.583
256.54	16.667
256.91	19.231
257.28	15.909
257.65	14.098
258.02	18.018
258.39	18.731
258.76	16.208
259.14	12.647
259.51	18.592
259.88	18.156
260.25	13.352
260.62	11.236
260.99	16.156
261.36	15.805
261.73	16.533
262.10	16.349
262.47	18.182
262.85	16.710
263.22	13.172
263.59	19.839
263.96	14.099
264.33	13.747
264.70	15.233
265.07	16.995
265.44	18.033
265.81	19.518
266.18	15.457
266.55	15.714
266.92	18.527
267.29	20.667
267.66	14.091
268.03	18.280
268.40	16.018
268.77	16.258
269.14	15.966
269.51	16.290
269.88	16.880
270.25	14.557
270.62	17.647
270.99	16.632
271.36	14.349
271.73	16.458
272.10	17.012
272.47	14.000
272.84	14.650
273.21	16.075
273.58	14.082
273.95	15.737
274.32	17.988
274.69	18.004
275.06	18.574
275.43	13.600
275.80	17.208
276.17	14.822
276.54	15.779
276.91	17.658
277.28	15.861
277.65	13.800
278.02	16.288
278.39	18.875
278.76	17.318
279.13	16.816
279.50	15.162
279.87	15.660
280.23	16.758
280.60	14.134
280.97	17.575
281.34	16.780
281.71	13.677
282.08	17.352
282.45	15.344
282.82	15.993
283.19	14.815
283.56	17.406
283.92	16.588
284.29	18.274
284.66	16.460
285.03	15.437
285.40	15.667
285.77	16.585
286.14	15.531
286.51	15.756
286.87	15.883
287.24	14.423
287.61	14.969
287.98	17.058
288.35	13.643
288.72	17.125
289.08	14.465
289.45	15.757
289.82	13.975
290.19	16.364
290.56	16.498
290.93	15.066
291.29	15.887
291.66	15.730
292.03	15.638
292.40	17.698
292.77	15.306
293.13	13.803
293.50	13.636
293.87	15.395
294.24	14.607
294.60	13.798
294.97	13.712
295.34	13.288
295.71	13.592
296.08	13.388
296.44	14.888
296.81	12.419
297.18	13.972
297.55	14.322
297.91	13.198
298.28	12.788
298.65	12.160
299.02	14.427
299.38	13.903
299.75	14.286
300.12	13.429
300.48	11.854
300.85	12.592
301.22	12.861
301.59	13.990
301.95	13.049
302.32	13.730
302.69	12.485
303.05	13.813
303.42	14.493
303.79	11.011
304.15	13.817
304.52	12.849
304.89	10.598
305.25	13.188
305.62	11.591
305.99	12.094
306.35	13.199
306.72	14.161
307.09	12.187
307.45	12.729
307.82	13.340
308.19	15.182
308.55	13.819
308.92	13.030
309.29	12.343
309.65	12.487
310.02	14.465
310.38	13.113
310.75	13.012
311.12	12.920
311.48	14.080
311.85	13.070
312.22	14.050
312.58	12.487
312.95	13.963
313.31	15.044
313.68	12.910
314.05	14.598
314.41	14.145
314.78	14.271
315.14	14.789
315.51	15.591
315.87	15.039
316.24	15.331
316.61	16.602
316.97	15.980
317.34	17.225
317.70	16.153
318.07	16.393
318.43	18.147
318.80	17.213
319.16	16.309
319.53	18.302
319.89	17.519
320.26	17.797
320.62	19.186
320.99	20.102
321.35	20.455
321.72	21.515
322.08	20.792
322.45	21.400
322.81	21.182
323.18	20.134
323.54	23.318
323.91	22.201
324.27	22.662
324.64	22.868
325.00	23.749
325.37	25.540
325.73	23.723
326.10	24.168
326.46	23.753
326.83	24.978
327.19	25.328
327.56	26.260
327.92	25.521
328.29	26.703
328.65	26.460
329.01	27.615
329.38	26.630
329.74	27.762
330.11	26.841
330.47	29.050
330.84	26.974
331.20	26.895
331.56	26.981
331.93	28.728
332.29	27.105
332.66	29.295
333.02	29.155
333.38	30.147
333.75	29.918
334.11	28.662
334.48	28.623
334.84	29.390
335.20	28.021
335.57	30.609
335.93	29.395
336.29	28.611
336.66	28.597
337.02	28.649
337.38	30.189
337.75	31.000
338.11	31.085
338.47	29.619
338.84	29.374
339.20	30.522
339.56	29.543
339.93	28.919
340.29	30.734
340.65	30.685
341.02	30.292
341.38	30.803
341.74	30.694
342.11	30.592
342.47	30.507
342.83	30.963
343.20	31.123
343.56	30.420
343.92	29.834
344.28	29.760
344.65	30.223
345.01	28.833
345.37	29.829
345.73	29.113
346.10	29.732
346.46	29.594
346.82	29.822
347.19	30.362
347.55	30.697
347.91	29.320
348.27	30.497
348.63	31.806
349.00	30.634
349.36	30.750
349.72	30.952
350.08	32.242
350.45	30.269
350.81	30.966
351.17	30.313
351.53	30.918
351.89	31.002
352.26	30.976
352.62	31.725
352.98	32.134
353.34	32.414
353.70	30.782
354.07	32.125
354.43	30.801
354.79	31.639
355.15	31.154
355.51	32.029
355.87	32.140
356.24	32.435
356.60	31.219
356.96	32.464
357.32	33.251
357.68	32.617
358.04	31.199
358.40	32.406
358.77	32.851
359.13	31.807
359.49	30.640
359.85	32.934
360.21	32.117
360.57	33.174
360.93	33.888
361.29	32.944
361.66	33.754
362.02	34.223
362.38	34.654
362.74	34.589
363.10	34.087
363.46	33.559
363.82	33.997
364.18	33.838
364.54	33.969
364.90	34.667
365.26	34.054
365.62	35.352
365.98	34.708
366.35	35.779
366.71	35.176
367.07	36.900
367.43	34.946
367.79	35.392
368.15	34.915
368.51	36.030
368.87	38.106
369.23	37.169
369.59	35.956
369.95	36.513
370.31	38.636
370.67	37.594
371.03	38.003
371.39	38.369
371.75	37.519
372.11	36.593
372.47	38.307
372.83	37.619
373.19	39.157
373.55	39.147
373.91	39.015
374.27	39.809
374.63	38.733
374.99	37.921
375.35	38.679
375.71	39.885
376.07	39.929
376.42	40.871
376.78	41.185
377.14	40.642
377.50	39.261
377.86	40.669
378.22	40.819
378.58	42.303
378.94	41.650
379.30	41.441
379.66	41.677
380.02	42.784
380.38	40.903
380.74	42.076
381.09	42.058
381.45	42.349
381.81	43.176
382.17	43.192
382.53	44.050
382.89	43.040
383.25	42.169
383.61	43.738
383.97	42.625
384.32	44.323
384.68	43.934
385.04	44.621
385.40	44.409
385.76	44.592
386.12	44.290
386.48	45.140
386.83	44.964
387.19	45.658
387.55	45.661
387.91	45.109
388.27	45.489
388.62	47.150
388.98	45.293
389.34	46.194
389.70	46.923
390.06	47.063
390.42	46.450
390.77	46.948
391.13	47.820
391.49	47.642
391.85	47.039
392.20	49.175
392.56	47.020
392.92	47.372
393.28	48.534
393.64	48.322
393.99	48.442
394.35	47.437
394.71	47.881
395.07	48.873
395.42	48.571
395.78	48.723
396.14	49.367
396.50	48.900
396.85	48.777
397.21	48.060
397.57	49.375
397.92	50.318
398.28	49.640
398.64	49.270
399.00	49.507
399.35	49.824
399.71	49.222
400.07	51.143
400.42	50.705
400.78	50.032
401.14	50.063
401.49	49.594
401.85	52.000
402.21	50.825
402.57	50.869
402.92	51.129
403.28	50.845
403.63	51.474
403.99	51.255
404.35	50.318
404.70	52.312
405.06	51.705
405.42	50.683
405.77	50.951
406.13	50.717
406.49	51.798
406.84	52.242
407.20	51.301
407.55	52.839
407.91	51.469
408.27	53.457
408.62	51.961
408.98	52.767
409.34	52.625
409.69	51.906
410.05	52.655
410.40	50.867
410.76	53.051
411.11	52.553
411.47	52.653
411.83	51.835
412.18	53.207
412.54	52.458
412.89	51.231
413.25	53.041
413.60	53.635
413.96	52.880
414.31	53.027
414.67	54.018
415.03	52.974
415.38	52.925
415.74	54.130
416.09	53.756
416.45	53.220
416.80	53.825
417.16	55.078
417.51	53.643
417.87	54.514
418.22	54.545
418.58	53.697
418.93	54.288
419.29	54.138
419.64	56.387
420.00	55.141
420.35	54.363
420.71	54.738
421.06	55.678
421.42	53.639
421.77	55.116
422.12	54.223
422.48	54.997
422.83	54.347
423.19	55.059
423.54	55.284
423.90	54.821
424.25	55.952
424.61	55.419
424.96	54.853
425.31	56.039
425.67	55.697
426.02	53.602
426.38	55.663
426.73	56.262
427.09	56.008
427.44	55.802
427.79	57.054
428.15	55.739
428.50	56.407
428.85	56.831
429.21	57.143
429.56	54.807
429.92	54.949
430.27	54.773
430.62	56.030
430.98	55.185
431.33	55.840
431.68	57.002
432.04	56.444
432.39	56.031
432.74	55.914
433.10	56.458
433.45	57.378
433.80	57.202
434.16	55.754
434.51	56.243
434.86	56.979
435.22	56.927
435.57	58.245
435.92	56.347
436.28	55.604
436.63	56.828
436.98	57.778
437.34	58.797
437.69	57.593
438.04	57.572
438.39	57.833
438.75	57.108
439.10	59.702
439.45	59.756
439.81	57.143
440.16	57.761
440.51	58.426
440.86	59.217
441.22	57.058
441.57	58.177
441.92	58.697
442.27	60.000
442.63	59.142
442.98	61.614
443.33	58.989
443.68	59.235
444.03	57.629
444.39	59.448
444.74	59.073
445.09	59.209
445.44	59.067
445.79	59.655
446.15	59.942
446.50	58.820
446.85	58.691
447.20	58.042
447.55	59.162
447.91	59.612
448.26	59.941
448.61	60.121
448.96	60.142
449.31	59.433
449.66	58.535
450.02	59.527
450.37	60.510
450.72	58.827
451.07	61.042
451.42	60.935
451.77	58.827
452.12	59.586
452.47	61.247
452.83	60.274
453.18	60.635
453.53	61.332
453.88	59.860
454.23	59.169
454.58	61.423
454.93	58.992
455.28	59.878
455.63	60.494
455.98	59.391
456.34	60.415
456.69	61.544
457.04	59.908
457.39	58.677
457.74	59.482
458.09	60.921
458.44	60.331
458.79	59.011
459.14	59.034
459.49	59.427
459.84	60.583
460.19	58.974
460.54	59.722
460.89	60.000
461.24	60.844
461.59	60.568
461.94	60.552
462.29	58.208
462.64	59.749
462.99	60.696
463.34	61.099
463.69	60.905
464.04	60.744
464.39	61.350
464.74	60.026
465.09	59.421
465.44	59.088
465.79	60.409
466.14	59.427
466.49	60.916
466.84	60.012
467.19	59.844
467.54	59.085
467.89	60.679
468.24	60.164
468.59	59.620
468.94	60.928
469.29	61.384
469.64	61.196
469.99	62.149
470.34	60.608
470.68	61.154
471.03	61.095
471.38	61.331
471.73	60.901
472.08	62.989
472.43	62.863
472.78	62.364
473.13	60.982
473.48	61.757
473.83	62.814
474.17	61.574
474.52	62.224
474.87	61.364
475.22	62.325
475.57	60.811
475.92	61.114
476.27	62.568
476.61	62.648
476.96	63.130
477.31	62.100
477.66	61.534
478.01	62.095
478.36	61.834
478.70	62.986
479.05	62.333
479.40	63.018
479.75	63.040
480.10	62.608
480.45	62.513
480.79	62.999
481.14	62.572
481.49	62.365
481.84	63.434
482.19	62.439
482.53	62.157
482.88	62.125
483.23	62.261
483.58	62.822
483.92	62.663
484.27	62.585
484.62	62.895
484.97	61.819
485.31	60.982
485.66	59.586
486.01	57.410
486.36	58.225
486.70	59.384
487.05	60.150
487.40	59.645
487.75	59.805
488.09	57.926
488.44	60.078
488.79	60.321
489.13	60.557
489.48	60.292
489.83	61.581
490.17	62.025
490.52	61.616
490.87	62.809
491.22	62.574
491.56	63.686
491.91	61.948
492.26	63.284
492.60	64.082
492.95	63.604
493.30	63.304
493.64	62.018
493.99	62.988
494.34	62.696
494.68	62.934
495.03	62.576
495.37	62.646
495.72	63.397
496.07	62.728
496.41	61.709
496.76	61.079
497.11	63.023
497.45	63.586
497.80	63.707
498.14	63.622
498.49	65.136
498.84	62.945
499.18	62.636
499.53	63.967
499.87	64.004
500.22	63.221
500.56	64.626
500.91	64.132
501.26	64.672
501.60	64.475
501.95	64.432
502.29	64.802
502.64	64.808
502.98	64.059
503.33	63.305
503.67	64.574
504.02	64.607
504.36	64.355
504.71	65.479
505.06	65.720
505.40	66.273
505.75	65.877
506.09	65.764
506.44	66.845
506.78	66.649
507.13	66.612
507.47	67.036
507.82	66.350
508.16	67.929
508.51	67.670
508.85	67.912
509.19	68.020
509.54	68.895
509.88	69.045
510.23	68.090
510.57	67.746
510.92	69.104
511.26	69.328
511.61	69.349
511.95	69.057
512.30	70.435
512.64	69.560
512.98	71.175
513.33	70.399
513.67	69.820
514.02	71.274
514.36	72.539
514.70	73.406
515.05	73.049
515.39	73.275
515.74	74.373
516.08	72.756
516.42	74.829
516.77	74.472
517.11	73.211
517.46	75.265
517.80	75.495
518.14	75.775
518.49	76.067
518.83	76.913
519.17	74.936
519.52	76.265
519.86	77.011
520.20	77.197
520.55	78.394
520.89	78.947
521.23	79.092
521.58	79.233
521.92	79.973
522.26	79.656
522.61	79.795
522.95	80.274
523.29	80.634
523.64	81.140
523.98	79.704
524.32	80.337
524.66	83.209
525.01	80.137
525.35	79.275
525.69	80.798
526.04	82.523
526.38	80.466
526.72	82.639
527.06	83.615
527.41	83.416
527.75	82.986
528.09	81.825
528.43	83.062
528.78	82.460
529.12	82.260
529.46	79.867
529.80	82.097
530.15	82.627
530.49	83.054
530.83	83.369
531.17	82.910
531.51	82.441
531.86	81.232
532.20	81.890
532.54	83.309
532.88	83.927
533.22	83.764
533.57	80.621
533.91	82.725
534.25	83.503
534.59	84.594
534.93	82.136
535.27	81.481
535.62	82.444
535.96	82.973
536.30	81.907
536.64	84.192
536.98	83.333
537.32	83.631
537.66	82.551
538.01	83.873
538.35	82.545
538.69	81.741
539.03	82.552
539.37	82.771
539.71	82.609
540.05	83.575
540.39	81.118
540.73	83.443
541.07	84.044
541.42	81.825
541.76	82.158
542.10	80.990
542.44	82.876
542.78	81.598
543.12	81.661
543.46	82.638
543.80	80.772
544.14	81.577
544.48	79.088
544.82	81.405
545.16	83.551
545.50	83.042
545.84	81.639
546.18	83.446
546.52	82.936
546.86	82.326
547.20	83.409
547.54	81.425
547.88	78.704
548.22	81.364
548.56	81.818
548.90	81.193
549.24	80.994
549.58	81.818
549.92	80.376
550.26	81.931
550.60	82.871
550.94	83.016
551.28	82.683
551.62	85.586
551.96	82.029
552.30	81.628
552.64	80.841
552.98	80.684
553.32	79.318
553.66	79.742
554.00	81.467
554.34	83.125
554.68	81.898
555.02	81.349
555.36	81.334
555.69	80.015
556.03	78.714
556.37	79.520
556.71	80.694
557.05	81.016
557.39	83.133
557.73	80.346
558.07	80.595
558.41	80.128
558.75	82.739
559.08	83.319
559.42	81.605
559.76	82.140
560.10	81.255
560.44	81.789
560.78	80.090
561.12	78.888
561.45	81.548
561.79	78.120
562.13	80.356
562.47	80.199
562.81	78.089
563.15	77.490
563.48	78.127
563.82	78.384
564.16	76.996
564.50	78.510
564.84	77.746
565.17	78.326
565.51	78.536
565.85	77.324
566.19	77.801
566.52	80.717
566.86	79.098
567.20	78.709
567.54	76.962
567.88	76.214
568.21	74.971
568.55	75.382
568.89	74.066
569.23	73.394
569.56	69.977
569.90	70.749
570.24	70.055
570.57	69.827
570.91	69.578
571.25	69.421
571.59	68.525
571.92	66.419
572.26	66.739
572.60	67.126
572.93	66.994
573.27	66.029
573.61	66.264
573.95	65.601
574.28	65.738
574.62	64.163
574.96	63.990
575.29	64.017
575.63	64.131
575.97	63.913
576.30	64.372
576.64	63.451
576.98	64.044
577.31	64.084
577.65	64.534
577.98	63.037
578.32	63.806
578.66	62.756
578.99	63.676
579.33	63.104
579.67	62.833
580.00	63.032
580.34	62.379
580.67	63.352
581.01	62.864
581.35	61.378
581.68	61.502
582.02	61.572
582.35	61.905
582.69	61.798
583.02	62.106
583.36	61.522
583.70	63.101
584.03	63.550
584.37	63.346
584.70	61.872
585.04	62.019
585.37	62.331
585.71	61.934
586.04	62.662
586.38	63.716
586.72	63.438
587.05	63.531
587.39	62.848
587.72	62.490
588.06	61.452
588.39	63.512
588.73	64.147
589.06	63.526
589.40	63.816
589.73	62.790
590.07	64.111
590.40	64.136
590.73	64.348
591.07	65.065
591.40	65.007
591.74	65.299
592.07	66.189
592.41	66.401
592.74	65.360
593.08	64.087
593.41	61.947
593.75	63.263
594.08	63.711
594.41	63.640
594.75	63.038
595.08	63.109
595.42	62.336
595.75	62.879
596.09	64.091
596.42	64.017
596.75	65.045
597.09	63.619
597.42	63.867
597.75	65.056
598.09	64.607
598.42	64.884
598.76	63.479
599.09	63.277
599.42	61.251
599.76	61.789
600.09	62.436
600.42	61.797
600.76	61.817
601.09	61.843
601.42	61.554
601.76	62.378
602.09	62.673
602.42	63.005
602.76	62.565
603.09	62.750
603.42	63.884
603.76	62.736
604.09	62.239
604.42	61.958
604.76	63.168
605.09	63.486
605.42	64.265
605.75	62.997
606.09	63.067
606.42	61.899
606.75	61.989
607.09	63.899
607.42	62.322
607.75	61.433
608.08	62.021
608.42	61.494
608.75	62.481
609.08	61.282
609.41	62.312
609.75	63.191
610.08	63.359
610.41	63.053
610.74	63.650
611.07	63.776
611.41	63.383
611.74	63.112
612.07	62.779
612.40	62.730
612.73	62.558
613.07	64.181
613.40	64.405
613.73	62.600
614.06	62.178
614.39	64.441
614.72	63.282
615.06	63.088
615.39	61.952
615.72	62.542
616.05	62.493
616.38	62.930
616.71	62.811
617.05	62.060
617.38	63.613
617.71	65.186
618.04	63.929
618.37	64.487
618.70	64.878
619.03	66.425
619.36	65.538
619.69	64.463
620.03	67.048
620.36	66.742
620.69	64.967
621.02	66.429
621.35	66.894
621.68	68.227
622.01	69.073
622.34	67.923
622.67	67.201
623.00	66.912
623.33	64.094
623.66	65.498
623.99	65.470
624.32	66.322
624.65	65.234
624.99	63.828
625.32	64.376
625.65	64.932
625.98	66.417
626.31	67.273
626.64	67.748
626.97	68.290
627.30	67.407
627.63	69.395
627.96	68.156
628.29	69.312
628.62	68.660
628.95	70.644
629.28	68.492
629.61	69.592
629.94	69.813
630.26	70.397
630.59	69.215
630.92	69.652
631.25	71.173
631.58	70.698
631.91	70.615
632.24	70.178
632.57	73.127
632.90	73.432
633.23	75.097
633.56	74.717
633.89	72.955
634.22	74.103
634.55	73.850
634.88	73.762
635.20	73.973
635.53	74.162
635.86	72.283
636.19	74.761
636.52	73.720
636.85	69.622
637.18	71.891
637.51	71.680
637.83	72.207
638.16	71.408
638.49	71.037
638.82	74.684
639.15	74.857
639.48	72.780
639.81	74.367
640.13	75.038
640.46	75.433
640.79	72.403
641.12	70.853
641.45	72.006
641.77	74.682
642.10	76.059
642.43	73.737
642.76	76.165
643.09	75.433
643.41	79.211
643.74	77.604
644.07	74.956
644.40	74.910
644.73	74.770
645.05	79.580
645.38	76.538
645.71	75.763
646.04	78.067
646.36	75.000
646.69	77.176
647.02	76.562
647.35	76.600
647.67	79.158
648.00	78.447
648.33	77.071
648.66	74.212
648.98	71.525
649.31	73.838
649.64	71.256
649.96	70.101
650.29	69.912
650.62	73.469
650.94	71.719
651.27	73.218
651.60	73.805
651.92	72.710
652.25	69.981
652.58	70.557
652.90	68.505
653.23	70.567
653.56	68.750
653.88	72.993
654.21	70.699
654.54	71.670
654.86	73.381
655.19	67.903
655.52	66.036
655.84	52.595
656.17	49.011
656.49	65.408
656.82	73.686
657.15	59.053
657.47	44.951
657.80	33.214
658.13	27.666
658.45	46.590
658.78	45.860
659.10	45.086
659.43	44.938
659.75	46.069
660.08	47.641
660.41	53.208
660.73	59.972
661.06	66.727
661.38	71.774
661.71	74.836
662.03	74.769
662.36	76.850
662.68	71.942
663.01	77.644
663.33	75.000
663.66	76.077
663.98	75.306
664.31	74.878
664.63	70.642
664.96	74.347
665.28	73.759
665.61	71.729
665.93	72.120
666.26	70.640
666.58	72.706
666.91	72.131
667.23	78.079
667.56	73.580
667.88	77.694
668.21	73.604
668.53	77.411
668.86	71.173
669.18	71.827
669.50	75.578
669.83	74.500
670.15	75.000
670.48	71.930
670.80	70.812
671.13	71.084
671.45	71.429
671.77	74.638
672.10	68.791
672.42	65.737
672.75	61.748
673.07	66.168
673.39	66.342
673.72	65.289
674.04	67.021
674.37	71.132
674.69	66.822
675.01	68.372
675.34	68.382
675.66	67.381
675.98	69.192
676.31	68.514
676.63	70.103
676.95	64.269
677.28	68.564
677.60	70.426
677.92	67.168
678.25	66.357
678.57	66.821
678.89	65.826
679.22	67.890
679.54	65.924
679.86	63.812
680.18	64.017
680.51	62.628
680.83	62.917
681.15	68.627
681.48	60.638
681.80	62.826
682.12	63.383
682.44	59.267
682.77	65.455
683.09	65.196
683.41	73.434
683.73	67.337
684.06	63.198
684.38	64.508
684.70	67.206
685.02	59.957
685.34	61.506
685.67	59.881
685.99	61.477
686.31	58.209
686.63	60.388
686.96	60.569
687.28	59.754
687.60	62.012
687.92	58.017
688.24	61.895
688.56	60.879
688.89	62.785
689.21	57.907
689.53	63.171
689.85	65.570
690.17	62.500
690.49	61.412
690.82	59.705
691.14	65.274
691.46	63.500
691.78	61.722
692.10	60.321
692.42	61.009
692.74	62.085
693.06	63.133
693.39	63.300
693.71	56.279
694.03	57.005
694.35	60.396
694.67	64.377
694.99	63.612
695.31	63.456
695.63	62.162
695.95	62.921
696.27	66.006
696.59	68.546
696.91	59.829
697.23	61.891
697.56	59.845
697.88	53.864
698.20	61.259
698.52	56.971
698.84	56.140
699.16	58.839
699.48	62.827
699.80	54.670
700.12	58.678
700.44	59.587
700.76	64.984
701.08	62.222
701.40	65.789
701.72	64.667
702.04	64.626
702.36	60.984
702.68	61.074
703.00	58.991
703.32	57.485
703.64	62.145
703.96	63.291
704.28	60.211
704.60	62.671
704.91	57.895
705.23	59.298
705.55	63.941
705.87	66.906
706.19	65.339
706.51	62.500
706.83	61.905
707.15	61.695
707.47	56.587
707.79	55.874
708.11	58.201
708.43	53.333
708.74	56.011
709.06	58.282
709.38	58.160
709.70	58.117
710.02	57.343
710.34	63.475
710.66	58.052
710.98	58.042
711.29	57.732
711.61	53.191
711.93	65.543
712.25	58.868
712.57	62.891
712.89	64.898
713.20	61.694
713.52	62.602
713.84	57.664
714.16	57.770
714.48	59.386
714.80	57.576
715.11	54.983
715.43	51.536
715.75	57.544
716.07	60.000
716.39	54.608
716.70	63.600
717.02	57.258
717.34	57.576
717.66	59.545
717.97	55.093
718.29	58.222
718.61	58.108
718.93	59.664
719.24	59.414
719.56	59.375
719.88	49.804
720.20	52.991
720.51	57.018
720.83	58.577
721.15	51.837
721.46	58.650
721.78	55.411
722.10	55.814
722.42	57.391
722.73	51.131
723.05	60.369
723.37	58.824
723.68	56.872
724.00	55.556
724.32	59.813
724.63	54.299
724.95	59.361
725.27	59.155
725.58	55.251
725.90	50.901
726.22	54.148
726.53	52.869
726.85	52.963
727.16	50.607
727.48	54.839
727.80	56.164
728.11	55.556
728.43	48.148
728.74	46.491
729.06	52.838
729.38	50.388
729.69	52.000
730.01	51.046
730.32	49.801
730.64	49.615
730.96	46.718
731.27	47.104
731.59	45.455
731.90	46.382
732.22	50.498
732.53	44.211
732.85	43.662
733.16	49.084
733.48	45.149
733.80	48.000
734.11	44.326
734.43	49.097
734.74	46.417
735.06	48.553
735.37	45.048
735.69	53.521
736.00	47.407
736.32	51.748
736.63	50.741
736.95	43.969
737.26	44.928
737.58	46.715
737.89	49.057
738.21	49.618
738.52	50.410
738.83	47.009
739.15	45.000
739.46	41.892
739.78	47.104
740.09	48.413
740.41	49.242
740.72	45.418
741.04	48.617
741.35	51.121
741.66	53.226
741.98	44.388
742.29	49.741
742.61	50.867
742.92	50.000
743.23	50.746
743.55	47.668
743.86	44.928
744.18	46.500
744.49	50.556
744.80	48.387
745.12	49.231
745.43	50.267
745.74	45.989
746.06	58.621
746.37	53.333
746.68	51.351
747.00	47.514
747.31	50.785
747.62	53.684
747.94	48.585
748.25	49.754
748.56	47.475
748.88	50.820
749.19	52.850
749.50	55.882
749.82	60.500
750.13	47.573
750.44	43.348
750.75	46.000
751.07	41.004
751.38	44.531
751.69	49.206
752.01	49.160
752.32	47.934
752.63	47.598
752.94	42.000
753.26	45.205
753.57	46.919
753.88	42.326
754.19	41.850
754.51	39.331
754.82	44.583
755.13	47.788
755.44	47.619
755.75	41.767
756.07	45.923
756.38	50.628
756.69	46.792
757.00	41.135
757.31	35.294
757.63	42.157
757.94	40.000
758.25	41.667
758.56	36.757
758.87	38.690
759.18	42.991
759.50	40.925
759.81	45.560
760.12	46.975
760.43	42.525
760.74	40.120
761.05	39.103
761.36	40.653
761.67	39.210
761.99	38.462
762.30	37.818
762.61	46.748
762.92	39.556
763.23	46.047
763.54	48.731
763.85	44.796
764.16	39.565
764.47	43.478
764.78	43.548
765.10	41.732
765.41	40.468
765.72	38.462
766.03	39.799
766.34	39.773
766.65	40.234
766.96	36.889
767.27	43.575
767.58	46.541
767.89	45.455
768.20	42.568
768.51	43.103
768.82	37.500
769.13	43.056
769.44	37.736
769.75	32.843
770.06	35.922
770.37	35.638
770.68	37.949
770.99	39.594
771.30	37.629
771.61	35.426
771.92	36.321
772.23	37.981
772.54	35.294
772.85	43.151
773.16	45.806
773.47	37.580
773.78	40.719
774.09	42.763
774.39	39.706
774.70	34.586
775.01	46.923
775.32	34.127
775.63	40.945
775.94	29.245
776.25	34.074
776.56	35.455
776.87	51.282
777.18	41.000
777.48	37.500
777.79	38.889
778.10	43.396
778.41	44.118
778.72	47.170
779.03	35.088
779.34	31.933
779.65	37.324
779.95	32.374
780.26	25.000
780.57	38.406
780.88	33.028
781.19	38.889
781.50	29.508
781.80	43.066
782.11	26.923
782.42	24.828
782.73	29.371
783.04	38.400
783.34	32.800
783.65	34.146
783.96	30.328
784.27	29.412
784.57	24.299
784.88	24.107
785.19	42.268
785.50	44.211
785.81	31.000
786.11	28.713
786.42	22.353
786.73	28.125
787.04	26.531
787.34	39.815
787.65	45.283
787.96	25.773
788.26	34.653
788.57	33.913
788.88	22.936
789.19	27.273
789.49	38.261
789.80	37.931
790.11	25.610
790.41	35.955
790.72	25.581
791.03	37.209
791.33	18.182
791.64	24.390
791.95	20.732
792.25	19.277
792.56	14.815
792.87	28.169
793.17	28.916
793.48	12.941
793.79	25.000
794.09	31.667
794.40	31.522
794.70	28.696
795.01	23.853
795.32	31.496
795.62	25.490
795.93	24.510
796.23	33.333
796.54	16.279
796.85	26.087
797.15	29.688
797.46	27.119
797.76	22.951
798.07	27.632
798.37	20.968
798.68	12.500
798.99	20.000
799.29	10.606
799.60	27.536
799.90	22.857
800.21	12.281
800.51	18.966
800.82	13.208
801.12	15.686
801.43	25.806
801.73	43.548
802.04	24.000
802.34	7.547
802.65	15.789
802.95	23.636
803.26	9.434
803.56	1.639
803.87	18.000
804.17	24.074
804.48	32.692
804.78	4.082
805.09	8.511
805.39	22.034
805.70	-6.250
806.00	8.929
806.30	28.814
806.61	16.923
806.91	18.462
807.22	0.000
807.52	27.143
807.83	1.724
808.13	21.519
808.43	22.951
808.74	18.033
809.04	16.216
809.35	24.074
809.65	50.000
809.95	15.254
810.26	8.163
810.56	28.302
810.86	-1.961
811.17	21.622
811.47	-14.815
811.77	9.804
812.08	2.273
812.38	-4.167
812.69	15.385
812.99	7.143
813.29	-4.348
813.59	20.000
813.90	2.381
814.20	1.818
814.50	24.490
814.81	-7.843
815.11	2.083
815.41	-4.878
815.72	-23.077
816.02	14.894
816.32	18.750
816.62	-9.091
816.93	-9.091
817.23	-5.405
817.53	-17.647
817.84	22.500
818.14	0.000
818.44	46.875
818.74	-61.905
819.04	2.857
819.35	-17.143
819.65	-2.273
819.95	23.077
820.25	-44.444
820.56	-41.379
820.86	0.000
821.16	13.043
821.46	-2.381
821.76	14.815
822.07	-13.043
822.37	-14.286
822.67	-16.279
822.97	-4.348
823.27	-30.769
823.57	-25.926
823.88	-32.143
824.18	2.564
824.48	-3.571
824.78	33.333
825.08	-66.667
825.38	-7.500
825.69	-105.556
825.99	-25.926
826.29	24.444
826.59	-48.148
826.89	-22.222
827.19	-10.714
827.49	-68.182
827.79	-90.909
828.09	-40.909
828.39	-43.478
828.70	18.519
829.00	-21.429
829.30	35.714
829.60	-19.355
829.90	-57.692
830.20	-10.256
830.50	-45.455
830.80	-52.381
831.10	-77.778
831.40	-171.429
831.70	-37.037
832.00	-52.941
832.30	-39.130
832.60	8.333
832.90	-181.818
833.20	-77.778
833.50	12.500
833.80	-30.769
834.10	-16.000
834.40	0.000
834.70	-72.727
835.00	-23.077
835.30	-10.000
835.60	-140.000
835.90	0.000
836.20	-14.286
836.50	-13.043
836.80	-66.667
837.10	-40.000
837.40	-180.000
837.70	-47.826
838.00	-50.000
838.30	1500.000
838.60	-32.000
838.90	-280.000
839.19	-177.778
839.49	-950.000
839.79	-35.294
840.09	-111.111
840.39	14.286
840.69	-150.000
840.99	-83.333
841.29	-13.793
841.59	-93.333
841.88	18.182
842.18	-300.000
842.48	-37.500
842.78	-38.462
843.08	-35.294
843.38	-50.000
843.68	-23.077
843.97	-47.059
844.27	-80.000
844.57	-12.500
844.87	-136.364
845.17	-73.684
845.47	-72.222
845.76	-5.556
846.06	-42.857
846.36	-28.571
846.66	-177.778
846.96	-60.000
847.25	-300.000
847.55	-200.000
847.85	-86.667
848.15	-200.000
848.44	-42.105
848.74	-100.000
849.04	-42.105
849.34	-666.667
849.63	-300.000
849.93	-23.529
850.23	-172.727
850.53	-533.333
850.82	-240.000
851.12	-177.778
851.42	-100.000
851.71	-160.000
852.01	-64.286
852.31	-600.000
852.61	-76.923
852.90	-400.000
853.20	-288.889
853.50	-88.889
853.79	-130.000
854.09	-120.000
854.39	-110.526
854.68	-25.000
854.98	-175.000
855.28	-16.667
855.57	-157.143
855.87	-78.947
856.17	-81.250
856.46	11.538
856.76	-80.000
857.05	-81.250
857.35	-50.000
857.65	-72.222
857.94	-62.500
858.24	-47.826
858.53	-170.000
858.83	-700.000
859.13	-200.000
859.42	-250.000
859.72	233.333
860.01	-38.462
860.31	-140.000
860.60	-300.000
860.90	-375.000
861.20	-383.333
861.49	-500.000
861.79	550.000
862.08	-6.452
862.38	-89.474
862.67	-23.077
862.97	-210.000
863.26	-75.000
863.56	-43.478
863.85	-300.000
864.15	-178.571
864.44	0.000
864.74	-133.333
865.03	-133.333
865.33	-466.667
865.62	-1400.000
865.92	-800.000
866.21	-266.667
866.51	-81.818
866.80	-433.333
867.10	-85.714
867.39	-166.667
867.69	-158.333
867.98	340.000
868.27	-400.000
868.57	450.000
868.86	-40.000
869.16	-46.154
869.45	1150.000
869.75	-333.333
870.04	-175.000
870.33	-29.412
870.63	-257.143
870.92	21.739
871.22	-175.000
871.51	640.000
871.80	-68.750
872.10	-466.667
>>>>>End Processed Spectral Data<<<<<
