SpectraSuite Data File
++++++++++++++++++++++++++++++++++++
Date: Tue May 12 20:00:27 PDT 2015
User: schluterlab
Dark Spectrum Present: Yes
Reference Spectrum Present: Yes
Number of Sampled Component Spectra: 1
Spectrometers: USB2E3373
Integration Time (usec): 3000 (USB2E3373)
Spectra Averaged: 3 (USB2E3373)
Boxcar Smoothing: 0 (USB2E3373)
Correct for Electrical Dark: No (USB2E3373)
Strobe/Lamp Enabled: No (USB2E3373)
Correct for Detector Non-linearity: No (USB2E3373)
Correct for Stray Light: No (USB2E3373)
Number of Pixels in Processed Spectrum: 2048
>>>>>Begin Processed Spectral Data<<<<<
178.53	0.000
178.91	-120.000
179.29	-233.333
179.67	300.000
180.04	0.000
180.42	-320.000
180.80	-800.000
181.18	1550.000
181.56	-850.000
181.94	433.333
182.31	2300.000
182.69	-128.571
183.07	0.000
183.45	225.000
183.83	320.000
184.20	500.000
184.58	1200.000
184.96	366.667
185.34	-600.000
185.72	-121.429
186.09	-316.667
186.47	-1700.000
186.85	-200.000
187.23	208.333
187.61	-271.429
187.98	-460.000
188.36	750.000
188.74	-275.000
189.12	-177.778
189.49	-180.000
189.87	500.000
190.25	233.333
190.63	900.000
191.00	520.000
191.38	-666.667
191.76	380.000
192.14	-185.714
192.51	-260.000
192.89	-360.000
193.27	-240.000
193.65	-600.000
194.02	-300.000
194.40	1500.000
194.78	-287.500
195.15	-328.571
195.53	566.667
195.91	420.000
196.29	-650.000
196.66	-766.667
197.04	-400.000
197.42	420.000
197.79	-162.500
198.17	-166.667
198.55	-1000.000
198.92	-200.000
199.30	900.000
199.68	-425.000
200.05	-1400.000
200.43	-55.556
200.81	-191.667
201.18	300.000
201.56	-350.000
201.94	-1500.000
202.31	-133.333
202.69	-66.667
203.07	-150.000
203.44	-600.000
203.82	0.000
204.19	350.000
204.57	-733.333
204.95	281.818
205.32	420.000
205.70	525.000
206.08	-1000.000
206.45	-280.000
206.83	2200.000
207.20	-288.889
207.58	-115.385
207.96	866.667
208.33	1000.000
208.71	833.333
209.08	1250.000
209.46	-133.333
209.84	900.000
210.21	-733.333
210.59	-100.000
210.96	333.333
211.34	-575.000
211.71	1100.000
212.09	-240.000
212.46	-300.000
212.84	-337.500
213.22	285.714
213.59	-175.000
213.97	0.000
214.34	-1200.000
214.72	-2100.000
215.09	1050.000
215.47	-60.000
215.84	-250.000
216.22	-2800.000
216.59	1500.000
216.97	-100.000
217.34	-216.667
217.72	-55.556
218.09	700.000
218.47	-110.526
218.84	-300.000
219.22	-121.429
219.59	-180.000
219.97	-140.000
220.34	300.000
220.72	136.364
221.09	-1300.000
221.47	0.000
221.84	850.000
222.22	-450.000
222.59	-525.000
222.97	-56.522
223.34	260.000
223.72	228.571
224.09	-333.333
224.46	176.923
224.84	-120.000
225.21	-550.000
225.59	-575.000
225.96	-35.000
226.34	550.000
226.71	360.000
227.08	-123.077
227.46	-171.429
227.83	-33.333
228.21	-950.000
228.58	283.333
228.95	-47.368
229.33	-50.000
229.70	-350.000
230.08	-244.444
230.45	-633.333
230.82	-2400.000
231.20	-57.143
231.57	-500.000
231.95	-666.667
232.32	311.111
232.69	-1000.000
233.07	43.750
233.44	-37.500
233.81	-3.226
234.19	-400.000
234.56	-111.111
234.93	-300.000
235.31	-66.667
235.68	-33.333
236.05	-26.923
236.43	-73.684
236.80	-27.273
237.17	-92.857
237.55	-65.000
237.92	13.953
238.29	-16.129
238.67	-17.857
239.04	-5.714
239.41	-7.843
239.79	36.000
240.16	-7.500
240.53	-3.448
240.91	28.767
241.28	21.127
241.65	29.688
242.02	14.035
242.40	22.667
242.77	24.211
243.14	21.176
243.51	35.484
243.89	23.810
244.26	25.926
244.63	42.857
245.00	16.964
245.38	25.210
245.75	41.525
246.12	43.750
246.49	33.600
246.87	44.262
247.24	30.282
247.61	39.073
247.98	39.326
248.36	37.107
248.73	39.205
249.10	41.667
249.47	39.062
249.84	41.117
250.22	38.021
250.59	41.011
250.96	41.818
251.33	47.170
251.70	44.495
252.08	43.723
252.45	39.184
252.82	41.350
253.19	43.969
253.56	46.275
253.94	45.528
254.31	47.482
254.68	38.542
255.05	48.675
255.42	43.636
255.79	51.656
256.16	44.792
256.54	42.727
256.91	44.231
257.28	46.104
257.65	44.590
258.02	45.946
258.39	45.921
258.76	42.813
259.14	48.824
259.51	45.915
259.88	46.110
260.25	43.750
260.62	45.787
260.99	44.568
261.36	45.977
261.73	45.600
262.10	47.411
262.47	44.628
262.85	47.044
263.22	47.581
263.59	47.989
263.96	45.170
264.33	47.978
264.70	42.752
265.07	44.089
265.44	45.199
265.81	49.157
266.18	46.370
266.55	48.810
266.92	49.777
267.29	48.667
267.66	46.136
268.03	47.742
268.40	49.657
268.77	46.102
269.14	45.168
269.51	46.606
269.88	45.513
270.25	47.046
270.62	46.008
270.99	46.737
271.36	47.020
271.73	46.250
272.10	46.266
272.47	46.000
272.84	44.586
273.21	48.643
273.58	45.714
273.95	44.622
274.32	44.487
274.69	45.988
275.06	44.653
275.43	43.800
275.80	44.742
276.17	46.838
276.54	45.627
276.91	49.712
277.28	48.743
277.65	44.991
278.02	44.129
278.39	46.824
278.76	46.555
279.13	46.154
279.50	45.487
279.87	43.774
280.23	48.634
280.60	44.346
280.97	46.221
281.34	45.424
281.71	42.806
282.08	44.902
282.45	46.384
282.82	42.761
283.19	43.266
283.56	44.710
283.92	46.288
284.29	43.993
284.66	45.310
285.03	41.509
285.40	47.167
285.77	46.798
286.14	44.216
286.51	44.051
286.87	44.084
287.24	43.750
287.61	41.204
287.98	45.383
288.35	42.481
288.72	42.508
289.08	42.296
289.45	40.718
289.82	40.528
290.19	40.606
290.56	39.797
290.93	42.541
291.29	40.993
291.66	39.888
292.03	41.750
292.40	40.288
292.77	41.545
293.13	39.501
293.50	39.669
293.87	38.835
294.24	38.343
294.60	39.891
294.97	36.565
295.34	38.219
295.71	36.477
296.08	35.246
296.44	38.472
296.81	35.576
297.18	35.964
297.55	35.930
297.91	37.310
298.28	34.910
298.65	35.317
299.02	34.402
299.38	33.801
299.75	37.194
300.12	35.492
300.48	34.038
300.85	35.208
301.22	33.774
301.59	35.158
301.95	34.268
302.32	33.536
302.69	33.888
303.05	34.947
303.42	33.696
303.79	33.034
304.15	34.315
304.52	33.631
304.89	33.258
305.25	35.092
305.62	33.409
305.99	32.923
306.35	32.886
306.72	35.185
307.09	33.624
307.45	32.686
307.82	33.191
308.19	34.213
308.55	33.861
308.92	33.369
309.29	33.264
309.65	33.230
310.02	33.543
310.38	34.009
310.75	33.607
311.12	33.062
311.48	33.710
311.85	31.307
312.22	33.264
312.58	32.830
312.95	34.497
313.31	35.103
313.68	33.267
314.05	35.353
314.41	34.774
314.78	35.477
315.14	33.888
315.51	35.948
315.87	36.621
316.24	36.202
316.61	36.311
316.97	36.078
317.34	36.077
317.70	34.734
318.07	35.873
318.43	36.862
318.80	36.430
319.16	36.440
319.53	38.396
319.89	38.542
320.26	38.741
320.62	40.504
320.99	39.592
321.35	40.613
321.72	40.606
322.08	42.376
322.45	40.927
322.81	42.463
323.18	41.707
323.54	43.602
323.91	42.694
324.27	44.166
324.64	43.580
325.00	44.495
325.37	45.683
325.73	46.533
326.10	46.147
326.46	50.317
326.83	47.581
327.19	48.908
327.56	50.309
327.92	47.569
328.29	50.090
328.65	52.731
329.01	50.917
329.38	53.719
329.74	51.439
330.11	52.470
330.47	51.862
330.84	52.820
331.20	52.773
331.56	53.774
331.93	53.705
332.29	54.764
332.66	56.329
333.02	54.968
333.38	56.342
333.75	55.901
334.11	55.244
334.48	55.546
334.84	56.526
335.20	56.043
335.57	56.222
335.93	58.605
336.29	56.856
336.66	57.832
337.02	57.661
337.38	58.396
337.75	59.273
338.11	59.891
338.47	59.239
338.84	59.116
339.20	59.028
339.56	60.578
339.93	59.279
340.29	60.562
340.65	61.005
341.02	59.256
341.38	60.018
341.74	60.498
342.11	60.831
342.47	59.615
342.83	60.278
343.20	59.859
343.56	61.713
343.92	60.017
344.28	59.949
344.65	62.243
345.01	63.676
345.37	62.393
345.73	62.618
346.10	62.835
346.46	61.346
346.82	63.891
347.19	61.901
347.55	64.116
347.91	61.016
348.27	61.837
348.63	64.477
349.00	63.022
349.36	62.572
349.72	64.204
350.08	62.602
350.45	63.303
350.81	62.758
351.17	63.591
351.53	60.870
351.89	64.853
352.26	64.146
352.62	66.639
352.98	63.598
353.34	64.996
353.70	63.868
354.07	64.168
354.43	64.107
354.79	63.279
355.15	64.084
355.51	66.178
355.87	66.361
356.24	64.869
356.60	64.942
356.96	63.349
357.32	66.255
357.68	64.360
358.04	64.587
358.40	66.203
358.77	65.382
359.13	67.711
359.49	65.360
359.85	66.747
360.21	64.235
360.57	65.949
360.93	67.063
361.29	66.511
361.66	66.009
362.02	67.582
362.38	67.211
362.74	65.642
363.10	65.686
363.46	65.764
363.82	65.926
364.18	66.162
364.54	65.954
364.90	66.444
365.26	67.437
365.62	66.995
365.98	67.241
366.35	68.457
366.71	68.260
367.07	66.790
367.43	64.838
367.79	66.134
368.15	68.273
368.51	68.764
368.87	69.383
369.23	68.963
369.59	67.279
369.95	65.946
370.31	68.485
370.67	67.218
371.03	69.969
371.39	67.900
371.75	67.311
372.11	66.593
372.47	65.405
372.83	66.983
373.19	68.148
373.55	66.766
373.91	70.227
374.27	70.052
374.63	67.968
374.99	67.862
375.35	67.199
375.71	67.719
376.07	67.420
376.42	67.981
376.78	66.829
377.14	67.388
377.50	67.579
377.86	69.220
378.22	68.164
378.58	68.289
378.94	68.042
379.30	67.181
379.66	66.517
380.02	68.214
380.38	69.656
380.74	68.490
381.09	67.980
381.45	70.032
381.81	68.622
382.17	68.339
382.53	70.546
382.89	69.211
383.25	68.865
383.61	69.104
383.97	68.551
384.32	67.290
384.68	68.519
385.04	68.491
385.40	69.010
385.76	67.995
386.12	67.261
386.48	69.733
386.83	67.610
387.19	69.668
387.55	67.228
387.91	66.978
388.27	68.650
388.62	67.876
388.98	69.275
389.34	68.510
389.70	69.295
390.06	67.525
390.42	68.492
390.77	68.008
391.13	68.510
391.49	69.070
391.85	68.064
392.20	69.505
392.56	66.929
392.92	69.450
393.28	66.667
393.64	68.968
393.99	66.364
394.35	69.241
394.71	69.735
395.07	69.032
395.42	67.048
395.78	67.540
396.14	67.755
396.50	67.464
396.85	67.151
397.21	66.365
397.57	68.005
397.92	68.893
398.28	67.446
398.64	68.000
399.00	67.615
399.35	67.175
399.71	67.725
400.07	68.005
400.42	66.218
400.78	67.242
401.14	66.667
401.49	65.959
401.85	65.714
402.21	66.434
402.57	66.903
402.92	66.335
403.28	66.385
403.63	66.282
403.99	66.116
404.35	65.032
404.70	64.281
405.06	66.894
405.42	64.932
405.77	65.279
406.13	65.651
406.49	65.300
406.84	65.816
407.20	65.180
407.55	66.065
407.91	64.755
408.27	65.226
408.62	64.437
408.98	63.835
409.34	63.572
409.69	63.478
410.05	63.925
410.40	65.061
410.76	63.014
411.11	63.025
411.47	64.286
411.83	64.327
412.18	64.202
412.54	63.001
412.89	62.630
413.25	62.821
413.60	63.329
413.96	62.460
414.31	61.695
414.67	64.551
415.03	62.033
415.38	63.370
415.74	62.324
416.09	63.267
416.45	61.925
416.80	61.752
417.16	62.835
417.51	61.346
417.87	62.449
418.22	62.032
418.58	62.267
418.93	60.026
419.29	61.330
419.64	63.530
420.00	61.297
420.35	61.456
420.71	61.268
421.06	59.896
421.42	60.728
421.77	62.241
422.12	59.894
422.48	60.651
422.83	60.547
423.19	61.059
423.54	59.988
423.90	59.642
424.25	61.329
424.61	59.935
424.96	59.705
425.31	60.568
425.67	59.030
426.02	59.565
426.38	59.009
426.73	58.816
427.09	60.210
427.44	58.457
427.79	58.663
428.15	58.022
428.50	59.108
428.85	58.242
429.21	58.398
429.56	57.017
429.92	56.679
430.27	56.213
430.62	58.085
430.98	56.905
431.33	57.453
431.68	58.151
432.04	58.573
432.39	56.447
432.74	55.914
433.10	56.944
433.45	56.998
433.80	56.845
434.16	56.272
434.51	55.909
434.86	56.193
435.22	55.821
435.57	57.058
435.92	54.675
436.28	54.981
436.63	56.768
436.98	56.358
437.34	57.518
437.69	55.679
438.04	55.950
438.39	54.830
438.75	56.369
439.10	55.893
439.45	56.547
439.81	54.857
440.16	55.535
440.51	54.213
440.86	55.556
441.22	54.735
441.57	54.017
441.92	56.046
442.27	55.314
442.63	54.571
442.98	56.418
443.33	54.642
443.68	53.688
444.03	53.918
444.39	54.086
444.74	55.638
445.09	54.782
445.44	52.770
445.79	55.070
446.15	54.461
446.50	53.441
446.85	54.345
447.20	53.228
447.55	53.345
447.91	53.968
448.26	52.641
448.61	54.018
448.96	53.282
449.31	52.803
449.66	53.753
450.02	53.550
450.37	53.402
450.72	52.484
451.07	53.856
451.42	52.569
451.77	50.694
452.12	51.817
452.47	51.491
452.83	51.806
453.18	52.735
453.53	51.927
453.88	52.648
454.23	50.735
454.58	51.958
454.93	50.341
455.28	50.577
455.63	51.722
455.98	51.269
456.34	50.770
456.69	50.440
457.04	50.722
457.39	50.375
457.74	51.011
458.09	48.849
458.44	51.196
458.79	48.704
459.14	48.837
459.49	49.936
459.84	49.762
460.19	50.031
460.54	49.369
460.89	49.118
461.24	49.221
461.59	49.716
461.94	49.638
462.29	49.624
462.64	47.911
462.99	48.368
463.34	48.205
463.69	48.491
464.04	48.749
464.39	49.132
464.74	47.502
465.09	46.881
465.44	47.750
465.79	48.255
466.14	47.852
466.49	48.245
466.84	46.867
467.19	47.628
467.54	45.424
467.89	46.506
468.24	46.528
468.59	46.008
468.94	45.730
469.29	46.920
469.64	46.754
469.99	46.287
470.34	45.262
470.68	45.769
471.03	44.599
471.38	46.298
471.73	45.858
472.08	44.840
472.43	45.367
472.78	45.033
473.13	45.825
473.48	46.266
473.83	45.971
474.17	44.763
474.52	45.479
474.87	45.896
475.22	45.807
475.57	43.420
475.92	44.400
476.27	43.219
476.61	44.681
476.96	44.517
477.31	44.521
477.66	44.218
478.01	43.967
478.36	43.209
478.70	45.014
479.05	45.386
479.40	42.786
479.75	44.588
480.10	44.426
480.45	44.503
480.79	42.968
481.14	43.332
481.49	43.290
481.84	43.636
482.19	43.220
482.53	43.676
482.88	43.569
483.23	43.367
483.58	43.119
483.92	42.412
484.27	42.740
484.62	43.093
484.97	42.443
485.31	42.189
485.66	41.391
486.01	42.528
486.36	43.325
486.70	44.012
487.05	43.597
487.40	43.031
487.75	41.769
488.09	41.197
488.44	40.806
488.79	40.826
489.13	41.397
489.48	40.945
489.83	40.546
490.17	41.350
490.52	41.061
490.87	41.246
491.22	41.272
491.56	40.119
491.91	40.562
492.26	41.968
492.60	41.071
492.95	41.170
493.30	41.401
493.64	40.213
493.99	41.068
494.34	40.649
494.68	40.040
495.03	39.706
495.37	40.193
495.72	39.926
496.07	40.314
496.41	39.625
496.76	39.207
497.11	40.768
497.45	40.532
497.80	39.720
498.14	40.232
498.49	39.989
498.84	39.937
499.18	39.595
499.53	39.356
499.87	39.324
500.22	38.909
500.56	41.026
500.91	40.010
501.26	40.157
501.60	39.501
501.95	40.276
502.29	40.123
502.64	38.925
502.98	38.869
503.33	38.342
503.67	38.948
504.02	39.479
504.36	38.213
504.71	38.191
505.06	39.636
505.40	39.410
505.75	38.231
506.09	38.570
506.44	38.734
506.78	38.544
507.13	38.599
507.47	39.557
507.82	38.002
508.16	38.419
508.51	38.567
508.85	38.077
509.19	37.795
509.54	38.130
509.88	38.320
510.23	38.539
510.57	38.898
510.92	38.719
511.26	37.737
511.61	38.299
511.95	37.189
512.30	37.971
512.64	37.537
512.98	38.571
513.33	36.811
513.67	37.186
514.02	37.620
514.36	37.841
514.70	38.494
515.05	38.049
515.39	37.202
515.74	38.221
516.08	37.665
516.42	37.290
516.77	37.702
517.11	37.125
517.46	38.101
517.80	37.524
518.14	38.393
518.49	37.128
518.83	37.289
519.17	37.147
519.52	38.538
519.86	37.935
520.20	36.433
520.55	38.120
520.89	36.235
521.23	38.143
521.58	36.839
521.92	37.383
522.26	37.320
522.61	37.065
522.95	37.397
523.29	37.989
523.64	36.771
523.98	36.895
524.32	37.710
524.66	37.458
525.01	38.351
525.35	36.594
525.69	35.857
526.04	36.575
526.38	36.806
526.72	37.292
527.06	37.693
527.41	37.208
527.75	36.253
528.09	36.775
528.43	36.712
528.78	35.220
529.12	37.123
529.46	35.282
529.80	36.419
530.15	37.457
530.49	37.517
530.83	35.719
531.17	35.734
531.51	36.545
531.86	35.644
532.20	35.354
532.54	36.331
532.88	35.855
533.22	36.566
533.57	35.448
533.91	36.339
534.25	36.728
534.59	37.070
534.93	36.064
535.27	35.623
535.62	35.989
535.96	36.357
536.30	36.326
536.64	35.265
536.98	35.398
537.32	36.607
537.66	35.484
538.01	36.009
538.35	35.927
538.69	35.315
539.03	35.472
539.37	35.678
539.71	35.797
540.05	34.805
540.39	34.713
540.73	35.604
541.07	35.956
541.42	34.783
541.76	35.036
542.10	35.725
542.44	36.272
542.78	33.578
543.12	34.801
543.46	34.724
543.80	36.312
544.14	35.699
544.48	35.158
544.82	34.564
545.16	36.304
545.50	36.390
545.84	35.772
546.18	35.431
546.52	34.973
546.86	34.813
547.20	35.682
547.54	34.268
547.88	34.829
548.22	34.037
548.56	35.518
548.90	35.228
549.24	34.649
549.58	34.501
549.92	35.338
550.26	34.440
550.60	34.576
550.94	34.603
551.28	34.959
551.62	35.708
551.96	34.904
552.30	34.186
552.64	35.462
552.98	35.141
553.32	34.545
553.66	34.067
554.00	34.363
554.34	34.844
554.68	33.493
555.02	34.286
555.36	34.313
555.69	34.435
556.03	34.590
556.37	33.758
556.71	34.163
557.05	35.469
557.39	35.181
557.73	34.119
558.07	34.898
558.41	33.599
558.75	35.270
559.08	35.319
559.42	33.278
559.76	33.530
560.10	36.104
560.44	33.967
560.78	33.434
561.12	34.711
561.45	34.598
561.79	33.186
562.13	35.063
562.47	34.098
562.81	34.193
563.15	33.232
563.48	32.584
563.82	35.371
564.16	33.164
564.50	33.238
564.84	34.160
565.17	36.123
565.51	34.201
565.85	34.789
566.19	34.308
566.52	34.265
566.86	33.743
567.20	34.198
567.54	34.652
567.88	33.920
568.21	35.170
568.55	34.126
568.89	35.165
569.23	33.685
569.56	35.126
569.90	35.546
570.24	35.067
570.57	35.102
570.91	35.590
571.25	35.882
571.59	34.787
571.92	34.853
572.26	35.113
572.60	34.541
572.93	34.610
573.27	33.647
573.61	33.674
573.95	33.975
574.28	34.483
574.62	34.142
574.96	34.342
575.29	34.306
575.63	33.600
575.97	33.628
576.30	33.690
576.64	34.261
576.98	34.142
577.31	34.163
577.65	34.699
577.98	33.842
578.32	34.842
578.66	34.046
578.99	34.381
579.33	33.419
579.67	34.429
580.00	34.164
580.34	33.859
580.67	33.952
581.01	34.197
581.35	33.730
581.68	33.642
582.02	34.129
582.35	34.335
582.69	34.545
583.02	34.247
583.36	33.553
583.70	33.787
584.03	32.999
584.37	33.714
584.70	33.305
585.04	32.974
585.37	33.734
585.71	33.585
586.04	34.102
586.38	33.833
586.72	33.883
587.05	33.304
587.39	33.620
587.72	34.593
588.06	33.614
588.39	33.976
588.73	33.948
589.06	33.575
589.40	33.439
589.73	33.246
590.07	33.604
590.40	33.136
590.73	33.444
591.07	33.420
591.40	33.531
591.74	33.069
592.07	33.620
592.41	33.786
592.74	33.319
593.08	33.358
593.41	33.528
593.75	33.906
594.08	33.929
594.41	32.969
594.75	33.281
595.08	33.931
595.42	33.383
595.75	33.485
596.09	33.507
596.42	33.192
596.75	34.545
597.09	31.716
597.42	31.300
597.75	32.458
598.09	32.818
598.42	33.743
598.76	33.288
599.09	33.277
599.42	32.179
599.76	32.993
600.09	33.887
600.42	32.578
600.76	32.833
601.09	32.471
601.42	33.213
601.76	33.117
602.09	32.928
602.42	32.696
602.76	33.333
603.09	33.290
603.42	33.135
603.76	33.277
604.09	33.375
604.42	32.933
604.76	32.405
605.09	32.121
605.42	32.607
605.75	31.887
606.09	33.644
606.42	33.071
606.75	33.481
607.09	33.209
607.42	33.043
607.75	32.553
608.08	32.647
608.42	32.784
608.75	32.266
609.08	31.651
609.41	33.126
609.75	33.175
610.08	32.041
610.41	32.468
610.74	31.850
611.07	31.994
611.41	32.334
611.74	32.644
612.07	32.478
612.40	33.036
612.73	32.986
613.07	32.824
613.40	32.317
613.73	31.672
614.06	31.030
614.39	32.572
614.72	31.464
615.06	32.491
615.39	32.448
615.72	31.523
616.05	32.522
616.38	33.452
616.71	31.654
617.05	31.344
617.38	31.548
617.71	32.528
618.04	32.654
618.37	31.785
618.70	32.133
619.03	31.980
619.36	31.811
619.69	30.871
620.03	32.265
620.36	32.729
620.69	32.964
621.02	32.383
621.35	31.745
621.68	30.873
622.01	31.194
622.34	30.988
622.67	31.450
623.00	31.613
623.33	30.709
623.66	32.271
623.99	31.260
624.32	31.295
624.65	31.328
624.99	31.328
625.32	31.517
625.65	30.344
625.98	31.833
626.31	30.303
626.64	31.261
626.97	32.353
627.30	30.648
627.63	32.558
627.96	32.588
628.29	32.122
628.62	31.031
628.95	30.095
629.28	30.269
629.61	30.930
629.94	31.328
630.26	31.172
630.59	30.890
630.92	30.242
631.25	30.838
631.58	30.814
631.91	30.979
632.24	30.651
632.57	29.727
632.90	30.996
633.23	32.387
633.56	29.937
633.89	29.947
634.22	30.385
634.55	29.304
634.88	31.593
635.20	29.315
635.53	31.704
635.86	33.152
636.19	29.059
636.52	31.806
636.85	29.596
637.18	29.145
637.51	30.352
637.83	30.726
638.16	32.859
638.49	31.844
638.82	28.833
639.15	29.429
639.48	30.859
639.81	29.806
640.13	28.637
640.46	28.661
640.79	28.062
641.12	28.217
641.45	29.860
641.77	28.981
642.10	28.013
642.43	29.125
642.76	29.032
643.09	27.855
643.41	30.287
643.74	30.035
644.07	28.219
644.40	29.964
644.73	30.018
645.05	31.298
645.38	29.423
645.71	31.679
646.04	28.625
646.36	26.326
646.69	33.462
647.02	30.273
647.35	29.200
647.67	31.062
648.00	28.350
648.33	30.829
648.66	29.685
648.98	31.017
649.31	31.842
649.64	30.981
649.96	29.899
650.29	27.611
650.62	29.870
650.94	29.945
651.27	26.012
651.60	30.019
651.92	29.198
652.25	26.577
652.58	26.750
652.90	27.402
653.23	27.239
653.56	27.257
653.88	31.022
654.21	27.977
654.54	30.019
654.86	30.396
655.19	29.032
655.52	34.744
655.84	36.268
656.17	35.015
656.49	46.978
656.82	53.420
657.15	42.046
657.47	31.449
657.80	22.824
658.13	18.748
658.45	31.737
658.78	30.299
659.10	28.463
659.43	28.355
659.75	27.422
660.08	27.130
660.41	25.370
660.73	25.900
661.06	24.727
661.38	27.621
661.71	26.915
662.03	26.852
662.36	27.685
662.68	26.379
663.01	29.567
663.33	29.481
663.66	28.469
663.98	27.139
664.31	27.073
664.63	27.752
664.96	27.316
665.28	28.842
665.61	25.234
665.93	27.419
666.26	27.594
666.58	31.651
666.91	29.274
667.23	27.586
667.56	25.185
667.88	29.323
668.21	25.888
668.53	28.173
668.86	25.000
669.18	24.873
669.50	31.105
669.83	25.250
670.15	26.750
670.48	24.812
670.80	28.934
671.13	26.506
671.45	26.276
671.77	28.261
672.10	28.791
672.42	26.892
672.75	27.573
673.07	28.598
673.39	28.988
673.72	25.620
674.04	27.872
674.37	28.176
674.69	26.168
675.01	26.512
675.34	27.941
675.66	25.952
675.98	27.273
676.31	25.189
676.63	26.546
676.95	28.777
677.28	26.238
677.60	27.569
677.92	27.318
678.25	26.914
678.57	28.306
678.89	27.982
679.22	27.064
679.54	26.503
679.86	29.336
680.18	27.197
680.51	29.158
680.83	27.708
681.15	31.155
681.48	27.447
681.80	24.348
682.12	29.550
682.44	25.647
682.77	29.318
683.09	25.735
683.41	28.321
683.73	26.382
684.06	27.919
684.38	29.257
684.70	27.714
685.02	26.840
685.34	23.431
685.67	24.901
685.99	29.142
686.31	28.918
686.63	27.184
686.96	27.033
687.28	26.078
687.60	30.185
687.92	24.684
688.24	26.737
688.56	22.198
688.89	25.342
689.21	24.651
689.53	27.621
689.85	27.342
690.17	25.000
690.49	29.412
690.82	27.518
691.14	29.243
691.46	24.500
691.78	28.469
692.10	28.670
692.42	27.064
692.74	27.725
693.06	25.783
693.39	26.355
693.71	26.744
694.03	25.121
694.35	25.743
694.67	28.244
694.99	29.111
695.31	27.479
695.63	25.405
695.95	26.966
696.27	27.479
696.59	21.662
696.91	24.786
697.23	24.355
697.56	26.684
697.88	30.679
698.20	23.971
698.52	25.962
698.84	26.065
699.16	24.802
699.48	28.010
699.80	25.549
700.12	29.201
700.44	22.714
700.76	27.445
701.08	17.778
701.40	26.316
701.72	28.000
702.04	24.830
702.36	27.213
702.68	28.859
703.00	23.344
703.32	18.563
703.64	23.659
703.96	26.582
704.28	24.648
704.60	27.397
704.91	24.013
705.23	19.649
705.55	19.703
705.87	22.302
706.19	25.896
706.51	21.094
706.83	27.106
707.15	26.102
707.47	23.952
707.79	24.642
708.11	28.307
708.43	29.333
708.74	26.776
709.06	26.687
709.38	21.958
709.70	20.130
710.02	26.923
710.34	18.085
710.66	27.341
710.98	24.126
711.29	25.430
711.61	21.986
711.93	26.592
712.25	26.415
712.57	23.437
712.89	22.041
713.20	23.790
713.52	24.390
713.84	24.088
714.16	28.041
714.48	29.010
714.80	21.549
715.11	25.773
715.43	22.184
715.75	22.456
716.07	22.545
716.39	27.304
716.70	26.800
717.02	18.548
717.34	24.242
717.66	28.636
717.97	24.074
718.29	20.444
718.61	23.423
718.93	24.370
719.24	28.033
719.56	26.786
719.88	20.784
720.20	20.513
720.51	25.000
720.83	27.615
721.15	24.082
721.46	24.895
721.78	22.511
722.10	26.357
722.42	30.000
722.73	17.195
723.05	23.041
723.37	19.457
723.68	25.118
724.00	19.907
724.32	21.028
724.63	23.529
724.95	16.895
725.27	17.840
725.58	24.201
725.90	18.468
726.22	22.707
726.53	25.000
726.85	22.963
727.16	25.101
727.48	27.823
727.80	16.438
728.11	21.778
728.43	24.691
728.74	23.246
729.06	23.144
729.38	26.744
729.69	25.600
730.01	23.431
730.32	20.717
730.64	26.538
730.96	22.394
731.27	22.008
731.59	26.936
731.90	25.329
732.22	23.920
732.53	22.807
732.85	17.958
733.16	28.571
733.48	25.746
733.80	25.455
734.11	28.369
734.43	25.632
734.74	25.545
735.06	29.904
735.37	23.642
735.69	20.423
736.00	27.778
736.32	24.476
736.63	27.037
736.95	19.844
737.26	23.188
737.58	20.803
737.89	23.019
738.21	26.336
738.52	25.410
738.83	24.786
739.15	24.545
739.46	20.721
739.78	20.077
740.09	26.190
740.41	25.758
740.72	18.725
741.04	22.134
741.35	21.525
741.66	28.495
741.98	24.490
742.29	20.207
742.61	15.607
742.92	18.627
743.23	25.871
743.55	23.316
743.86	25.121
744.18	16.500
744.49	21.667
744.80	25.806
745.12	21.538
745.43	22.995
745.74	13.369
746.06	27.586
746.37	17.222
746.68	21.081
747.00	11.602
747.31	24.607
747.62	27.895
747.94	24.528
748.25	29.064
748.56	26.263
748.88	19.672
749.19	24.870
749.50	19.412
749.82	28.000
750.13	20.874
750.44	23.176
750.75	28.400
751.07	18.828
751.38	21.875
751.69	28.571
752.01	25.630
752.32	26.446
752.63	21.834
752.94	18.800
753.26	21.918
753.57	26.540
753.88	16.279
754.19	19.824
754.51	15.900
754.82	22.500
755.13	23.894
755.44	21.212
755.75	24.900
756.07	27.468
756.38	24.268
756.69	25.283
757.00	28.014
757.31	26.990
757.63	24.183
757.94	23.636
758.25	24.405
758.56	23.784
758.87	25.298
759.18	30.530
759.50	22.776
759.81	22.780
760.12	24.555
760.43	26.578
760.74	25.749
761.05	27.885
761.36	29.377
761.67	24.620
761.99	25.418
762.30	22.545
762.61	25.203
762.92	19.556
763.23	21.395
763.54	22.843
763.85	23.529
764.16	20.870
764.47	22.174
764.78	28.226
765.10	20.866
765.41	24.749
765.72	25.084
766.03	23.746
766.34	23.864
766.65	26.953
766.96	23.111
767.27	25.140
767.58	22.013
767.89	27.273
768.20	16.216
768.51	19.540
768.82	15.000
769.13	27.315
769.44	24.057
769.75	17.647
770.06	16.505
770.37	22.340
770.68	18.974
770.99	19.797
771.30	23.196
771.61	19.283
771.92	29.245
772.23	18.269
772.54	19.412
772.85	12.329
773.16	21.290
773.47	15.924
773.78	24.551
774.09	19.737
774.39	18.382
774.70	20.301
775.01	13.846
775.32	12.698
775.63	21.260
775.94	16.038
776.25	18.519
776.56	10.000
776.87	16.239
777.18	19.000
777.48	19.231
777.79	12.963
778.10	5.660
778.41	20.588
778.72	13.208
779.03	14.035
779.34	16.807
779.65	16.197
779.95	24.460
780.26	12.097
780.57	17.391
780.88	12.844
781.19	13.889
781.50	7.377
781.80	12.409
782.11	14.103
782.42	17.931
782.73	13.287
783.04	10.400
783.34	17.600
783.65	17.886
783.96	8.197
784.27	13.445
784.57	10.280
784.88	7.143
785.19	18.557
785.50	16.842
785.81	12.000
786.11	8.911
786.42	-1.176
786.73	12.500
787.04	18.367
787.34	20.370
787.65	16.981
787.96	14.433
788.26	9.901
788.57	19.130
788.88	10.092
789.19	14.050
789.49	11.304
789.80	22.414
790.11	-1.220
790.41	17.978
790.72	6.977
791.03	6.977
791.33	1.299
791.64	13.415
791.95	13.415
792.25	16.867
792.56	0.000
792.87	0.000
793.17	6.024
793.48	-4.706
793.79	13.750
794.09	-16.667
794.40	0.000
794.70	13.043
795.01	9.174
795.32	15.748
795.62	15.686
795.93	22.549
796.23	10.101
796.54	11.628
796.85	1.449
797.15	-6.250
797.46	-11.864
797.76	16.393
798.07	0.000
798.37	-8.065
798.68	-3.125
798.99	-1.538
799.29	-9.091
799.60	14.493
799.90	15.714
800.21	-5.263
800.51	1.724
800.82	-5.660
801.12	-1.961
801.43	-3.226
801.73	-9.677
802.04	14.000
802.34	-20.755
802.65	-21.053
802.95	5.455
803.26	-3.774
803.56	0.000
803.87	2.000
804.17	-20.370
804.48	-3.846
804.78	-20.408
805.09	0.000
805.39	11.864
805.70	-14.583
806.00	7.143
806.30	-6.780
806.61	0.000
806.91	-4.615
807.22	-7.895
807.52	4.286
807.83	3.448
808.13	12.658
808.43	-1.639
808.74	14.754
809.04	1.351
809.35	9.259
809.65	3.571
809.95	-5.085
810.26	-32.653
810.56	1.887
810.86	-9.804
811.17	2.703
811.47	-48.148
811.77	3.922
812.08	0.000
812.38	-58.333
812.69	-17.949
812.99	-2.381
813.29	-26.087
813.59	-5.714
813.90	-19.048
814.20	-12.727
814.50	-4.082
814.81	-5.882
815.11	-14.583
815.41	-29.268
815.72	-53.846
816.02	-8.511
816.32	6.250
816.62	-21.212
816.93	-69.697
817.23	-21.622
817.53	-23.529
817.84	12.500
818.14	-52.941
818.44	-3.125
818.74	-104.762
819.04	-22.857
819.35	-20.000
819.65	2.273
819.95	-12.821
820.25	-94.444
820.56	-44.828
820.86	-57.143
821.16	-69.565
821.46	-14.286
821.76	-7.407
822.07	-43.478
822.37	-20.408
822.67	-16.279
822.97	-69.565
823.27	-92.308
823.57	-96.296
823.88	-10.714
824.18	-33.333
824.48	-3.571
824.78	0.000
825.08	-113.333
825.38	-40.000
825.69	-127.778
825.99	-70.370
826.29	-6.667
826.59	-81.481
826.89	-88.889
827.19	-50.000
827.49	-72.727
827.79	-136.364
828.09	-68.182
828.39	-73.913
828.70	-70.370
829.00	-53.571
829.30	-30.952
829.60	-51.613
829.90	-57.692
830.20	-25.641
830.50	-77.273
830.80	-95.238
831.10	-83.333
831.40	-128.571
831.70	-11.111
832.00	-94.118
832.30	-13.043
832.60	-50.000
832.90	-136.364
833.20	-105.556
833.50	-18.750
833.80	-57.692
834.10	-4.000
834.40	-58.333
834.70	-50.000
835.00	-42.308
835.30	-90.000
835.60	-280.000
835.90	-60.000
836.20	-128.571
836.50	-43.478
836.80	-72.222
837.10	-46.667
837.40	-170.000
837.70	-4.348
838.00	-64.286
838.30	3100.000
838.60	16.000
838.90	-440.000
839.19	-266.667
839.49	-1300.000
839.79	-76.471
840.09	-166.667
840.39	-35.714
840.69	-150.000
840.99	-175.000
841.29	-75.862
841.59	-106.667
841.88	-90.909
842.18	-350.000
842.48	-50.000
842.78	-46.154
843.08	-94.118
843.38	-60.000
843.68	-123.077
843.97	-58.824
844.27	-200.000
844.57	-58.333
844.87	-209.091
845.17	-115.789
845.47	-77.778
845.76	-55.556
846.06	-90.476
846.36	-42.857
846.66	-211.111
846.96	-60.000
847.25	-480.000
847.55	-212.500
847.85	-133.333
848.15	-500.000
848.44	-63.158
848.74	-86.667
849.04	-36.842
849.34	-666.667
849.63	-333.333
849.93	-111.765
850.23	-254.545
850.53	-500.000
850.82	-340.000
851.12	-144.444
851.42	-200.000
851.71	-620.000
852.01	-71.429
852.31	-633.333
852.61	-130.769
852.90	-580.000
853.20	-200.000
853.50	-255.556
853.79	-250.000
854.09	-105.000
854.39	-89.474
854.68	-55.000
854.98	-375.000
855.28	-77.778
855.57	-128.571
855.87	-21.053
856.17	-137.500
856.46	-30.769
856.76	-140.000
857.05	-106.250
857.35	4.167
857.65	-144.444
857.94	-162.500
858.24	-21.739
858.53	-130.000
858.83	-466.667
859.13	-254.545
859.42	-270.000
859.72	200.000
860.01	-115.385
860.31	-300.000
860.60	-162.500
860.90	-600.000
861.20	-416.667
861.49	-475.000
861.79	950.000
862.08	-6.452
862.38	-105.263
862.67	-146.154
862.97	-200.000
863.26	-216.667
863.56	-56.522
863.85	-566.667
864.15	-135.714
864.44	-18.750
864.74	-150.000
865.03	-244.444
865.33	-733.333
865.62	-2700.000
865.92	-800.000
866.21	-383.333
866.51	-154.545
866.80	-633.333
867.10	-328.571
867.39	-277.778
867.69	-175.000
867.98	440.000
868.27	-600.000
868.57	875.000
868.86	-66.667
869.16	-146.154
869.45	1650.000
869.75	-300.000
870.04	-200.000
870.33	-17.647
870.63	-185.714
870.92	-13.043
871.22	-275.000
871.51	780.000
871.80	-106.250
872.10	-233.333
>>>>>End Processed Spectral Data<<<<<
