SpectraSuite Data File
++++++++++++++++++++++++++++++++++++
Date: Wed May 13 19:10:11 PDT 2015
User: schluterlab
Dark Spectrum Present: Yes
Reference Spectrum Present: Yes
Number of Sampled Component Spectra: 1
Spectrometers: USB2E3373
Integration Time (usec): 3000 (USB2E3373)
Spectra Averaged: 3 (USB2E3373)
Boxcar Smoothing: 0 (USB2E3373)
Correct for Electrical Dark: No (USB2E3373)
Strobe/Lamp Enabled: No (USB2E3373)
Correct for Detector Non-linearity: No (USB2E3373)
Correct for Stray Light: No (USB2E3373)
Number of Pixels in Processed Spectrum: 2048
>>>>>Begin Processed Spectral Data<<<<<
178.53	0.000
178.91	-1525.000
179.29	-1450.000
179.67	-283.333
180.04	-1450.000
180.42	2250.000
180.80	1080.000
181.18	-1350.000
181.56	885.714
181.94	0.000
182.31	-900.000
182.69	2000.000
183.07	-675.000
183.45	-566.667
183.83	490.909
184.20	-570.000
184.58	2550.000
184.96	5900.000
185.34	-1000.000
185.72	-637.500
186.09	-3000.000
186.47	2800.000
186.85	2750.000
187.23	6000.000
187.61	-1933.333
187.98	1750.000
188.36	645.455
188.74	618.182
189.12	-1040.000
189.49	610.000
189.87	-4700.000
190.25	-1475.000
190.63	500.000
191.00	500.000
191.38	950.000
191.76	-1500.000
192.14	1675.000
192.51	650.000
192.89	1050.000
193.27	737.500
193.65	-1300.000
194.02	710.000
194.40	1120.000
194.78	610.000
195.15	600.000
195.53	830.000
195.91	-2550.000
196.29	387.500
196.66	347.368
197.04	-470.000
197.42	0.000
197.79	640.000
198.17	-5700.000
198.55	742.857
198.92	712.500
199.30	1020.000
199.68	0.000
200.05	361.111
200.43	842.857
200.81	5000.000
201.18	2000.000
201.56	-1600.000
201.94	744.444
202.31	644.444
202.69	391.667
203.07	590.000
203.44	0.000
203.82	1275.000
204.19	842.857
204.57	492.857
204.95	762.500
205.32	2266.667
205.70	563.636
206.08	407.143
206.45	2850.000
206.83	443.750
207.20	900.000
207.58	1040.000
207.96	388.889
208.33	825.000
208.71	-966.667
209.08	885.714
209.46	600.000
209.84	500.000
210.21	-1866.667
210.59	1550.000
210.96	-500.000
211.34	3000.000
211.71	670.000
212.09	900.000
212.46	0.000
212.84	1833.333
213.22	1725.000
213.59	-5900.000
213.97	933.333
214.34	842.857
214.72	563.636
215.09	1240.000
215.47	-2750.000
215.84	-2600.000
216.22	1933.333
216.59	521.429
216.97	1425.000
217.34	536.364
217.72	-916.667
218.09	0.000
218.47	-5500.000
218.84	677.778
219.22	900.000
219.59	2033.333
219.97	-742.857
220.34	960.000
220.72	-1433.333
221.09	414.286
221.47	1550.000
221.84	-1250.000
222.22	0.000
222.59	1350.000
222.97	-2650.000
223.34	1560.000
223.72	484.615
224.09	1200.000
224.46	2750.000
224.84	-5300.000
225.21	-1080.000
225.59	-4800.000
225.96	660.000
226.34	360.000
226.71	2750.000
227.08	737.500
227.46	630.000
227.83	-1100.000
228.21	-2700.000
228.58	666.667
228.95	-2400.000
229.33	-2900.000
229.70	1933.333
230.08	900.000
230.45	-1000.000
230.82	566.667
231.20	933.333
231.57	828.571
231.95	525.000
232.32	295.455
232.69	463.636
233.07	671.429
233.44	392.308
233.81	-2000.000
234.19	389.474
234.56	541.667
234.93	408.333
235.31	500.000
235.68	446.154
236.05	485.714
236.43	190.909
236.80	394.737
237.17	5700.000
237.55	285.714
237.92	260.714
238.29	309.524
238.67	225.806
239.04	248.276
239.41	188.889
239.79	167.391
240.16	197.619
240.53	179.545
240.91	135.294
241.28	150.000
241.65	162.000
242.02	114.493
242.40	130.645
242.77	138.333
243.14	106.452
243.51	114.607
243.89	107.059
244.26	97.778
244.63	102.151
245.00	95.745
245.38	96.040
245.75	90.654
246.12	82.569
246.49	83.942
246.87	92.000
247.24	80.769
247.61	80.714
247.98	71.895
248.36	77.027
248.73	77.707
249.10	78.981
249.47	68.927
249.84	74.332
250.22	66.845
250.59	76.923
250.96	69.697
251.33	66.351
251.70	67.822
252.08	67.143
252.45	62.332
252.82	58.696
253.19	65.957
253.56	58.824
253.94	65.145
254.31	58.203
254.68	65.769
255.05	60.517
255.42	68.293
255.79	59.926
256.16	62.816
256.54	56.890
256.91	56.584
257.28	59.712
257.65	58.746
258.02	51.863
258.39	55.836
258.76	58.528
259.14	54.464
259.51	54.711
259.88	54.969
260.25	53.474
260.62	57.803
260.99	53.106
261.36	57.658
261.73	56.160
262.10	56.105
262.47	52.394
262.85	54.039
263.22	52.137
263.59	56.410
263.96	53.846
264.33	48.303
264.70	53.684
265.07	49.616
265.44	49.495
265.81	50.608
266.18	52.513
266.55	53.171
266.92	52.580
267.29	49.769
267.66	49.083
268.03	52.045
268.40	50.000
268.77	49.881
269.14	47.523
269.51	50.790
269.88	51.515
270.25	49.887
270.62	51.910
270.99	52.043
271.36	50.858
271.73	50.701
272.10	51.957
272.47	49.677
272.84	50.433
273.21	48.008
273.58	47.817
273.95	44.654
274.32	50.413
274.69	50.749
275.06	43.898
275.43	50.426
275.80	48.096
276.17	47.047
276.54	46.362
276.91	45.059
277.28	45.117
277.65	48.936
278.02	46.584
278.39	49.219
278.76	47.455
279.13	46.226
279.50	46.927
279.87	47.410
280.23	44.711
280.60	43.714
280.97	43.438
281.34	46.372
281.71	45.818
282.08	46.257
282.45	46.000
282.82	45.471
283.19	43.494
283.56	45.439
283.92	44.332
284.29	43.739
284.66	46.461
285.03	45.931
285.40	42.782
285.77	44.108
286.14	42.314
286.51	43.500
286.87	43.932
287.24	45.603
287.61	41.413
287.98	43.182
288.35	41.680
288.72	40.654
289.08	40.845
289.45	40.033
289.82	42.439
290.19	40.031
290.56	38.897
290.93	37.462
291.29	40.951
291.66	38.201
292.03	39.244
292.40	40.235
292.77	40.828
293.13	37.761
293.50	38.630
293.87	39.111
294.24	37.630
294.60	37.118
294.97	39.826
295.34	37.800
295.71	39.205
296.08	36.040
296.44	36.864
296.81	36.460
297.18	38.618
297.55	34.301
297.91	35.884
298.28	34.806
298.65	34.856
299.02	34.914
299.38	35.591
299.75	34.636
300.12	35.760
300.48	35.125
300.85	33.416
301.22	33.376
301.59	32.955
301.95	34.635
302.32	34.146
302.69	34.409
303.05	35.394
303.42	33.580
303.79	33.749
304.15	32.284
304.52	32.561
304.89	32.056
305.25	33.179
305.62	32.843
305.99	34.829
306.35	31.991
306.72	32.287
307.09	32.741
307.45	33.221
307.82	31.027
308.19	32.892
308.55	33.333
308.92	31.686
309.29	30.834
309.65	31.601
310.02	32.558
310.38	31.505
310.75	31.151
311.12	31.832
311.48	31.557
311.85	32.180
312.22	31.322
312.58	31.497
312.95	31.468
313.31	29.806
313.68	30.353
314.05	32.446
314.41	30.653
314.78	31.420
315.14	30.884
315.51	31.102
315.87	31.782
316.24	30.487
316.61	31.871
316.97	30.724
317.34	29.843
317.70	31.836
318.07	30.991
318.43	32.681
318.80	31.115
319.16	30.603
319.53	28.799
319.89	31.048
320.26	31.200
320.62	30.655
320.99	30.303
321.35	31.616
321.72	30.390
322.08	30.898
322.45	30.050
322.81	29.748
323.18	29.769
323.54	30.519
323.91	30.377
324.27	30.306
324.64	28.145
325.00	28.404
325.37	29.208
325.73	30.072
326.10	28.597
326.46	26.703
326.83	29.422
327.19	28.864
327.56	29.355
327.92	29.921
328.29	29.725
328.65	29.650
329.01	28.791
329.38	29.047
329.74	27.978
330.11	29.218
330.47	28.834
330.84	29.688
331.20	27.413
331.56	28.716
331.93	28.241
332.29	27.950
332.66	27.788
333.02	28.245
333.38	29.178
333.75	27.718
334.11	27.491
334.48	26.974
334.84	28.033
335.20	29.182
335.57	27.924
335.93	26.964
336.29	27.930
336.66	28.494
337.02	26.516
337.38	28.796
337.75	27.094
338.11	26.589
338.47	29.006
338.84	27.681
339.20	27.156
339.56	29.106
339.93	26.273
340.29	27.808
340.65	27.094
341.02	27.923
341.38	26.779
341.74	27.105
342.11	26.638
342.47	27.401
342.83	26.798
343.20	27.100
343.56	26.369
343.92	27.456
344.28	25.850
344.65	27.343
345.01	26.684
345.37	25.729
345.73	27.327
346.10	26.769
346.46	26.356
346.82	25.865
347.19	25.480
347.55	25.616
347.91	26.780
348.27	26.952
348.63	26.087
349.00	25.809
349.36	26.026
349.72	25.982
350.08	26.904
350.45	26.444
350.81	25.670
351.17	25.365
351.53	25.880
351.89	25.660
352.26	26.046
352.62	26.303
352.98	25.365
353.34	26.130
353.70	24.468
354.07	24.919
354.43	25.635
354.79	24.296
355.15	26.656
355.51	25.819
355.87	25.714
356.24	25.489
356.60	25.341
356.96	24.296
357.32	25.511
357.68	25.039
358.04	24.782
358.40	25.178
358.77	25.743
359.13	25.257
359.49	26.275
359.85	24.444
360.21	24.083
360.57	25.136
360.93	25.154
361.29	24.717
361.66	23.762
362.02	25.075
362.38	24.867
362.74	24.702
363.10	23.982
363.46	24.798
363.82	24.717
364.18	23.642
364.54	24.368
364.90	24.575
365.26	24.632
365.62	24.617
365.98	23.959
366.35	22.994
366.71	24.150
367.07	24.253
367.43	25.109
367.79	25.125
368.15	24.569
368.51	23.328
368.87	23.911
369.23	23.994
369.59	24.692
369.95	24.412
370.31	25.071
370.67	23.768
371.03	24.869
371.39	24.344
371.75	23.897
372.11	23.826
372.47	25.073
372.83	24.784
373.19	23.049
373.55	25.203
373.91	24.227
374.27	23.368
374.63	23.273
374.99	23.658
375.35	23.168
375.71	22.755
376.07	24.074
376.42	23.659
376.78	24.122
377.14	22.659
377.50	23.510
377.86	23.005
378.22	22.946
378.58	22.118
378.94	23.130
379.30	22.074
379.66	23.033
380.02	22.482
380.38	22.890
380.74	22.869
381.09	23.350
381.45	22.803
381.81	22.727
382.17	23.631
382.53	22.579
382.89	23.457
383.25	22.764
383.61	23.296
383.97	23.077
384.32	22.707
384.68	21.871
385.04	22.495
385.40	22.477
385.76	22.727
386.12	22.798
386.48	23.159
386.83	23.861
387.19	22.882
387.55	22.696
387.91	22.128
388.27	22.318
388.62	23.725
388.98	22.297
389.34	23.404
389.70	22.318
390.06	22.370
390.42	22.892
390.77	23.092
391.13	22.144
391.49	23.604
391.85	22.597
392.20	22.524
392.56	22.222
392.92	22.778
393.28	21.893
393.64	22.902
393.99	22.236
394.35	21.712
394.71	22.083
395.07	22.056
395.42	22.559
395.78	22.774
396.14	21.726
396.50	23.120
396.85	22.568
397.21	22.010
397.57	22.939
397.92	22.837
398.28	21.188
398.64	21.864
399.00	21.936
399.35	21.376
399.71	22.106
400.07	22.768
400.42	22.147
400.78	22.075
401.14	21.646
401.49	23.284
401.85	22.444
402.21	21.737
402.57	22.147
402.92	23.266
403.28	22.798
403.63	22.215
403.99	22.420
404.35	23.152
404.70	22.062
405.06	22.015
405.42	22.333
405.77	21.486
406.13	22.460
406.49	22.649
406.84	21.618
407.20	21.749
407.55	22.272
407.91	22.467
408.27	22.463
408.62	22.336
408.98	21.875
409.34	22.448
409.69	22.258
410.05	21.685
410.40	22.080
410.76	21.027
411.11	21.411
411.47	21.278
411.83	21.564
412.18	21.645
412.54	22.540
412.89	22.410
413.25	21.901
413.60	21.248
413.96	21.129
414.31	21.810
414.67	22.053
415.03	22.053
415.38	22.036
415.74	22.186
416.09	22.861
416.45	21.553
416.80	21.811
417.16	22.855
417.51	21.964
417.87	21.773
418.22	22.208
418.58	22.143
418.93	21.683
419.29	22.215
419.64	21.537
420.00	22.317
420.35	21.565
420.71	21.937
421.06	21.301
421.42	21.637
421.77	21.973
422.12	20.663
422.48	20.453
422.83	22.190
423.19	22.099
423.54	21.822
423.90	22.667
424.25	21.887
424.61	21.786
424.96	21.399
425.31	21.041
425.67	20.674
426.02	20.629
426.38	22.650
426.73	20.597
427.09	20.669
427.44	21.392
427.79	21.737
428.15	21.905
428.50	21.533
428.85	21.692
429.21	21.369
429.56	20.840
429.92	21.339
430.27	20.506
430.62	21.249
430.98	21.328
431.33	20.979
431.68	21.204
432.04	21.033
432.39	21.245
432.74	20.886
433.10	22.071
433.45	21.399
433.80	21.341
434.16	21.154
434.51	21.632
434.86	21.494
435.22	21.234
435.57	21.763
435.92	21.358
436.28	21.945
436.63	22.185
436.98	20.664
437.34	22.123
437.69	22.812
438.04	21.192
438.39	21.493
438.75	22.196
439.10	21.341
439.45	21.547
439.81	21.208
440.16	21.062
440.51	21.968
440.86	21.598
441.22	21.746
441.57	20.913
441.92	22.006
442.27	21.744
442.63	20.169
442.98	21.746
443.33	20.924
443.68	21.012
444.03	20.986
444.39	20.448
444.74	20.942
445.09	21.725
445.44	21.323
445.79	21.524
446.15	21.387
446.50	21.002
446.85	21.531
447.20	21.265
447.55	21.720
447.91	20.629
448.26	21.647
448.61	21.764
448.96	22.536
449.31	21.822
449.66	21.384
450.02	21.504
450.37	20.748
450.72	21.658
451.07	20.293
451.42	21.216
451.77	21.785
452.12	21.478
452.47	22.201
452.83	21.795
453.18	21.210
453.53	21.398
453.88	21.677
454.23	21.817
454.58	22.532
454.93	23.077
455.28	21.135
455.63	21.117
455.98	22.976
456.34	21.671
456.69	21.853
457.04	21.920
457.39	21.099
457.74	21.532
458.09	21.737
458.44	22.634
458.79	20.933
459.14	22.291
459.49	21.074
459.84	21.108
460.19	20.978
460.54	21.586
460.89	20.680
461.24	20.886
461.59	22.487
461.94	20.160
462.29	22.789
462.64	21.825
462.99	21.535
463.34	22.333
463.69	21.201
464.04	20.812
464.39	21.623
464.74	21.925
465.09	20.748
465.44	20.776
465.79	20.358
466.14	21.730
466.49	21.413
466.84	22.067
467.19	22.209
467.54	21.312
467.89	21.429
468.24	21.757
468.59	22.283
468.94	21.625
469.29	22.237
469.64	22.758
469.99	21.989
470.34	22.853
470.68	22.198
471.03	21.156
471.38	21.543
471.73	22.318
472.08	22.105
472.43	21.357
472.78	22.186
473.13	22.208
473.48	21.848
473.83	21.402
474.17	21.033
474.52	21.588
474.87	21.424
475.22	21.358
475.57	20.903
475.92	20.605
476.27	21.759
476.61	21.346
476.96	21.220
477.31	21.193
477.66	21.718
478.01	20.857
478.36	20.465
478.70	20.457
479.05	20.767
479.40	20.880
479.75	21.098
480.10	20.775
480.45	20.752
480.79	20.592
481.14	21.282
481.49	20.930
481.84	20.165
482.19	20.809
482.53	20.459
482.88	20.335
483.23	20.140
483.58	20.610
483.92	21.040
484.27	20.000
484.62	20.603
484.97	20.339
485.31	20.274
485.66	19.444
486.01	18.662
486.36	18.144
486.70	17.954
487.05	18.426
487.40	18.973
487.75	19.031
488.09	19.594
488.44	19.813
488.79	20.289
489.13	20.474
489.48	21.166
489.83	20.457
490.17	20.737
490.52	19.929
490.87	20.715
491.22	19.873
491.56	19.271
491.91	20.382
492.26	20.441
492.60	20.507
492.95	19.878
493.30	20.187
493.64	20.859
493.99	19.963
494.34	20.120
494.68	20.833
495.03	20.207
495.37	20.289
495.72	20.322
496.07	20.696
496.41	19.912
496.76	20.493
497.11	20.351
497.45	20.587
497.80	20.345
498.14	20.386
498.49	20.878
498.84	21.524
499.18	20.238
499.53	20.608
499.87	20.084
500.22	20.772
500.56	20.825
500.91	20.673
501.26	20.294
501.60	20.930
501.95	20.761
502.29	21.040
502.64	20.298
502.98	20.944
503.33	20.338
503.67	20.000
504.02	19.972
504.36	20.122
504.71	20.811
505.06	21.012
505.40	20.661
505.75	19.817
506.09	20.505
506.44	20.375
506.78	20.068
507.13	20.495
507.47	20.859
507.82	20.567
508.16	20.466
508.51	21.055
508.85	20.010
509.19	20.306
509.54	20.051
509.88	20.093
510.23	20.154
510.57	21.259
510.92	20.715
511.26	20.761
511.61	21.369
511.95	20.355
512.30	20.201
512.64	21.171
512.98	21.490
513.33	21.467
513.67	20.918
514.02	20.671
514.36	20.317
514.70	21.306
515.05	20.636
515.39	21.481
515.74	21.227
516.08	20.961
516.42	21.421
516.77	21.349
517.11	21.143
517.46	21.275
517.80	21.951
518.14	20.556
518.49	21.120
518.83	20.852
519.17	22.286
519.52	21.788
519.86	20.479
520.20	21.503
520.55	20.766
520.89	20.803
521.23	21.713
521.58	20.948
521.92	22.474
522.26	20.927
522.61	21.246
522.95	20.626
523.29	20.937
523.64	21.890
523.98	21.134
524.32	21.592
524.66	21.828
525.01	21.630
525.35	21.933
525.69	21.921
526.04	21.558
526.38	20.927
526.72	22.270
527.06	22.159
527.41	20.978
527.75	21.158
528.09	21.708
528.43	22.307
528.78	22.495
529.12	21.333
529.46	21.617
529.80	22.153
530.15	21.745
530.49	21.354
530.83	22.278
531.17	21.867
531.51	21.660
531.86	20.903
532.20	22.686
532.54	22.101
532.88	21.630
533.22	21.986
533.57	21.914
533.91	21.011
534.25	21.264
534.59	21.599
534.93	20.999
535.27	21.243
535.62	21.978
535.96	21.532
536.30	20.915
536.64	21.700
536.98	22.362
537.32	22.383
537.66	21.200
538.01	22.449
538.35	21.978
538.69	22.655
539.03	21.507
539.37	21.470
539.71	20.998
540.05	21.961
540.39	21.395
540.73	21.604
541.07	22.583
541.42	22.114
541.76	22.129
542.10	22.445
542.44	21.656
542.78	22.069
543.12	21.049
543.46	21.705
543.80	21.666
544.14	20.860
544.48	22.349
544.82	21.360
545.16	21.926
545.50	21.658
545.84	22.177
546.18	22.155
546.52	22.299
546.86	21.168
547.20	22.724
547.54	21.844
547.88	22.258
548.22	21.793
548.56	21.447
548.90	21.255
549.24	21.481
549.58	22.851
549.92	21.772
550.26	22.017
550.60	21.992
550.94	22.324
551.28	20.775
551.62	22.646
551.96	21.684
552.30	22.253
552.64	22.448
552.98	21.898
553.32	21.982
553.66	22.631
554.00	22.375
554.34	21.739
554.68	21.888
555.02	22.355
555.36	21.364
555.69	20.974
556.03	22.342
556.37	22.101
556.71	21.351
557.05	22.479
557.39	22.323
557.73	21.030
558.07	22.698
558.41	22.721
558.75	22.851
559.08	22.521
559.42	22.751
559.76	22.206
560.10	22.127
560.44	21.523
560.78	21.557
561.12	21.768
561.45	21.708
561.79	20.962
562.13	22.267
562.47	22.199
562.81	21.548
563.15	21.338
563.48	21.220
563.82	20.678
564.16	21.452
564.50	20.964
564.84	21.049
565.17	20.849
565.51	20.895
565.85	20.749
566.19	20.601
566.52	20.266
566.86	20.615
567.20	21.757
567.54	21.347
567.88	20.261
568.21	20.952
568.55	20.172
568.89	20.136
569.23	20.187
569.56	19.514
569.90	20.000
570.24	19.483
570.57	19.517
570.91	19.360
571.25	19.179
571.59	19.057
571.92	19.124
572.26	19.324
572.60	19.219
572.93	19.220
573.27	19.639
573.61	19.654
573.95	18.966
574.28	19.146
574.62	19.339
574.96	19.020
575.29	18.574
575.63	18.928
575.97	19.136
576.30	19.039
576.64	18.954
576.98	18.644
577.31	19.316
577.65	19.023
577.98	18.838
578.32	18.666
578.66	18.679
578.99	18.831
579.33	19.003
579.67	18.584
580.00	19.348
580.34	19.625
580.67	18.554
581.01	18.912
581.35	19.022
581.68	18.951
582.02	18.489
582.35	18.445
582.69	18.533
583.02	18.435
583.36	18.976
583.70	18.956
584.03	19.122
584.37	19.157
584.70	19.331
585.04	19.203
585.37	19.152
585.71	19.267
586.04	18.966
586.38	19.331
586.72	18.862
587.05	19.234
587.39	18.892
587.72	19.273
588.06	19.184
588.39	19.424
588.73	19.097
589.06	19.726
589.40	19.428
589.73	19.782
590.07	20.107
590.40	19.583
590.73	19.711
591.07	20.798
591.40	20.624
591.74	21.255
592.07	20.288
592.41	20.298
592.74	19.775
593.08	19.887
593.41	19.899
593.75	18.738
594.08	19.712
594.41	19.512
594.75	20.555
595.08	19.757
595.42	19.930
595.75	20.370
596.09	20.240
596.42	20.393
596.75	19.966
597.09	20.476
597.42	20.067
597.75	20.569
598.09	20.217
598.42	20.447
598.76	19.822
599.09	19.042
599.42	20.306
599.76	20.132
600.09	19.818
600.42	19.503
600.76	19.214
601.09	19.417
601.42	19.482
601.76	19.583
602.09	20.514
602.42	20.462
602.76	20.153
603.09	20.417
603.42	20.500
603.76	20.122
604.09	20.047
604.42	20.098
604.76	20.371
605.09	19.921
605.42	20.393
605.75	19.536
606.09	19.967
606.42	20.229
606.75	20.282
607.09	20.134
607.42	19.726
607.75	20.000
608.08	20.148
608.42	20.753
608.75	20.424
609.08	19.611
609.41	20.704
609.75	20.629
610.08	21.065
610.41	19.134
610.74	19.678
611.07	21.443
611.41	20.363
611.74	21.368
612.07	20.756
612.40	20.094
612.73	20.474
613.07	20.905
613.40	20.958
613.73	20.241
614.06	20.269
614.39	20.556
614.72	20.474
615.06	21.376
615.39	20.329
615.72	20.348
616.05	20.202
616.38	20.956
616.71	20.962
617.05	22.026
617.38	21.648
617.71	21.081
618.04	21.575
618.37	21.999
618.70	21.344
619.03	22.105
619.36	21.996
619.69	22.183
620.03	21.978
620.36	21.791
620.69	22.466
621.02	23.156
621.35	20.908
621.68	21.963
622.01	22.988
622.34	22.769
622.67	22.205
623.00	21.350
623.33	21.515
623.66	22.516
623.99	21.649
624.32	22.111
624.65	21.328
624.99	21.459
625.32	22.158
625.65	21.863
625.98	21.906
626.31	22.240
626.64	22.367
626.97	22.195
627.30	21.696
627.63	23.134
627.96	22.960
628.29	22.485
628.62	23.879
628.95	24.151
629.28	22.172
629.61	23.648
629.94	24.476
630.26	23.451
630.59	23.070
630.92	23.563
631.25	22.211
631.58	23.924
631.91	22.617
632.24	22.468
632.57	24.659
632.90	23.904
633.23	23.378
633.56	25.424
633.89	24.915
634.22	23.723
634.55	25.917
634.88	23.593
635.20	24.851
635.53	26.024
635.86	23.639
636.19	24.353
636.52	24.337
636.85	23.368
637.18	24.424
637.51	26.241
637.83	22.688
638.16	24.936
638.49	25.693
638.82	26.422
639.15	25.875
639.48	25.062
639.81	25.603
640.13	26.432
640.46	26.040
640.79	25.099
641.12	24.897
641.45	24.441
641.77	25.773
642.10	26.316
642.43	24.625
642.76	26.780
643.09	26.227
643.41	25.038
643.74	25.463
644.07	26.067
644.40	28.221
644.73	27.717
645.05	25.674
645.38	26.698
645.71	27.214
646.04	27.741
646.36	28.715
646.69	27.425
647.02	27.041
647.35	26.804
647.67	29.204
648.00	28.780
648.33	26.568
648.66	26.061
648.98	26.537
649.31	26.607
649.64	26.607
649.96	25.484
650.29	25.276
650.62	26.537
650.94	28.039
651.27	26.689
651.60	27.953
651.92	29.553
652.25	26.384
652.58	26.168
652.90	27.646
653.23	25.732
653.56	26.614
653.88	28.051
654.21	27.646
654.54	27.393
654.86	25.234
655.19	25.000
655.52	17.274
655.84	15.577
656.17	20.846
656.49	28.256
656.82	28.781
657.15	21.260
657.47	15.869
657.80	12.232
658.13	12.804
658.45	19.548
658.78	19.767
659.10	20.904
659.43	21.307
659.75	23.582
660.08	25.380
660.41	27.747
660.73	27.827
661.06	28.822
661.38	30.000
661.71	28.269
662.03	30.375
662.36	27.833
662.68	28.916
663.01	29.697
663.33	27.176
663.66	28.571
663.98	30.022
664.31	27.521
664.63	27.126
664.96	29.376
665.28	30.328
665.61	27.485
665.93	26.761
666.26	29.209
666.58	29.707
666.91	28.753
667.23	31.011
667.56	28.510
667.88	29.915
668.21	28.358
668.53	26.464
668.86	29.221
669.18	32.409
669.50	28.478
669.83	31.373
670.15	30.000
670.48	30.283
670.80	32.543
671.13	30.573
671.45	27.447
671.77	30.957
672.10	28.651
672.42	27.915
672.75	29.353
673.07	30.458
673.39	27.848
673.72	26.953
674.04	29.216
674.37	28.155
674.69	28.016
675.01	29.079
675.34	30.185
675.66	29.684
675.98	31.161
676.31	28.151
676.63	29.724
676.95	31.656
677.28	30.140
677.60	29.890
677.92	32.278
678.25	29.979
678.57	30.080
678.89	27.455
679.22	25.737
679.54	29.962
679.86	27.156
680.18	28.265
680.51	27.660
680.83	27.224
681.15	28.302
681.48	30.435
681.80	29.787
682.12	27.778
682.44	28.240
682.77	28.921
683.09	34.549
683.41	27.938
683.73	31.567
684.06	29.959
684.38	27.397
684.70	31.008
685.02	28.143
685.34	28.388
685.67	25.000
685.99	26.460
686.31	26.621
686.63	26.148
686.96	26.786
687.28	28.339
687.60	28.623
687.92	29.799
688.24	29.468
688.56	30.522
688.89	29.253
689.21	31.441
689.53	27.349
689.85	31.707
690.17	26.087
690.49	29.724
690.82	31.308
691.14	26.116
691.46	28.059
691.78	29.719
692.10	27.893
692.42	29.142
692.74	30.705
693.06	29.362
693.39	30.185
693.71	29.258
694.03	30.105
694.35	31.385
694.67	29.977
694.99	31.220
695.31	30.637
695.63	30.383
695.95	28.851
696.27	29.188
696.59	31.347
696.91	33.161
697.23	27.230
697.56	30.490
697.88	26.789
698.20	28.750
698.52	28.172
698.84	28.508
699.16	28.341
699.48	31.354
699.80	30.676
700.12	33.506
700.44	34.748
700.76	32.597
701.08	33.333
701.40	31.285
701.72	33.528
702.04	36.648
702.36	30.595
702.68	31.445
703.00	33.518
703.32	29.521
703.64	31.099
703.96	33.705
704.28	34.593
704.60	37.537
704.91	33.234
705.23	33.431
705.55	36.545
705.87	37.874
706.19	35.689
706.51	36.760
706.83	35.152
707.15	30.532
707.47	29.545
707.79	31.204
708.11	31.735
708.43	32.143
708.74	28.061
709.06	34.545
709.38	31.496
709.70	34.593
710.02	35.312
710.34	36.364
710.66	36.119
710.98	35.227
711.29	36.337
711.61	36.873
711.93	33.333
712.25	31.833
712.57	42.279
712.89	34.602
713.20	37.386
713.52	36.513
713.84	34.494
714.16	35.061
714.48	33.621
714.80	34.347
715.11	32.853
715.43	34.718
715.75	33.913
716.07	35.783
716.39	33.542
716.70	36.545
717.02	38.489
717.34	33.922
717.66	39.552
717.97	45.020
718.29	38.519
718.61	40.876
718.93	37.868
719.24	40.830
719.56	33.559
719.88	40.678
720.20	34.797
720.51	40.418
720.83	36.803
721.15	33.955
721.46	37.589
721.78	36.918
722.10	40.377
722.42	37.970
722.73	37.079
723.05	40.984
723.37	38.057
723.68	39.382
724.00	37.398
724.32	40.323
724.63	39.837
724.95	40.586
725.27	36.032
725.58	39.844
725.90	38.686
726.22	36.981
726.53	36.458
726.85	32.423
727.16	37.367
727.48	38.652
727.80	39.773
728.11	38.406
728.43	40.000
728.74	32.975
729.06	41.606
729.38	40.074
729.69	39.858
730.01	35.154
730.32	35.069
730.64	37.124
730.96	33.663
731.27	35.099
731.59	36.697
731.90	34.402
732.22	36.025
732.53	33.746
732.85	34.936
733.16	36.656
733.48	34.551
733.80	37.013
734.11	36.624
734.43	32.544
734.74	34.857
735.06	30.946
735.37	36.127
735.69	31.529
736.00	33.660
736.32	38.318
736.63	32.907
736.95	40.575
737.26	30.272
737.58	30.645
737.89	40.134
738.21	39.249
738.52	38.571
738.83	36.226
739.15	36.538
739.46	39.051
739.78	35.069
740.09	36.615
740.41	34.516
740.72	36.237
741.04	37.407
741.35	41.667
741.66	44.889
741.98	41.509
742.29	46.411
742.61	46.121
742.92	40.724
743.23	43.162
743.55	44.400
743.86	39.912
744.18	46.018
744.49	41.148
744.80	46.009
745.12	49.091
745.43	42.291
745.74	43.694
746.06	45.872
746.37	43.049
746.68	40.724
747.00	43.519
747.31	49.048
747.62	39.381
747.94	41.850
748.25	40.426
748.56	38.326
748.88	41.584
749.19	48.500
749.50	46.977
749.82	40.244
750.13	37.551
750.44	38.321
750.75	38.246
751.07	42.444
751.38	37.282
751.69	40.433
752.01	42.105
752.32	36.462
752.63	39.716
752.94	38.525
753.26	45.600
753.57	37.805
753.88	41.797
754.19	36.071
754.51	39.583
754.82	32.491
755.13	40.000
755.44	38.346
755.75	35.401
756.07	36.170
756.38	35.401
756.69	36.242
757.00	34.132
757.31	34.421
757.63	37.719
757.94	31.903
758.25	34.804
758.56	32.840
758.87	29.570
759.18	36.061
759.50	33.856
759.81	33.956
760.12	33.437
760.43	32.378
760.74	31.250
761.05	34.746
761.36	30.214
761.67	34.091
761.99	35.404
762.30	37.153
762.61	41.603
762.92	41.406
763.23	38.655
763.54	41.600
763.85	37.500
764.16	39.231
764.47	42.966
764.78	34.276
765.10	33.228
765.41	34.218
765.72	32.335
766.03	30.408
766.34	35.000
766.65	42.128
766.96	44.872
767.27	47.208
767.58	45.833
767.89	55.263
768.20	55.172
768.51	45.178
768.82	42.202
769.13	41.463
769.44	39.271
769.75	41.631
770.06	37.156
770.37	44.796
770.68	43.519
770.99	43.111
771.30	38.115
771.61	42.601
771.92	43.443
772.23	48.739
772.54	43.590
772.85	50.262
773.16	46.277
773.47	48.370
773.78	48.223
774.09	45.238
774.39	52.047
774.70	51.852
775.01	56.522
775.32	64.052
775.63	55.921
775.94	55.396
776.25	55.906
776.56	61.194
776.87	55.738
777.18	53.125
777.48	61.832
777.79	53.788
778.10	57.778
778.41	50.893
778.72	49.635
779.03	48.322
779.34	55.705
779.65	54.730
779.95	54.601
780.26	60.784
780.57	55.172
780.88	73.437
781.19	55.639
781.50	61.486
781.80	55.346
782.11	46.328
782.42	54.430
782.73	53.988
783.04	56.757
783.34	57.042
783.65	58.219
783.96	64.179
784.27	57.343
784.57	48.921
784.88	62.963
785.19	65.873
785.50	60.377
785.81	61.940
786.11	59.016
786.42	69.767
786.73	66.372
787.04	66.981
787.34	66.964
787.65	73.000
787.96	66.667
788.26	62.810
788.57	74.576
788.88	75.207
789.19	60.417
789.49	66.667
789.80	61.832
790.11	79.048
790.41	77.228
790.72	77.108
791.03	82.609
791.33	83.721
791.64	74.227
791.95	76.238
792.25	81.111
792.56	98.701
792.87	100.000
793.17	86.076
793.48	81.609
793.79	87.356
794.09	85.227
794.40	65.546
794.70	69.853
795.01	60.741
795.32	57.554
795.62	59.843
795.93	69.828
796.23	63.717
796.54	77.647
796.85	89.189
797.15	101.408
797.46	95.455
797.76	89.157
798.07	86.076
798.37	104.615
798.68	104.545
798.99	88.732
799.29	92.208
799.60	79.545
799.90	115.068
800.21	102.985
800.51	108.621
800.82	115.789
801.12	100.000
801.43	122.727
801.73	78.378
802.04	126.984
802.34	98.765
802.65	104.688
802.95	108.475
803.26	107.813
803.56	98.571
803.87	103.077
804.17	107.353
804.48	125.926
804.78	103.448
805.09	95.588
805.39	111.538
805.70	128.571
806.00	124.590
806.30	95.455
806.61	97.561
806.91	79.747
807.22	88.158
807.52	88.060
807.83	102.817
808.13	104.688
808.43	115.000
808.74	88.158
809.04	114.493
809.35	101.493
809.65	101.316
809.95	117.742
810.26	111.864
810.56	109.524
810.86	125.000
811.17	142.857
811.47	110.000
811.77	127.778
812.08	123.636
812.38	130.000
812.69	172.222
812.99	143.182
813.29	155.102
813.59	123.810
813.90	157.143
814.20	107.273
814.50	89.231
814.81	120.588
815.11	128.571
815.41	106.557
815.72	142.857
816.02	140.000
816.32	142.857
816.62	152.500
816.93	141.463
817.23	164.286
817.53	136.364
817.84	160.606
818.14	150.000
818.44	133.333
818.74	188.235
819.04	167.500
819.35	185.714
819.65	202.941
819.95	192.857
820.25	235.000
820.56	192.308
820.86	145.455
821.16	183.721
821.46	143.590
821.76	144.000
822.07	197.143
822.37	150.000
822.67	203.030
822.97	139.216
823.27	225.000
823.57	162.162
823.88	175.000
824.18	210.000
824.48	145.238
824.78	268.000
825.08	179.167
825.38	172.973
825.69	141.463
825.99	262.500
826.29	189.655
826.59	157.895
826.89	171.053
827.19	208.824
827.49	196.774
827.79	156.818
828.09	170.455
828.39	112.766
828.70	138.776
829.00	196.296
829.30	190.323
829.60	162.500
829.90	360.000
830.20	221.429
830.50	221.739
830.80	252.174
831.10	193.333
831.40	203.333
831.70	213.043
832.00	246.154
832.30	200.000
832.60	350.000
832.90	213.333
833.20	457.143
833.50	229.032
833.80	248.276
834.10	215.625
834.40	284.615
834.70	288.889
835.00	328.571
835.30	162.857
835.60	323.077
835.90	237.931
836.20	392.857
836.50	217.241
836.80	248.000
837.10	205.556
837.40	276.190
837.70	382.353
838.00	211.111
838.30	257.143
838.60	309.524
838.90	200.000
839.19	255.000
839.49	421.429
839.79	370.000
840.09	305.000
840.39	252.381
840.69	252.174
840.99	383.333
841.29	600.000
841.59	450.000
841.88	375.000
842.18	234.483
842.48	323.810
842.78	216.667
843.08	252.174
843.38	193.750
843.68	950.000
843.97	280.769
844.27	237.931
844.57	366.667
844.87	356.250
845.17	218.519
845.47	1766.667
845.76	588.889
846.06	341.176
846.36	525.000
846.66	464.286
846.96	306.250
847.25	527.273
847.55	518.182
847.85	282.609
848.15	450.000
848.44	414.286
848.74	322.222
849.04	364.706
849.34	640.000
849.63	289.474
849.93	445.455
850.23	1140.000
850.53	442.857
850.82	2750.000
851.12	-5200.000
851.42	5500.000
851.71	265.000
852.01	-1533.333
852.31	266.667
852.61	1800.000
852.90	314.286
853.20	224.000
853.50	329.412
853.79	261.905
854.09	245.833
854.39	306.250
854.68	197.297
854.98	203.226
855.28	223.333
855.57	268.966
855.87	251.852
856.17	310.526
856.46	300.000
856.76	364.706
857.05	237.931
857.35	291.667
857.65	380.000
857.94	265.217
858.24	253.846
858.53	350.000
858.83	281.818
859.13	413.333
859.42	0.000
859.72	611.111
860.01	536.364
860.31	277.273
860.60	368.421
860.90	221.739
861.20	555.556
861.49	550.000
861.79	-5300.000
862.08	687.500
862.38	290.476
862.67	438.462
862.97	405.882
863.26	622.222
863.56	344.444
863.85	508.333
864.15	700.000
864.44	460.000
864.74	1033.333
865.03	687.500
865.33	363.158
865.62	572.727
865.92	515.385
866.21	466.667
866.51	0.000
866.80	545.455
867.10	1200.000
867.39	561.538
867.69	481.818
867.98	352.632
868.27	590.909
868.57	331.579
868.86	-5100.000
869.16	443.750
869.45	2050.000
869.75	-5100.000
870.04	416.667
870.33	600.000
870.63	1200.000
870.92	2500.000
871.22	842.857
871.51	400.000
871.80	261.905
872.10	407.143
>>>>>End Processed Spectral Data<<<<<
