SpectraSuite Data File
++++++++++++++++++++++++++++++++++++
Date: Tue May 12 20:00:00 PDT 2015
User: schluterlab
Dark Spectrum Present: Yes
Reference Spectrum Present: Yes
Number of Sampled Component Spectra: 1
Spectrometers: USB2E3373
Integration Time (usec): 3000 (USB2E3373)
Spectra Averaged: 3 (USB2E3373)
Boxcar Smoothing: 0 (USB2E3373)
Correct for Electrical Dark: No (USB2E3373)
Strobe/Lamp Enabled: No (USB2E3373)
Correct for Detector Non-linearity: No (USB2E3373)
Correct for Stray Light: No (USB2E3373)
Number of Pixels in Processed Spectrum: 2048
>>>>>Begin Processed Spectral Data<<<<<
178.53	0.000
178.91	-180.000
179.29	-366.667
179.67	600.000
180.04	0.000
180.42	-300.000
180.80	-600.000
181.18	1350.000
181.56	-850.000
181.94	433.333
182.31	2600.000
182.69	-14.286
183.07	0.000
183.45	291.667
183.83	540.000
184.20	400.000
184.58	1000.000
184.96	350.000
185.34	-700.000
185.72	-164.286
186.09	-283.333
186.47	-2100.000
186.85	-300.000
187.23	216.667
187.61	-285.714
187.98	-400.000
188.36	1150.000
188.74	-100.000
189.12	-88.889
189.49	-150.000
189.87	500.000
190.25	266.667
190.63	900.000
191.00	440.000
191.38	-600.000
191.76	480.000
192.14	-257.143
192.51	-70.000
192.89	-320.000
193.27	-400.000
193.65	-900.000
194.02	-250.000
194.40	1900.000
194.78	-275.000
195.15	-357.143
195.53	300.000
195.91	360.000
196.29	-700.000
196.66	-300.000
197.04	-357.143
197.42	200.000
197.79	-225.000
198.17	-141.667
198.55	-1600.000
198.92	-188.889
199.30	1300.000
199.68	-400.000
200.05	-1000.000
200.43	-77.778
200.81	-241.667
201.18	450.000
201.56	-1100.000
201.94	-1800.000
202.31	-116.667
202.69	-88.889
203.07	-91.667
203.44	-600.000
203.82	0.000
204.19	187.500
204.57	-733.333
204.95	300.000
205.32	280.000
205.70	650.000
206.08	-1400.000
206.45	-160.000
206.83	2500.000
207.20	-200.000
207.58	-69.231
207.96	566.667
208.33	966.667
208.71	500.000
209.08	950.000
209.46	-211.111
209.84	600.000
210.21	-633.333
210.59	1000.000
210.96	255.556
211.34	-475.000
211.71	1750.000
212.09	-280.000
212.46	-300.000
212.84	-275.000
213.22	214.286
213.59	-162.500
213.97	0.000
214.34	-1100.000
214.72	-2700.000
215.09	750.000
215.47	-100.000
215.84	-212.500
216.22	-2500.000
216.59	1500.000
216.97	-83.333
217.34	-216.667
217.72	-44.444
218.09	625.000
218.47	-63.158
218.84	-300.000
219.22	-28.571
219.59	-190.000
219.97	-150.000
220.34	500.000
220.72	218.182
221.09	-900.000
221.47	0.000
221.84	800.000
222.22	-400.000
222.59	-550.000
222.97	-39.130
223.34	140.000
223.72	400.000
224.09	-350.000
224.46	253.846
224.84	-60.000
225.21	-1150.000
225.59	-475.000
225.96	-15.000
226.34	383.333
226.71	330.000
227.08	-130.769
227.46	-100.000
227.83	-100.000
228.21	-1400.000
228.58	266.667
228.95	-47.368
229.33	-43.750
229.70	-400.000
230.08	-255.556
230.45	-933.333
230.82	-2700.000
231.20	-28.571
231.57	-440.000
231.95	-766.667
232.32	188.889
232.69	-800.000
233.07	-31.250
233.44	-212.500
233.81	-32.258
234.19	-620.000
234.56	-100.000
234.93	-316.667
235.31	-22.222
235.68	-40.741
236.05	-19.231
236.43	-42.105
236.80	-50.000
237.17	-192.857
237.55	-60.000
237.92	-27.907
238.29	-16.129
238.67	0.000
239.04	11.429
239.41	13.725
239.79	-8.000
240.16	-30.000
240.53	-13.793
240.91	-1.370
241.28	-1.408
241.65	7.812
242.02	-5.263
242.40	2.667
242.77	11.579
243.14	18.824
243.51	2.151
243.89	1.905
244.26	20.370
244.63	6.122
245.00	-2.679
245.38	4.202
245.75	8.475
246.12	12.500
246.49	10.400
246.87	8.197
247.24	10.563
247.61	11.921
247.98	20.225
248.36	15.094
248.73	12.500
249.10	6.667
249.47	18.750
249.84	17.766
250.22	10.938
250.59	24.157
250.96	18.182
251.33	18.868
251.70	22.477
252.08	19.913
252.45	14.694
252.82	17.300
253.19	20.233
253.56	20.000
253.94	21.951
254.31	25.180
254.68	21.528
255.05	19.868
255.42	22.909
255.79	23.179
256.16	22.569
256.54	22.727
256.91	23.397
257.28	21.104
257.65	20.984
258.02	24.625
258.39	22.356
258.76	22.630
259.14	22.059
259.51	22.817
259.88	25.937
260.25	19.602
260.62	22.191
260.99	25.348
261.36	26.149
261.73	24.533
262.10	25.341
262.47	24.518
262.85	23.907
263.22	21.774
263.59	22.252
263.96	25.326
264.33	21.294
264.70	24.324
265.07	22.906
265.44	24.122
265.81	24.096
266.18	23.653
266.55	25.714
266.92	26.786
267.29	23.111
267.66	22.045
268.03	23.871
268.40	25.858
268.77	25.612
269.14	26.261
269.51	24.661
269.88	27.991
270.25	23.207
270.62	26.891
270.99	23.158
271.36	22.958
271.73	25.833
272.10	25.934
272.47	21.800
272.84	23.992
273.21	24.635
273.58	23.265
273.95	23.705
274.32	24.952
274.69	26.419
275.06	24.203
275.43	19.400
275.80	25.621
276.17	23.320
276.54	24.905
276.91	25.528
277.28	28.046
277.65	22.495
278.02	24.242
278.39	27.768
278.76	24.022
279.13	27.907
279.50	26.173
279.87	25.660
280.23	24.226
280.60	23.498
280.97	23.550
281.34	23.559
281.71	25.755
282.08	24.508
282.45	25.397
282.82	24.579
283.19	24.916
283.56	25.427
283.92	24.803
284.29	25.888
284.66	25.664
285.03	22.642
285.40	25.500
285.77	24.466
286.14	22.979
286.51	23.473
286.87	21.556
287.24	22.115
287.61	22.994
287.98	25.352
288.35	25.116
288.72	23.853
289.08	20.912
289.45	22.621
289.82	22.671
290.19	20.909
290.56	25.036
290.93	23.634
291.29	21.986
291.66	23.315
292.03	24.821
292.40	22.590
292.77	21.866
293.13	21.292
293.50	22.314
293.87	19.001
294.24	21.489
294.60	21.311
294.97	21.053
295.34	19.863
295.71	20.804
296.08	19.672
296.44	21.607
296.81	19.276
297.18	20.828
297.55	20.226
297.91	19.670
298.28	19.949
298.65	20.569
299.02	19.729
299.38	19.770
299.75	19.305
300.12	19.784
300.48	19.953
300.85	19.315
301.22	20.313
301.59	18.856
301.95	20.122
302.32	20.413
302.69	19.501
303.05	18.064
303.42	19.082
303.79	17.865
304.15	19.479
304.52	19.218
304.89	18.264
305.25	19.381
305.62	18.636
305.99	18.253
306.35	19.799
306.72	19.390
307.09	17.628
307.45	18.878
307.82	18.036
308.19	19.032
308.55	19.304
308.92	16.843
309.29	18.410
309.65	17.647
310.02	18.973
310.38	18.337
310.75	17.930
311.12	19.023
311.48	18.499
311.85	17.832
312.22	19.628
312.58	19.335
312.95	17.864
313.31	18.191
313.68	19.265
314.05	19.960
314.41	19.352
314.78	18.492
315.14	18.707
315.51	18.967
315.87	20.215
316.24	19.486
316.61	19.417
316.97	20.980
317.34	19.713
317.70	20.261
318.07	19.383
318.43	20.983
318.80	21.676
319.16	20.876
319.53	22.170
319.89	21.496
320.26	22.419
320.62	22.868
320.99	23.878
321.35	23.814
321.72	23.939
322.08	24.950
322.45	25.049
322.81	27.389
323.18	26.558
323.54	26.351
323.91	26.850
324.27	28.930
324.64	27.366
325.00	28.298
325.37	29.766
325.73	28.558
326.10	28.546
326.46	30.916
326.83	32.014
327.19	31.266
327.56	33.687
327.92	33.333
328.29	33.961
328.65	36.064
329.01	33.945
329.38	34.711
329.74	35.933
330.11	35.135
330.47	37.244
330.84	34.868
331.20	36.599
331.56	35.283
331.93	36.871
332.29	37.003
332.66	36.890
333.02	37.140
333.38	38.143
333.75	36.597
334.11	36.709
334.48	37.835
334.84	37.089
335.20	35.631
335.57	38.238
335.93	39.163
336.29	38.665
336.66	38.889
337.02	39.438
337.38	37.830
337.75	39.000
338.11	38.560
338.47	38.997
338.84	38.398
339.20	37.764
339.56	39.049
339.93	37.838
340.29	38.803
340.65	38.447
341.02	37.112
341.38	38.041
341.74	40.036
342.11	40.407
342.47	36.801
342.83	38.248
343.20	39.699
343.56	38.724
343.92	38.058
344.28	37.307
344.65	39.384
345.01	39.460
345.37	38.974
345.73	38.674
346.10	38.894
346.46	39.172
346.82	39.847
347.19	38.688
347.55	39.031
347.91	38.903
348.27	38.837
348.63	40.449
349.00	39.482
349.36	38.912
349.72	38.916
350.08	39.771
350.45	39.056
350.81	39.306
351.17	38.880
351.53	38.486
351.89	39.465
352.26	38.293
352.62	39.248
352.98	38.661
353.34	38.931
353.70	38.930
354.07	38.715
354.43	39.399
354.79	39.098
355.15	37.450
355.51	39.772
355.87	39.217
356.24	38.889
356.60	39.649
356.96	39.100
357.32	40.329
357.68	38.663
358.04	39.222
358.40	39.116
358.77	39.197
359.13	40.321
359.49	39.280
359.85	40.767
360.21	39.572
360.57	39.314
360.93	39.984
361.29	40.421
361.66	39.826
362.02	40.424
362.38	39.627
362.74	40.430
363.10	41.252
363.46	40.858
363.82	40.658
364.18	40.197
364.54	40.611
364.90	39.926
365.26	39.270
365.62	41.105
365.98	42.054
366.35	42.284
366.71	41.972
367.07	42.066
367.43	41.011
367.79	41.424
368.15	41.660
368.51	41.348
368.87	40.822
369.23	42.316
369.59	40.588
369.95	41.952
370.31	42.273
370.67	41.805
371.03	43.111
371.39	43.202
371.75	40.193
372.11	42.519
372.47	41.797
372.83	42.659
373.19	42.997
373.55	42.814
373.91	42.121
374.27	44.077
374.63	43.594
374.99	42.387
375.35	42.888
375.71	42.898
376.07	42.403
376.42	42.462
376.78	42.787
377.14	43.785
377.50	43.707
377.86	44.638
378.22	43.131
378.58	43.882
378.94	44.335
379.30	44.080
379.66	45.967
380.02	44.437
380.38	45.102
380.74	45.370
381.09	43.964
381.45	45.714
381.81	44.133
382.17	44.756
382.53	45.759
382.89	43.938
383.25	44.515
383.61	45.900
383.97	45.744
384.32	45.806
384.68	45.530
385.04	45.767
385.40	45.176
385.76	45.604
386.12	46.667
386.48	46.771
386.83	46.807
387.19	46.807
387.55	46.632
387.91	45.234
388.27	46.769
388.62	47.798
388.98	47.710
389.34	47.365
389.70	47.436
390.06	47.921
390.42	48.005
390.77	47.954
391.13	48.146
391.49	48.854
391.85	46.507
392.20	48.713
392.56	47.675
392.92	49.103
393.28	48.055
393.64	49.082
393.99	47.922
394.35	47.956
394.71	49.669
395.07	48.210
395.42	48.762
395.78	48.522
396.14	48.434
396.50	48.771
396.85	49.042
397.21	48.642
397.57	49.572
397.92	50.127
398.28	50.659
398.64	49.905
399.00	49.158
399.35	49.297
399.71	49.521
400.07	50.710
400.42	49.615
400.78	51.376
401.14	49.558
401.49	51.093
401.85	51.048
402.21	50.381
402.57	50.354
402.92	51.859
403.28	51.235
403.63	50.513
403.99	50.859
404.35	50.764
404.70	50.728
405.06	52.077
405.42	51.529
405.77	51.546
406.13	50.777
406.49	51.420
406.84	52.491
407.20	51.549
407.55	52.305
407.91	51.469
408.27	52.992
408.62	50.418
408.98	52.445
409.34	53.457
409.69	52.107
410.05	52.202
410.40	52.408
410.76	52.740
411.11	52.618
411.47	52.993
411.83	52.350
412.18	53.469
412.54	52.393
412.89	53.756
413.25	53.981
413.60	53.635
413.96	54.175
414.31	52.772
414.67	55.706
415.03	54.357
415.38	55.223
415.74	54.063
416.09	54.445
416.45	52.937
416.80	54.033
417.16	54.443
417.51	54.684
417.87	55.951
418.22	54.813
418.58	56.393
418.93	56.093
419.29	55.224
419.64	56.662
420.00	55.730
420.35	56.748
420.71	57.298
421.06	57.041
421.42	56.524
421.77	56.760
422.12	56.054
422.48	57.853
422.83	56.049
423.19	58.000
423.54	57.422
423.90	56.242
424.25	58.006
424.61	56.903
424.96	57.371
425.31	58.394
425.67	58.000
426.02	58.820
426.38	58.366
426.73	58.193
427.09	58.437
427.44	59.074
427.79	59.344
428.15	58.402
428.50	59.359
428.85	59.333
429.21	61.028
429.56	59.724
429.92	58.085
430.27	59.040
430.62	59.167
430.98	58.678
431.33	60.122
431.68	60.230
432.04	60.529
432.39	59.121
432.74	59.899
433.10	60.218
433.45	60.988
433.80	60.298
434.16	60.127
434.51	59.922
434.86	61.088
435.22	61.700
435.57	63.127
435.92	58.885
436.28	60.834
436.63	62.075
436.98	62.284
437.34	62.572
437.69	62.716
438.04	61.839
438.39	63.446
438.75	61.415
439.10	63.869
439.45	64.185
439.81	63.048
440.16	64.255
440.51	61.152
440.86	63.321
441.22	63.311
441.57	62.963
441.92	63.998
442.27	64.229
442.63	64.108
442.98	65.220
443.33	65.629
443.68	62.840
444.03	62.732
444.39	64.394
444.74	63.938
445.09	65.939
445.44	63.673
445.79	66.127
446.15	64.723
446.50	64.604
446.85	64.906
447.20	64.223
447.55	63.583
447.91	64.844
448.26	65.282
448.61	65.076
448.96	64.163
449.31	65.582
449.66	64.649
450.02	66.036
450.37	66.221
450.72	66.667
451.07	66.051
451.42	66.074
451.77	65.700
452.12	66.228
452.47	66.192
452.83	66.625
453.18	66.172
453.53	67.276
453.88	68.092
454.23	66.390
454.58	67.559
454.93	66.689
455.28	67.821
455.63	68.486
455.98	68.084
456.34	66.577
456.69	69.127
457.04	68.045
457.39	67.291
457.74	66.877
458.09	67.704
458.44	68.731
458.79	66.784
459.14	67.024
459.49	67.834
459.84	68.668
460.19	66.417
460.54	67.677
460.89	67.059
461.24	67.208
461.59	68.833
461.94	67.916
462.29	67.544
462.64	69.708
462.99	69.833
463.34	70.256
463.69	68.587
464.04	68.505
464.39	69.582
464.74	67.294
465.09	67.074
465.44	69.286
465.79	67.870
466.14	68.675
466.49	68.114
466.84	68.120
467.19	68.291
467.54	67.838
467.89	67.668
468.24	68.497
468.59	68.521
468.94	69.065
469.29	71.280
469.64	70.387
469.99	69.791
470.34	69.661
470.68	69.462
471.03	69.124
471.38	69.634
471.73	70.349
472.08	69.537
472.43	71.577
472.78	70.196
473.13	70.246
473.48	71.093
473.83	71.334
474.17	70.647
474.52	71.333
474.87	70.202
475.22	70.140
475.57	69.741
475.92	69.869
476.27	70.464
476.61	71.099
476.96	71.310
477.31	70.833
477.66	69.843
478.01	71.042
478.36	70.774
478.70	72.056
479.05	72.200
479.40	71.200
479.75	71.060
480.10	72.294
480.45	72.094
480.79	71.458
481.14	71.481
481.49	72.031
481.84	72.222
482.19	72.293
482.53	71.422
482.88	72.750
483.23	71.759
483.58	70.396
483.92	70.302
484.27	71.733
484.62	71.099
484.97	70.782
485.31	71.114
485.66	70.266
486.01	67.785
486.36	69.817
486.70	71.028
487.05	71.322
487.40	70.588
487.75	70.112
488.09	68.515
488.44	69.484
488.79	69.228
489.13	69.909
489.48	70.406
489.83	70.042
490.17	72.011
490.52	71.845
490.87	73.046
491.22	72.732
491.56	72.777
491.91	71.988
492.26	74.044
492.60	73.571
492.95	72.639
493.30	72.974
493.64	73.834
493.99	74.025
494.34	73.999
494.68	71.259
495.03	73.073
495.37	73.087
495.72	74.103
496.07	72.312
496.41	71.344
496.76	72.827
497.11	72.575
497.45	73.732
497.80	73.572
498.14	74.551
498.49	73.412
498.84	72.013
499.18	73.897
499.53	74.247
499.87	73.221
500.22	73.610
500.56	74.202
500.91	73.886
501.26	74.121
501.60	72.171
501.95	73.644
502.29	74.500
502.64	72.175
502.98	72.792
503.33	72.891
503.67	73.711
504.02	72.932
504.36	74.217
504.71	72.872
505.06	74.772
505.40	74.263
505.75	73.723
506.09	74.323
506.44	75.429
506.78	74.893
507.13	75.027
507.47	75.014
507.82	74.609
508.16	74.109
508.51	75.875
508.85	74.451
509.19	73.889
509.54	76.487
509.88	74.856
510.23	74.888
510.57	75.468
510.92	74.887
511.26	75.129
511.61	74.543
511.95	75.651
512.30	73.797
512.64	75.191
512.98	75.369
513.33	74.502
513.67	73.533
514.02	75.962
514.36	75.148
514.70	77.474
515.05	75.366
515.39	77.666
515.74	76.441
516.08	76.271
516.42	76.445
516.77	76.087
517.11	78.043
517.46	78.326
517.80	77.218
518.14	75.965
518.49	77.814
518.83	78.988
519.17	76.093
519.52	76.765
519.86	79.037
520.20	77.134
520.55	77.350
520.89	79.960
521.23	78.891
521.58	76.455
521.92	79.239
522.26	78.144
522.61	78.567
522.95	79.110
523.29	77.395
523.64	79.579
523.98	79.099
524.32	77.576
524.66	79.878
525.01	81.168
525.35	77.497
525.69	77.977
526.04	79.915
526.38	77.930
526.72	79.375
527.06	80.661
527.41	80.156
527.75	80.187
528.09	78.996
528.43	78.526
528.78	79.734
529.12	78.836
529.46	77.674
529.80	78.965
530.15	79.500
530.49	78.731
530.83	81.417
531.17	79.308
531.51	78.587
531.86	76.891
532.20	78.499
532.54	79.353
532.88	79.855
533.22	79.382
533.57	78.759
533.91	80.179
534.25	79.837
534.59	80.261
534.93	76.830
535.27	78.519
535.62	78.528
535.96	80.042
536.30	79.123
536.64	80.615
536.98	78.024
537.32	79.539
537.66	79.912
538.01	80.339
538.35	79.273
538.69	78.415
539.03	78.803
539.37	78.966
539.71	78.841
540.05	79.595
540.39	78.286
540.73	78.388
541.07	80.000
541.42	79.259
541.76	78.273
542.10	77.403
542.44	78.324
542.78	78.079
543.12	78.773
543.46	79.061
543.80	78.485
544.14	78.781
544.48	77.544
544.82	76.934
545.16	79.130
545.50	79.549
545.84	78.859
546.18	78.202
546.52	79.939
546.86	78.500
547.20	78.788
547.54	77.710
547.88	76.709
548.22	77.567
548.56	78.436
548.90	78.316
549.24	77.997
549.58	78.614
549.92	78.947
550.26	78.301
550.60	79.381
550.94	80.000
551.28	80.081
551.62	80.753
551.96	80.431
552.30	80.465
552.64	77.986
552.98	78.603
553.32	77.197
553.66	77.921
554.00	79.614
554.34	78.672
554.68	79.027
555.02	79.683
555.36	78.237
555.69	78.324
556.03	78.271
556.37	77.044
556.71	76.848
557.05	78.594
557.39	79.197
557.73	77.044
558.07	78.169
558.41	78.292
558.75	79.668
559.08	79.404
559.42	79.431
559.76	80.371
560.10	79.136
560.44	79.652
560.78	77.385
561.12	78.738
561.45	80.208
561.79	76.285
562.13	77.835
562.47	78.058
562.81	77.862
563.15	77.338
563.48	76.105
563.82	76.856
564.16	76.851
564.50	76.648
564.84	76.116
565.17	77.468
565.51	77.973
565.85	76.268
566.19	78.845
566.52	76.631
566.86	77.254
567.20	76.780
567.54	76.579
567.88	74.818
568.21	75.440
568.55	74.477
568.89	75.824
569.23	74.096
569.56	72.138
569.90	73.319
570.24	72.459
570.57	72.235
570.91	72.999
571.25	71.660
571.59	71.148
571.92	70.047
572.26	69.948
572.60	70.430
572.93	69.745
573.27	69.533
573.61	69.390
573.95	68.996
574.28	69.269
574.62	67.267
574.96	68.683
575.29	67.785
575.63	67.040
575.97	67.947
576.30	68.855
576.64	67.310
576.98	68.045
577.31	68.580
577.65	68.200
577.98	67.358
578.32	67.067
578.66	67.519
578.99	68.498
579.33	67.451
579.67	67.345
580.00	67.497
580.34	67.285
580.67	67.243
581.01	66.949
581.35	66.607
581.68	65.679
582.02	66.439
582.35	67.139
582.69	66.601
583.02	66.703
583.36	66.682
583.70	67.338
584.03	67.390
584.37	67.514
584.70	66.752
585.04	65.868
585.37	66.803
585.71	66.465
586.04	67.349
586.38	67.393
586.72	67.236
587.05	67.258
587.39	67.011
587.72	67.352
588.06	67.424
588.39	68.098
588.73	67.989
589.06	67.282
589.40	67.230
589.73	67.091
590.07	68.099
590.40	67.141
590.73	68.680
591.07	68.831
591.40	68.524
591.74	68.843
592.07	69.102
592.41	70.056
592.74	69.024
593.08	67.656
593.41	67.467
593.75	67.273
594.08	67.501
594.41	67.521
594.75	68.207
595.08	67.160
595.42	66.879
595.75	67.462
596.09	67.734
596.42	67.357
596.75	68.227
597.09	66.325
597.42	67.621
597.75	68.058
598.09	66.526
598.42	67.771
598.76	67.532
599.09	66.429
599.42	66.011
599.76	65.594
600.09	67.616
600.42	64.219
600.76	65.666
601.09	66.078
601.42	65.258
601.76	65.828
602.09	66.443
602.42	66.956
602.76	66.012
603.09	67.058
603.42	67.888
603.76	65.925
604.09	67.001
604.42	66.853
604.76	67.595
605.09	65.895
605.42	66.825
605.75	66.058
606.09	66.978
606.42	66.098
606.75	64.920
607.09	66.884
607.42	65.764
607.75	65.381
608.08	65.762
608.42	66.683
608.75	66.433
609.08	65.321
609.41	66.978
609.75	66.877
610.08	66.357
610.41	66.260
610.74	67.037
611.07	67.160
611.41	66.649
611.74	65.615
612.07	66.016
612.40	66.128
612.73	66.898
613.07	66.706
613.40	65.497
613.73	66.380
614.06	64.813
614.39	65.847
614.72	67.119
615.06	66.361
615.39	64.376
615.72	64.334
616.05	66.029
616.38	66.074
616.71	63.993
617.05	66.269
617.38	65.484
617.71	66.884
618.04	66.491
618.37	67.103
618.70	67.867
619.03	68.673
619.36	67.526
619.69	68.040
620.03	67.353
620.36	68.405
620.69	65.410
621.02	68.092
621.35	68.851
621.68	70.657
622.01	69.519
622.34	67.002
622.67	69.056
623.00	68.960
623.33	68.268
623.66	68.924
623.99	68.740
624.32	67.355
624.65	65.859
624.99	66.719
625.32	66.825
625.65	67.014
625.98	67.583
626.31	66.926
626.64	68.739
626.97	69.577
627.30	69.907
627.63	69.302
627.96	69.460
628.29	68.069
628.62	69.175
628.95	71.067
629.28	69.215
629.61	70.115
629.94	70.954
630.26	69.665
630.59	69.843
630.92	67.966
631.25	69.944
631.58	71.744
631.91	68.793
632.24	71.124
632.57	72.295
632.90	71.956
633.23	73.677
633.56	72.201
633.89	71.768
634.22	72.821
634.55	72.011
634.88	73.360
635.20	71.781
635.53	73.464
635.86	71.060
636.19	69.714
636.52	71.429
636.85	70.143
637.18	68.005
637.51	71.545
637.83	69.134
638.16	73.684
638.49	71.614
638.82	69.480
639.15	72.286
639.48	71.325
639.81	71.535
640.13	73.354
640.46	74.173
640.79	72.868
641.12	71.473
641.45	71.229
641.77	72.134
642.10	74.430
642.43	72.054
642.76	73.656
643.09	70.415
643.41	72.939
643.74	71.701
644.07	71.605
644.40	75.271
644.73	72.376
645.05	75.954
645.38	78.077
645.71	73.092
646.04	75.836
646.36	74.242
646.69	76.596
647.02	74.414
647.35	74.400
647.67	77.555
648.00	75.146
648.33	71.098
648.66	74.583
648.98	69.153
649.31	71.084
649.64	71.945
649.96	67.568
650.29	67.434
650.62	72.542
650.94	70.610
651.27	71.291
651.60	69.981
651.92	71.947
652.25	66.348
652.58	69.659
652.90	68.683
653.23	71.664
653.56	69.271
653.88	72.080
654.21	72.023
654.54	69.981
654.86	71.583
655.19	66.129
655.52	67.372
655.84	60.736
656.17	55.760
656.49	74.572
656.82	84.888
657.15	68.515
657.47	51.839
657.80	37.856
658.13	30.991
658.45	51.938
658.78	50.477
659.10	50.235
659.43	49.882
659.75	49.771
660.08	50.459
660.41	53.504
660.73	58.172
661.06	64.909
661.38	65.927
661.71	70.241
662.03	67.824
662.36	71.360
662.68	70.024
663.01	71.875
663.33	74.057
663.66	72.010
663.98	73.839
664.31	70.244
664.63	67.661
664.96	71.496
665.28	69.976
665.61	69.860
665.93	69.816
666.26	67.108
666.58	68.119
666.91	73.536
667.23	70.690
667.56	70.617
667.88	72.431
668.21	69.543
668.53	72.589
668.86	69.643
669.18	68.274
669.50	70.694
669.83	71.000
670.15	71.500
670.48	68.922
670.80	71.320
671.13	66.024
671.45	67.092
671.77	71.981
672.10	65.055
672.42	61.355
672.75	63.301
673.07	62.991
673.39	63.424
673.72	64.463
674.04	65.745
674.37	66.744
674.69	65.888
675.01	69.535
675.34	65.196
675.66	62.857
675.98	68.182
676.31	69.521
676.63	65.464
676.95	63.070
677.28	66.089
677.60	69.424
677.92	67.168
678.25	65.429
678.57	62.877
678.89	66.055
679.22	68.349
679.54	63.697
679.86	65.525
680.18	60.460
680.51	64.066
680.83	65.208
681.15	65.795
681.48	62.553
681.80	60.652
682.12	65.310
682.44	60.776
682.77	63.409
683.09	63.235
683.41	63.409
683.73	63.317
684.06	64.975
684.38	62.830
684.70	64.665
685.02	60.606
685.34	58.159
685.67	58.103
685.99	61.477
686.31	60.448
686.63	58.835
686.96	60.163
687.28	59.754
687.60	63.039
687.92	60.127
688.24	58.737
688.56	56.703
688.89	60.046
689.21	55.814
689.53	64.450
689.85	63.291
690.17	57.353
690.49	55.765
690.82	61.425
691.14	63.446
691.46	61.250
691.78	61.005
692.10	57.798
692.42	60.780
692.74	63.270
693.06	60.000
693.39	60.591
693.71	55.581
694.03	58.696
694.35	59.406
694.67	59.288
694.99	61.186
695.31	59.490
695.63	57.568
695.95	60.674
696.27	60.340
696.59	59.050
696.91	58.405
697.23	63.897
697.56	58.290
697.88	57.845
698.20	57.869
698.52	56.250
698.84	59.148
699.16	58.047
699.48	59.686
699.80	61.813
700.12	60.882
700.44	54.572
700.76	58.675
701.08	58.730
701.40	64.803
701.72	66.000
702.04	57.143
702.36	56.393
702.68	65.101
703.00	60.568
703.32	53.892
703.64	58.044
703.96	57.595
704.28	60.915
704.60	56.507
704.91	57.566
705.23	59.298
705.55	57.621
705.87	56.475
706.19	60.558
706.51	61.328
706.83	59.341
707.15	56.610
707.47	56.886
707.79	58.453
708.11	55.026
708.43	56.000
708.74	55.738
709.06	55.215
709.38	54.303
709.70	52.922
710.02	57.343
710.34	50.709
710.66	60.300
710.98	60.490
711.29	57.388
711.61	54.965
711.93	64.419
712.25	63.019
712.57	57.812
712.89	57.143
713.20	57.258
713.52	55.691
713.84	54.015
714.16	56.081
714.48	55.631
714.80	52.862
715.11	62.199
715.43	56.655
715.75	55.789
716.07	55.273
716.39	54.266
716.70	55.200
717.02	48.790
717.34	53.247
717.66	63.182
717.97	52.315
718.29	59.111
718.61	53.604
718.93	52.941
719.24	56.067
719.56	58.482
719.88	52.549
720.20	55.128
720.51	59.649
720.83	54.393
721.15	49.796
721.46	55.274
721.78	51.515
722.10	51.163
722.42	53.043
722.73	52.941
723.05	54.378
723.37	45.249
723.68	53.555
724.00	52.315
724.32	57.477
724.63	48.416
724.95	59.817
725.27	53.521
725.58	57.078
725.90	54.054
726.22	55.022
726.53	53.279
726.85	47.407
727.16	53.441
727.48	51.210
727.80	55.251
728.11	50.667
728.43	45.267
728.74	55.702
729.06	51.528
729.38	48.450
729.69	47.600
730.01	50.628
730.32	42.629
730.64	45.769
730.96	49.421
731.27	49.035
731.59	48.485
731.90	48.684
732.22	47.841
732.53	47.018
732.85	47.887
733.16	53.114
733.48	46.269
733.80	49.818
734.11	45.745
734.43	48.014
734.74	47.040
735.06	49.196
735.37	44.409
735.69	44.014
736.00	52.593
736.32	46.853
736.63	45.185
736.95	47.082
737.26	44.203
737.58	45.620
737.89	49.811
738.21	50.382
738.52	49.590
738.83	44.444
739.15	52.727
739.46	42.793
739.78	44.788
740.09	49.603
740.41	50.379
740.72	41.036
741.04	47.036
741.35	52.915
741.66	52.151
741.98	46.429
742.29	47.668
742.61	44.509
742.92	46.569
743.23	55.224
743.55	47.150
743.86	49.758
744.18	48.000
744.49	43.333
744.80	46.774
745.12	41.026
745.43	45.989
745.74	46.524
746.06	55.172
746.37	40.556
746.68	48.108
747.00	45.304
747.31	50.262
747.62	54.211
747.94	43.868
748.25	52.217
748.56	50.505
748.88	50.820
749.19	50.259
749.50	51.765
749.82	53.500
750.13	51.456
750.44	48.498
750.75	49.600
751.07	44.351
751.38	41.797
751.69	48.810
752.01	45.798
752.32	50.000
752.63	48.472
752.94	47.200
753.26	46.575
753.57	45.498
753.88	43.721
754.19	42.731
754.51	43.933
754.82	45.833
755.13	42.035
755.44	50.649
755.75	45.382
756.07	41.631
756.38	48.954
756.69	44.528
757.00	44.326
757.31	39.100
757.63	45.098
757.94	41.818
758.25	47.619
758.56	41.892
758.87	47.024
759.18	43.302
759.50	44.484
759.81	47.490
760.12	48.043
760.43	42.525
760.74	41.916
761.05	46.154
761.36	43.620
761.67	38.906
761.99	40.803
762.30	43.273
762.61	43.089
762.92	43.111
763.23	45.116
763.54	48.731
763.85	48.416
764.16	43.913
764.47	39.565
764.78	43.145
765.10	42.913
765.41	39.465
765.72	42.475
766.03	36.789
766.34	42.424
766.65	42.969
766.96	42.667
767.27	47.486
767.58	44.654
767.89	44.156
768.20	43.243
768.51	42.529
768.82	37.500
769.13	46.296
769.44	40.094
769.75	38.235
770.06	40.291
770.37	39.894
770.68	40.000
770.99	44.162
771.30	42.268
771.61	39.910
771.92	42.453
772.23	37.981
772.54	37.647
772.85	42.466
773.16	37.419
773.47	42.038
773.78	46.707
774.09	42.763
774.39	37.500
774.70	37.594
775.01	40.000
775.32	42.857
775.63	44.094
775.94	33.019
776.25	42.963
776.56	36.364
776.87	34.188
777.18	43.000
777.48	38.462
777.79	34.259
778.10	35.849
778.41	51.961
778.72	42.453
779.03	45.614
779.34	36.975
779.65	38.732
779.95	37.410
780.26	38.710
780.57	33.333
780.88	24.771
781.19	32.407
781.50	31.148
781.80	37.226
782.11	38.462
782.42	31.034
782.73	37.063
783.04	34.400
783.34	35.200
783.65	31.707
783.96	35.246
784.27	34.454
784.57	37.383
784.88	32.143
785.19	34.021
785.50	31.579
785.81	29.000
786.11	31.683
786.42	21.176
786.73	35.417
787.04	28.571
787.34	32.407
787.65	40.566
787.96	28.866
788.26	36.634
788.57	28.696
788.88	19.266
789.19	21.488
789.49	29.565
789.80	31.897
790.11	17.073
790.41	32.584
790.72	20.930
791.03	26.744
791.33	12.987
791.64	42.683
791.95	24.390
792.25	9.639
792.56	18.519
792.87	21.127
793.17	20.482
793.48	20.000
793.79	23.750
794.09	21.667
794.40	32.609
794.70	16.522
795.01	29.358
795.32	28.346
795.62	22.549
795.93	30.392
796.23	26.263
796.54	30.233
796.85	46.377
797.15	25.000
797.46	8.475
797.76	34.426
798.07	14.474
798.37	14.516
798.68	32.812
798.99	24.615
799.29	15.152
799.60	21.739
799.90	11.429
800.21	15.789
800.51	24.138
800.82	20.755
801.12	23.529
801.43	11.290
801.73	24.194
802.04	6.000
802.34	11.321
802.65	13.158
802.95	30.909
803.26	22.642
803.56	3.279
803.87	2.000
804.17	0.000
804.48	32.692
804.78	6.122
805.09	14.894
805.39	15.254
805.70	8.333
806.00	21.429
806.30	13.559
806.61	33.846
806.91	18.462
807.22	11.842
807.52	7.143
807.83	6.897
808.13	18.987
808.43	14.754
808.74	16.393
809.04	5.405
809.35	20.370
809.65	5.357
809.95	15.254
810.26	-14.286
810.56	13.208
810.86	21.569
811.17	2.703
811.47	-33.333
811.77	19.608
812.08	9.091
812.38	-8.333
812.69	2.564
812.99	19.048
813.29	34.783
813.59	14.286
813.90	21.429
814.20	12.727
814.50	24.490
814.81	5.882
815.11	-16.667
815.41	9.756
815.72	-38.462
816.02	4.255
816.32	18.750
816.62	21.212
816.93	-78.788
817.23	-21.622
817.53	-8.824
817.84	12.500
818.14	-5.882
818.44	28.125
818.74	-28.571
819.04	-2.857
819.35	25.714
819.65	11.364
819.95	15.385
820.25	-77.778
820.56	-58.621
820.86	21.429
821.16	-26.087
821.46	26.190
821.76	22.222
822.07	-13.043
822.37	-22.449
822.67	-9.302
822.97	-13.043
823.27	-42.308
823.57	-48.148
823.88	-28.571
824.18	-20.513
824.48	-10.714
824.78	-21.212
825.08	-73.333
825.38	-10.000
825.69	-94.444
825.99	0.000
826.29	22.222
826.59	-22.222
826.89	-40.741
827.19	-60.714
827.49	-13.636
827.79	-27.273
828.09	-45.455
828.39	-65.217
828.70	-14.815
829.00	-14.286
829.30	14.286
829.60	-9.677
829.90	-19.231
830.20	-17.949
830.50	-68.182
830.80	-33.333
831.10	-88.889
831.40	-107.143
831.70	-48.148
832.00	-52.941
832.30	-17.391
832.60	-29.167
832.90	-109.091
833.20	-16.667
833.50	-12.500
833.80	-30.769
834.10	4.000
834.40	-29.167
834.70	-77.273
835.00	-30.769
835.30	-55.000
835.60	-100.000
835.90	-45.000
836.20	-142.857
836.50	34.783
836.80	-100.000
837.10	-60.000
837.40	-160.000
837.70	-39.130
838.00	-28.571
838.30	2100.000
838.60	-12.000
838.90	-400.000
839.19	-255.556
839.49	-750.000
839.79	-70.588
840.09	-155.556
840.39	-14.286
840.69	-122.222
840.99	-191.667
841.29	-27.586
841.59	-93.333
841.88	-90.909
842.18	-300.000
842.48	-18.750
842.78	3.846
843.08	-76.471
843.38	-30.000
843.68	-76.923
843.97	-47.059
844.27	-30.000
844.57	-66.667
844.87	-118.182
845.17	-94.737
845.47	-100.000
845.76	-22.222
846.06	-61.905
846.36	-107.143
846.66	-222.222
846.96	-100.000
847.25	-280.000
847.55	-337.500
847.85	-133.333
848.15	-300.000
848.44	-89.474
848.74	-53.333
849.04	-63.158
849.34	-633.333
849.63	-166.667
849.93	5.882
850.23	-118.182
850.53	100.000
850.82	0.000
851.12	-200.000
851.42	-100.000
851.71	-240.000
852.01	-78.571
852.31	-533.333
852.61	-176.923
852.90	-320.000
853.20	-144.444
853.50	-233.333
853.79	-170.000
854.09	-50.000
854.39	-68.421
854.68	-90.000
854.98	-400.000
855.28	-38.889
855.57	-135.714
855.87	-84.211
856.17	-118.750
856.46	26.923
856.76	-80.000
857.05	-100.000
857.35	-12.500
857.65	-72.222
857.94	-100.000
858.24	-73.913
858.53	-190.000
858.83	-533.333
859.13	-209.091
859.42	-220.000
859.72	266.667
860.01	-30.769
860.31	-220.000
860.60	-275.000
860.90	-300.000
861.20	-266.667
861.49	-375.000
861.79	650.000
862.08	22.581
862.38	-78.947
862.67	30.769
862.97	-190.000
863.26	-100.000
863.56	-30.435
863.85	-200.000
864.15	-114.286
864.44	-25.000
864.74	-108.333
865.03	-177.778
865.33	-600.000
865.62	-1300.000
865.92	-900.000
866.21	-216.667
866.51	-109.091
866.80	-766.667
867.10	-271.429
867.39	-133.333
867.69	-141.667
867.98	440.000
868.27	-325.000
868.57	950.000
868.86	-140.000
869.16	-100.000
869.45	900.000
869.75	-350.000
870.04	-225.000
870.33	-23.529
870.63	-328.571
870.92	13.043
871.22	-325.000
871.51	700.000
871.80	-56.250
872.10	-500.000
>>>>>End Processed Spectral Data<<<<<
