SpectraSuite Data File
++++++++++++++++++++++++++++++++++++
Date: Wed May 13 19:48:12 PDT 2015
User: schluterlab
Dark Spectrum Present: Yes
Reference Spectrum Present: Yes
Number of Sampled Component Spectra: 1
Spectrometers: USB2E3373
Integration Time (usec): 3000 (USB2E3373)
Spectra Averaged: 3 (USB2E3373)
Boxcar Smoothing: 0 (USB2E3373)
Correct for Electrical Dark: No (USB2E3373)
Strobe/Lamp Enabled: No (USB2E3373)
Correct for Detector Non-linearity: No (USB2E3373)
Correct for Stray Light: No (USB2E3373)
Number of Pixels in Processed Spectrum: 2048
>>>>>Begin Processed Spectral Data<<<<<
178.53	0.000
178.91	-1500.000
179.29	-1225.000
179.67	-211.111
180.04	-1300.000
180.42	2150.000
180.80	1100.000
181.18	-950.000
181.56	700.000
181.94	0.000
182.31	-642.857
182.69	1966.667
183.07	-500.000
183.45	-533.333
183.83	554.545
184.20	-360.000
184.58	2250.000
184.96	6400.000
185.34	-980.000
185.72	-562.500
186.09	-2600.000
186.47	2500.000
186.85	2500.000
187.23	4400.000
187.61	-1866.667
187.98	1475.000
188.36	509.091
188.74	390.909
189.12	-780.000
189.49	640.000
189.87	-5400.000
190.25	-1350.000
190.63	450.000
191.00	438.462
191.38	850.000
191.76	-1125.000
192.14	1350.000
192.51	775.000
192.89	950.000
193.27	725.000
193.65	-1300.000
194.02	570.000
194.40	800.000
194.78	560.000
195.15	483.333
195.53	740.000
195.91	-2600.000
196.29	437.500
196.66	300.000
197.04	-420.000
197.42	0.000
197.79	580.000
198.17	-4800.000
198.55	671.429
198.92	700.000
199.30	1020.000
199.68	0.000
200.05	316.667
200.43	742.857
200.81	4800.000
201.18	1600.000
201.56	-2000.000
201.94	600.000
202.31	666.667
202.69	466.667
203.07	540.000
203.44	0.000
203.82	1200.000
204.19	700.000
204.57	392.857
204.95	700.000
205.32	2000.000
205.70	490.909
206.08	421.429
206.45	2750.000
206.83	362.500
207.20	983.333
207.58	800.000
207.96	305.556
208.33	737.500
208.71	-850.000
209.08	714.286
209.46	566.667
209.84	463.636
210.21	-1533.333
210.59	1375.000
210.96	-575.000
211.34	2850.000
211.71	630.000
212.09	783.333
212.46	0.000
212.84	2166.667
213.22	1450.000
213.59	-5400.000
213.97	833.333
214.34	914.286
214.72	600.000
215.09	1020.000
215.47	-2100.000
215.84	-2350.000
216.22	1666.667
216.59	414.286
216.97	1300.000
217.34	509.091
217.72	-766.667
218.09	0.000
218.47	-6300.000
218.84	666.667
219.22	857.143
219.59	1633.333
219.97	-671.429
220.34	900.000
220.72	-1633.333
221.09	471.429
221.47	1650.000
221.84	-1050.000
222.22	0.000
222.59	1475.000
222.97	-2450.000
223.34	1140.000
223.72	369.231
224.09	1020.000
224.46	2300.000
224.84	-4600.000
225.21	-1000.000
225.59	-5300.000
225.96	550.000
226.34	255.000
226.71	2500.000
227.08	812.500
227.46	600.000
227.83	-1225.000
228.21	-2700.000
228.58	611.111
228.95	-2100.000
229.33	-2400.000
229.70	1566.667
230.08	742.857
230.45	-1040.000
230.82	466.667
231.20	883.333
231.57	728.571
231.95	500.000
232.32	254.545
232.69	418.182
233.07	714.286
233.44	323.077
233.81	-1500.000
234.19	300.000
234.56	441.667
234.93	425.000
235.31	463.636
235.68	346.154
236.05	357.143
236.43	178.788
236.80	242.105
237.17	4600.000
237.55	200.000
237.92	189.286
238.29	233.333
238.67	164.516
239.04	168.966
239.41	130.556
239.79	100.000
240.16	128.571
240.53	127.273
240.91	101.961
241.28	92.000
241.65	82.000
242.02	94.203
242.40	72.581
242.77	60.000
243.14	70.968
243.51	76.404
243.89	49.412
244.26	61.111
244.63	59.140
245.00	53.191
245.38	55.446
245.75	46.729
246.12	40.367
246.49	48.175
246.87	48.800
247.24	50.000
247.61	39.286
247.98	38.562
248.36	27.703
248.73	35.032
249.10	40.127
249.47	35.028
249.84	35.294
250.22	29.412
250.59	33.728
250.96	31.313
251.33	34.123
251.70	31.683
252.08	28.095
252.45	24.664
252.82	27.826
253.19	25.957
253.56	24.706
253.94	27.386
254.31	24.609
254.68	25.385
255.05	23.985
255.42	24.390
255.79	21.691
256.16	23.466
256.54	19.435
256.91	23.843
257.28	18.345
257.65	22.442
258.02	20.497
258.39	20.505
258.76	22.074
259.14	21.726
259.51	19.757
259.88	17.702
260.25	20.544
260.62	19.075
260.99	21.429
261.36	19.520
261.73	18.338
262.10	18.895
262.47	20.000
262.85	16.713
263.22	15.670
263.59	21.083
263.96	17.033
264.33	17.232
264.70	15.263
265.07	16.624
265.44	15.657
265.81	16.302
266.18	16.583
266.55	15.122
266.92	15.479
267.29	17.361
267.66	14.450
268.03	14.318
268.40	14.720
268.77	12.411
269.14	13.964
269.51	14.447
269.88	13.520
270.25	12.867
270.62	14.831
270.99	16.344
271.36	14.163
271.73	12.383
272.10	14.348
272.47	13.978
272.84	13.636
273.21	14.885
273.58	14.192
273.95	13.627
274.32	12.397
274.69	13.919
275.06	12.598
275.43	13.404
275.80	12.224
276.17	12.831
276.54	12.890
276.91	13.439
277.28	12.500
277.65	13.733
278.02	11.801
278.39	13.086
278.76	14.182
279.13	14.151
279.50	14.339
279.87	15.139
280.23	14.770
280.60	10.638
280.97	12.569
281.34	15.398
281.71	14.727
282.08	11.324
282.45	14.182
282.82	12.789
283.19	9.626
283.56	13.333
283.92	12.352
284.29	10.229
284.66	12.160
285.03	11.573
285.40	11.444
285.77	11.953
286.14	12.435
286.51	10.667
286.87	10.769
287.24	13.518
287.61	11.075
287.98	12.500
288.35	10.301
288.72	10.903
289.08	11.737
289.45	10.214
289.82	13.659
290.19	11.146
290.56	10.567
290.93	9.970
291.29	10.429
291.66	10.914
292.03	10.901
292.40	11.894
292.77	9.024
293.13	10.299
293.50	11.079
293.87	10.370
294.24	10.370
294.60	8.297
294.97	9.738
295.34	11.001
295.71	11.648
296.08	9.972
296.44	9.491
296.81	10.040
297.18	9.621
297.55	8.179
297.91	8.575
298.28	10.040
298.65	10.574
299.02	10.013
299.38	9.031
299.75	7.547
300.12	8.301
300.48	8.000
300.85	8.261
301.22	8.408
301.59	7.955
301.95	8.060
302.32	9.114
302.69	8.483
303.05	8.000
303.42	8.272
303.79	8.381
304.15	7.809
304.52	8.575
304.89	8.246
305.25	9.165
305.62	9.626
305.99	9.563
306.35	8.949
306.72	9.081
307.09	8.879
307.45	10.023
307.82	7.031
308.19	9.382
308.55	7.983
308.92	7.626
309.29	7.920
309.65	7.847
310.02	8.245
310.38	7.957
310.75	8.765
311.12	8.598
311.48	8.777
311.85	9.224
312.22	8.221
312.58	9.563
312.95	8.870
313.31	7.573
313.68	8.524
314.05	10.256
314.41	9.146
314.78	8.056
315.14	9.235
315.51	9.063
315.87	9.901
316.24	9.235
316.61	9.747
316.97	9.100
317.34	8.904
317.70	10.421
318.07	9.817
318.43	10.959
318.80	10.309
319.16	11.676
319.53	10.694
319.89	12.762
320.26	13.400
320.62	12.401
320.99	13.636
321.35	13.535
321.72	12.731
322.08	13.425
322.45	16.517
322.81	15.795
323.18	16.281
323.54	16.234
323.91	17.170
324.27	16.635
324.64	17.148
325.00	17.764
325.37	19.290
325.73	20.736
326.10	18.976
326.46	19.803
326.83	21.743
327.19	22.545
327.56	22.300
327.92	23.710
328.29	24.756
328.65	25.230
329.01	25.903
329.38	25.717
329.74	26.316
330.11	27.427
330.47	27.916
330.84	27.941
331.20	27.231
331.56	28.440
331.93	27.222
332.29	26.886
332.66	29.027
333.02	28.611
333.38	28.546
333.75	29.323
334.11	30.249
334.48	27.950
334.84	30.147
335.20	29.636
335.57	29.102
335.93	28.839
336.29	30.495
336.66	30.478
337.02	31.131
337.38	31.667
337.75	30.392
338.11	29.633
338.47	31.584
338.84	31.439
339.20	29.817
339.56	31.569
339.93	30.909
340.29	31.884
340.65	30.660
341.02	31.850
341.38	31.673
341.74	30.526
342.11	30.830
342.47	32.335
342.83	31.507
343.20	32.208
343.56	30.497
343.92	30.614
344.28	31.973
344.65	31.642
345.01	30.471
345.37	31.647
345.73	31.726
346.10	31.032
346.46	30.678
346.82	30.972
347.19	31.078
347.55	31.609
347.91	31.958
348.27	32.539
348.63	31.271
349.00	31.715
349.36	31.938
349.72	30.954
350.08	30.713
350.45	31.326
350.81	30.950
351.17	31.199
351.53	31.532
351.89	30.281
352.26	31.571
352.62	33.039
352.98	32.172
353.34	32.046
353.70	31.669
354.07	31.048
354.43	31.270
354.79	31.537
355.15	31.125
355.51	32.054
355.87	32.327
356.24	32.736
356.60	30.473
356.96	31.698
357.32	33.034
357.68	32.677
358.04	31.750
358.40	32.304
358.77	31.690
359.13	31.886
359.49	31.059
359.85	31.349
360.21	30.941
360.57	33.385
360.93	32.462
361.29	31.897
361.66	31.502
362.02	32.761
362.38	31.559
362.74	32.143
363.10	31.532
363.46	31.475
363.82	32.200
364.18	32.526
364.54	32.021
364.90	31.091
365.26	31.985
365.62	33.382
365.98	31.483
366.35	32.593
366.71	32.176
367.07	31.828
367.43	32.729
367.79	32.834
368.15	34.267
368.51	31.831
368.87	31.834
369.23	32.626
369.59	33.671
369.95	32.206
370.31	32.051
370.67	32.391
371.03	33.783
371.39	32.872
371.75	33.088
372.11	33.215
372.47	32.845
372.83	33.141
373.19	32.153
373.55	33.851
373.91	33.800
374.27	31.890
374.63	32.655
374.99	33.828
375.35	33.008
375.71	32.831
376.07	33.745
376.42	34.663
376.78	33.333
377.14	34.871
377.50	33.974
377.86	32.513
378.22	34.134
378.58	33.145
378.94	34.255
379.30	33.206
379.66	34.137
380.02	33.538
380.38	34.183
380.74	33.673
381.09	34.108
381.45	34.358
381.81	35.012
382.17	34.459
382.53	35.031
382.89	34.568
383.25	34.271
383.61	35.440
383.97	33.959
384.32	34.560
384.68	34.758
385.04	35.587
385.40	35.232
385.76	34.705
386.12	35.233
386.48	36.879
386.83	34.830
387.19	36.673
387.55	35.869
387.91	34.764
388.27	34.825
388.62	35.710
388.98	34.889
389.34	36.295
389.70	35.132
390.06	36.692
390.42	35.149
390.77	36.069
391.13	35.865
391.49	36.104
391.85	35.582
392.20	35.205
392.56	35.290
392.92	36.139
393.28	35.503
393.64	35.911
393.99	35.064
394.35	35.360
394.71	35.508
395.07	35.389
395.42	36.403
395.78	36.260
396.14	36.065
396.50	37.281
396.85	37.190
397.21	35.697
397.57	35.524
397.92	35.036
398.28	35.426
398.64	36.380
399.00	35.814
399.35	35.251
399.71	35.243
400.07	36.546
400.42	35.337
400.78	35.103
401.14	35.366
401.49	35.642
401.85	35.088
402.21	34.371
402.57	34.978
402.92	36.318
403.28	34.853
403.63	36.448
403.99	35.287
404.35	36.182
404.70	35.372
405.06	34.712
405.42	36.120
405.77	35.886
406.13	34.029
406.49	35.541
406.84	35.145
407.20	34.693
407.55	35.418
407.91	36.133
408.27	35.035
408.62	35.400
408.98	35.172
409.34	34.563
409.69	35.032
410.05	34.944
410.40	35.719
410.76	34.886
411.11	35.283
411.47	35.080
411.83	35.247
412.18	34.323
412.54	34.932
412.89	34.819
413.25	35.242
413.60	35.022
413.96	33.698
414.31	35.601
414.67	35.551
415.03	33.841
415.38	34.149
415.74	34.598
416.09	36.447
416.45	34.404
416.80	34.567
417.16	35.858
417.51	35.634
417.87	35.196
418.22	34.448
418.58	34.926
418.93	35.442
419.29	34.309
419.64	34.887
420.00	35.061
420.35	34.435
420.71	35.565
421.06	34.487
421.42	34.561
421.77	34.193
422.12	34.250
422.48	33.891
422.83	35.061
423.19	34.696
423.54	34.533
423.90	35.130
424.25	34.673
424.61	35.298
424.96	35.102
425.31	34.441
425.67	33.933
426.02	34.171
426.38	34.799
426.73	34.816
427.09	34.468
427.44	34.618
427.79	34.790
428.15	35.536
428.50	35.284
428.85	35.340
429.21	34.898
429.56	34.837
429.92	34.524
430.27	33.764
430.62	34.255
430.98	34.977
431.33	34.227
431.68	34.398
432.04	33.600
432.39	34.380
432.74	34.949
433.10	35.031
433.45	35.918
433.80	34.590
434.16	34.615
434.51	34.316
434.86	34.778
435.22	35.409
435.57	34.894
435.92	34.933
436.28	34.875
436.63	35.320
436.98	34.745
437.34	35.301
437.69	35.064
438.04	35.020
438.39	35.642
438.75	35.909
439.10	35.419
439.45	33.943
439.81	35.589
440.16	35.404
440.51	35.970
440.86	35.553
441.22	34.650
441.57	33.917
441.92	34.545
442.27	34.661
442.63	34.492
442.98	35.718
443.33	35.380
443.68	34.538
444.03	34.358
444.39	34.761
444.74	35.227
445.09	35.957
445.44	34.992
445.79	34.043
446.15	34.304
446.50	35.003
446.85	35.457
447.20	34.931
447.55	35.511
447.91	34.584
448.26	35.114
448.61	35.105
448.96	35.548
449.31	35.264
449.66	35.566
450.02	34.708
450.37	34.751
450.72	34.800
451.07	33.882
451.42	33.739
451.77	35.349
452.12	34.065
452.47	35.323
452.83	36.072
453.18	34.474
453.53	35.745
453.88	34.554
454.23	34.967
454.58	35.675
454.93	35.728
455.28	35.411
455.63	34.769
455.98	35.893
456.34	36.307
456.69	35.254
457.04	34.737
457.39	34.424
457.74	34.881
458.09	34.503
458.44	34.721
458.79	33.731
459.14	35.102
459.49	34.442
459.84	33.795
460.19	34.001
460.54	33.507
460.89	34.449
461.24	34.244
461.59	35.212
461.94	34.155
462.29	35.668
462.64	34.588
462.99	35.133
463.34	34.667
463.69	34.334
464.04	34.609
464.39	34.203
464.74	34.046
465.09	33.715
465.44	33.850
465.79	33.501
466.14	33.881
466.49	32.647
466.84	33.975
467.19	33.736
467.54	35.000
467.89	33.313
468.24	33.624
468.59	33.639
468.94	34.209
469.29	34.190
469.64	35.074
469.99	34.168
470.34	35.205
470.68	35.345
471.03	35.170
471.38	36.414
471.73	34.910
472.08	35.658
472.43	35.364
472.78	34.101
473.13	34.082
473.48	34.644
473.83	34.695
474.17	33.043
474.52	34.553
474.87	34.092
475.22	33.546
475.57	32.402
475.92	32.554
476.27	33.145
476.61	33.260
476.96	32.380
477.31	32.915
477.66	33.698
478.01	32.776
478.36	33.527
478.70	32.087
479.05	32.375
479.40	33.112
479.75	32.842
480.10	32.406
480.45	32.128
480.79	32.011
481.14	32.241
481.49	32.653
481.84	31.824
482.19	32.394
482.53	32.569
482.88	32.573
483.23	32.617
483.58	32.166
483.92	32.381
484.27	30.501
484.62	32.414
484.97	31.533
485.31	31.507
485.66	29.621
486.01	28.740
486.36	27.780
486.70	27.361
487.05	28.575
487.40	29.520
487.75	30.148
488.09	30.664
488.44	31.187
488.79	31.718
489.13	31.283
489.48	31.077
489.83	31.420
490.17	32.880
490.52	32.019
490.87	31.615
491.22	31.105
491.56	31.708
491.91	31.363
492.26	31.006
492.60	31.751
492.95	30.636
493.30	30.981
493.64	31.265
493.99	31.476
494.34	31.360
494.68	32.372
495.03	31.344
495.37	30.758
495.72	31.871
496.07	31.555
496.41	30.531
496.76	31.354
497.11	30.707
497.45	31.439
497.80	31.190
498.14	31.111
498.49	30.878
498.84	30.872
499.18	30.333
499.53	31.529
499.87	31.174
500.22	30.711
500.56	32.087
500.91	31.010
501.26	30.725
501.60	31.751
501.95	30.935
502.29	31.959
502.64	30.493
502.98	30.715
503.33	30.850
503.67	29.977
504.02	29.794
504.36	30.136
504.71	30.435
505.06	30.892
505.40	30.676
505.75	29.942
506.09	29.883
506.44	30.883
506.78	30.492
507.13	31.853
507.47	31.162
507.82	31.307
508.16	30.648
508.51	31.253
508.85	30.089
509.19	30.408
509.54	30.357
509.88	29.985
510.23	31.877
510.57	31.734
510.92	30.502
511.26	30.473
511.61	30.654
511.95	29.958
512.30	30.117
512.64	30.790
512.98	30.171
513.33	30.193
513.67	30.043
514.02	30.574
514.36	30.857
514.70	30.548
515.05	30.284
515.39	31.239
515.74	30.574
516.08	31.638
516.42	30.522
516.77	30.936
517.11	30.577
517.46	31.433
517.80	30.836
518.14	30.110
518.49	30.805
518.83	30.852
519.17	30.831
519.52	31.183
519.86	31.033
520.20	30.983
520.55	31.358
520.89	31.144
521.23	32.750
521.58	31.333
521.92	30.986
522.26	29.652
522.61	31.402
522.95	30.510
523.29	30.493
523.64	31.585
523.98	30.930
524.32	31.062
524.66	30.848
525.01	30.270
525.35	30.669
525.69	30.049
526.04	30.592
526.38	31.910
526.72	30.613
527.06	30.508
527.41	29.641
527.75	30.868
528.09	31.471
528.43	30.338
528.78	31.346
529.12	29.091
529.46	29.088
529.80	30.384
530.15	30.280
530.49	29.723
530.83	30.696
531.17	30.483
531.51	30.869
531.86	30.387
532.20	30.443
532.54	30.365
532.88	30.937
533.22	28.607
533.57	30.432
533.91	29.500
534.25	29.526
534.59	30.079
534.93	29.268
535.27	28.123
535.62	29.182
535.96	29.316
536.30	29.371
536.64	29.298
536.98	29.728
537.32	29.493
537.66	29.933
538.01	30.678
538.35	30.511
538.69	29.802
539.03	28.785
539.37	28.754
539.71	28.127
540.05	29.542
540.39	29.435
540.73	28.461
541.07	29.851
541.42	29.224
541.76	29.032
542.10	29.754
542.44	28.609
542.78	30.040
543.12	28.535
543.46	29.705
543.80	28.822
544.14	28.370
544.48	29.206
544.82	28.480
545.16	29.408
545.50	28.535
545.84	28.831
546.18	29.293
546.52	29.250
546.86	29.416
547.20	28.995
547.54	29.259
547.88	29.911
548.22	28.580
548.56	28.491
548.90	27.721
549.24	28.215
549.58	29.059
549.92	29.945
550.26	29.403
550.60	29.737
550.94	29.085
551.28	28.383
551.62	29.907
551.96	28.561
552.30	29.147
552.64	28.533
552.98	27.932
553.32	28.254
553.66	29.652
554.00	29.032
554.34	28.502
554.68	28.898
555.02	29.055
555.36	28.184
555.69	26.996
556.03	28.062
556.37	27.763
556.71	28.377
557.05	27.521
557.39	27.782
557.73	28.158
558.07	27.919
558.41	27.931
558.75	28.802
559.08	28.859
559.42	28.496
559.76	28.382
560.10	28.337
560.44	27.813
560.78	27.412
561.12	27.770
561.45	27.836
561.79	27.093
562.13	27.163
562.47	28.210
562.81	28.173
563.15	27.625
563.48	27.321
563.82	27.071
564.16	26.684
564.50	26.042
564.84	26.296
565.17	26.770
565.51	27.284
565.85	27.348
566.19	27.364
566.52	27.676
566.86	25.558
567.20	27.241
567.54	25.628
567.88	25.258
568.21	25.979
568.55	25.733
568.89	24.805
569.23	24.332
569.56	23.846
569.90	23.509
570.24	22.784
570.57	23.495
570.91	22.592
571.25	22.576
571.59	22.710
571.92	22.264
572.26	22.386
572.60	22.733
572.93	22.849
573.27	22.390
573.61	22.390
573.95	22.455
574.28	21.859
574.62	21.429
574.96	21.314
575.29	21.896
575.63	21.570
575.97	22.234
576.30	21.960
576.64	21.860
576.98	21.488
577.31	21.234
577.65	21.238
577.98	21.170
578.32	20.631
578.66	21.132
578.99	21.799
579.33	21.641
579.67	20.944
580.00	21.602
580.34	21.523
580.67	21.650
581.01	21.588
581.35	20.843
581.68	20.699
582.02	20.343
582.35	20.705
582.69	20.845
583.02	21.009
583.36	21.305
583.70	21.753
584.03	21.473
584.37	22.609
584.70	21.447
585.04	21.135
585.37	21.412
585.71	21.241
586.04	21.285
586.38	21.656
586.72	21.955
587.05	21.380
587.39	21.214
587.72	21.360
588.06	21.531
588.39	21.536
588.73	22.206
589.06	22.125
589.40	22.458
589.73	22.246
590.07	21.922
590.40	21.520
590.73	22.404
591.07	22.792
591.40	23.239
591.74	23.247
592.07	22.949
592.41	22.323
592.74	22.135
593.08	21.619
593.41	21.133
593.75	21.112
594.08	21.455
594.41	21.987
594.75	22.107
595.08	22.369
595.42	22.172
595.75	21.546
596.09	22.231
596.42	23.301
596.75	22.626
597.09	22.944
597.42	22.681
597.75	22.553
598.09	22.565
598.42	22.294
598.76	21.929
599.09	21.665
599.42	21.215
599.76	21.266
600.09	21.129
600.42	21.074
600.76	21.214
601.09	21.239
601.42	21.233
601.76	21.746
602.09	21.818
602.42	21.775
602.76	22.249
603.09	21.873
603.42	21.788
603.76	21.761
604.09	21.326
604.42	21.606
604.76	21.889
605.09	21.844
605.42	21.676
605.75	21.233
606.09	21.553
606.42	21.823
606.75	21.236
607.09	22.352
607.42	21.395
607.75	21.435
608.08	21.103
608.42	22.143
608.75	22.047
609.08	21.785
609.41	22.037
609.75	22.106
610.08	22.762
610.41	21.648
610.74	21.665
611.07	22.431
611.41	22.326
611.74	22.826
612.07	22.723
612.40	23.085
612.73	22.421
613.07	22.899
613.40	23.223
613.73	21.605
614.06	22.527
614.39	22.758
614.72	22.316
615.06	22.532
615.39	22.399
615.72	22.188
616.05	21.903
616.38	22.902
616.71	23.397
617.05	23.498
617.38	23.692
617.71	23.063
618.04	23.377
618.37	22.354
618.70	23.024
619.03	24.079
619.36	23.693
619.69	23.099
620.03	24.519
620.36	23.596
620.69	23.836
621.02	23.968
621.35	25.685
621.68	24.922
622.01	25.155
622.34	24.735
622.67	23.954
623.00	24.505
623.33	23.302
623.66	23.445
623.99	24.374
624.32	23.894
624.65	23.093
624.99	23.371
625.32	23.823
625.65	24.343
625.98	25.365
626.31	25.350
626.64	24.980
626.97	25.021
627.30	24.439
627.63	24.856
627.96	24.979
628.29	25.634
628.62	28.088
628.95	25.660
629.28	26.186
629.61	26.031
629.94	25.619
630.26	25.548
630.59	26.406
630.92	25.958
631.25	25.173
631.58	25.926
631.91	25.963
632.24	25.316
632.57	26.758
632.90	26.864
633.23	26.734
633.56	27.006
633.89	26.954
634.22	28.036
634.55	28.521
634.88	26.467
635.20	27.240
635.53	28.916
635.86	27.599
636.19	28.353
636.52	26.067
636.85	26.804
637.18	25.922
637.51	28.487
637.83	24.661
638.16	27.877
638.49	28.338
638.82	29.456
639.15	28.125
639.48	28.928
639.81	29.759
640.13	28.776
640.46	28.322
640.79	29.458
641.12	27.098
641.45	31.425
641.77	29.455
642.10	28.655
642.43	27.477
642.76	29.876
643.09	29.448
643.41	30.046
643.74	29.784
644.07	29.268
644.40	30.982
644.73	30.394
645.05	31.379
645.38	28.752
645.71	29.791
646.04	31.229
646.36	29.382
646.69	29.599
647.02	31.293
647.35	30.069
647.67	31.681
648.00	29.756
648.33	29.208
648.66	29.394
648.98	30.885
649.31	26.457
649.64	28.102
649.96	28.316
650.29	30.016
650.62	27.994
650.94	28.039
651.27	33.108
651.60	29.617
651.92	29.872
652.25	28.990
652.58	28.505
652.90	29.542
653.23	30.200
653.56	27.874
653.88	28.685
654.21	30.806
654.54	28.878
654.86	28.505
655.19	26.757
655.52	16.856
655.84	13.359
656.17	17.432
656.49	23.555
656.82	24.495
657.15	19.021
657.47	14.358
657.80	11.341
658.13	11.899
658.45	18.522
658.78	18.208
659.10	19.397
659.43	20.014
659.75	21.661
660.08	23.924
660.41	26.909
660.73	28.208
661.06	28.503
661.38	31.091
661.71	30.577
662.03	32.347
662.36	28.231
662.68	31.727
663.01	31.717
663.33	32.696
663.66	32.143
663.98	33.477
664.31	29.832
664.63	28.947
664.96	29.980
665.28	30.943
665.61	29.435
665.93	29.779
666.26	31.643
666.58	33.054
666.91	33.404
667.23	33.483
667.56	32.397
667.88	31.624
668.21	31.343
668.53	30.803
668.86	29.654
669.18	32.409
669.50	33.261
669.83	34.858
670.15	32.889
670.48	33.769
670.80	33.190
671.13	31.210
671.45	29.574
671.77	30.957
672.10	30.129
672.42	28.445
672.75	28.027
673.07	30.106
673.39	30.380
673.72	30.273
674.04	30.784
674.37	29.709
674.69	28.221
675.01	28.870
675.34	32.033
675.66	33.684
675.98	30.754
676.31	32.353
676.63	31.423
676.95	31.866
677.28	30.140
677.60	28.791
677.92	34.388
678.25	29.158
678.57	30.279
678.89	30.060
679.22	28.684
679.54	28.435
679.86	31.743
680.18	26.834
680.51	31.738
680.83	27.580
681.15	27.736
681.48	29.112
681.80	29.400
682.12	29.310
682.44	26.499
682.77	30.754
683.09	33.047
683.41	31.929
683.73	32.230
684.06	32.438
684.38	29.550
684.70	28.876
685.02	30.206
685.34	26.740
685.67	26.748
685.99	26.976
686.31	27.816
686.63	25.972
686.96	28.036
687.28	27.798
687.60	28.623
687.92	29.433
688.24	26.996
688.56	28.112
688.89	30.705
689.21	30.568
689.53	30.063
689.85	32.151
690.17	28.364
690.49	32.909
690.82	34.579
691.14	27.232
691.46	29.958
691.78	29.719
692.10	28.099
692.42	28.942
692.74	27.801
693.06	29.362
693.39	30.595
693.71	30.349
694.03	31.789
694.35	28.788
694.67	27.918
694.99	31.951
695.31	29.412
695.63	30.144
695.95	31.051
696.27	32.741
696.59	28.497
696.91	32.383
697.23	27.700
697.56	27.932
697.88	24.744
698.20	26.875
698.52	29.892
698.84	28.731
699.16	28.571
699.48	28.741
699.80	34.058
700.12	32.468
700.44	32.361
700.76	34.807
701.08	34.483
701.40	34.078
701.72	33.819
702.04	37.216
702.36	30.878
702.68	34.561
703.00	31.025
703.32	31.915
703.64	30.563
703.96	31.198
704.28	33.721
704.60	34.311
704.91	35.015
705.23	36.070
705.55	39.535
705.87	37.209
706.19	34.276
706.51	31.464
706.83	34.848
707.15	33.053
707.47	30.808
707.79	30.958
708.11	29.224
708.43	30.238
708.74	28.316
709.06	31.429
709.38	32.546
709.70	37.209
710.02	33.531
710.34	28.788
710.66	34.328
710.98	33.523
711.29	32.849
711.61	36.578
711.93	28.205
712.25	38.264
712.57	35.294
712.89	33.910
713.20	38.298
713.52	34.211
713.84	33.861
714.16	33.232
714.48	27.874
714.80	34.347
715.11	33.429
715.43	34.125
715.75	33.623
716.07	34.505
716.39	31.661
716.70	34.219
717.02	35.612
717.34	36.042
717.66	35.075
717.97	40.239
718.29	37.778
718.61	33.942
718.93	40.074
719.24	35.640
719.56	28.814
719.88	32.881
720.20	36.149
720.51	34.843
720.83	37.546
721.15	39.179
721.46	36.170
721.78	36.918
722.10	33.962
722.42	37.970
722.73	33.333
723.05	37.295
723.37	36.842
723.68	37.838
724.00	36.585
724.32	37.500
724.63	34.959
724.95	37.238
725.27	37.247
725.58	36.719
725.90	39.051
726.22	39.623
726.53	32.292
726.85	36.177
727.16	39.146
727.48	33.333
727.80	35.606
728.11	34.783
728.43	32.308
728.74	34.409
729.06	36.861
729.38	37.132
729.69	38.078
730.01	31.399
730.32	31.250
730.64	35.117
730.96	33.003
731.27	33.775
731.59	28.440
731.90	31.195
732.22	28.882
732.53	28.483
732.85	30.128
733.16	32.476
733.48	30.233
733.80	30.195
734.11	32.166
734.43	33.136
734.74	31.429
735.06	25.788
735.37	31.503
735.69	27.707
736.00	38.235
736.32	32.710
736.63	32.268
736.95	30.032
737.26	27.891
737.58	29.677
737.89	37.124
738.21	33.106
738.52	30.000
738.83	32.453
739.15	33.846
739.46	32.117
739.78	31.597
740.09	32.923
740.41	35.484
740.72	29.965
741.04	32.963
741.35	33.333
741.66	36.889
741.98	39.623
742.29	37.799
742.61	41.810
742.92	35.294
743.23	38.034
743.55	35.600
743.86	34.211
744.18	43.805
744.49	44.498
744.80	41.315
745.12	43.636
745.43	38.326
745.74	41.892
746.06	36.239
746.37	44.843
746.68	35.294
747.00	43.519
747.31	44.762
747.62	39.823
747.94	37.885
748.25	34.894
748.56	37.445
748.88	37.624
749.19	50.500
749.50	39.070
749.82	36.179
750.13	34.694
750.44	30.657
750.75	31.930
751.07	36.013
751.38	34.843
751.69	36.462
752.01	36.090
752.32	31.408
752.63	34.043
752.94	34.016
753.26	36.400
753.57	32.927
753.88	35.937
754.19	32.857
754.51	35.764
754.82	33.574
755.13	33.585
755.44	34.211
755.75	33.942
756.07	32.624
756.38	29.927
756.69	29.530
757.00	26.647
757.31	24.926
757.63	27.193
757.94	28.150
758.25	27.696
758.56	27.407
758.87	25.806
759.18	31.212
759.50	30.094
759.81	34.268
760.12	27.187
760.43	27.794
760.74	26.359
761.05	29.096
761.36	27.005
761.67	27.557
761.99	31.366
762.30	32.292
762.61	37.405
762.92	30.859
763.23	36.975
763.54	40.000
763.85	26.562
764.16	33.077
764.47	34.601
764.78	29.329
765.10	28.165
765.41	28.909
765.72	28.144
766.03	29.781
766.34	30.000
766.65	35.319
766.96	38.462
767.27	43.147
767.58	40.625
767.89	49.474
768.20	45.402
768.51	39.594
768.82	40.367
769.13	34.959
769.44	32.389
769.75	35.193
770.06	30.734
770.37	37.557
770.68	34.259
770.99	33.778
771.30	29.098
771.61	35.874
771.92	36.475
772.23	43.697
772.54	37.949
772.85	43.979
773.16	43.085
773.47	41.304
773.78	43.655
774.09	36.905
774.39	47.368
774.70	40.741
775.01	49.275
775.32	49.673
775.63	53.947
775.94	39.568
776.25	51.181
776.56	49.254
776.87	53.279
777.18	56.250
777.48	58.779
777.79	48.485
778.10	50.370
778.41	56.250
778.72	47.445
779.03	46.309
779.34	48.993
779.65	34.459
779.95	55.828
780.26	52.941
780.57	48.276
780.88	59.375
781.19	50.376
781.50	51.351
781.80	48.428
782.11	38.418
782.42	47.468
782.73	40.491
783.04	58.108
783.34	50.704
783.65	58.904
783.96	52.985
784.27	49.650
784.57	49.640
784.88	49.074
785.19	59.524
785.50	58.491
785.81	50.000
786.11	59.016
786.42	53.488
786.73	48.673
787.04	68.868
787.34	60.714
787.65	66.000
787.96	65.766
788.26	57.025
788.57	63.559
788.88	61.983
789.19	55.556
789.49	53.788
789.80	56.489
790.11	67.619
790.41	65.347
790.72	66.265
791.03	59.783
791.33	68.605
791.64	67.010
791.95	70.297
792.25	72.222
792.56	83.117
792.87	91.026
793.17	84.810
793.48	77.011
793.79	75.862
794.09	81.818
794.40	61.345
794.70	57.353
795.01	52.593
795.32	49.640
795.62	52.756
795.93	53.448
796.23	68.142
796.54	70.588
796.85	59.459
797.15	98.592
797.46	78.788
797.76	86.747
798.07	74.684
798.37	81.538
798.68	81.818
798.99	85.915
799.29	81.818
799.60	67.045
799.90	83.562
800.21	105.970
800.51	89.655
800.82	124.561
801.12	93.443
801.43	81.818
801.73	82.432
802.04	96.825
802.34	75.309
802.65	87.500
802.95	116.949
803.26	96.875
803.56	90.000
803.87	78.462
804.17	91.176
804.48	118.519
804.78	82.759
805.09	92.647
805.39	113.462
805.70	98.214
806.00	101.639
806.30	80.303
806.61	82.927
806.91	74.684
807.22	82.895
807.52	55.224
807.83	92.958
808.13	104.688
808.43	103.333
808.74	65.789
809.04	100.000
809.35	94.030
809.65	82.895
809.95	103.226
810.26	88.136
810.56	84.127
810.86	127.273
811.17	140.476
811.47	130.000
811.77	118.519
812.08	112.727
812.38	136.000
812.69	147.222
812.99	152.273
813.29	118.367
813.59	97.619
813.90	112.245
814.20	110.909
814.50	78.462
814.81	102.941
815.11	116.327
815.41	91.803
815.72	123.810
816.02	118.182
816.32	121.429
816.62	127.500
816.93	124.390
817.23	150.000
817.53	122.727
817.84	142.424
818.14	130.435
818.44	106.667
818.74	202.941
819.04	132.500
819.35	145.714
819.65	179.412
819.95	182.143
820.25	230.000
820.56	130.769
820.86	125.000
821.16	123.256
821.46	148.718
821.76	148.000
822.07	151.429
822.37	130.000
822.67	157.576
822.97	123.529
823.27	182.143
823.57	156.757
823.88	162.500
824.18	186.667
824.48	154.762
824.78	212.000
825.08	208.333
825.38	156.757
825.69	146.341
825.99	250.000
826.29	155.172
826.59	165.789
826.89	142.105
827.19	152.941
827.49	187.097
827.79	152.273
828.09	120.455
828.39	127.660
828.70	132.653
829.00	185.185
829.30	161.290
829.60	142.500
829.90	286.667
830.20	203.571
830.50	200.000
830.80	217.391
831.10	206.667
831.40	180.000
831.70	186.957
832.00	253.846
832.30	207.407
832.60	293.750
832.90	200.000
833.20	450.000
833.50	180.645
833.80	193.103
834.10	209.375
834.40	234.615
834.70	316.667
835.00	304.762
835.30	165.714
835.60	323.077
835.90	182.759
836.20	335.714
836.50	213.793
836.80	208.000
837.10	186.111
837.40	276.190
837.70	294.118
838.00	225.926
838.30	204.762
838.60	242.857
838.90	234.615
839.19	190.000
839.49	421.429
839.79	310.000
840.09	285.000
840.39	323.810
840.69	230.435
840.99	327.778
841.29	510.000
841.59	358.333
841.88	268.750
842.18	200.000
842.48	252.381
842.78	183.333
843.08	269.565
843.38	165.625
843.68	650.000
843.97	250.000
844.27	210.345
844.57	319.048
844.87	381.250
845.17	244.444
845.47	1666.667
845.76	577.778
846.06	270.588
846.36	512.500
846.66	428.571
846.96	331.250
847.25	390.909
847.55	463.636
847.85	243.478
848.15	520.000
848.44	378.571
848.74	300.000
849.04	282.353
849.34	480.000
849.63	278.947
849.93	463.636
850.23	920.000
850.53	335.714
850.82	2550.000
851.12	-4000.000
851.42	5200.000
851.71	285.000
852.01	-1333.333
852.31	225.000
852.61	1933.333
852.90	295.238
853.20	256.000
853.50	282.353
853.79	276.190
854.09	241.667
854.39	318.750
854.68	172.973
854.98	158.065
855.28	183.333
855.57	237.931
855.87	181.481
856.17	268.421
856.46	286.667
856.76	335.294
857.05	200.000
857.35	241.667
857.65	306.667
857.94	273.913
858.24	250.000
858.53	280.000
858.83	240.909
859.13	346.667
859.42	0.000
859.72	600.000
860.01	409.091
860.31	259.091
860.60	289.474
860.90	226.087
861.20	488.889
861.49	483.333
861.79	-4400.000
862.08	550.000
862.38	276.190
862.67	323.077
862.97	376.471
863.26	588.889
863.56	272.222
863.85	458.333
864.15	625.000
864.44	326.667
864.74	866.667
865.03	725.000
865.33	289.474
865.62	454.545
865.92	392.308
866.21	400.000
866.51	0.000
866.80	381.818
867.10	1280.000
867.39	407.692
867.69	527.273
867.98	300.000
868.27	418.182
868.57	310.526
868.86	-4000.000
869.16	356.250
869.45	2200.000
869.75	-4200.000
870.04	500.000
870.33	757.143
870.63	1000.000
870.92	2700.000
871.22	771.429
871.51	323.529
871.80	185.714
872.10	342.857
>>>>>End Processed Spectral Data<<<<<
