SpectraSuite Data File
++++++++++++++++++++++++++++++++++++
Date: Wed May 13 19:14:22 PDT 2015
User: schluterlab
Dark Spectrum Present: Yes
Reference Spectrum Present: Yes
Number of Sampled Component Spectra: 1
Spectrometers: USB2E3373
Integration Time (usec): 3000 (USB2E3373)
Spectra Averaged: 3 (USB2E3373)
Boxcar Smoothing: 0 (USB2E3373)
Correct for Electrical Dark: No (USB2E3373)
Strobe/Lamp Enabled: No (USB2E3373)
Correct for Detector Non-linearity: No (USB2E3373)
Correct for Stray Light: No (USB2E3373)
Number of Pixels in Processed Spectrum: 2048
>>>>>Begin Processed Spectral Data<<<<<
178.53	0.000
178.91	-1450.000
179.29	-1275.000
179.67	-277.778
180.04	-1325.000
180.42	2750.000
180.80	1320.000
181.18	-1225.000
181.56	785.714
181.94	0.000
182.31	-857.143
182.69	1833.333
183.07	-587.500
183.45	-600.000
183.83	509.091
184.20	-450.000
184.58	2500.000
184.96	5800.000
185.34	-880.000
185.72	-762.500
186.09	-2950.000
186.47	2500.000
186.85	2750.000
187.23	5300.000
187.61	-2033.333
187.98	1550.000
188.36	609.091
188.74	527.273
189.12	-1060.000
189.49	610.000
189.87	-5600.000
190.25	-1350.000
190.63	414.286
191.00	507.692
191.38	933.333
191.76	-1300.000
192.14	1500.000
192.51	712.500
192.89	1083.333
193.27	587.500
193.65	-1400.000
194.02	670.000
194.40	1120.000
194.78	580.000
195.15	541.667
195.53	760.000
195.91	-2300.000
196.29	412.500
196.66	289.474
197.04	-390.000
197.42	0.000
197.79	590.000
198.17	-5500.000
198.55	728.571
198.92	775.000
199.30	980.000
199.68	0.000
200.05	366.667
200.43	871.429
200.81	5100.000
201.18	1866.667
201.56	-1966.667
201.94	655.556
202.31	722.222
202.69	483.333
203.07	590.000
203.44	0.000
203.82	1425.000
204.19	828.571
204.57	521.429
204.95	737.500
205.32	1766.667
205.70	563.636
206.08	428.571
206.45	2800.000
206.83	468.750
207.20	900.000
207.58	820.000
207.96	388.889
208.33	812.500
208.71	-766.667
209.08	971.429
209.46	733.333
209.84	581.818
210.21	-1733.333
210.59	1500.000
210.96	-625.000
211.34	3000.000
211.71	720.000
212.09	966.667
212.46	0.000
212.84	1666.667
213.22	1450.000
213.59	-4700.000
213.97	1116.667
214.34	857.143
214.72	572.727
215.09	1300.000
215.47	-2300.000
215.84	-2800.000
216.22	1466.667
216.59	428.571
216.97	1325.000
217.34	436.364
217.72	-850.000
218.09	0.000
218.47	-5400.000
218.84	733.333
219.22	771.429
219.59	1700.000
219.97	-814.286
220.34	1060.000
220.72	-1733.333
221.09	421.429
221.47	1775.000
221.84	-983.333
222.22	0.000
222.59	1525.000
222.97	-3100.000
223.34	1280.000
223.72	415.385
224.09	1020.000
224.46	2650.000
224.84	-5700.000
225.21	-1040.000
225.59	-5300.000
225.96	700.000
226.34	335.000
226.71	2850.000
227.08	837.500
227.46	720.000
227.83	-1150.000
228.21	-2750.000
228.58	711.111
228.95	-2550.000
229.33	-2650.000
229.70	1966.667
230.08	857.143
230.45	-1020.000
230.82	500.000
231.20	966.667
231.57	785.714
231.95	550.000
232.32	295.455
232.69	518.182
233.07	885.714
233.44	423.077
233.81	-1966.667
234.19	357.895
234.56	525.000
234.93	441.667
235.31	554.545
235.68	507.692
236.05	428.571
236.43	215.152
236.80	342.105
237.17	5800.000
237.55	376.190
237.92	278.571
238.29	333.333
238.67	261.290
239.04	241.379
239.41	188.889
239.79	156.522
240.16	180.952
240.53	195.455
240.91	164.706
241.28	154.000
241.65	174.000
242.02	147.826
242.40	150.000
242.77	156.667
243.14	132.258
243.51	125.843
243.89	123.529
244.26	108.889
244.63	104.301
245.00	120.213
245.38	117.822
245.75	109.346
246.12	104.587
246.49	106.569
246.87	112.800
247.24	103.077
247.61	95.000
247.98	88.235
248.36	95.946
248.73	97.452
249.10	91.083
249.47	91.525
249.84	92.513
250.22	85.027
250.59	85.207
250.96	81.818
251.33	90.047
251.70	89.109
252.08	84.762
252.45	76.682
252.82	79.130
253.19	82.979
253.56	79.608
253.94	82.158
254.31	78.125
254.68	81.154
255.05	77.491
255.42	80.081
255.79	77.941
256.16	79.422
256.54	74.205
256.91	75.801
257.28	72.302
257.65	76.238
258.02	73.602
258.39	74.448
258.76	71.906
259.14	72.917
259.51	73.860
259.88	75.776
260.25	74.320
260.62	69.364
260.99	77.329
261.36	75.976
261.73	72.779
262.10	73.547
262.47	75.211
262.85	73.816
263.22	70.370
263.59	72.934
263.96	71.429
264.33	67.363
264.70	72.368
265.07	69.054
265.44	69.949
265.81	64.720
266.18	71.608
266.55	67.073
266.92	71.499
267.29	67.593
267.66	67.890
268.03	70.227
268.40	70.561
268.77	67.303
269.14	64.865
269.51	70.203
269.88	68.998
270.25	66.366
270.62	67.865
270.99	66.667
271.36	66.309
271.73	70.561
272.10	65.870
272.47	67.097
272.84	67.316
273.21	65.409
273.58	65.284
273.95	64.151
274.32	65.083
274.69	67.024
275.06	64.567
275.43	67.872
275.80	63.928
276.17	67.617
276.54	68.191
276.91	66.798
277.28	67.578
277.65	66.151
278.02	65.010
278.39	67.383
278.76	64.364
279.13	65.094
279.50	62.756
279.87	63.347
280.23	63.473
280.60	66.538
280.97	65.804
281.34	63.009
281.71	64.727
282.08	62.764
282.45	64.000
282.82	63.766
283.19	59.715
283.56	61.579
283.92	63.452
284.29	63.316
284.66	62.250
285.03	60.940
285.40	61.620
285.77	61.279
286.14	60.276
286.51	61.000
286.87	58.632
287.24	61.726
287.61	58.909
287.98	59.091
288.35	57.845
288.72	57.477
289.08	58.059
289.45	56.178
289.82	55.447
290.19	55.730
290.56	54.364
290.93	54.683
291.29	55.675
291.66	55.752
292.03	55.233
292.40	55.066
292.77	52.663
293.13	53.433
293.50	53.353
293.87	53.926
294.24	53.778
294.60	51.965
294.97	51.163
295.34	53.173
295.71	51.562
296.08	49.573
296.44	48.418
296.81	48.877
297.18	50.542
297.55	47.230
297.91	48.681
298.28	50.067
298.65	47.389
299.02	48.748
299.38	46.879
299.75	46.496
300.12	47.510
300.48	47.125
300.85	47.472
301.22	47.134
301.59	45.581
301.95	46.599
302.32	47.368
302.69	46.356
303.05	46.061
303.42	44.444
303.79	44.168
304.15	44.056
304.52	45.771
304.89	43.554
305.25	44.780
305.62	44.281
305.99	45.573
306.35	42.953
306.72	42.713
307.09	45.505
307.45	43.806
307.82	42.746
308.19	45.254
308.55	44.013
308.92	44.253
309.29	42.978
309.65	43.266
310.02	42.178
310.38	42.366
310.75	43.611
311.12	43.193
311.48	43.574
311.85	44.130
312.22	42.248
312.58	41.996
312.95	44.139
313.31	42.427
313.68	43.139
314.05	44.872
314.41	43.317
314.78	43.706
315.14	44.091
315.51	44.593
315.87	45.644
316.24	43.396
316.61	43.567
316.97	42.466
317.34	44.031
317.70	45.411
318.07	46.295
318.43	46.967
318.80	46.392
319.16	45.480
319.53	44.653
319.89	46.762
320.26	48.400
320.62	46.131
320.99	46.566
321.35	47.374
321.72	48.768
322.08	48.569
322.45	50.945
322.81	50.678
323.18	49.904
323.54	50.371
323.91	48.679
324.27	50.574
324.64	49.953
325.00	49.234
325.37	52.138
325.73	52.154
326.10	52.868
326.46	52.061
326.83	53.581
327.19	51.921
327.56	54.007
327.92	54.856
328.29	54.481
328.65	55.433
329.01	53.700
329.38	54.672
329.74	55.125
330.11	55.325
330.47	55.464
330.84	54.963
331.20	56.011
331.56	56.330
331.93	55.556
332.29	54.836
332.66	55.221
333.02	55.119
333.38	56.640
333.75	55.971
334.11	55.516
334.48	55.457
334.84	55.607
335.20	56.364
335.57	54.306
335.93	54.643
336.29	55.403
336.66	56.988
337.02	55.837
337.38	56.944
337.75	55.169
338.11	56.401
338.47	55.341
338.84	56.187
339.20	55.229
339.56	57.664
339.93	56.818
340.29	55.888
340.65	56.684
341.02	56.021
341.38	57.562
341.74	54.912
342.11	56.245
342.47	56.388
342.83	56.079
343.20	56.017
343.56	54.676
343.92	55.789
344.28	56.037
344.65	57.782
345.01	55.976
345.37	55.746
345.73	56.261
346.10	56.181
346.46	56.441
346.82	56.837
347.19	55.806
347.55	55.501
347.91	55.502
348.27	56.943
348.63	56.020
349.00	56.311
349.36	56.979
349.72	56.696
350.08	56.321
350.45	56.794
350.81	55.808
351.17	56.564
351.53	57.330
351.89	56.601
352.26	56.985
352.62	56.937
352.98	56.159
353.34	58.012
353.70	56.301
354.07	57.823
354.43	56.429
354.79	56.154
355.15	56.345
355.51	57.314
355.87	58.041
356.24	58.876
356.60	57.658
356.96	58.327
357.32	58.463
357.68	58.740
358.04	57.086
358.40	57.641
358.77	55.477
359.13	56.433
359.49	56.941
359.85	58.571
360.21	58.931
360.57	58.444
360.93	58.231
361.29	57.823
361.66	56.502
362.02	56.269
362.38	58.859
362.74	59.077
363.10	58.549
363.46	57.447
363.82	58.655
364.18	57.930
364.54	60.178
364.90	60.198
365.26	59.412
365.62	58.364
365.98	58.729
366.35	58.668
366.71	60.014
367.07	60.597
367.43	61.176
367.79	60.671
368.15	60.704
368.51	60.683
368.87	60.314
369.23	60.278
369.59	61.260
369.95	60.368
370.31	59.402
370.67	58.696
371.03	62.472
371.39	61.297
371.75	61.471
372.11	59.602
372.47	62.683
372.83	62.824
373.19	60.983
373.55	62.454
373.91	63.328
374.27	60.137
374.63	62.327
374.99	63.701
375.35	61.340
375.71	62.646
376.07	62.894
376.42	63.205
376.78	63.022
377.14	63.026
377.50	63.775
377.86	63.032
378.22	63.401
378.58	63.158
378.94	62.791
379.30	64.504
379.66	65.165
380.02	64.373
380.38	63.388
380.74	65.066
381.09	63.509
381.45	66.564
381.81	63.882
382.17	65.096
382.53	65.094
382.89	66.111
383.25	65.916
383.61	65.551
383.97	66.854
384.32	65.066
384.68	65.613
385.04	66.503
385.40	65.015
385.76	65.541
386.12	65.738
386.48	66.709
386.83	68.954
387.19	68.213
387.55	67.161
387.91	67.170
388.27	67.934
388.62	66.318
388.98	66.585
389.34	68.899
389.70	66.278
390.06	68.061
390.42	68.482
390.77	68.003
391.13	70.134
391.49	68.782
391.85	69.255
392.20	68.959
392.56	69.255
392.92	69.041
393.28	68.107
393.64	69.305
393.99	69.212
394.35	69.293
394.71	69.762
395.07	69.097
395.42	71.755
395.78	68.511
396.14	69.646
396.50	70.677
396.85	69.930
397.21	69.174
397.57	70.118
397.92	69.772
398.28	69.170
398.64	67.921
399.00	69.222
399.35	69.712
399.71	68.692
400.07	70.077
400.42	70.429
400.78	70.688
401.14	70.915
401.49	69.970
401.85	69.328
402.21	67.725
402.57	70.265
402.92	70.240
403.28	70.019
403.63	70.297
403.99	69.299
404.35	68.970
404.70	70.803
405.06	68.957
405.42	71.054
405.77	69.600
406.13	69.413
406.49	69.012
406.84	69.226
407.20	68.262
407.55	70.070
407.91	71.600
408.27	71.474
408.62	69.416
408.98	70.895
409.34	70.849
409.69	71.613
410.05	69.579
410.40	69.297
410.76	68.937
411.11	69.602
411.47	69.329
411.83	69.823
412.18	69.140
412.54	70.610
412.89	68.916
413.25	69.953
413.60	70.352
413.96	68.731
414.31	69.745
414.67	69.138
415.03	69.338
415.38	70.103
415.74	69.260
416.09	70.150
416.45	69.478
416.80	70.258
417.16	70.912
417.51	70.737
417.87	68.529
418.22	69.905
418.58	70.045
418.93	70.147
419.29	68.300
419.64	69.962
420.00	69.146
420.35	68.406
420.71	69.755
421.06	68.735
421.42	70.000
421.77	69.002
422.12	67.939
422.48	68.915
422.83	69.889
423.19	68.122
423.54	69.820
423.90	69.043
424.25	68.509
424.61	69.167
424.96	70.087
425.31	68.549
425.67	67.753
426.02	68.400
426.38	69.902
426.73	68.169
427.09	67.660
427.44	67.855
427.79	68.948
428.15	69.167
428.50	68.461
428.85	68.415
429.21	66.980
429.56	68.222
429.92	68.747
430.27	68.123
430.62	68.100
430.98	68.812
431.33	68.557
431.68	68.482
432.04	67.199
432.39	69.674
432.74	68.701
433.10	69.892
433.45	67.755
433.80	68.126
434.16	68.216
434.51	67.526
434.86	68.586
435.22	69.983
435.57	69.119
435.92	67.876
436.28	70.285
436.63	69.371
436.98	67.945
437.34	67.561
437.69	69.195
438.04	69.252
438.39	70.149
438.75	70.889
439.10	68.659
439.45	69.067
439.81	69.245
440.16	69.001
440.51	69.654
440.86	69.021
441.22	68.076
441.57	68.790
441.92	69.396
442.27	68.245
442.63	68.615
442.98	69.859
443.33	68.696
443.68	69.024
444.03	68.912
444.39	67.819
444.74	69.535
445.09	69.865
445.44	67.305
445.79	69.025
446.15	68.025
446.50	68.444
446.85	69.065
447.20	68.485
447.55	70.073
447.91	69.222
448.26	68.837
448.61	69.361
448.96	69.435
449.31	70.079
449.66	67.755
450.02	68.301
450.37	68.197
450.72	68.246
451.07	68.190
451.42	67.538
451.77	68.996
452.12	67.725
452.47	68.532
452.83	69.580
453.18	68.582
453.53	68.275
453.88	67.513
454.23	69.097
454.58	69.412
454.93	69.421
455.28	68.454
455.63	69.175
455.98	68.512
456.34	67.651
456.69	68.754
457.04	69.040
457.39	67.855
457.74	67.034
458.09	67.798
458.44	68.358
458.79	66.811
459.14	67.551
459.49	67.542
459.84	66.870
460.19	67.708
460.54	66.493
460.89	67.416
461.24	66.970
461.59	66.473
461.94	66.769
462.29	67.715
462.64	66.496
462.99	66.688
463.34	67.600
463.69	64.728
464.04	65.681
464.39	65.971
464.74	66.251
465.09	66.164
465.44	64.765
465.79	65.996
466.14	64.641
466.49	64.850
466.84	65.324
467.19	65.178
467.54	65.438
467.89	64.706
468.24	64.747
468.59	65.507
468.94	63.531
469.29	64.075
469.64	65.863
469.99	66.576
470.34	65.258
470.68	65.374
471.03	64.422
471.38	65.671
471.73	63.957
472.08	64.474
472.43	63.756
472.78	63.792
473.13	61.553
473.48	63.670
473.83	64.146
474.17	62.539
474.52	63.089
474.87	63.748
475.22	62.623
475.57	61.902
475.92	62.082
476.27	61.274
476.61	61.776
476.96	61.902
477.31	61.748
477.66	62.418
478.01	60.951
478.36	63.353
478.70	62.669
479.05	61.289
479.40	62.129
479.75	61.362
480.10	61.680
480.45	59.876
480.79	60.726
481.14	61.350
481.49	61.082
481.84	60.585
482.19	60.382
482.53	60.550
482.88	59.935
483.23	60.327
483.58	60.282
483.92	60.918
484.27	58.344
484.62	59.310
484.97	59.007
485.31	61.473
485.66	59.735
486.01	58.806
486.36	57.074
486.70	56.607
487.05	57.014
487.40	58.989
487.75	58.488
488.09	59.145
488.44	59.406
488.79	61.881
489.13	60.466
489.48	59.135
489.83	58.524
490.17	58.746
490.52	56.820
490.87	57.666
491.22	58.072
491.56	56.720
491.91	57.701
492.26	55.903
492.60	55.530
492.95	55.940
493.30	55.794
493.64	54.503
493.99	55.710
494.34	56.198
494.68	56.685
495.03	56.673
495.37	55.142
495.72	56.676
496.07	56.241
496.41	54.558
496.76	55.805
497.11	54.255
497.45	55.007
497.80	55.038
498.14	55.266
498.49	54.976
498.84	54.938
499.18	54.190
499.53	54.748
499.87	53.355
500.22	54.545
500.56	54.951
500.91	54.135
501.26	54.101
501.60	55.150
501.95	52.796
502.29	53.983
502.64	53.864
502.98	53.156
503.33	51.782
503.67	52.111
504.02	53.555
504.36	51.942
504.71	53.200
505.06	53.253
505.40	54.011
505.75	51.543
506.09	52.235
506.44	53.873
506.78	53.093
507.13	53.357
507.47	52.727
507.82	52.482
508.16	53.394
508.51	53.475
508.85	52.085
509.19	53.265
509.54	51.786
509.88	52.190
510.23	51.928
510.57	52.993
510.92	52.356
511.26	50.565
511.61	52.230
511.95	50.678
512.30	51.326
512.64	50.510
512.98	51.340
513.33	51.338
513.67	50.427
514.02	49.459
514.36	50.737
514.70	50.083
515.05	50.028
515.39	50.252
515.74	50.113
516.08	50.866
516.42	50.499
516.77	50.446
517.11	50.999
517.46	51.185
517.80	49.884
518.14	48.871
518.49	50.233
518.83	50.170
519.17	49.018
519.52	50.424
519.86	50.485
520.20	49.595
520.55	49.431
520.89	50.182
521.23	48.492
521.58	49.520
521.92	49.786
522.26	48.566
522.61	49.408
522.95	48.803
523.29	48.144
523.64	48.232
523.98	49.415
524.32	48.492
524.66	47.685
525.01	48.468
525.35	47.893
525.69	47.291
526.04	48.224
526.38	48.932
526.72	47.301
527.06	48.713
527.41	45.978
527.75	47.910
528.09	48.362
528.43	48.247
528.78	48.002
529.12	46.545
529.46	48.561
529.80	47.710
530.15	48.162
530.49	47.508
530.83	48.418
531.17	50.783
531.51	48.833
531.86	47.226
532.20	48.696
532.54	47.854
532.88	47.497
533.22	46.408
533.57	47.222
533.91	46.960
534.25	46.719
534.59	46.553
534.93	46.520
535.27	46.168
535.62	46.581
535.96	47.269
536.30	46.853
536.64	47.006
536.98	45.587
537.32	45.556
537.66	46.867
538.01	47.334
538.35	45.766
538.69	48.054
539.03	45.874
539.37	45.431
539.71	45.301
540.05	46.405
540.39	47.575
540.73	46.378
541.07	45.555
541.42	46.184
541.76	47.161
542.10	45.537
542.44	46.689
542.78	46.113
543.12	44.722
543.46	46.033
543.80	46.129
544.14	45.186
544.48	45.270
544.82	43.810
545.16	46.129
545.50	44.280
545.84	44.556
546.18	45.993
546.52	45.630
546.86	45.430
547.20	45.786
547.54	45.357
547.88	45.791
548.22	44.894
548.56	44.277
548.90	44.302
549.24	43.569
549.58	45.839
549.92	44.231
550.26	45.170
550.60	43.430
550.94	43.873
551.28	44.257
551.62	43.781
551.96	43.158
552.30	45.051
552.64	44.828
552.98	46.102
553.32	43.965
553.66	44.104
554.00	44.132
554.34	43.754
554.68	44.993
555.02	43.089
555.36	43.424
555.69	41.813
556.03	43.742
556.37	43.724
556.71	42.428
557.05	42.647
557.39	42.827
557.73	43.190
558.07	43.872
558.41	43.415
558.75	43.204
559.08	42.953
559.42	43.915
559.76	43.235
560.10	43.041
560.44	43.117
560.78	42.182
561.12	42.282
561.45	42.960
561.79	42.848
562.13	43.058
562.47	43.033
562.81	43.236
563.15	42.341
563.48	41.247
563.82	42.531
564.16	43.231
564.50	43.490
564.84	42.288
565.17	42.342
565.51	41.981
565.85	41.878
566.19	42.455
566.52	42.179
566.86	42.074
567.20	42.689
567.54	42.580
567.88	42.205
568.21	43.386
568.55	41.608
568.89	42.412
569.23	41.533
569.56	41.619
569.90	41.698
570.24	42.411
570.57	41.516
570.91	40.659
571.25	41.106
571.59	40.972
571.92	41.244
572.26	41.161
572.60	41.772
572.93	41.079
573.27	42.029
573.61	41.485
573.95	42.739
574.28	41.683
574.62	41.084
574.96	40.741
575.29	41.246
575.63	40.625
575.97	40.953
576.30	40.892
576.64	41.850
576.98	41.638
577.31	40.481
577.65	41.325
577.98	40.933
578.32	40.826
578.66	40.755
578.99	41.406
579.33	41.467
579.67	39.990
580.00	41.525
580.34	41.481
580.67	40.747
581.01	41.556
581.35	40.990
581.68	40.766
582.02	40.406
582.35	41.121
582.69	41.122
583.02	40.971
583.36	41.342
583.70	42.133
584.03	41.405
584.37	41.818
584.70	42.842
585.04	41.463
585.37	41.496
585.71	40.883
586.04	41.024
586.38	41.196
586.72	41.149
587.05	40.587
587.39	40.237
587.72	40.608
588.06	40.555
588.39	40.878
588.73	41.302
589.06	41.633
589.40	41.111
589.73	40.831
590.07	41.103
590.40	41.213
590.73	41.764
591.07	42.409
591.40	40.616
591.74	40.866
592.07	39.965
592.41	40.885
592.74	39.738
593.08	39.740
593.41	40.240
593.75	39.038
594.08	40.127
594.41	40.226
594.75	40.776
595.08	39.907
595.42	40.665
595.75	40.135
596.09	41.232
596.42	40.786
596.75	40.523
597.09	39.827
597.42	39.165
597.75	40.448
598.09	40.609
598.42	40.120
598.76	39.157
599.09	39.529
599.42	39.265
599.76	39.495
600.09	39.818
600.42	38.787
600.76	38.714
601.09	38.652
601.42	39.688
601.76	39.203
602.09	39.842
602.42	39.530
602.76	40.226
603.09	39.418
603.42	39.945
603.76	39.710
604.09	39.201
604.42	39.503
604.76	39.941
605.09	39.231
605.42	39.248
605.75	39.652
606.09	39.610
606.42	40.090
606.75	40.025
607.09	38.719
607.42	39.110
607.75	38.143
608.08	39.861
608.42	40.296
608.75	39.179
609.08	39.408
609.41	38.601
609.75	39.543
610.08	38.784
610.41	39.385
610.74	39.357
611.07	38.982
611.41	38.960
611.74	39.266
612.07	39.337
612.40	39.297
612.73	39.789
613.07	40.194
613.40	38.915
613.73	38.700
614.06	38.495
614.39	38.542
614.72	39.158
615.06	38.761
615.39	38.163
615.72	38.497
616.05	38.437
616.38	38.521
616.71	39.964
617.05	39.282
617.38	38.485
617.71	38.919
618.04	39.844
618.37	37.611
618.70	39.639
619.03	39.276
619.36	38.493
619.69	38.451
620.03	38.805
620.36	38.570
620.69	39.178
621.02	38.348
621.35	37.510
621.68	37.383
622.01	38.854
622.34	38.275
622.67	39.087
623.00	38.004
623.33	37.312
623.66	37.956
623.99	38.071
624.32	38.516
624.65	37.359
624.99	37.181
625.32	37.871
625.65	37.566
625.98	39.431
626.31	38.647
626.64	39.184
626.97	38.903
627.30	36.825
627.63	38.310
627.96	38.772
628.29	37.095
628.62	37.511
628.95	38.019
629.28	36.588
629.61	38.772
629.94	39.714
630.26	37.655
630.59	35.939
630.92	36.973
631.25	37.117
631.58	37.437
631.91	38.844
632.24	37.131
632.57	37.775
632.90	36.952
633.23	37.025
633.56	36.949
633.89	37.373
634.22	37.117
634.55	40.237
634.88	37.365
635.20	38.232
635.53	37.349
635.86	38.119
636.19	37.529
636.52	37.024
636.85	38.030
637.18	37.212
637.51	36.525
637.83	34.155
638.16	37.212
638.49	37.909
638.82	39.064
639.15	37.125
639.48	38.653
639.81	41.421
640.13	38.802
640.46	37.047
640.79	37.120
641.12	35.626
641.45	35.196
641.77	38.292
642.10	38.158
642.43	37.387
642.76	37.771
643.09	39.724
643.41	37.329
643.74	38.889
644.07	36.280
644.40	37.883
644.73	37.165
645.05	38.986
645.38	38.547
645.71	36.876
646.04	38.704
646.36	37.896
646.69	38.963
647.02	36.905
647.35	37.629
647.67	39.115
648.00	36.423
648.33	37.129
648.66	35.455
648.98	38.381
649.31	36.472
649.64	37.967
649.96	37.556
650.29	37.599
650.62	37.379
650.94	38.088
651.27	39.358
651.60	37.937
651.92	37.700
652.25	36.156
652.58	38.318
652.90	40.126
653.23	35.439
653.56	37.165
653.88	39.620
654.21	39.494
654.54	37.789
654.86	39.564
655.19	37.297
655.52	28.392
655.84	29.039
656.17	39.891
656.49	54.323
656.82	57.401
657.15	43.987
657.47	32.773
657.80	25.515
658.13	26.935
658.45	40.578
658.78	41.182
659.10	43.129
659.43	44.112
659.75	46.047
660.08	47.911
660.41	47.486
660.73	47.522
661.06	40.605
661.38	41.636
661.71	41.154
662.03	41.026
662.36	36.581
662.68	41.365
663.01	41.010
663.33	40.340
663.66	38.866
663.98	38.013
664.31	38.025
664.63	38.057
664.96	35.815
665.28	38.934
665.61	37.427
665.93	39.235
666.26	40.162
666.58	38.075
666.91	40.169
667.23	38.876
667.56	36.501
667.88	38.889
668.21	39.232
668.53	38.395
668.86	39.394
669.18	39.232
669.50	38.478
669.83	39.651
670.15	38.444
670.48	40.087
670.80	39.440
671.13	40.977
671.45	36.809
671.77	38.289
672.10	39.002
672.42	39.223
672.75	37.977
673.07	38.556
673.39	36.347
673.72	40.234
674.04	39.608
674.37	37.087
674.69	37.628
675.01	38.494
675.34	39.630
675.66	41.895
675.98	37.678
676.31	39.076
676.63	41.189
676.95	38.784
677.28	39.019
677.60	38.022
677.92	40.506
678.25	40.246
678.57	40.438
678.89	38.076
679.22	38.507
679.54	38.168
679.86	38.165
680.18	38.998
680.51	38.652
680.83	38.968
681.15	38.679
681.48	39.887
681.80	39.652
682.12	36.973
682.44	37.718
682.77	42.363
683.09	43.348
683.41	40.576
683.73	39.735
684.06	39.256
684.38	36.986
684.70	39.341
685.02	36.961
685.34	37.729
685.67	37.063
685.99	36.942
686.31	35.495
686.63	39.576
686.96	39.643
687.28	38.267
687.60	36.232
687.92	39.122
688.24	38.593
688.56	41.365
688.89	40.249
689.21	40.830
689.53	41.127
689.85	41.463
690.17	36.025
690.49	41.826
690.82	39.720
691.14	36.384
691.46	38.819
691.78	39.157
692.10	37.810
692.42	39.721
692.74	38.174
693.06	40.000
693.39	40.041
693.71	41.266
694.03	40.842
694.35	41.775
694.67	38.902
694.99	41.707
695.31	40.931
695.63	40.191
695.95	42.787
696.27	39.848
696.59	39.378
696.91	44.560
697.23	36.854
697.56	38.380
697.88	36.196
698.20	38.333
698.52	37.634
698.84	40.535
699.16	37.558
699.48	41.330
699.80	39.372
700.12	45.195
700.44	42.971
700.76	41.160
701.08	42.241
701.40	38.827
701.72	45.481
702.04	46.023
702.36	37.960
702.68	41.926
703.00	38.504
703.32	40.957
703.64	41.287
703.96	41.504
704.28	43.314
704.60	42.522
704.91	40.653
705.23	41.056
705.55	43.854
705.87	45.515
706.19	44.170
706.51	41.745
706.83	46.970
707.15	43.978
707.47	40.404
707.79	40.786
708.11	38.584
708.43	40.714
708.74	39.031
709.06	41.039
709.38	44.094
709.70	45.058
710.02	46.291
710.34	39.697
710.66	47.761
710.98	42.898
711.29	41.570
711.61	43.658
711.93	44.872
712.25	43.730
712.57	51.838
712.89	43.253
713.20	39.210
713.52	47.697
713.84	40.190
714.16	44.207
714.48	43.103
714.80	48.328
715.11	45.245
715.43	42.730
715.75	43.188
716.07	43.131
716.39	42.320
716.70	44.518
717.02	48.561
717.34	41.696
717.66	47.015
717.97	47.809
718.29	43.704
718.61	45.255
718.93	47.059
719.24	42.561
719.56	40.678
719.88	47.119
720.20	47.973
720.51	47.387
720.83	47.584
721.15	42.164
721.46	47.872
721.78	48.746
722.10	49.057
722.42	47.744
722.73	47.191
723.05	45.902
723.37	47.368
723.68	47.876
724.00	47.967
724.32	52.016
724.63	46.748
724.95	48.536
725.27	50.202
725.58	49.609
725.90	51.095
726.22	47.547
726.53	45.833
726.85	43.686
727.16	46.975
727.48	48.582
727.80	46.970
728.11	46.377
728.43	44.231
728.74	47.670
729.06	49.270
729.38	50.735
729.69	46.619
730.01	40.614
730.32	41.667
730.64	48.495
730.96	41.584
731.27	48.013
731.59	46.789
731.90	44.315
732.22	44.410
732.53	45.201
732.85	41.987
733.16	44.373
733.48	45.847
733.80	46.429
734.11	47.134
734.43	42.604
734.74	43.429
735.06	39.542
735.37	44.509
735.69	45.860
736.00	45.425
736.32	44.860
736.63	44.728
736.95	48.882
737.26	41.156
737.58	43.548
737.89	45.485
738.21	46.416
738.52	42.143
738.83	43.774
739.15	51.154
739.46	49.635
739.78	46.181
740.09	43.692
740.41	44.516
740.72	45.296
741.04	47.037
741.35	45.833
741.66	52.444
741.98	50.000
742.29	57.416
742.61	51.293
742.92	48.416
743.23	48.291
743.55	49.200
743.86	50.000
744.18	53.540
744.49	51.675
744.80	52.582
745.12	52.727
745.43	47.137
745.74	55.405
746.06	48.165
746.37	48.430
746.68	51.131
747.00	54.630
747.31	53.333
747.62	44.248
747.94	48.458
748.25	48.085
748.56	54.626
748.88	49.505
749.19	54.000
749.50	51.163
749.82	47.561
750.13	42.449
750.44	48.540
750.75	45.614
751.07	50.804
751.38	49.826
751.69	49.097
752.01	48.872
752.32	42.599
752.63	46.809
752.94	47.541
753.26	52.800
753.57	46.341
753.88	50.000
754.19	46.429
754.51	46.528
754.82	44.765
755.13	49.434
755.44	49.248
755.75	41.971
756.07	47.872
756.38	42.701
756.69	47.651
757.00	43.713
757.31	43.027
757.63	45.322
757.94	43.432
758.25	41.912
758.56	40.988
758.87	43.280
759.18	44.545
759.50	44.828
759.81	45.171
760.12	42.500
760.43	46.418
760.74	47.011
761.05	43.785
761.36	41.979
761.67	46.875
761.99	46.584
762.30	48.264
762.61	51.908
762.92	49.609
763.23	45.798
763.54	46.000
763.85	47.656
764.16	51.154
764.47	47.909
764.78	46.290
765.10	42.405
765.41	46.018
765.72	50.898
766.03	50.470
766.34	44.667
766.65	56.170
766.96	55.556
767.27	57.360
767.58	58.333
767.89	61.053
768.20	58.621
768.51	48.223
768.82	46.789
769.13	47.561
769.44	52.227
769.75	53.648
770.06	48.624
770.37	57.014
770.68	50.926
770.99	50.667
771.30	45.492
771.61	56.502
771.92	51.230
772.23	52.521
772.54	55.385
772.85	57.068
773.16	52.660
773.47	63.043
773.78	54.315
774.09	55.952
774.39	62.573
774.70	58.642
775.01	54.348
775.32	68.627
775.63	65.789
775.94	66.187
776.25	66.929
776.56	65.672
776.87	61.475
777.18	71.875
777.48	69.466
777.79	66.667
778.10	67.407
778.41	65.179
778.72	67.883
779.03	63.087
779.34	67.114
779.65	58.784
779.95	57.669
780.26	60.784
780.57	65.517
780.88	79.687
781.19	61.654
781.50	68.243
781.80	61.006
782.11	55.367
782.42	60.759
782.73	61.963
783.04	65.541
783.34	71.127
783.65	69.863
783.96	66.418
784.27	62.238
784.57	63.309
784.88	62.037
785.19	69.841
785.50	75.472
785.81	74.627
786.11	82.787
786.42	68.992
786.73	77.876
787.04	80.189
787.34	75.000
787.65	79.000
787.96	84.685
788.26	71.074
788.57	77.119
788.88	80.165
789.19	65.972
789.49	71.212
789.80	74.809
790.11	91.429
790.41	87.129
790.72	90.361
791.03	83.696
791.33	90.698
791.64	83.505
791.95	84.158
792.25	80.000
792.56	93.506
792.87	108.974
793.17	105.063
793.48	98.851
793.79	100.000
794.09	84.091
794.40	70.588
794.70	75.000
795.01	65.185
795.32	71.942
795.62	70.079
795.93	79.310
796.23	79.646
796.54	74.118
796.85	106.757
797.15	112.676
797.46	90.909
797.76	109.639
798.07	97.468
798.37	100.000
798.68	98.485
798.99	94.366
799.29	106.494
799.60	95.455
799.90	101.370
800.21	98.507
800.51	129.310
800.82	122.807
801.12	114.754
801.43	109.091
801.73	93.243
802.04	126.984
802.34	100.000
802.65	131.250
802.95	111.864
803.26	117.188
803.56	108.571
803.87	104.615
804.17	101.471
804.48	129.630
804.78	120.690
805.09	105.882
805.39	109.615
805.70	105.357
806.00	121.311
806.30	121.212
806.61	95.122
806.91	79.747
807.22	93.421
807.52	101.493
807.83	123.944
808.13	134.375
808.43	111.667
808.74	92.105
809.04	110.145
809.35	117.910
809.65	89.474
809.95	141.935
810.26	101.695
810.56	103.175
810.86	161.364
811.17	161.905
811.47	130.000
811.77	124.074
812.08	138.182
812.38	142.000
812.69	213.889
812.99	177.273
813.29	144.898
813.59	126.190
813.90	140.816
814.20	116.364
814.50	89.231
814.81	114.706
815.11	126.531
815.41	109.836
815.72	145.238
816.02	123.636
816.32	157.143
816.62	175.000
816.93	134.146
817.23	204.762
817.53	152.273
817.84	196.970
818.14	128.261
818.44	126.667
818.74	200.000
819.04	165.000
819.35	182.857
819.65	208.824
819.95	235.714
820.25	240.000
820.56	182.051
820.86	154.545
821.16	151.163
821.46	171.795
821.76	146.000
822.07	180.000
822.37	155.000
822.67	193.939
822.97	133.333
823.27	175.000
823.57	181.081
823.88	185.000
824.18	216.667
824.48	171.429
824.78	236.000
825.08	212.500
825.38	159.459
825.69	175.610
825.99	262.500
826.29	203.448
826.59	173.684
826.89	178.947
827.19	197.059
827.49	229.032
827.79	175.000
828.09	143.182
828.39	129.787
828.70	155.102
829.00	203.704
829.30	196.774
829.60	152.500
829.90	386.667
830.20	260.714
830.50	269.565
830.80	269.565
831.10	216.667
831.40	233.333
831.70	239.130
832.00	253.846
832.30	255.556
832.60	306.250
832.90	250.000
833.20	428.571
833.50	232.258
833.80	175.862
834.10	206.250
834.40	230.769
834.70	338.889
835.00	357.143
835.30	162.857
835.60	461.538
835.90	220.690
836.20	350.000
836.50	213.793
836.80	228.000
837.10	222.222
837.40	271.429
837.70	358.824
838.00	203.704
838.30	252.381
838.60	290.476
838.90	265.385
839.19	310.000
839.49	428.571
839.79	380.000
840.09	265.000
840.39	219.048
840.69	291.304
840.99	311.111
841.29	490.000
841.59	341.667
841.88	356.250
842.18	231.034
842.48	304.762
842.78	203.333
843.08	295.652
843.38	184.375
843.68	950.000
843.97	250.000
844.27	234.483
844.57	261.905
844.87	437.500
845.17	240.741
845.47	1600.000
845.76	566.667
846.06	323.529
846.36	550.000
846.66	385.714
846.96	325.000
847.25	463.636
847.55	490.909
847.85	300.000
848.15	640.000
848.44	357.143
848.74	283.333
849.04	370.588
849.34	600.000
849.63	294.737
849.93	463.636
850.23	1100.000
850.53	435.714
850.82	2650.000
851.12	-5000.000
851.42	5200.000
851.71	325.000
852.01	-1300.000
852.31	258.333
852.61	1900.000
852.90	285.714
853.20	288.000
853.50	405.882
853.79	304.762
854.09	233.333
854.39	350.000
854.68	210.811
854.98	222.581
855.28	170.000
855.57	237.931
855.87	240.741
856.17	315.789
856.46	333.333
856.76	311.765
857.05	210.345
857.35	283.333
857.65	440.000
857.94	282.609
858.24	307.692
858.53	260.000
858.83	268.182
859.13	413.333
859.42	0.000
859.72	633.333
860.01	409.091
860.31	300.000
860.60	231.579
860.90	282.609
861.20	655.556
861.49	483.333
861.79	-5400.000
862.08	700.000
862.38	314.286
862.67	400.000
862.97	358.824
863.26	644.444
863.56	305.556
863.85	458.333
864.15	437.500
864.44	466.667
864.74	1016.667
865.03	662.500
865.33	400.000
865.62	527.273
865.92	453.846
866.21	441.667
866.51	0.000
866.80	572.727
867.10	1140.000
867.39	530.769
867.69	545.455
867.98	331.579
868.27	536.364
868.57	331.579
868.86	-4000.000
869.16	362.500
869.45	2800.000
869.75	-4300.000
870.04	458.333
870.33	771.429
870.63	1225.000
870.92	2900.000
871.22	871.429
871.51	364.706
871.80	271.429
872.10	392.857
>>>>>End Processed Spectral Data<<<<<
