SpectraSuite Data File
++++++++++++++++++++++++++++++++++++
Date: Wed May 13 19:29:31 PDT 2015
User: schluterlab
Dark Spectrum Present: Yes
Reference Spectrum Present: Yes
Number of Sampled Component Spectra: 1
Spectrometers: USB2E3373
Integration Time (usec): 3000 (USB2E3373)
Spectra Averaged: 3 (USB2E3373)
Boxcar Smoothing: 0 (USB2E3373)
Correct for Electrical Dark: No (USB2E3373)
Strobe/Lamp Enabled: No (USB2E3373)
Correct for Detector Non-linearity: No (USB2E3373)
Correct for Stray Light: No (USB2E3373)
Number of Pixels in Processed Spectrum: 2048
>>>>>Begin Processed Spectral Data<<<<<
178.53	0.000
178.91	-1600.000
179.29	-1500.000
179.67	-255.556
180.04	-1150.000
180.42	2950.000
180.80	860.000
181.18	-975.000
181.56	700.000
181.94	0.000
182.31	-614.286
182.69	1900.000
183.07	-562.500
183.45	-522.222
183.83	572.727
184.20	-340.000
184.58	2750.000
184.96	5500.000
185.34	-860.000
185.72	-675.000
186.09	-2700.000
186.47	2650.000
186.85	2100.000
187.23	5100.000
187.61	-1400.000
187.98	1375.000
188.36	581.818
188.74	590.909
189.12	-920.000
189.49	530.000
189.87	-4200.000
190.25	-1350.000
190.63	378.571
191.00	423.077
191.38	766.667
191.76	-1325.000
192.14	1375.000
192.51	612.500
192.89	1033.333
193.27	825.000
193.65	-1100.000
194.02	460.000
194.40	940.000
194.78	550.000
195.15	475.000
195.53	610.000
195.91	-2200.000
196.29	375.000
196.66	305.263
197.04	-390.000
197.42	0.000
197.79	520.000
198.17	-5200.000
198.55	885.714
198.92	762.500
199.30	900.000
199.68	0.000
200.05	377.778
200.43	842.857
200.81	4400.000
201.18	1533.333
201.56	-1666.667
201.94	644.444
202.31	633.333
202.69	450.000
203.07	510.000
203.44	0.000
203.82	1225.000
204.19	700.000
204.57	500.000
204.95	625.000
205.32	1700.000
205.70	609.091
206.08	400.000
206.45	2600.000
206.83	393.750
207.20	883.333
207.58	600.000
207.96	327.778
208.33	712.500
208.71	-783.333
209.08	828.571
209.46	611.111
209.84	545.455
210.21	-1766.667
210.59	1250.000
210.96	-525.000
211.34	2250.000
211.71	580.000
212.09	850.000
212.46	0.000
212.84	1733.333
213.22	1300.000
213.59	-3300.000
213.97	850.000
214.34	814.286
214.72	563.636
215.09	1040.000
215.47	-2500.000
215.84	-2200.000
216.22	1800.000
216.59	471.429
216.97	1200.000
217.34	490.909
217.72	-750.000
218.09	0.000
218.47	-4800.000
218.84	811.111
219.22	914.286
219.59	1366.667
219.97	-642.857
220.34	1000.000
220.72	-1900.000
221.09	392.857
221.47	1550.000
221.84	-900.000
222.22	0.000
222.59	1350.000
222.97	-2400.000
223.34	1140.000
223.72	492.308
224.09	1140.000
224.46	2450.000
224.84	-5300.000
225.21	-900.000
225.59	-5400.000
225.96	580.000
226.34	290.000
226.71	2550.000
227.08	675.000
227.46	520.000
227.83	-900.000
228.21	-2100.000
228.58	644.444
228.95	-2300.000
229.33	-2050.000
229.70	1800.000
230.08	842.857
230.45	-800.000
230.82	541.667
231.20	883.333
231.57	728.571
231.95	491.667
232.32	231.818
232.69	472.727
233.07	771.429
233.44	284.615
233.81	-1700.000
234.19	315.789
234.56	491.667
234.93	358.333
235.31	527.273
235.68	300.000
236.05	371.429
236.43	175.758
236.80	247.368
237.17	3800.000
237.55	242.857
237.92	217.857
238.29	242.857
238.67	209.677
239.04	172.414
239.41	161.111
239.79	110.870
240.16	126.190
240.53	120.455
240.91	90.196
241.28	96.000
241.65	106.000
242.02	97.101
242.40	90.323
242.77	103.333
243.14	75.269
243.51	79.775
243.89	78.824
244.26	65.556
244.63	69.892
245.00	52.128
245.38	53.465
245.75	57.009
246.12	53.211
246.49	66.423
246.87	56.800
247.24	55.385
247.61	50.000
247.98	47.059
248.36	47.297
248.73	37.580
249.10	44.586
249.47	42.938
249.84	41.711
250.22	39.572
250.59	35.503
250.96	35.859
251.33	41.706
251.70	40.099
252.08	43.810
252.45	31.390
252.82	34.783
253.19	34.894
253.56	34.902
253.94	37.344
254.31	34.375
254.68	32.692
255.05	34.686
255.42	35.366
255.79	31.985
256.16	35.379
256.54	27.562
256.91	30.249
257.28	29.496
257.65	30.033
258.02	30.435
258.39	31.230
258.76	24.749
259.14	31.845
259.51	24.316
259.88	27.019
260.25	29.305
260.62	28.035
260.99	26.708
261.36	31.231
261.73	27.507
262.10	23.547
262.47	29.014
262.85	27.298
263.22	22.222
263.59	29.060
263.96	24.451
264.33	24.021
264.70	24.737
265.07	24.552
265.44	26.010
265.81	24.574
266.18	26.633
266.55	24.878
266.92	25.799
267.29	26.157
267.66	25.459
268.03	24.318
268.40	24.533
268.77	21.718
269.14	22.297
269.51	26.411
269.88	24.709
270.25	22.348
270.62	24.045
270.99	25.806
271.36	24.249
271.73	23.131
272.10	22.174
272.47	23.871
272.84	23.593
273.21	26.415
273.58	21.834
273.95	21.384
274.32	22.521
274.69	23.340
275.06	22.047
275.43	20.638
275.80	21.042
276.17	22.811
276.54	22.453
276.91	21.739
277.28	22.852
277.65	22.631
278.02	19.669
278.39	23.633
278.76	22.182
279.13	21.132
279.50	20.112
279.87	22.510
280.23	20.359
280.60	20.696
280.97	20.148
281.34	21.947
281.71	20.545
282.08	21.305
282.45	19.455
282.82	19.893
283.19	19.964
283.56	19.298
283.92	20.135
284.29	17.989
284.66	19.782
285.03	19.892
285.40	19.894
285.77	19.529
286.14	18.826
286.51	18.833
286.87	21.538
287.24	21.336
287.61	19.904
287.98	19.643
288.35	16.482
288.72	18.224
289.08	18.466
289.45	19.769
289.82	16.911
290.19	18.995
290.56	17.611
290.93	18.127
291.29	17.331
291.66	19.174
292.03	19.041
292.40	19.824
292.77	15.680
293.13	17.910
293.50	17.055
293.87	17.926
294.24	15.259
294.60	16.885
294.97	16.570
295.34	19.041
295.71	17.187
296.08	14.815
296.44	16.644
296.81	15.984
297.18	16.667
297.55	14.380
297.91	16.095
298.28	17.001
298.65	15.274
299.02	16.337
299.38	14.343
299.75	12.264
300.12	14.049
300.48	14.250
300.85	15.166
301.22	15.414
301.59	15.152
301.95	13.854
302.32	15.019
302.69	14.695
303.05	13.939
303.42	14.568
303.79	14.836
304.15	14.452
304.52	13.094
304.89	16.260
305.25	13.573
305.62	14.383
305.99	15.584
306.35	13.647
306.72	14.013
307.09	14.872
307.45	15.541
307.82	12.835
308.19	15.121
308.55	15.858
308.92	14.823
309.29	13.516
309.65	13.680
310.02	14.693
310.38	15.269
310.75	13.939
311.12	16.377
311.48	14.838
311.85	15.304
312.22	14.464
312.58	14.241
312.95	16.156
313.31	14.272
313.68	15.177
314.05	17.357
314.41	16.985
314.78	16.113
315.14	15.889
315.51	16.375
315.87	16.634
316.24	17.577
316.61	16.569
316.97	17.613
317.34	15.949
317.70	17.113
318.07	18.191
318.43	20.450
318.80	19.306
319.16	18.644
319.53	18.011
319.89	20.762
320.26	21.800
320.62	20.933
320.99	20.909
321.35	20.808
321.72	22.279
322.08	23.593
322.45	23.881
322.81	24.612
323.18	24.470
323.54	24.212
323.91	26.415
324.27	25.908
324.64	26.002
325.00	25.969
325.37	27.662
325.73	26.661
326.10	28.773
326.46	27.330
326.83	29.594
327.19	29.120
327.56	29.878
327.92	29.221
328.29	30.169
328.65	31.492
329.01	30.686
329.38	30.990
329.74	30.840
330.11	31.951
330.47	31.221
330.84	32.169
331.20	31.239
331.56	31.284
331.93	32.963
332.29	33.097
332.66	32.743
333.02	33.364
333.38	33.153
333.75	32.620
334.11	33.452
334.48	31.677
334.84	34.099
335.20	33.818
335.57	33.636
335.93	32.054
336.29	32.967
336.66	33.273
337.02	32.760
337.38	32.963
337.75	32.888
338.11	33.214
338.47	34.254
338.84	33.639
339.20	33.211
339.56	35.949
339.93	34.091
340.29	34.239
340.65	33.512
341.02	33.770
341.38	34.342
341.74	32.368
342.11	35.022
342.47	33.480
342.83	33.048
343.20	35.844
343.56	33.446
343.92	34.298
344.28	33.844
344.65	33.362
345.01	33.586
345.37	33.190
345.73	34.518
346.10	34.356
346.46	34.237
346.82	34.185
347.19	34.336
347.55	33.005
347.91	35.032
348.27	34.182
348.63	35.117
349.00	34.385
349.36	34.319
349.72	35.124
350.08	34.198
350.45	35.476
350.81	33.875
351.17	34.927
351.53	33.743
351.89	33.828
352.26	36.859
352.62	35.365
352.98	35.089
353.34	35.086
353.70	34.288
354.07	36.048
354.43	33.651
354.79	34.755
355.15	34.717
355.51	35.172
355.87	36.000
356.24	35.586
356.60	35.846
356.96	35.479
357.32	35.323
357.68	36.457
358.04	35.946
358.40	35.788
358.77	35.211
359.13	35.517
359.49	35.686
359.85	35.714
360.21	35.805
360.57	36.265
360.93	36.923
361.29	36.130
361.66	34.985
362.02	35.821
362.38	36.198
362.74	35.640
363.10	35.899
363.46	35.510
363.82	36.810
364.18	36.490
364.54	38.336
364.90	37.606
365.26	37.647
365.62	37.180
365.98	36.596
366.35	36.461
366.71	36.587
367.07	38.529
367.43	37.228
367.79	37.402
368.15	38.434
368.51	38.009
368.87	38.330
369.23	38.990
369.59	39.030
369.95	38.456
370.31	39.103
370.67	38.913
371.03	39.700
371.39	38.192
371.75	39.926
372.11	38.762
372.47	40.543
372.83	40.778
373.19	39.668
373.55	39.616
373.91	40.353
374.27	40.412
374.63	41.018
374.99	41.596
375.35	39.637
375.71	40.096
376.07	41.084
376.42	41.609
376.78	41.418
377.14	40.773
377.50	41.589
377.86	41.157
378.22	41.340
378.58	40.100
378.94	41.295
379.30	40.967
379.66	42.449
380.02	41.769
380.38	41.226
380.74	42.317
381.09	42.298
381.45	42.717
381.81	43.243
382.17	43.503
382.53	42.075
382.89	44.074
383.25	42.464
383.61	43.742
383.97	43.152
384.32	43.668
384.68	42.565
385.04	42.532
385.40	42.724
385.76	43.735
386.12	43.718
386.48	43.864
386.83	44.452
387.19	44.836
387.55	45.145
387.91	43.652
388.27	44.206
388.62	45.360
388.98	43.673
389.34	45.244
389.70	44.758
390.06	44.804
390.42	45.785
390.77	44.466
391.13	45.182
391.49	44.353
391.85	45.003
392.20	45.047
392.56	45.328
392.92	45.556
393.28	45.976
393.64	45.983
393.99	44.960
394.35	45.968
394.71	45.420
395.07	45.483
395.42	46.786
395.78	46.565
396.14	45.872
396.50	46.053
396.85	45.645
397.21	45.623
397.57	46.001
397.92	46.154
398.28	44.731
398.64	45.818
399.00	45.439
399.35	45.685
399.71	45.544
400.07	45.003
400.42	45.890
400.78	46.864
401.14	45.671
401.49	45.851
401.85	45.554
402.21	45.210
402.57	45.466
402.92	46.595
403.28	47.595
403.63	46.411
403.99	45.732
404.35	45.394
404.70	45.324
405.06	46.360
405.42	46.039
405.77	46.000
406.13	45.372
406.49	45.358
406.84	46.072
407.20	46.277
407.55	45.756
407.91	46.400
408.27	46.522
408.62	47.080
408.98	46.324
409.34	47.478
409.69	47.484
410.05	46.592
410.40	46.789
410.76	46.774
411.11	46.622
411.47	46.709
411.83	46.304
412.18	46.135
412.54	46.949
412.89	46.084
413.25	46.517
413.60	46.016
413.96	45.477
414.31	45.747
414.67	47.592
415.03	46.291
415.38	44.910
415.74	47.267
416.09	46.897
416.45	46.051
416.80	46.861
417.16	46.046
417.51	47.047
417.87	44.830
418.22	47.760
418.58	46.546
418.93	45.086
419.29	46.404
419.64	46.474
420.00	45.549
420.35	46.377
420.71	46.204
421.06	46.360
421.42	45.965
421.77	46.076
422.12	45.536
422.48	44.792
422.83	46.418
423.19	45.691
423.54	45.618
423.90	45.101
424.25	45.059
424.61	45.417
424.96	45.889
425.31	44.684
425.67	44.719
426.02	45.657
426.38	46.398
426.73	44.587
427.09	44.255
427.44	46.521
427.79	45.313
428.15	46.012
428.50	45.231
428.85	44.577
429.21	45.445
429.56	44.635
429.92	44.942
430.27	44.191
430.62	43.932
430.98	44.837
431.33	44.742
431.68	44.398
432.04	44.356
432.39	45.688
432.74	45.242
433.10	44.539
433.45	45.248
433.80	45.843
434.16	44.231
434.51	44.474
434.86	45.097
435.22	44.858
435.57	45.471
435.92	44.587
436.28	45.077
436.63	44.205
436.98	44.018
437.34	44.842
437.69	45.216
438.04	45.082
438.39	45.254
438.75	45.032
439.10	45.531
439.45	45.336
439.81	45.619
440.16	43.591
440.51	44.698
440.86	44.991
441.22	44.828
441.57	44.533
441.92	45.138
442.27	44.833
442.63	43.655
442.98	45.014
443.33	44.402
443.68	44.450
444.03	44.265
444.39	44.206
444.74	43.885
445.09	43.612
445.44	43.794
445.79	43.444
446.15	43.939
446.50	43.942
446.85	44.399
447.20	44.161
447.55	45.170
447.91	44.126
448.26	44.073
448.61	43.527
448.96	44.131
449.31	44.319
449.66	43.725
450.02	43.565
450.37	43.424
450.72	43.204
451.07	42.840
451.42	43.647
451.77	43.746
452.12	43.072
452.47	43.159
452.83	43.765
453.18	42.604
453.53	43.785
453.88	44.418
454.23	42.738
454.58	44.034
454.93	44.183
455.28	43.392
455.63	44.235
455.98	43.750
456.34	43.781
456.69	44.020
457.04	43.344
457.39	43.191
457.74	42.832
458.09	42.036
458.44	42.987
458.79	41.594
459.14	41.084
459.49	42.732
459.84	42.936
460.19	42.899
460.54	41.956
460.89	41.964
461.24	42.137
461.59	42.766
461.94	41.492
462.29	42.018
462.64	41.991
462.99	41.509
463.34	42.533
463.69	43.027
464.04	41.217
464.39	41.449
464.74	41.474
465.09	41.918
465.44	40.831
465.79	41.667
466.14	39.737
466.49	39.155
466.84	40.572
467.19	41.219
467.54	42.000
467.89	40.636
468.24	40.489
468.59	41.941
468.94	40.440
469.29	40.039
469.64	40.562
469.99	40.866
470.34	40.555
470.68	41.523
471.03	39.524
471.38	41.070
471.73	39.840
472.08	41.447
472.43	39.950
472.78	39.566
473.13	40.180
473.48	38.951
473.83	40.427
474.17	38.706
474.52	39.640
474.87	38.762
475.22	39.060
475.57	37.614
475.92	37.918
476.27	38.444
476.61	38.224
476.96	37.823
477.31	38.305
477.66	37.965
478.01	37.585
478.36	38.551
478.70	37.331
479.05	38.339
479.40	37.973
479.75	37.672
480.10	36.680
480.45	37.078
480.79	35.882
481.14	37.622
481.49	36.497
481.84	36.763
482.19	36.847
482.53	36.927
482.88	37.040
483.23	36.869
483.58	36.033
483.92	35.942
484.27	36.035
484.62	35.776
484.97	35.514
485.31	36.062
485.66	34.341
486.01	34.377
486.36	33.113
486.70	32.504
487.05	33.221
487.40	33.325
487.75	34.091
488.09	34.092
488.44	34.590
488.79	34.105
489.13	34.492
489.48	34.992
489.83	34.873
490.17	34.108
490.52	34.012
490.87	33.831
491.22	33.379
491.56	34.032
491.91	34.155
492.26	33.808
492.60	33.364
492.95	32.367
493.30	33.505
493.64	34.018
493.99	33.194
494.34	34.366
494.68	34.020
495.03	33.694
495.37	33.364
495.72	33.723
496.07	33.643
496.41	32.345
496.76	33.861
497.11	32.778
497.45	32.557
497.80	32.438
498.14	32.802
498.49	32.634
498.84	32.167
499.18	33.048
499.53	32.431
499.87	32.293
500.22	31.276
500.56	32.767
500.91	32.163
501.26	31.389
501.60	32.511
501.95	31.072
502.29	31.724
502.64	31.983
502.98	31.931
503.33	31.170
503.67	32.019
504.02	31.478
504.36	31.540
504.71	31.168
505.06	31.807
505.40	31.016
505.75	30.473
506.09	31.390
506.44	31.031
506.78	30.541
507.13	31.045
507.47	30.758
507.82	31.003
508.16	30.648
508.51	30.644
508.85	30.636
509.19	30.408
509.54	29.337
509.88	29.624
510.23	29.512
510.57	31.373
510.92	30.813
511.26	30.113
511.61	29.979
511.95	29.436
512.30	29.427
512.64	30.199
512.98	30.171
513.33	30.353
513.67	28.762
514.02	28.680
514.36	29.820
514.70	28.832
515.05	29.225
515.39	29.220
515.74	30.011
516.08	28.787
516.42	29.245
516.77	29.766
517.11	28.635
517.46	29.289
517.80	29.791
518.14	28.778
518.49	29.288
518.83	27.727
519.17	28.464
519.52	28.749
519.86	28.979
520.20	29.191
520.55	29.443
520.89	29.440
521.23	28.227
521.58	27.731
521.92	28.904
522.26	28.249
522.61	28.723
522.95	28.177
523.29	28.545
523.64	28.171
523.98	28.527
524.32	27.986
524.66	28.082
525.01	28.125
525.35	27.261
525.69	27.894
526.04	27.352
526.38	28.554
526.72	26.810
527.06	27.872
527.41	26.795
527.75	27.460
528.09	28.773
528.43	27.406
528.78	27.966
529.12	27.030
529.46	28.108
529.80	26.795
530.15	27.850
530.49	27.323
530.83	27.848
531.17	27.742
531.51	27.756
531.86	27.935
532.20	27.640
532.54	27.995
532.88	26.829
533.22	26.733
533.57	27.160
533.91	26.851
534.25	26.792
534.59	26.358
534.93	26.413
535.27	26.373
535.62	26.190
535.96	26.930
536.30	26.065
536.64	26.980
536.98	25.946
537.32	26.201
537.66	25.667
538.01	25.543
538.35	26.891
538.69	27.250
539.03	25.341
539.37	25.559
539.71	24.757
540.05	25.621
540.39	25.581
540.73	25.291
541.07	26.931
541.42	25.571
541.76	26.129
542.10	25.291
542.44	24.901
542.78	26.746
543.12	25.528
543.46	25.967
543.80	25.764
544.14	26.123
544.48	26.222
544.82	25.080
545.16	25.309
545.50	24.807
545.84	25.941
546.18	26.465
546.52	24.845
546.86	25.155
547.20	26.500
547.54	25.518
547.88	25.702
548.22	25.342
548.56	25.094
548.90	25.096
549.24	24.444
549.58	25.853
549.92	25.137
550.26	25.497
550.60	25.173
550.94	24.718
551.28	24.214
551.62	25.090
551.96	24.772
552.30	25.119
552.64	24.611
552.98	24.542
553.32	24.477
553.66	24.540
554.00	24.846
554.34	25.121
554.68	25.322
555.02	23.766
555.36	24.426
555.69	24.154
556.03	23.486
556.37	23.670
556.71	23.533
557.05	23.810
557.39	24.143
557.73	24.347
558.07	24.656
558.41	23.372
558.75	24.541
559.08	25.503
559.42	23.885
559.76	24.779
560.10	23.840
560.44	23.550
560.78	22.888
561.12	23.087
561.45	24.446
561.79	23.797
562.13	23.474
562.47	24.180
562.81	24.756
563.15	23.478
563.48	22.812
563.82	23.549
564.16	23.479
564.50	22.266
564.84	22.630
565.17	23.166
565.51	23.642
565.85	23.160
566.19	23.607
566.52	23.813
566.86	21.820
567.20	23.998
567.54	22.546
567.88	22.271
568.21	23.122
568.55	21.891
568.89	21.498
569.23	20.856
569.56	21.457
569.90	21.698
570.24	21.493
570.57	21.013
570.91	20.653
571.25	20.445
571.59	20.736
571.92	20.421
572.26	20.508
572.60	20.541
572.93	20.120
573.27	20.586
573.61	20.268
573.95	20.646
574.28	19.774
574.62	19.898
574.96	19.713
575.29	19.229
575.63	20.401
575.97	20.151
576.30	20.260
576.64	19.914
576.98	19.713
577.31	19.409
577.65	19.870
577.98	19.823
578.32	19.202
578.66	19.560
578.99	19.790
579.33	19.632
579.67	19.533
580.00	19.612
580.34	19.530
580.67	19.310
581.01	19.699
581.35	19.615
581.68	19.342
582.02	18.944
582.35	19.241
582.69	19.215
583.02	19.314
583.36	19.530
583.70	19.655
584.03	19.070
584.37	19.868
584.70	19.592
585.04	19.741
585.37	19.035
585.71	19.384
586.04	19.014
586.38	19.122
586.72	19.884
587.05	19.261
587.39	19.288
587.72	19.428
588.06	19.317
588.39	19.342
588.73	19.302
589.06	19.819
589.40	19.933
589.73	19.500
590.07	19.253
590.40	20.058
590.73	20.023
591.07	20.228
591.40	19.654
591.74	20.519
592.07	19.983
592.41	19.843
592.74	19.213
593.08	19.687
593.41	19.234
593.75	18.676
594.08	19.175
594.41	19.300
594.75	19.224
595.08	19.256
595.42	19.089
595.75	19.053
596.09	19.302
596.42	20.118
596.75	19.882
597.09	20.173
597.42	19.013
597.75	19.664
598.09	19.957
598.42	19.759
598.76	18.687
599.09	18.966
599.42	18.959
599.76	18.814
600.09	18.579
600.42	18.736
600.76	18.750
601.09	19.053
601.42	19.026
601.76	18.899
602.09	18.972
602.42	19.228
602.76	19.025
603.09	19.237
603.42	19.719
603.76	19.398
604.09	18.883
604.42	18.426
604.76	19.865
605.09	18.960
605.42	18.769
605.75	19.247
606.09	18.869
606.42	18.921
606.75	18.747
607.09	19.464
607.42	18.956
607.75	18.186
608.08	18.628
608.42	19.050
608.75	18.801
609.08	19.426
609.41	18.658
609.75	18.771
610.08	18.850
610.41	18.901
610.74	19.631
611.07	18.972
611.41	19.627
611.74	19.558
612.07	19.410
612.40	19.255
612.73	18.789
613.07	20.259
613.40	19.589
613.73	18.878
614.06	19.301
614.39	18.825
614.72	19.632
615.06	19.223
615.39	18.790
615.72	19.018
616.05	18.394
616.38	19.122
616.71	19.537
617.05	19.081
617.38	19.002
617.71	19.099
618.04	19.832
618.37	19.515
618.70	18.606
619.03	20.461
619.36	19.756
619.69	19.225
620.03	20.330
620.36	20.053
620.69	21.233
621.02	19.543
621.35	19.577
621.68	20.093
622.01	20.046
622.34	20.424
622.67	19.468
623.00	19.736
623.33	18.942
623.66	19.800
623.99	20.324
624.32	19.472
624.65	20.127
624.99	19.263
625.32	19.189
625.65	20.511
625.98	20.292
626.31	20.451
626.64	20.980
626.97	19.784
627.30	19.784
627.63	20.098
627.96	20.437
628.29	20.647
628.62	21.134
628.95	20.566
629.28	20.712
629.61	21.357
629.94	20.952
630.26	19.924
630.59	21.449
630.92	20.307
631.25	20.138
631.58	21.321
631.91	20.892
632.24	20.148
632.57	20.357
632.90	21.820
633.23	20.805
633.56	20.904
633.89	20.385
634.22	21.112
634.55	22.959
634.88	20.000
635.20	22.581
635.53	21.566
635.86	21.040
636.19	19.647
636.52	21.107
636.85	21.306
637.18	19.355
637.51	22.104
637.83	20.222
638.16	22.762
638.49	22.544
638.82	23.009
639.15	22.500
639.48	22.319
639.81	22.252
640.13	21.354
640.46	22.416
640.79	22.325
641.12	22.146
641.45	20.391
641.77	24.006
642.10	24.123
642.43	22.973
642.76	21.981
643.09	24.387
643.41	23.217
643.74	24.846
644.07	21.189
644.40	23.313
644.73	24.094
645.05	22.662
645.38	23.381
645.71	20.934
646.04	23.920
646.36	25.710
646.69	23.746
647.02	23.469
647.35	23.368
647.67	21.947
648.00	24.065
648.33	21.782
648.66	21.212
648.98	22.639
649.31	22.422
649.64	21.226
649.96	22.951
650.29	21.801
650.62	22.006
650.94	22.853
651.27	23.480
651.60	22.962
651.92	23.962
652.25	22.150
652.58	22.430
652.90	23.855
653.23	20.955
653.56	23.937
653.88	23.613
654.21	22.117
654.54	22.277
654.86	23.053
655.19	21.081
655.52	13.927
655.84	12.560
656.17	16.575
656.49	22.707
656.82	23.222
657.15	17.732
657.47	13.094
657.80	10.315
658.13	11.005
658.45	16.090
658.78	16.055
659.10	16.438
659.43	17.052
659.75	17.865
660.08	18.924
660.41	20.764
660.73	22.745
661.06	22.771
661.38	24.364
661.71	25.000
662.03	25.838
662.36	22.664
662.68	23.695
663.01	23.434
663.33	23.567
663.66	25.000
663.98	23.758
664.31	21.849
664.63	22.470
664.96	21.127
665.28	25.820
665.61	23.977
665.93	22.133
666.26	25.152
666.58	25.314
666.91	26.427
667.23	27.640
667.56	24.622
667.88	24.145
668.21	23.241
668.53	24.078
668.86	22.511
669.18	27.719
669.50	23.696
669.83	26.797
670.15	25.556
670.48	24.837
670.80	23.491
671.13	25.902
671.45	25.106
671.77	24.644
672.10	24.584
672.42	22.261
672.75	23.051
673.07	22.183
673.39	22.966
673.72	21.484
674.04	22.549
674.37	23.495
674.69	24.540
675.01	20.921
675.34	27.105
675.66	24.421
675.98	26.069
676.31	25.840
676.63	26.115
676.95	23.899
677.28	27.804
677.60	25.714
677.92	25.316
678.25	20.329
678.57	24.502
678.89	22.846
679.22	21.218
679.54	22.901
679.86	23.853
680.18	22.182
680.51	23.404
680.83	23.665
681.15	26.415
681.48	26.087
681.80	22.631
682.12	19.540
682.44	21.083
682.77	23.625
683.09	26.824
683.41	25.055
683.73	25.828
684.06	24.380
684.38	22.505
684.70	23.643
685.02	23.827
685.34	21.062
685.67	20.979
685.99	21.993
686.31	22.014
686.63	20.495
686.96	23.036
687.28	22.924
687.60	20.290
687.92	24.314
688.24	23.954
688.56	24.498
688.89	23.651
689.21	27.074
689.53	24.843
689.85	27.938
690.17	24.638
690.49	25.053
690.82	25.234
691.14	21.429
691.46	24.684
691.78	24.297
692.10	24.587
692.42	24.551
692.74	21.784
693.06	24.255
693.39	23.614
693.71	21.834
694.03	23.789
694.35	23.593
694.67	25.858
694.99	24.146
695.31	27.206
695.63	26.077
695.95	25.183
696.27	25.381
696.59	25.130
696.91	26.943
697.23	21.362
697.56	24.094
697.88	22.495
698.20	25.625
698.52	23.871
698.84	24.276
699.16	26.728
699.48	25.653
699.80	26.570
700.12	29.351
700.44	27.851
700.76	25.691
701.08	27.299
701.40	24.860
701.72	28.571
702.04	30.398
702.36	25.212
702.68	24.646
703.00	27.701
703.32	26.064
703.64	28.418
703.96	27.855
704.28	28.488
704.60	29.912
704.91	28.190
705.23	28.446
705.55	32.558
705.87	34.219
706.19	28.975
706.51	29.595
706.83	30.303
707.15	25.210
707.47	23.485
707.79	27.273
708.11	26.941
708.43	24.762
708.74	23.724
709.06	24.935
709.38	27.034
709.70	27.907
710.02	27.893
710.34	25.455
710.66	28.358
710.98	29.261
711.29	24.419
711.61	31.858
711.93	26.603
712.25	27.974
712.57	30.147
712.89	27.336
713.20	27.052
713.52	28.618
713.84	29.430
714.16	25.305
714.48	24.713
714.80	30.699
715.11	24.784
715.43	25.816
715.75	28.406
716.07	27.796
716.39	28.213
716.70	28.904
717.02	31.295
717.34	32.862
717.66	30.597
717.97	40.239
718.29	30.370
718.61	30.657
718.93	31.618
719.24	28.374
719.56	30.847
719.88	31.186
720.20	30.405
720.51	27.526
720.83	35.316
721.15	30.224
721.46	32.270
721.78	34.409
722.10	32.830
722.42	27.068
722.73	30.712
723.05	30.328
723.37	33.603
723.68	33.977
724.00	30.488
724.32	33.871
724.63	30.081
724.95	33.054
725.27	33.603
725.58	33.984
725.90	33.577
726.22	29.057
726.53	28.819
726.85	27.304
727.16	31.317
727.48	29.787
727.80	29.924
728.11	28.261
728.43	27.308
728.74	30.824
729.06	36.131
729.38	30.147
729.69	33.096
730.01	28.328
730.32	28.125
730.64	31.438
730.96	27.393
731.27	26.821
731.59	28.440
731.90	27.114
732.22	29.814
732.53	25.387
732.85	29.487
733.16	27.331
733.48	29.568
733.80	26.623
734.11	28.344
734.43	27.515
734.74	26.000
735.06	23.782
735.37	28.613
735.69	30.573
736.00	28.758
736.32	30.530
736.63	27.157
736.95	30.032
737.26	21.429
737.58	26.774
737.89	28.763
738.21	27.986
738.52	28.214
738.83	27.170
739.15	28.846
739.46	28.102
739.78	28.125
740.09	29.538
740.41	31.613
740.72	26.132
741.04	31.852
741.35	28.750
741.66	36.444
741.98	35.849
742.29	40.670
742.61	39.655
742.92	28.959
743.23	34.615
743.55	33.600
743.86	35.965
744.18	37.168
744.49	34.928
744.80	36.620
745.12	36.364
745.43	34.361
745.74	35.135
746.06	32.110
746.37	37.220
746.68	29.864
747.00	35.648
747.31	36.667
747.62	32.743
747.94	35.242
748.25	30.213
748.56	35.683
748.88	33.663
749.19	44.000
749.50	33.023
749.82	32.114
750.13	28.571
750.44	33.212
750.75	30.526
751.07	32.476
751.38	32.056
751.69	31.408
752.01	31.579
752.32	24.188
752.63	30.851
752.94	30.328
753.26	34.000
753.57	28.049
753.88	32.422
754.19	33.929
754.51	31.250
754.82	27.798
755.13	33.208
755.44	26.316
755.75	29.197
756.07	28.723
756.38	25.182
756.69	29.530
757.00	27.246
757.31	28.487
757.63	24.854
757.94	25.201
758.25	25.735
758.56	24.691
758.87	23.925
759.18	26.667
759.50	24.138
759.81	26.791
760.12	25.312
760.43	26.934
760.74	26.630
761.05	27.401
761.36	23.529
761.67	29.830
761.99	28.261
762.30	30.903
762.61	28.244
762.92	33.203
763.23	34.034
763.54	39.600
763.85	26.953
764.16	34.231
764.47	30.038
764.78	28.269
765.10	24.051
765.41	25.369
765.72	26.946
766.03	27.900
766.34	27.333
766.65	34.043
766.96	34.188
767.27	37.056
767.58	34.375
767.89	40.000
768.20	36.207
768.51	38.071
768.82	38.073
769.13	31.301
769.44	30.364
769.75	31.330
770.06	31.193
770.37	37.557
770.68	36.574
770.99	35.111
771.30	32.377
771.61	34.081
771.92	35.246
772.23	38.655
772.54	35.897
772.85	36.649
773.16	42.553
773.47	42.935
773.78	42.640
774.09	39.881
774.39	43.275
774.70	40.123
775.01	44.928
775.32	50.980
775.63	51.974
775.94	46.763
776.25	51.969
776.56	53.731
776.87	49.180
777.18	46.094
777.48	59.542
777.79	53.788
778.10	57.037
778.41	50.000
778.72	36.496
779.03	40.940
779.34	43.624
779.65	39.865
779.95	46.626
780.26	52.288
780.57	46.897
780.88	60.156
781.19	45.113
781.50	52.027
781.80	38.365
782.11	38.983
782.42	42.405
782.73	41.718
783.04	45.270
783.34	43.662
783.65	52.740
783.96	47.015
784.27	50.350
784.57	42.446
784.88	57.407
785.19	50.794
785.50	52.830
785.81	57.463
786.11	52.459
786.42	59.690
786.73	46.903
787.04	62.264
787.34	56.250
787.65	58.000
787.96	50.450
788.26	45.455
788.57	60.169
788.88	60.331
789.19	52.083
789.49	59.848
789.80	49.618
790.11	67.619
790.41	70.297
790.72	65.060
791.03	71.739
791.33	60.465
791.64	73.196
791.95	69.307
792.25	73.333
792.56	83.117
792.87	83.333
793.17	82.278
793.48	80.460
793.79	71.264
794.09	78.409
794.40	61.345
794.70	50.735
795.01	45.185
795.32	48.921
795.62	54.331
795.93	56.897
796.23	61.947
796.54	55.294
796.85	71.622
797.15	94.366
797.46	74.242
797.76	77.108
798.07	81.013
798.37	70.769
798.68	84.848
798.99	70.423
799.29	72.727
799.60	63.636
799.90	87.671
800.21	91.045
800.51	91.379
800.82	103.509
801.12	90.164
801.43	103.030
801.73	64.865
802.04	96.825
802.34	83.951
802.65	84.375
802.95	101.695
803.26	93.750
803.56	82.857
803.87	90.769
804.17	77.941
804.48	125.926
804.78	93.103
805.09	92.647
805.39	103.846
805.70	100.000
806.00	103.279
806.30	95.455
806.61	85.366
806.91	62.025
807.22	73.684
807.52	80.597
807.83	84.507
808.13	96.875
808.43	81.667
808.74	64.474
809.04	94.203
809.35	97.015
809.65	86.842
809.95	112.903
810.26	74.576
810.56	84.127
810.86	118.182
811.17	133.333
811.47	115.000
811.77	107.407
812.08	94.545
812.38	110.000
812.69	161.111
812.99	145.455
813.29	132.653
813.59	95.238
813.90	151.020
814.20	105.455
814.50	76.923
814.81	105.882
815.11	104.082
815.41	96.721
815.72	135.714
816.02	109.091
816.32	150.000
816.62	120.000
816.93	102.439
817.23	142.857
817.53	138.636
817.84	163.636
818.14	128.261
818.44	157.778
818.74	144.118
819.04	145.000
819.35	145.714
819.65	161.765
819.95	164.286
820.25	230.000
820.56	166.667
820.86	120.455
821.16	130.233
821.46	130.769
821.76	154.000
822.07	140.000
822.37	157.500
822.67	142.424
822.97	92.157
823.27	210.714
823.57	140.541
823.88	160.000
824.18	180.000
824.48	164.286
824.78	196.000
825.08	208.333
825.38	154.054
825.69	126.829
825.99	229.167
826.29	182.759
826.59	152.632
826.89	168.421
827.19	170.588
827.49	187.097
827.79	140.909
828.09	113.636
828.39	112.766
828.70	146.939
829.00	188.889
829.30	148.387
829.60	117.500
829.90	320.000
830.20	217.857
830.50	217.391
830.80	247.826
831.10	166.667
831.40	163.333
831.70	230.435
832.00	238.462
832.30	174.074
832.60	350.000
832.90	210.000
833.20	450.000
833.50	190.323
833.80	186.207
834.10	193.750
834.40	226.923
834.70	261.111
835.00	271.429
835.30	180.000
835.60	300.000
835.90	189.655
836.20	307.143
836.50	203.448
836.80	172.000
837.10	163.889
837.40	261.905
837.70	370.588
838.00	225.926
838.30	233.333
838.60	271.429
838.90	203.846
839.19	245.000
839.49	414.286
839.79	310.000
840.09	295.000
840.39	280.952
840.69	239.130
840.99	272.222
841.29	540.000
841.59	266.667
841.88	350.000
842.18	206.897
842.48	214.286
842.78	203.333
843.08	269.565
843.38	203.125
843.68	916.667
843.97	219.231
844.27	179.310
844.57	290.476
844.87	337.500
845.17	203.704
845.47	1366.667
845.76	444.444
846.06	329.412
846.36	487.500
846.66	407.143
846.96	275.000
847.25	363.636
847.55	400.000
847.85	221.739
848.15	450.000
848.44	414.286
848.74	272.222
849.04	347.059
849.34	500.000
849.63	226.316
849.93	418.182
850.23	940.000
850.53	400.000
850.82	2500.000
851.12	-3900.000
851.42	4600.000
851.71	285.000
852.01	-1466.667
852.31	258.333
852.61	1600.000
852.90	271.429
853.20	256.000
853.50	370.588
853.79	257.143
854.09	187.500
854.39	337.500
854.68	159.459
854.98	187.097
855.28	173.333
855.57	210.345
855.87	200.000
856.17	242.105
856.46	260.000
856.76	294.118
857.05	186.207
857.35	216.667
857.65	360.000
857.94	265.217
858.24	253.846
858.53	275.000
858.83	268.182
859.13	413.333
859.42	0.000
859.72	344.444
860.01	445.455
860.31	250.000
860.60	331.579
860.90	230.435
861.20	488.889
861.49	541.667
861.79	-4500.000
862.08	587.500
862.38	242.857
862.67	338.462
862.97	300.000
863.26	577.778
863.56	266.667
863.85	366.667
864.15	650.000
864.44	380.000
864.74	950.000
865.03	750.000
865.33	278.947
865.62	363.636
865.92	461.538
866.21	416.667
866.51	0.000
866.80	409.091
867.10	1240.000
867.39	369.231
867.69	390.909
867.98	300.000
868.27	490.909
868.57	310.526
868.86	-4700.000
869.16	412.500
869.45	2250.000
869.75	-5400.000
870.04	441.667
870.33	571.429
870.63	1275.000
870.92	3100.000
871.22	657.143
871.51	294.118
871.80	242.857
872.10	335.714
>>>>>End Processed Spectral Data<<<<<
