SpectraSuite Data File
++++++++++++++++++++++++++++++++++++
Date: Wed May 13 19:46:35 PDT 2015
User: schluterlab
Dark Spectrum Present: Yes
Reference Spectrum Present: Yes
Number of Sampled Component Spectra: 1
Spectrometers: USB2E3373
Integration Time (usec): 3000 (USB2E3373)
Spectra Averaged: 3 (USB2E3373)
Boxcar Smoothing: 0 (USB2E3373)
Correct for Electrical Dark: No (USB2E3373)
Strobe/Lamp Enabled: No (USB2E3373)
Correct for Detector Non-linearity: No (USB2E3373)
Correct for Stray Light: No (USB2E3373)
Number of Pixels in Processed Spectrum: 2048
>>>>>Begin Processed Spectral Data<<<<<
178.53	0.000
178.91	-1400.000
179.29	-1125.000
179.67	-200.000
180.04	-1175.000
180.42	2400.000
180.80	980.000
181.18	-700.000
181.56	671.429
181.94	0.000
182.31	-642.857
182.69	1833.333
183.07	-500.000
183.45	-555.556
183.83	563.636
184.20	-390.000
184.58	2050.000
184.96	5100.000
185.34	-1020.000
185.72	-475.000
186.09	-1850.000
186.47	2500.000
186.85	2450.000
187.23	5300.000
187.61	-1800.000
187.98	1225.000
188.36	600.000
188.74	609.091
189.12	-960.000
189.49	540.000
189.87	-5100.000
190.25	-1425.000
190.63	378.571
191.00	500.000
191.38	700.000
191.76	-925.000
192.14	1575.000
192.51	525.000
192.89	850.000
193.27	537.500
193.65	-1075.000
194.02	530.000
194.40	920.000
194.78	560.000
195.15	500.000
195.53	610.000
195.91	-2300.000
196.29	362.500
196.66	357.895
197.04	-300.000
197.42	0.000
197.79	600.000
198.17	-4300.000
198.55	728.571
198.92	712.500
199.30	1000.000
199.68	0.000
200.05	366.667
200.43	771.429
200.81	5600.000
201.18	1400.000
201.56	-1733.333
201.94	511.111
202.31	577.778
202.69	458.333
203.07	500.000
203.44	0.000
203.82	1275.000
204.19	685.714
204.57	407.143
204.95	687.500
205.32	1300.000
205.70	500.000
206.08	335.714
206.45	2150.000
206.83	362.500
207.20	850.000
207.58	860.000
207.96	350.000
208.33	687.500
208.71	-833.333
209.08	757.143
209.46	477.778
209.84	454.545
210.21	-1700.000
210.59	1225.000
210.96	-400.000
211.34	2650.000
211.71	520.000
212.09	883.333
212.46	0.000
212.84	1433.333
213.22	1375.000
213.59	-4400.000
213.97	833.333
214.34	757.143
214.72	536.364
215.09	1080.000
215.47	-2450.000
215.84	-2500.000
216.22	1633.333
216.59	435.714
216.97	1325.000
217.34	454.545
217.72	-766.667
218.09	0.000
218.47	-5300.000
218.84	577.778
219.22	614.286
219.59	1700.000
219.97	-642.857
220.34	1020.000
220.72	-1500.000
221.09	407.143
221.47	1500.000
221.84	-933.333
222.22	0.000
222.59	1525.000
222.97	-2400.000
223.34	1240.000
223.72	392.308
224.09	980.000
224.46	2250.000
224.84	-4700.000
225.21	-980.000
225.59	-4800.000
225.96	670.000
226.34	260.000
226.71	2600.000
227.08	725.000
227.46	540.000
227.83	-1175.000
228.21	-2100.000
228.58	633.333
228.95	-2750.000
229.33	-1550.000
229.70	1800.000
230.08	771.429
230.45	-980.000
230.82	416.667
231.20	900.000
231.57	685.714
231.95	541.667
232.32	304.545
232.69	318.182
233.07	700.000
233.44	384.615
233.81	-1500.000
234.19	231.579
234.56	400.000
234.93	425.000
235.31	445.455
235.68	307.692
236.05	335.714
236.43	169.697
236.80	289.474
237.17	5000.000
237.55	261.905
237.92	207.143
238.29	233.333
238.67	161.290
239.04	210.345
239.41	161.111
239.79	102.174
240.16	140.476
240.53	122.727
240.91	96.078
241.28	106.000
241.65	120.000
242.02	86.957
242.40	80.645
242.77	103.333
243.14	65.591
243.51	73.034
243.89	62.353
244.26	57.778
244.63	62.366
245.00	51.064
245.38	56.436
245.75	47.664
246.12	44.954
246.49	51.095
246.87	49.600
247.24	49.231
247.61	36.429
247.98	39.869
248.36	34.459
248.73	33.758
249.10	42.038
249.47	40.678
249.84	39.572
250.22	35.829
250.59	31.953
250.96	30.808
251.33	33.649
251.70	37.624
252.08	33.333
252.45	29.596
252.82	31.304
253.19	32.766
253.56	29.020
253.94	32.365
254.31	26.172
254.68	30.385
255.05	25.461
255.42	29.268
255.79	27.574
256.16	28.881
256.54	21.908
256.91	30.249
257.28	23.022
257.65	26.073
258.02	25.466
258.39	22.713
258.76	23.077
259.14	24.107
259.51	21.884
259.88	20.186
260.25	25.076
260.62	22.543
260.99	24.224
261.36	24.324
261.73	22.350
262.10	21.512
262.47	22.817
262.85	22.284
263.22	19.373
263.59	23.362
263.96	21.429
264.33	20.888
264.70	22.105
265.07	23.018
265.44	20.707
265.81	18.735
266.18	21.357
266.55	20.732
266.92	20.147
267.29	20.602
267.66	20.183
268.03	19.091
268.40	19.159
268.77	15.990
269.14	18.018
269.51	18.059
269.88	19.347
270.25	18.510
270.62	20.225
270.99	20.000
271.36	22.318
271.73	18.224
272.10	19.565
272.47	19.355
272.84	20.779
273.21	21.593
273.58	16.376
273.95	18.239
274.32	18.182
274.69	18.844
275.06	17.323
275.43	20.000
275.80	16.433
276.17	18.126
276.54	16.216
276.91	18.775
277.28	16.602
277.65	19.729
278.02	18.219
278.39	18.555
278.76	15.455
279.13	20.189
279.50	17.877
279.87	15.538
280.23	17.764
280.60	18.375
280.97	18.299
281.34	17.345
281.71	16.909
282.08	16.891
282.45	16.545
282.82	16.341
283.19	13.904
283.56	17.193
283.92	16.751
284.29	16.578
284.66	15.789
285.03	15.732
285.40	16.725
285.77	14.983
286.14	15.026
286.51	16.167
286.87	16.068
287.24	16.612
287.61	16.854
287.98	17.208
288.35	16.323
288.72	16.822
289.08	16.588
289.45	16.474
289.82	13.821
290.19	15.071
290.56	16.692
290.93	13.595
291.29	15.184
291.66	14.454
292.03	17.151
292.40	16.887
292.77	13.462
293.13	15.075
293.50	13.848
293.87	14.222
294.24	13.037
294.60	13.974
294.97	14.826
295.34	14.386
295.71	14.205
296.08	11.823
296.44	15.956
296.81	14.135
297.18	14.905
297.55	12.269
297.91	13.061
298.28	15.663
298.65	14.621
299.02	13.702
299.38	14.475
299.75	10.782
300.12	12.388
300.48	13.125
300.85	12.947
301.22	13.503
301.59	12.121
301.95	12.594
302.32	14.634
302.69	12.425
303.05	11.636
303.42	11.358
303.79	12.797
304.15	10.723
304.52	11.356
304.89	12.079
305.25	11.717
305.62	13.250
305.99	12.633
306.35	12.304
306.72	11.771
307.09	12.320
307.45	12.838
307.82	12.835
308.19	12.804
308.55	12.082
308.92	11.923
309.29	11.721
309.65	11.771
310.02	11.945
310.38	12.796
310.75	11.721
311.12	11.771
311.48	11.808
311.85	11.845
312.22	12.487
312.58	12.162
312.95	13.622
313.31	11.650
313.68	11.850
314.05	14.103
314.41	12.864
314.78	10.977
315.14	11.718
315.51	11.843
315.87	13.366
316.24	12.214
316.61	12.476
316.97	12.720
317.34	11.252
317.70	12.524
318.07	13.571
318.43	13.014
318.80	13.777
319.16	13.277
319.53	11.914
319.89	12.857
320.26	14.300
320.62	13.095
320.99	11.919
321.35	13.434
321.72	13.142
322.08	15.104
322.45	15.622
322.81	13.760
323.18	14.258
323.54	14.193
323.91	15.189
324.27	14.054
324.64	12.675
325.00	13.526
325.37	14.377
325.73	14.811
326.10	13.680
326.46	13.441
326.83	15.531
327.19	14.944
327.56	13.763
327.92	14.348
328.29	14.463
328.65	15.009
329.01	15.794
329.38	15.634
329.74	14.958
330.11	15.080
330.47	14.968
330.84	15.349
331.20	15.483
331.56	16.055
331.93	15.093
332.29	15.528
332.66	15.398
333.02	16.088
333.38	14.544
333.75	15.775
334.11	16.459
334.48	15.528
334.84	15.257
335.20	16.545
335.57	15.050
335.93	14.643
336.29	15.751
336.66	15.690
337.02	14.299
337.38	14.815
337.75	15.062
338.11	14.145
338.47	15.285
338.84	15.399
339.20	13.578
339.56	17.792
339.93	14.455
340.29	15.580
340.65	15.330
341.02	16.056
341.38	15.480
341.74	14.386
342.11	15.197
342.47	14.890
342.83	15.068
343.20	15.931
343.56	14.153
343.92	16.316
344.28	14.711
344.65	15.305
345.01	14.226
345.37	13.636
345.73	15.651
346.10	15.175
346.46	14.576
346.82	15.404
347.19	14.620
347.55	15.025
347.91	14.644
348.27	15.283
348.63	15.301
349.00	14.482
349.36	14.943
349.72	13.953
350.08	15.235
350.45	14.727
350.81	13.891
351.17	15.235
351.53	14.906
351.89	14.686
352.26	15.154
352.62	14.755
352.98	14.506
353.34	14.297
353.70	13.748
354.07	14.113
354.43	13.889
354.79	13.998
355.15	14.765
355.51	15.188
355.87	14.367
356.24	16.205
356.60	13.793
356.96	15.366
357.32	13.982
357.68	14.567
358.04	14.331
358.40	15.281
358.77	14.632
359.13	13.654
359.49	15.216
359.85	13.651
360.21	13.636
360.57	14.553
360.93	15.846
361.29	15.042
361.66	14.551
362.02	14.925
362.38	15.361
362.74	14.360
363.10	13.990
363.46	14.087
363.82	14.437
364.18	15.198
364.54	14.636
364.90	15.297
365.26	14.632
365.62	14.171
365.98	15.047
366.35	14.398
366.71	13.883
367.07	14.639
367.43	15.167
367.79	13.847
368.15	15.086
368.51	13.517
368.87	14.490
369.23	13.972
369.59	15.351
369.95	13.971
370.31	14.957
370.67	14.348
371.03	15.056
371.39	14.577
371.75	14.338
372.11	14.011
372.47	14.736
372.83	15.634
373.19	14.451
373.55	14.634
373.91	16.127
374.27	15.258
374.63	13.673
374.99	15.960
375.35	13.538
375.71	13.777
376.07	14.609
376.42	14.993
376.78	15.242
377.14	15.061
377.50	15.364
377.86	14.295
378.22	15.360
378.58	14.098
378.94	14.959
379.30	14.567
379.66	14.404
380.02	15.049
380.38	14.268
380.74	14.706
381.09	15.526
381.45	16.042
381.81	15.295
382.17	15.350
382.53	15.472
382.89	15.185
383.25	14.822
383.61	15.366
383.97	15.322
384.32	15.097
384.68	14.312
385.04	15.673
385.40	14.613
385.76	15.356
386.12	14.961
386.48	15.544
386.83	15.587
387.19	15.708
387.55	15.646
387.91	15.357
388.27	14.899
388.62	15.489
388.98	15.786
389.34	16.145
389.70	15.512
390.06	16.286
390.42	16.213
390.77	15.840
391.13	15.380
391.49	15.926
391.85	16.232
392.20	14.700
392.56	15.152
392.92	15.892
393.28	15.385
393.64	15.887
393.99	16.066
394.35	15.757
394.71	14.994
395.07	15.452
395.42	15.266
395.78	15.903
396.14	16.884
396.50	16.541
396.85	16.529
397.21	14.797
397.57	15.933
397.92	16.647
398.28	14.966
398.64	16.129
399.00	15.333
399.35	15.172
399.71	15.799
400.07	16.558
400.42	16.319
400.78	15.802
401.14	15.915
401.49	16.060
401.85	15.668
402.21	16.168
402.57	15.793
402.92	15.826
403.28	16.490
403.63	17.017
403.99	15.096
404.35	15.758
404.70	16.187
405.06	16.075
405.42	16.344
405.77	16.114
406.13	16.761
406.49	16.558
406.84	16.480
407.20	15.544
407.55	16.082
407.91	16.867
408.27	16.146
408.62	16.616
408.98	16.054
409.34	16.605
409.69	16.903
410.05	16.729
410.40	16.942
410.76	16.010
411.11	16.285
411.47	15.974
411.83	16.188
412.18	17.378
412.54	16.874
412.89	17.349
413.25	17.414
413.60	16.553
413.96	16.272
414.31	16.221
414.67	18.314
415.03	16.689
415.38	17.719
415.74	17.685
416.09	16.982
416.45	17.001
416.80	18.110
417.16	18.164
417.51	17.983
417.87	17.341
418.22	17.981
418.58	18.205
418.93	16.953
419.29	17.505
419.64	18.388
420.00	18.049
420.35	17.565
420.71	18.231
421.06	18.079
421.42	17.193
421.77	17.881
422.12	16.676
422.48	16.136
422.83	17.472
423.19	18.343
423.54	18.166
423.90	18.203
424.25	17.755
424.61	17.798
424.96	18.950
425.31	17.996
425.67	18.202
426.02	18.000
426.38	18.864
426.73	18.724
427.09	18.176
427.44	17.999
427.79	18.114
428.15	18.869
428.50	18.666
428.85	18.653
429.21	18.167
429.56	18.559
429.92	17.715
430.27	17.825
430.62	17.153
430.98	18.059
431.33	18.608
431.68	17.487
432.04	18.530
432.39	18.561
432.74	19.390
433.10	19.242
433.45	19.475
433.80	18.237
434.16	19.017
434.51	18.526
434.86	18.814
435.22	18.733
435.57	19.453
435.92	18.432
436.28	19.336
436.63	20.695
436.98	18.603
437.34	19.320
437.69	19.778
438.04	18.943
438.39	18.507
438.75	19.233
439.10	19.497
439.45	18.595
439.81	19.094
440.16	19.311
440.51	19.215
440.86	19.166
441.22	18.743
441.57	18.684
441.92	19.140
442.27	18.837
442.63	18.483
442.98	19.662
443.33	18.967
443.68	18.947
444.03	19.571
444.39	18.598
444.74	18.885
445.09	19.191
445.44	19.628
445.79	18.902
446.15	19.481
446.50	19.548
446.85	19.424
447.20	18.970
447.55	19.430
447.91	19.195
448.26	19.588
448.61	19.446
448.96	19.269
449.31	19.798
449.66	19.752
450.02	19.164
450.37	18.651
450.72	18.895
451.07	19.074
451.42	18.723
451.77	19.143
452.12	19.630
452.47	19.279
452.83	18.648
453.18	19.377
453.53	19.666
453.88	19.846
454.23	20.024
454.58	19.503
454.93	21.170
455.28	19.514
455.63	19.175
455.98	21.012
456.34	19.912
456.69	19.349
457.04	19.628
457.39	20.164
457.74	19.211
458.09	19.149
458.44	19.156
458.79	19.143
459.14	18.623
459.49	19.965
459.84	19.058
460.19	18.680
460.54	19.213
460.89	19.473
461.24	19.429
461.59	20.046
461.94	19.236
462.29	19.644
462.64	19.017
462.99	20.429
463.34	19.800
463.69	19.387
464.04	19.362
464.39	19.246
464.74	19.311
465.09	19.602
465.44	18.283
465.79	19.016
466.14	18.774
466.49	18.743
466.84	19.323
467.19	18.467
467.54	19.938
467.89	19.808
468.24	19.953
468.59	20.269
468.94	18.754
469.29	20.180
469.64	20.281
469.99	20.365
470.34	19.749
470.68	20.115
471.03	19.252
471.38	20.848
471.73	20.053
472.08	19.408
472.43	19.661
472.78	19.092
473.13	19.641
473.48	18.602
473.83	19.939
474.17	19.726
474.52	19.355
474.87	19.556
475.22	18.688
475.57	18.538
475.92	18.269
476.27	19.786
476.61	19.029
476.96	19.186
477.31	17.792
477.66	18.709
478.01	18.400
478.36	19.038
478.70	18.224
479.05	18.264
479.40	19.294
479.75	18.709
480.10	17.992
480.45	18.325
480.79	17.917
481.14	18.933
481.49	18.272
481.84	18.107
482.19	19.037
482.53	17.844
482.88	18.334
483.23	18.645
483.58	18.198
483.92	18.744
484.27	17.342
484.62	18.578
484.97	17.659
485.31	17.911
485.66	16.273
486.01	15.862
486.36	15.340
486.70	15.392
487.05	16.328
487.40	16.675
487.75	16.594
488.09	17.349
488.44	17.779
488.79	18.228
489.13	17.685
489.48	17.741
489.83	18.256
490.17	18.194
490.52	17.050
490.87	18.408
491.22	17.144
491.56	17.267
491.91	18.055
492.26	17.271
492.60	17.788
492.95	17.680
493.30	17.664
493.64	18.199
493.99	17.363
494.34	17.808
494.68	18.269
495.03	18.327
495.37	18.520
495.72	18.226
496.07	18.422
496.41	17.168
496.76	18.074
497.11	17.785
497.45	17.932
497.80	17.658
498.14	17.536
498.49	17.951
498.84	18.408
499.18	17.190
499.53	18.281
499.87	18.034
500.22	17.569
500.56	18.738
500.91	17.548
501.26	17.734
501.60	17.940
501.95	17.965
502.29	17.760
502.64	17.737
502.98	17.251
503.33	16.910
503.67	17.680
504.02	16.511
504.36	17.361
504.71	18.075
505.06	17.783
505.40	18.522
505.75	17.213
506.09	17.347
506.44	17.859
506.78	18.558
507.13	18.324
507.47	18.788
507.82	18.693
508.16	18.288
508.51	17.757
508.85	17.776
509.19	17.959
509.54	17.908
509.88	18.187
510.23	18.098
510.57	19.917
510.92	18.177
511.26	17.677
511.61	18.724
511.95	17.850
512.30	17.497
512.64	17.947
512.98	18.703
513.33	17.505
513.67	17.983
514.02	18.128
514.36	18.296
514.70	18.318
515.05	17.791
515.39	18.340
515.74	18.356
516.08	19.396
516.42	18.812
516.77	18.841
517.11	17.703
517.46	18.454
517.80	19.570
518.14	18.413
518.49	19.428
518.83	19.716
519.17	18.476
519.52	19.015
519.86	18.140
520.20	18.844
520.55	18.791
520.89	19.526
521.23	19.723
521.58	18.127
521.92	19.535
522.26	18.365
522.61	18.941
522.95	17.986
523.29	19.416
523.64	18.841
523.98	19.039
524.32	18.516
524.66	19.302
525.01	19.179
525.35	19.083
525.69	18.288
526.04	19.065
526.38	19.341
526.72	19.141
527.06	19.272
527.41	18.379
527.75	19.228
528.09	18.754
528.43	19.630
528.78	19.607
529.12	18.667
529.46	18.800
529.80	19.864
530.15	19.938
530.49	18.646
530.83	19.241
531.17	19.648
531.51	19.326
531.86	19.484
532.20	19.622
532.54	18.578
532.88	19.320
533.22	18.551
533.57	19.321
533.91	18.182
534.25	19.077
534.59	19.402
534.93	18.144
535.27	18.709
535.62	19.048
535.96	19.711
536.30	18.436
536.64	19.189
536.98	19.907
537.32	19.289
537.66	19.400
538.01	19.487
538.35	19.780
538.69	19.400
539.03	18.908
539.37	18.850
539.71	17.758
540.05	18.824
540.39	18.140
540.73	18.758
541.07	19.273
541.42	19.113
541.76	19.613
542.10	20.246
542.44	18.742
542.78	19.236
543.12	18.874
543.46	18.623
543.80	18.998
544.14	17.779
544.48	19.556
544.82	18.602
545.16	19.193
545.50	18.702
545.84	18.683
546.18	18.855
546.52	18.926
546.86	18.625
547.20	19.353
547.54	19.706
547.88	19.643
548.22	18.244
548.56	19.182
548.90	18.438
549.24	18.114
549.58	18.759
549.92	18.544
550.26	19.531
550.60	19.018
550.94	18.310
551.28	18.873
551.62	18.692
551.96	18.386
552.30	19.659
552.64	18.932
552.98	19.119
553.32	20.162
553.66	19.427
554.00	19.080
554.34	18.634
554.68	20.458
555.02	19.252
555.36	18.580
555.69	17.591
556.03	18.708
556.37	19.031
556.71	18.895
557.05	19.328
557.39	19.384
557.73	19.125
558.07	19.579
558.41	18.524
558.75	18.883
559.08	19.687
559.42	18.670
559.76	19.412
560.10	18.772
560.44	19.427
560.78	18.563
561.12	19.195
561.45	18.188
561.79	18.260
562.13	17.237
562.47	19.672
562.81	19.526
563.15	18.662
563.48	18.767
563.82	18.069
564.16	17.855
564.50	17.839
564.84	17.636
565.17	18.597
565.51	18.466
565.85	18.338
566.19	16.969
566.52	16.783
566.86	16.938
567.20	18.219
567.54	16.267
567.88	16.295
568.21	17.354
568.55	16.734
568.89	16.196
569.23	16.043
569.56	15.466
569.90	15.358
570.24	14.460
570.57	14.587
570.91	14.350
571.25	14.670
571.59	14.698
571.92	14.401
572.26	14.385
572.60	14.444
572.93	14.483
573.27	14.729
573.61	14.377
573.95	14.367
574.28	14.221
574.62	13.703
574.96	13.644
575.29	13.894
575.63	13.821
575.97	13.538
576.30	13.834
576.64	14.001
576.98	13.709
577.31	13.586
577.65	13.377
577.98	13.189
578.32	13.165
578.66	13.480
578.99	13.718
579.33	13.871
579.67	13.938
580.00	13.546
580.34	13.384
580.67	13.756
581.01	13.627
581.35	13.357
581.68	13.204
582.02	12.734
582.35	12.911
582.69	13.114
583.02	13.141
583.36	13.512
583.70	14.011
584.03	14.054
584.37	14.387
584.70	14.237
585.04	13.503
585.37	13.653
585.71	13.675
586.04	13.723
586.38	14.185
586.72	14.637
587.05	13.583
587.39	13.219
587.72	13.708
588.06	14.007
588.39	14.129
588.73	14.286
589.06	14.428
589.40	14.276
589.73	14.537
590.07	14.270
590.40	14.651
590.73	15.301
591.07	15.547
591.40	15.141
591.74	15.281
592.07	14.878
592.41	14.882
592.74	14.607
593.08	14.257
593.41	14.141
593.75	13.460
594.08	14.180
594.41	14.104
594.75	14.603
595.08	14.245
595.42	14.431
595.75	14.174
596.09	15.133
596.42	15.167
596.75	15.323
597.09	15.498
597.42	14.966
597.75	15.093
598.09	15.391
598.42	14.734
598.76	14.795
599.09	13.835
599.42	14.083
599.76	14.641
600.09	13.588
600.42	13.879
600.76	13.679
601.09	13.770
601.42	14.079
601.76	14.497
602.09	13.794
602.42	15.088
602.76	14.913
603.09	14.359
603.42	14.447
603.76	14.520
604.09	13.920
604.42	14.594
604.76	15.226
605.09	14.373
605.42	14.451
605.75	14.114
606.09	14.437
606.42	14.467
606.75	14.890
607.09	14.609
607.42	14.249
607.75	13.797
608.08	14.546
608.42	14.836
608.75	14.923
609.08	14.524
609.41	15.326
609.75	15.007
610.08	15.410
610.41	14.991
610.74	15.137
611.07	15.020
611.41	14.868
611.74	15.988
612.07	15.476
612.40	15.268
612.73	15.368
613.07	15.571
613.40	15.271
613.73	15.312
614.06	14.946
614.39	15.312
614.72	15.368
615.06	16.334
615.39	14.278
615.72	15.082
616.05	14.620
616.38	15.231
616.71	15.024
617.05	15.960
617.38	15.093
617.71	15.736
618.04	16.707
618.37	15.494
618.70	16.677
619.03	16.579
619.36	15.682
619.69	16.901
620.03	15.453
620.36	16.711
620.69	17.260
621.02	16.445
621.35	17.698
621.68	17.679
622.01	16.563
622.34	17.852
622.67	17.567
623.00	16.654
623.33	16.226
623.66	17.655
623.99	16.863
624.32	16.833
624.65	15.890
624.99	16.147
625.32	15.568
625.65	17.355
625.98	17.294
626.31	17.107
626.64	17.633
626.97	18.121
627.30	16.542
627.63	17.473
627.96	17.662
628.29	18.110
628.62	18.664
628.95	20.094
629.28	17.609
629.61	19.707
629.94	17.905
630.26	17.541
630.59	18.017
630.92	18.582
631.25	18.263
631.58	19.219
631.91	18.864
632.24	19.620
632.57	18.678
632.90	20.395
633.23	20.022
633.56	20.000
633.89	19.366
634.22	19.183
634.55	21.183
634.88	18.922
635.20	20.550
635.53	19.759
635.86	19.926
636.19	19.059
636.52	18.108
636.85	18.442
637.18	19.124
637.51	21.158
637.83	17.139
638.16	21.355
638.49	21.033
638.82	21.239
639.15	20.125
639.48	21.571
639.81	21.582
640.13	19.922
640.46	21.745
640.79	21.268
641.12	20.358
641.45	19.832
641.77	21.502
642.10	22.953
642.43	20.721
642.76	24.458
643.09	21.779
643.41	22.155
643.74	24.383
644.07	21.646
644.40	23.466
644.73	22.992
645.05	24.564
645.38	23.065
645.71	19.485
646.04	21.595
646.36	22.871
646.69	24.415
647.02	22.109
647.35	22.852
647.67	24.779
648.00	23.577
648.33	21.782
648.66	21.061
648.98	22.639
649.31	18.834
649.64	20.777
649.96	22.504
650.29	22.591
650.62	21.359
650.94	23.339
651.27	23.142
651.60	23.627
651.92	21.406
652.25	20.847
652.58	21.495
652.90	22.275
653.23	21.263
653.56	20.157
653.88	22.187
654.21	23.223
654.54	21.122
654.86	20.717
655.19	18.919
655.52	12.134
655.84	8.794
656.17	11.047
656.49	15.104
656.82	16.041
657.15	12.466
657.47	9.386
657.80	7.566
658.13	7.900
658.45	12.025
658.78	12.541
659.10	13.293
659.43	14.295
659.75	15.319
660.08	16.709
660.41	19.181
660.73	22.109
661.06	19.427
661.38	24.364
661.71	24.038
662.03	24.260
662.36	24.056
662.68	25.100
663.01	25.253
663.33	24.841
663.66	23.319
663.98	23.326
664.31	22.689
664.63	22.874
664.96	21.932
665.28	25.820
665.61	22.027
665.93	21.730
666.26	22.718
666.58	24.686
666.91	27.696
667.23	26.966
667.56	25.702
667.88	25.855
668.21	26.866
668.53	24.078
668.86	25.325
669.18	24.307
669.50	25.217
669.83	27.669
670.15	22.444
670.48	25.926
670.80	24.569
671.13	25.690
671.45	25.106
671.77	23.829
672.10	22.366
672.42	22.968
672.75	20.564
673.07	20.246
673.39	22.604
673.72	21.875
674.04	20.980
674.37	23.883
674.69	22.495
675.01	22.594
675.34	27.721
675.66	25.895
675.98	26.273
676.31	27.101
676.63	27.176
676.95	23.690
677.28	24.533
677.60	25.055
677.92	25.316
678.25	23.203
678.57	24.502
678.89	23.848
679.22	21.022
679.54	24.427
679.86	24.587
680.18	21.467
680.51	21.277
680.83	21.174
681.15	23.208
681.48	23.440
681.80	23.211
682.12	20.498
682.44	19.729
682.77	24.644
683.09	24.893
683.41	25.055
683.73	25.166
684.06	23.347
684.38	23.875
684.70	22.674
685.02	23.265
685.34	20.879
685.67	20.105
685.99	18.557
686.31	20.990
686.63	20.495
686.96	21.964
687.28	21.119
687.60	20.109
687.92	24.314
688.24	23.194
688.56	24.900
688.89	24.274
689.21	24.891
689.53	22.965
689.85	26.386
690.17	21.739
690.49	25.265
690.82	22.897
691.14	22.321
691.46	21.941
691.78	22.490
692.10	24.793
692.42	21.357
692.74	22.407
693.06	25.319
693.39	22.382
693.71	20.961
694.03	24.421
694.35	23.810
694.67	21.281
694.99	23.902
695.31	23.775
695.63	27.751
695.95	23.472
696.27	22.589
696.59	29.275
696.91	26.943
697.23	23.005
697.56	21.962
697.88	20.654
698.20	22.917
698.52	22.796
698.84	25.167
699.16	22.120
699.48	24.703
699.80	24.879
700.12	27.273
700.44	25.729
700.76	27.901
701.08	30.460
701.40	25.140
701.72	30.612
702.04	30.682
702.36	24.929
702.68	26.629
703.00	28.532
703.32	25.798
703.64	24.665
703.96	26.741
704.28	24.709
704.60	27.273
704.91	30.267
705.23	24.927
705.55	28.904
705.87	30.897
706.19	28.269
706.51	30.218
706.83	30.909
707.15	29.412
707.47	25.253
707.79	25.307
708.11	21.918
708.43	23.810
708.74	21.684
709.06	24.156
709.38	27.559
709.70	27.326
710.02	27.300
710.34	25.152
710.66	29.552
710.98	27.273
711.29	27.616
711.61	31.563
711.93	27.885
712.25	29.904
712.57	29.779
712.89	25.606
713.20	29.483
713.52	29.934
713.84	25.633
714.16	26.220
714.48	25.862
714.80	29.483
715.11	27.666
715.43	24.926
715.75	27.826
716.07	28.754
716.39	29.467
716.70	28.904
717.02	29.856
717.34	27.915
717.66	32.090
717.97	35.458
718.29	31.852
718.61	31.387
718.93	30.515
719.24	30.450
719.56	27.119
719.88	30.508
720.20	32.432
720.51	27.875
720.83	31.227
721.15	30.224
721.46	29.787
721.78	30.108
722.10	35.472
722.42	29.699
722.73	31.461
723.05	32.377
723.37	27.530
723.68	31.660
724.00	29.675
724.32	29.435
724.63	30.894
724.95	31.799
725.27	29.555
725.58	33.984
725.90	28.832
726.22	32.075
726.53	30.208
726.85	27.304
727.16	30.961
727.48	27.660
727.80	29.545
728.11	28.261
728.43	31.538
728.74	31.183
729.06	31.022
729.38	34.191
729.69	30.249
730.01	24.232
730.32	28.472
730.64	28.428
730.96	27.063
731.27	31.457
731.59	30.275
731.90	27.988
732.22	23.602
732.53	26.006
732.85	28.846
733.16	23.473
733.48	28.904
733.80	26.299
734.11	28.025
734.43	25.444
734.74	23.714
735.06	23.209
735.37	29.191
735.69	28.981
736.00	30.719
736.32	30.530
736.63	26.837
736.95	24.281
737.26	21.769
737.58	23.548
737.89	27.759
738.21	27.645
738.52	25.000
738.83	27.547
739.15	30.000
739.46	30.657
739.78	28.125
740.09	25.846
740.41	24.194
740.72	27.178
741.04	27.407
741.35	29.583
741.66	39.111
741.98	30.189
742.29	39.713
742.61	37.931
742.92	34.842
743.23	32.906
743.55	36.000
743.86	33.333
744.18	38.938
744.49	34.450
744.80	39.437
745.12	33.182
745.43	33.921
745.74	37.838
746.06	37.156
746.37	35.874
746.68	36.199
747.00	34.722
747.31	33.810
747.62	30.088
747.94	34.361
748.25	31.064
748.56	33.040
748.88	35.644
749.19	38.500
749.50	30.698
749.82	32.520
750.13	30.204
750.44	27.007
750.75	27.719
751.07	29.260
751.38	28.920
751.69	31.047
752.01	27.068
752.32	25.993
752.63	30.496
752.94	29.508
753.26	31.200
753.57	22.764
753.88	33.203
754.19	24.643
754.51	34.028
754.82	27.798
755.13	34.340
755.44	28.195
755.75	29.927
756.07	28.723
756.38	25.182
756.69	27.517
757.00	25.749
757.31	24.332
757.63	23.684
757.94	24.397
758.25	22.304
758.56	23.210
758.87	22.849
759.18	27.576
759.50	25.078
759.81	29.283
760.12	25.000
760.43	26.361
760.74	22.011
761.05	22.599
761.36	23.797
761.67	23.011
761.99	23.292
762.30	29.167
762.61	29.771
762.92	33.984
763.23	28.992
763.54	33.600
763.85	26.953
764.16	33.846
764.47	26.616
764.78	28.622
765.10	22.785
765.41	21.829
765.72	27.844
766.03	28.213
766.34	24.000
766.65	32.340
766.96	29.060
767.27	38.579
767.58	35.417
767.89	43.158
768.20	37.356
768.51	35.533
768.82	34.404
769.13	28.455
769.44	28.745
769.75	33.476
770.06	24.771
770.37	31.674
770.68	36.574
770.99	32.889
771.30	27.049
771.61	33.632
771.92	32.787
772.23	38.655
772.54	33.333
772.85	38.220
773.16	43.085
773.47	39.130
773.78	40.102
774.09	36.310
774.39	42.105
774.70	39.506
775.01	50.725
775.32	46.405
775.63	50.658
775.94	39.568
776.25	49.606
776.56	48.507
776.87	48.361
777.18	43.750
777.48	54.962
777.79	47.727
778.10	55.556
778.41	50.893
778.72	38.686
779.03	44.966
779.34	39.597
779.65	42.568
779.95	37.423
780.26	41.830
780.57	47.586
780.88	64.062
781.19	45.113
781.50	47.297
781.80	38.365
782.11	38.983
782.42	35.443
782.73	41.718
783.04	46.622
783.34	42.254
783.65	49.315
783.96	50.746
784.27	46.154
784.57	33.813
784.88	42.593
785.19	53.968
785.50	58.491
785.81	47.761
786.11	55.738
786.42	54.264
786.73	49.558
787.04	59.434
787.34	56.250
787.65	57.000
787.96	58.559
788.26	48.760
788.57	59.322
788.88	48.760
789.19	46.528
789.49	54.545
789.80	51.145
790.11	68.571
790.41	74.257
790.72	60.241
791.03	57.609
791.33	62.791
791.64	60.825
791.95	71.287
792.25	74.444
792.56	87.013
792.87	78.205
793.17	92.405
793.48	78.161
793.79	68.966
794.09	67.045
794.40	52.101
794.70	50.000
795.01	41.481
795.32	43.885
795.62	44.094
795.93	56.897
796.23	56.637
796.54	70.588
796.85	63.514
797.15	94.366
797.46	81.818
797.76	86.747
798.07	69.620
798.37	76.923
798.68	66.667
798.99	69.014
799.29	89.610
799.60	61.364
799.90	89.041
800.21	98.507
800.51	87.931
800.82	105.263
801.12	88.525
801.43	86.364
801.73	75.676
802.04	80.952
802.34	80.247
802.65	89.062
802.95	86.441
803.26	90.625
803.56	71.429
803.87	87.692
804.17	83.824
804.48	98.148
804.78	96.552
805.09	83.824
805.39	98.077
805.70	76.786
806.00	95.082
806.30	75.758
806.61	90.244
806.91	56.962
807.22	64.474
807.52	76.119
807.83	78.873
808.13	82.813
808.43	93.333
808.74	65.789
809.04	104.348
809.35	89.552
809.65	77.632
809.95	101.613
810.26	93.220
810.56	87.302
810.86	127.273
811.17	135.714
811.47	105.000
811.77	114.815
812.08	101.818
812.38	112.000
812.69	136.111
812.99	143.182
813.29	116.327
813.59	80.952
813.90	132.653
814.20	96.364
814.50	70.769
814.81	89.706
815.11	104.082
815.41	91.803
815.72	150.000
816.02	134.545
816.32	133.333
816.62	140.000
816.93	124.390
817.23	126.190
817.53	125.000
817.84	145.455
818.14	110.870
818.44	133.333
818.74	158.824
819.04	122.500
819.35	148.571
819.65	170.588
819.95	185.714
820.25	245.000
820.56	174.359
820.86	145.455
821.16	127.907
821.46	117.949
821.76	142.000
822.07	125.714
822.37	147.500
822.67	154.545
822.97	107.843
823.27	207.143
823.57	154.054
823.88	182.500
824.18	156.667
824.48	138.095
824.78	208.000
825.08	170.833
825.38	148.649
825.69	134.146
825.99	220.833
826.29	172.414
826.59	155.263
826.89	118.421
827.19	155.882
827.49	187.097
827.79	125.000
828.09	127.273
828.39	125.532
828.70	126.531
829.00	181.481
829.30	151.613
829.60	150.000
829.90	246.667
830.20	175.000
830.50	208.696
830.80	239.130
831.10	213.333
831.40	166.667
831.70	208.696
832.00	246.154
832.30	203.704
832.60	293.750
832.90	220.000
833.20	450.000
833.50	187.097
833.80	193.103
834.10	175.000
834.40	223.077
834.70	294.444
835.00	314.286
835.30	168.571
835.60	261.538
835.90	213.793
836.20	350.000
836.50	203.448
836.80	184.000
837.10	191.667
837.40	252.381
837.70	335.294
838.00	229.630
838.30	276.190
838.60	319.048
838.90	269.231
839.19	240.000
839.49	335.714
839.79	310.000
840.09	275.000
840.39	280.952
840.69	269.565
840.99	300.000
841.29	440.000
841.59	300.000
841.88	318.750
842.18	186.207
842.48	271.429
842.78	163.333
843.08	221.739
843.38	175.000
843.68	733.333
843.97	207.692
844.27	203.448
844.57	247.619
844.87	343.750
845.17	222.222
845.47	1333.333
845.76	411.111
846.06	317.647
846.36	462.500
846.66	321.429
846.96	312.500
847.25	409.091
847.55	390.909
847.85	256.522
848.15	570.000
848.44	350.000
848.74	277.778
849.04	264.706
849.34	480.000
849.63	194.737
849.93	445.455
850.23	1080.000
850.53	414.286
850.82	1750.000
851.12	-4300.000
851.42	5100.000
851.71	280.000
852.01	-1500.000
852.31	266.667
852.61	1700.000
852.90	285.714
853.20	232.000
853.50	270.588
853.79	247.619
854.09	233.333
854.39	343.750
854.68	181.081
854.98	196.774
855.28	180.000
855.57	200.000
855.87	200.000
856.17	257.895
856.46	253.333
856.76	264.706
857.05	200.000
857.35	204.167
857.65	353.333
857.94	217.391
858.24	257.692
858.53	285.000
858.83	236.364
859.13	373.333
859.42	0.000
859.72	588.889
860.01	490.909
860.31	300.000
860.60	268.421
860.90	234.783
861.20	544.444
861.49	516.667
861.79	-4700.000
862.08	712.500
862.38	328.571
862.67	284.615
862.97	388.235
863.26	533.333
863.56	322.222
863.85	508.333
864.15	525.000
864.44	320.000
864.74	833.333
865.03	650.000
865.33	294.737
865.62	436.364
865.92	446.154
866.21	416.667
866.51	0.000
866.80	427.273
867.10	1220.000
867.39	361.538
867.69	472.727
867.98	252.632
868.27	481.818
868.57	331.579
868.86	-4500.000
869.16	331.250
869.45	2450.000
869.75	-4100.000
870.04	408.333
870.33	771.429
870.63	1125.000
870.92	3050.000
871.22	700.000
871.51	329.412
871.80	219.048
872.10	450.000
>>>>>End Processed Spectral Data<<<<<
