SpectraSuite Data File
++++++++++++++++++++++++++++++++++++
Date: Wed May 13 19:51:26 PDT 2015
User: schluterlab
Dark Spectrum Present: Yes
Reference Spectrum Present: Yes
Number of Sampled Component Spectra: 1
Spectrometers: USB2E3373
Integration Time (usec): 3000 (USB2E3373)
Spectra Averaged: 3 (USB2E3373)
Boxcar Smoothing: 0 (USB2E3373)
Correct for Electrical Dark: No (USB2E3373)
Strobe/Lamp Enabled: No (USB2E3373)
Correct for Detector Non-linearity: No (USB2E3373)
Correct for Stray Light: No (USB2E3373)
Number of Pixels in Processed Spectrum: 2048
>>>>>Begin Processed Spectral Data<<<<<
178.53	0.000
178.91	-1375.000
179.29	-1275.000
179.67	-283.333
180.04	-1250.000
180.42	2950.000
180.80	1120.000
181.18	-1300.000
181.56	728.571
181.94	0.000
182.31	-700.000
182.69	1833.333
183.07	-637.500
183.45	-455.556
183.83	609.091
184.20	-470.000
184.58	2600.000
184.96	5300.000
185.34	-980.000
185.72	-812.500
186.09	-2650.000
186.47	2800.000
186.85	2550.000
187.23	5800.000
187.61	-2000.000
187.98	1525.000
188.36	563.636
188.74	518.182
189.12	-860.000
189.49	650.000
189.87	-5900.000
190.25	-1250.000
190.63	464.286
191.00	546.154
191.38	900.000
191.76	-1400.000
192.14	1500.000
192.51	775.000
192.89	983.333
193.27	750.000
193.65	-1150.000
194.02	480.000
194.40	940.000
194.78	640.000
195.15	550.000
195.53	670.000
195.91	-2050.000
196.29	387.500
196.66	357.895
197.04	-480.000
197.42	0.000
197.79	680.000
198.17	-4700.000
198.55	742.857
198.92	625.000
199.30	1020.000
199.68	0.000
200.05	394.444
200.43	857.143
200.81	4600.000
201.18	1733.333
201.56	-1533.333
201.94	633.333
202.31	644.444
202.69	500.000
203.07	620.000
203.44	0.000
203.82	1225.000
204.19	871.429
204.57	464.286
204.95	675.000
205.32	1766.667
205.70	536.364
206.08	414.286
206.45	3050.000
206.83	375.000
207.20	1066.667
207.58	640.000
207.96	344.444
208.33	787.500
208.71	-1000.000
209.08	742.857
209.46	600.000
209.84	572.727
210.21	-1833.333
210.59	1575.000
210.96	-575.000
211.34	3050.000
211.71	590.000
212.09	833.333
212.46	0.000
212.84	1766.667
213.22	1325.000
213.59	-5000.000
213.97	850.000
214.34	842.857
214.72	581.818
215.09	1160.000
215.47	-2250.000
215.84	-2600.000
216.22	1633.333
216.59	421.429
216.97	1400.000
217.34	472.727
217.72	-966.667
218.09	0.000
218.47	-5200.000
218.84	655.556
219.22	757.143
219.59	2000.000
219.97	-585.714
220.34	1200.000
220.72	-1866.667
221.09	407.143
221.47	1500.000
221.84	-966.667
222.22	0.000
222.59	1450.000
222.97	-2850.000
223.34	920.000
223.72	453.846
224.09	1160.000
224.46	2150.000
224.84	-5300.000
225.21	-920.000
225.59	-5900.000
225.96	640.000
226.34	330.000
226.71	3050.000
227.08	737.500
227.46	650.000
227.83	-1200.000
228.21	-2500.000
228.58	644.444
228.95	-2750.000
229.33	-2600.000
229.70	2133.333
230.08	828.571
230.45	-1080.000
230.82	450.000
231.20	1000.000
231.57	642.857
231.95	525.000
232.32	263.636
232.69	418.182
233.07	657.143
233.44	415.385
233.81	-1900.000
234.19	342.105
234.56	400.000
234.93	466.667
235.31	600.000
235.68	346.154
236.05	471.429
236.43	193.939
236.80	289.474
237.17	5500.000
237.55	266.667
237.92	228.571
238.29	319.048
238.67	219.355
239.04	203.448
239.41	180.556
239.79	143.478
240.16	135.714
240.53	184.091
240.91	127.451
241.28	124.000
241.65	132.000
242.02	121.739
242.40	130.645
242.77	123.333
243.14	96.774
243.51	95.506
243.89	101.176
244.26	102.222
244.63	88.172
245.00	94.681
245.38	88.119
245.75	85.981
246.12	90.826
246.49	86.861
246.87	85.600
247.24	81.538
247.61	78.571
247.98	68.627
248.36	69.595
248.73	67.516
249.10	71.975
249.47	70.621
249.84	71.123
250.22	67.380
250.59	68.639
250.96	67.677
251.33	67.773
251.70	65.347
252.08	69.048
252.45	65.022
252.82	60.870
253.19	60.851
253.56	56.863
253.94	61.411
254.31	58.203
254.68	57.692
255.05	59.041
255.42	57.724
255.79	60.662
256.16	62.455
256.54	56.890
256.91	59.431
257.28	53.957
257.65	56.106
258.02	56.522
258.39	55.836
258.76	56.522
259.14	55.655
259.51	56.231
259.88	53.727
260.25	57.402
260.62	55.202
260.99	53.106
261.36	57.658
261.73	52.722
262.10	53.198
262.47	56.338
262.85	50.696
263.22	50.997
263.59	54.986
263.96	49.176
264.33	52.219
264.70	50.000
265.07	52.685
265.44	48.990
265.81	50.608
266.18	50.251
266.55	47.805
266.92	50.860
267.29	50.000
267.66	49.312
268.03	50.682
268.40	48.832
268.77	48.926
269.14	48.423
269.51	48.984
269.88	50.583
270.25	48.533
270.62	48.989
270.99	48.817
271.36	50.858
271.73	49.533
272.10	46.957
272.47	50.323
272.84	48.485
273.21	47.170
273.58	42.140
273.95	44.654
274.32	46.074
274.69	46.895
275.06	46.260
275.43	47.872
275.80	48.096
276.17	45.418
276.54	49.272
276.91	46.047
277.28	43.750
277.65	43.133
278.02	45.342
278.39	49.219
278.76	43.818
279.13	44.717
279.50	45.438
279.87	44.223
280.23	46.507
280.60	44.294
280.97	47.135
281.34	44.425
281.71	42.727
282.08	46.449
282.45	44.727
282.82	42.629
283.19	42.246
283.56	43.684
283.92	45.685
284.29	43.034
284.66	45.372
285.03	44.304
285.40	42.077
285.77	43.098
286.14	43.005
286.51	41.333
286.87	42.906
287.24	43.485
287.61	41.413
287.98	42.208
288.35	41.204
288.72	41.433
289.08	39.750
289.45	40.033
289.82	41.138
290.19	38.462
290.56	37.979
290.93	36.254
291.29	40.184
291.66	39.086
292.03	39.826
292.40	40.675
292.77	38.462
293.13	36.866
293.50	37.318
293.87	36.000
294.24	36.148
294.60	35.080
294.97	36.337
295.34	36.389
295.71	36.648
296.08	34.615
296.44	37.414
296.81	36.063
297.18	34.688
297.55	31.530
297.91	32.982
298.28	36.145
298.65	34.856
299.02	35.046
299.38	33.068
299.75	33.558
300.12	32.439
300.48	33.000
300.85	32.922
301.22	32.866
301.59	31.944
301.95	33.753
302.32	32.991
302.69	32.616
303.05	33.212
303.42	32.716
303.79	31.710
304.15	31.585
304.52	31.170
304.89	31.475
305.25	30.626
305.62	30.125
305.99	30.460
306.35	31.767
306.72	32.511
307.09	32.186
307.45	31.306
307.82	29.799
308.19	31.126
308.55	32.362
308.92	31.472
309.29	28.933
309.65	31.601
310.02	31.395
310.38	31.720
310.75	30.834
311.12	31.013
311.48	30.617
311.85	29.979
312.22	31.530
312.58	30.249
312.95	31.151
313.31	30.583
313.68	31.185
314.05	32.643
314.41	32.161
314.78	30.312
315.14	32.075
315.51	32.647
315.87	32.970
316.24	32.175
316.61	31.871
316.97	31.409
317.34	32.387
317.70	33.078
318.07	33.109
318.43	33.268
318.80	34.396
319.16	34.840
319.53	33.959
319.89	35.238
320.26	36.400
320.62	36.409
320.99	36.566
321.35	37.273
321.72	37.680
322.08	38.500
322.45	39.005
322.81	38.857
323.18	39.884
323.54	39.147
323.91	39.811
324.27	40.057
324.64	39.702
325.00	38.774
325.37	40.855
325.73	41.562
326.10	41.395
326.46	42.025
326.83	43.399
327.19	42.357
327.56	43.728
327.92	42.957
328.29	44.099
328.65	44.383
329.01	44.765
329.38	44.588
329.74	44.875
330.11	46.560
330.47	45.822
330.84	47.243
331.20	45.993
331.56	44.862
331.93	46.852
332.29	45.608
332.66	46.106
333.02	44.698
333.38	45.709
333.75	45.098
334.11	44.840
334.48	46.051
334.84	47.151
335.20	46.818
335.57	45.784
335.93	46.339
336.29	45.513
336.66	46.799
337.02	47.783
337.38	45.833
337.75	46.346
338.11	47.359
338.47	46.593
338.84	46.563
339.20	46.422
339.56	47.628
339.93	45.182
340.29	45.109
340.65	47.148
341.02	45.812
341.38	47.776
341.74	46.228
342.11	46.463
342.47	46.960
342.83	46.918
343.20	46.234
343.56	45.830
343.92	47.018
344.28	48.384
344.65	46.518
345.01	45.370
345.37	45.369
345.73	47.462
346.10	47.997
346.46	46.271
346.82	45.222
347.19	45.781
347.55	45.567
347.91	46.440
348.27	46.426
348.63	45.987
349.00	46.440
349.36	46.388
349.72	46.111
350.08	45.867
350.45	47.193
350.81	46.629
351.17	47.083
351.53	46.847
351.89	45.462
352.26	46.330
352.62	47.233
352.98	46.353
353.34	46.754
353.70	46.972
354.07	46.452
354.43	46.825
354.79	46.340
355.15	46.608
355.51	47.482
355.87	46.694
356.24	46.987
356.60	44.747
356.96	48.029
357.32	48.078
357.68	48.110
358.04	46.477
358.40	47.743
358.77	45.618
359.13	46.725
359.49	46.353
359.85	46.746
360.21	48.724
360.57	48.093
360.93	48.462
361.29	47.090
361.66	46.672
362.02	47.537
362.38	47.985
362.74	47.619
363.10	47.002
363.46	48.129
363.82	47.392
364.18	49.119
364.54	48.366
364.90	47.734
365.26	49.412
365.62	49.379
365.98	48.576
366.35	48.138
366.71	48.952
367.07	47.633
367.43	49.710
367.79	49.036
368.15	50.000
368.51	48.619
368.87	49.465
369.23	49.086
369.59	49.240
369.95	49.118
370.31	49.644
370.67	48.696
371.03	50.787
371.39	50.510
371.75	49.779
372.11	49.929
372.47	51.613
372.83	51.657
373.19	50.506
373.55	52.180
373.91	53.240
374.27	50.172
374.63	50.618
374.99	51.342
375.35	50.803
375.71	52.570
376.07	52.332
376.42	52.751
376.78	51.955
377.14	52.646
377.50	52.583
377.86	51.330
378.22	53.097
378.58	51.441
378.94	51.980
379.30	53.372
379.66	55.266
380.02	54.730
380.38	52.823
380.74	54.022
381.09	53.362
381.45	54.272
381.81	54.177
382.17	54.586
382.53	54.214
382.89	55.679
383.25	55.472
383.61	54.833
383.97	54.847
384.32	55.833
384.68	55.081
385.04	56.116
385.40	54.675
385.76	56.450
386.12	55.570
386.48	56.136
386.83	57.601
387.19	57.576
387.55	56.030
387.91	57.134
388.27	56.836
388.62	56.730
388.98	56.572
389.34	56.320
389.70	57.327
390.06	58.555
390.42	57.588
390.77	57.570
391.13	58.902
391.49	57.868
391.85	58.943
392.20	58.738
392.56	59.028
392.92	59.094
393.28	58.521
393.64	58.633
393.99	58.583
394.35	58.871
394.71	58.281
395.07	58.442
395.42	60.321
395.78	59.033
396.14	59.218
396.50	60.965
396.85	60.331
397.21	59.309
397.57	60.012
397.92	60.577
398.28	59.361
398.64	59.558
399.00	60.884
399.35	60.406
399.71	59.606
400.07	60.556
400.42	61.840
400.78	59.891
401.14	61.159
401.49	61.672
401.85	61.827
402.21	61.078
402.57	61.505
402.92	62.106
403.28	61.087
403.63	62.376
403.99	63.121
404.35	61.818
404.70	62.290
405.06	61.270
405.42	62.508
405.77	62.286
406.13	61.851
406.49	62.153
406.84	62.552
407.20	61.939
407.55	62.668
407.91	64.467
408.27	64.199
408.62	64.058
408.98	63.113
409.34	63.530
409.69	63.742
410.05	62.515
410.40	63.731
410.76	62.724
411.11	63.812
411.47	63.450
411.83	63.409
412.18	63.451
412.54	64.259
412.89	63.072
413.25	62.692
413.60	63.434
413.96	62.295
414.31	62.637
414.67	64.575
415.03	63.775
415.38	63.853
415.74	64.116
416.09	65.317
416.45	64.859
416.80	65.697
417.16	65.952
417.51	64.300
417.87	62.942
418.22	64.101
418.58	64.300
418.93	64.742
419.29	65.436
419.64	64.169
420.00	62.744
420.35	64.580
420.71	65.870
421.06	63.962
421.42	64.152
421.77	65.751
422.12	64.627
422.48	64.328
422.83	65.696
423.19	63.923
423.54	64.771
423.90	66.029
424.25	64.992
424.61	64.524
424.96	65.831
425.31	65.006
425.67	63.876
426.02	64.857
426.38	67.155
426.73	64.716
427.09	66.201
427.44	66.590
427.79	64.290
428.15	64.583
428.50	64.775
428.85	65.316
429.21	65.544
429.56	65.941
429.92	65.274
430.27	65.839
430.62	63.236
430.98	65.490
431.33	63.351
431.68	65.550
432.04	63.951
432.39	66.419
432.74	65.889
433.10	65.591
433.45	65.773
433.80	65.687
434.16	64.744
434.51	64.000
434.86	65.507
435.22	65.481
435.57	65.593
435.92	66.355
436.28	66.963
436.63	65.397
436.98	65.713
437.34	66.965
437.69	66.628
438.04	66.048
438.39	65.552
438.75	65.718
439.10	66.369
439.45	66.411
439.81	65.559
440.16	66.629
440.51	65.729
440.86	67.574
441.22	65.740
441.57	66.561
441.92	65.353
442.27	66.792
442.63	65.982
442.98	67.944
443.33	65.489
443.68	64.688
444.03	65.983
444.39	65.044
444.74	65.260
445.09	66.092
445.44	65.664
445.79	65.661
446.15	64.373
446.50	65.805
446.85	65.262
447.20	66.650
447.55	66.276
447.91	66.740
448.26	64.942
448.61	66.478
448.96	66.445
449.31	66.704
449.66	66.404
450.02	64.234
450.37	65.420
450.72	65.426
451.07	65.143
451.42	64.559
451.77	65.942
452.12	65.704
452.47	65.609
452.83	66.492
453.18	65.526
453.53	66.357
453.88	64.737
454.23	65.750
454.58	66.384
454.93	66.497
455.28	65.960
455.63	67.112
455.98	66.667
456.34	65.201
456.69	66.750
457.04	65.139
457.39	64.056
457.74	66.106
458.09	64.750
458.44	65.564
458.79	64.317
459.14	65.237
459.49	65.558
459.84	63.767
460.19	64.054
460.54	62.674
460.89	64.619
461.24	65.634
461.59	64.904
461.94	66.215
462.29	65.875
462.64	64.646
462.99	64.021
463.34	65.733
463.69	65.103
464.04	63.304
464.39	64.406
464.74	63.636
465.09	63.631
465.44	63.657
465.79	62.304
466.14	61.959
466.49	62.069
466.84	63.923
467.19	63.428
467.54	63.875
467.89	61.525
468.24	61.838
468.59	64.347
468.94	62.065
469.29	64.075
469.64	64.859
469.99	65.020
470.34	64.267
470.68	64.655
471.03	63.129
471.38	64.976
471.73	63.957
472.08	63.618
472.43	61.746
472.78	62.673
473.13	62.644
473.48	63.109
473.83	63.354
474.17	62.601
474.52	63.151
474.87	62.464
475.22	61.753
475.57	61.848
475.92	61.763
476.27	61.669
476.61	60.894
476.96	61.407
477.31	61.695
477.66	61.871
478.01	60.533
478.36	60.973
478.70	61.319
479.05	60.650
479.40	61.924
479.75	61.922
480.10	60.736
480.45	60.019
480.79	59.771
481.14	60.421
481.49	60.180
481.84	60.768
482.19	60.382
482.53	59.174
482.88	59.888
483.23	60.280
483.58	59.190
483.92	60.309
484.27	58.083
484.62	59.655
484.97	58.297
485.31	59.521
485.66	58.088
486.01	55.545
486.36	54.753
486.70	53.477
487.05	54.195
487.40	55.822
487.75	56.216
488.09	57.446
488.44	57.171
488.79	57.577
489.13	58.709
489.48	58.116
489.83	58.092
490.17	58.483
490.52	57.795
490.87	56.128
491.22	57.299
491.56	56.765
491.91	57.562
492.26	57.464
492.60	57.281
492.95	56.922
493.30	56.776
493.64	56.370
493.99	57.149
494.34	56.938
494.68	57.143
495.03	57.143
495.37	56.026
495.72	57.407
496.07	56.891
496.41	54.602
496.76	55.585
497.11	55.155
497.45	56.171
497.80	55.566
498.14	55.797
498.49	56.000
498.84	56.280
499.18	56.190
499.53	55.935
499.87	54.893
500.22	55.629
500.56	56.456
500.91	54.663
501.26	55.334
501.60	56.478
501.95	53.941
502.29	55.108
502.64	56.471
502.98	54.745
503.33	53.611
503.67	54.803
504.02	54.397
504.36	53.627
504.71	55.203
505.06	53.976
505.40	54.448
505.75	53.134
506.09	54.179
506.44	53.231
506.78	54.262
507.13	54.316
507.47	53.131
507.82	54.205
508.16	54.053
508.51	54.795
508.85	53.476
509.19	53.163
509.54	53.316
509.88	53.065
510.23	52.391
510.57	54.128
510.92	54.013
511.26	53.494
511.61	53.475
511.95	52.140
512.30	52.121
512.64	53.735
512.98	53.430
513.33	53.105
513.67	52.401
514.02	52.868
514.36	53.140
514.70	54.123
515.05	53.988
515.39	52.384
515.74	53.266
516.08	53.661
516.42	52.053
516.77	52.731
517.11	52.220
517.46	52.088
517.80	53.368
518.14	51.477
518.49	53.151
518.83	52.273
519.17	52.829
519.52	52.292
519.86	51.968
520.20	52.023
520.55	52.843
520.89	53.345
521.23	52.714
521.58	52.161
521.92	52.235
522.26	50.946
522.61	51.963
522.95	51.197
523.29	52.161
523.64	50.549
523.98	51.386
524.32	50.905
524.66	51.052
525.01	51.287
525.35	51.487
525.69	50.554
526.04	50.343
526.38	50.214
526.72	50.675
527.06	50.220
527.41	50.186
527.75	51.125
528.09	50.353
528.43	50.159
528.78	50.400
529.12	49.636
529.46	50.031
529.80	51.733
530.15	50.343
530.49	48.738
530.83	49.873
531.17	52.154
531.51	50.778
531.86	49.484
532.20	49.804
532.54	50.416
532.88	49.743
533.22	48.844
533.57	48.827
533.91	48.946
534.25	48.906
534.59	49.237
534.93	48.483
535.27	48.944
535.62	48.535
535.96	48.399
536.30	48.633
536.64	48.551
536.98	49.171
537.32	49.045
537.66	49.467
538.01	48.585
538.35	48.222
538.69	49.649
539.03	48.408
539.37	47.220
539.71	46.727
540.05	47.974
540.39	49.236
540.73	46.119
541.07	48.605
541.42	48.076
541.76	47.290
542.10	47.930
542.44	47.682
542.78	47.694
543.12	46.065
543.46	47.607
543.80	47.495
544.14	45.700
544.48	46.730
544.82	46.697
545.16	48.081
545.50	45.566
545.84	47.312
546.18	47.138
546.52	48.245
546.86	45.911
547.20	46.527
547.54	47.228
547.88	46.811
548.22	45.579
548.56	46.038
548.90	44.814
549.24	45.185
549.58	46.385
549.92	45.879
550.26	47.230
550.60	45.643
550.94	46.127
551.28	44.623
551.62	46.082
551.96	45.333
552.30	46.007
552.64	45.639
552.98	46.780
553.32	45.920
553.66	45.740
554.00	45.504
554.34	45.066
554.68	45.994
555.02	43.794
555.36	45.372
555.69	44.993
556.03	44.280
556.37	44.679
556.71	44.202
557.05	45.378
557.39	43.177
557.73	43.190
558.07	45.613
558.41	44.790
558.75	45.334
559.08	45.488
559.42	45.049
559.76	43.162
560.10	43.469
560.44	43.885
560.78	43.247
561.12	43.865
561.45	43.742
561.79	43.309
562.13	44.199
562.47	44.331
562.81	43.724
563.15	43.411
563.48	42.971
563.82	43.444
564.16	41.465
564.50	42.448
564.84	43.300
565.17	43.951
565.51	43.387
565.85	42.640
566.19	41.515
566.52	44.839
566.86	42.074
567.20	42.807
567.54	42.694
567.88	41.336
568.21	41.217
568.55	42.012
568.89	41.342
569.23	40.196
569.56	39.190
569.90	39.208
570.24	40.115
570.57	38.694
570.91	38.397
571.25	37.678
571.59	37.791
571.92	37.615
572.26	37.579
572.60	37.658
572.93	37.391
573.27	37.592
573.61	37.828
573.95	38.088
574.28	37.286
574.62	37.099
574.96	36.918
575.29	36.809
575.63	36.789
575.97	36.761
576.30	37.334
576.64	36.694
576.98	36.582
577.31	36.992
577.65	36.547
577.98	36.309
578.32	36.219
578.66	36.331
578.99	36.362
579.33	36.747
579.67	36.390
580.00	36.490
580.34	36.545
580.67	36.209
581.01	36.092
581.35	36.674
581.68	35.949
582.02	35.596
582.35	35.841
582.69	35.285
583.02	35.237
583.36	36.062
583.70	36.389
584.03	36.416
584.37	36.390
584.70	36.311
585.04	36.081
585.37	35.648
585.71	35.949
586.04	35.733
586.38	35.893
586.72	36.647
587.05	35.507
587.39	35.567
587.72	35.893
588.06	35.592
588.39	36.324
588.73	35.700
589.06	36.553
589.40	36.970
589.73	36.712
590.07	36.085
590.40	35.659
590.73	37.393
591.07	37.688
591.40	37.031
591.74	36.926
592.07	36.606
592.41	36.461
592.74	36.067
593.08	36.276
593.41	35.622
593.75	34.760
594.08	35.233
594.41	36.161
594.75	36.488
595.08	35.326
595.42	36.287
595.75	35.577
596.09	36.200
596.42	35.874
596.75	36.598
597.09	36.710
597.42	35.245
597.75	35.964
598.09	35.000
598.42	35.825
598.76	35.144
599.09	34.398
599.42	34.753
599.76	34.773
600.09	34.791
600.42	34.806
600.76	34.321
601.09	34.281
601.42	34.665
601.76	35.142
602.09	34.783
602.42	35.589
602.76	35.470
603.09	34.225
603.42	35.064
603.76	34.489
604.09	34.432
604.42	34.733
604.76	35.555
605.09	35.692
605.42	35.015
605.75	34.520
606.09	34.770
606.42	34.614
606.75	34.343
607.09	34.910
607.42	35.088
607.75	34.641
608.08	34.520
608.42	34.648
608.75	34.536
609.08	33.441
609.41	34.650
609.75	35.350
610.08	35.203
610.41	34.404
610.74	34.390
611.07	35.721
611.41	34.446
611.74	35.495
612.07	34.783
612.40	35.782
612.73	35.211
613.07	34.860
613.40	35.598
613.73	34.242
614.06	35.054
614.39	34.452
614.72	35.263
615.06	34.821
615.39	33.652
615.72	34.151
616.05	34.397
616.38	34.630
616.71	35.570
617.05	35.218
617.38	35.057
617.71	34.775
618.04	35.697
618.37	34.477
618.70	35.034
619.03	35.329
619.36	35.913
619.69	36.056
620.03	35.577
620.36	34.759
620.69	36.370
621.02	36.578
621.35	36.022
621.68	34.579
622.01	36.068
622.34	36.460
622.67	35.513
623.00	34.923
623.33	33.953
623.66	35.311
623.99	36.377
624.32	35.093
624.65	35.099
624.99	33.428
625.32	34.033
625.65	35.387
625.98	36.741
626.31	35.148
626.64	36.000
626.97	36.160
627.30	35.661
627.63	35.931
627.96	37.342
628.29	36.570
628.62	37.603
628.95	37.736
629.28	36.314
629.61	36.297
629.94	36.667
630.26	35.748
630.59	35.462
630.92	36.973
631.25	37.611
631.58	34.535
631.91	37.627
632.24	36.814
632.57	36.516
632.90	37.061
633.23	36.353
633.56	37.514
633.89	36.806
634.22	38.138
634.55	38.935
634.88	36.527
635.20	38.232
635.53	37.349
635.86	38.738
636.19	37.294
636.52	37.370
636.85	37.572
637.18	36.521
637.51	39.716
637.83	34.772
638.16	36.829
638.49	36.650
638.82	37.800
639.15	35.750
639.48	37.656
639.81	36.595
640.13	38.542
640.46	37.450
640.79	38.177
641.12	36.726
641.45	36.872
641.77	39.764
642.10	40.643
642.43	38.889
642.76	39.474
643.09	38.957
643.41	38.695
643.74	39.815
644.07	40.091
644.40	39.417
644.73	38.268
645.05	41.363
645.38	38.231
645.71	37.842
646.04	38.870
646.36	42.404
646.69	37.960
647.02	39.796
647.35	38.660
647.67	39.646
648.00	38.537
648.33	38.779
648.66	37.576
648.98	37.931
649.31	37.519
649.64	36.622
649.96	36.513
650.29	37.599
650.62	38.350
650.94	39.222
651.27	38.007
651.60	38.103
651.92	38.019
652.25	36.645
652.58	38.941
652.90	37.283
653.23	36.518
653.56	37.795
653.88	40.571
654.21	39.179
654.54	37.954
654.86	36.604
655.19	35.000
655.52	25.403
655.84	25.197
656.17	33.268
656.49	45.151
656.82	45.603
657.15	34.362
657.47	25.161
657.80	19.306
658.13	19.940
658.45	29.027
658.78	29.475
659.10	30.127
659.43	31.484
659.75	32.827
660.08	35.506
660.41	37.989
660.73	39.009
661.06	38.057
661.38	40.182
661.71	39.231
662.03	41.617
662.36	35.785
662.68	41.968
663.01	40.808
663.33	37.792
663.66	40.966
663.98	42.117
664.31	40.336
664.63	40.081
664.96	39.235
665.28	39.139
665.61	42.495
665.93	37.827
666.26	38.945
666.58	40.167
666.91	39.746
667.23	41.124
667.56	39.525
667.88	39.103
668.21	37.953
668.53	40.130
668.86	39.177
669.18	41.791
669.50	43.043
669.83	40.741
670.15	41.333
670.48	38.780
670.80	42.241
671.13	39.703
671.45	40.851
671.77	41.752
672.10	38.632
672.42	36.042
672.75	37.148
673.07	35.739
673.39	37.071
673.72	38.281
674.04	38.039
674.37	35.922
674.69	36.196
675.01	38.494
675.34	41.889
675.66	40.632
675.98	38.900
676.31	38.025
676.63	39.278
676.95	38.365
677.28	38.551
677.60	36.923
677.92	41.772
678.25	38.809
678.57	41.036
678.89	37.275
679.22	34.578
679.54	37.786
679.86	38.532
680.18	38.462
680.51	38.475
680.83	36.833
681.15	38.868
681.48	35.917
681.80	36.170
682.12	34.291
682.44	34.623
682.77	35.642
683.09	38.627
683.41	39.690
683.73	40.177
684.06	40.702
684.38	36.399
684.70	39.147
685.02	38.274
685.34	38.645
685.67	33.741
685.99	36.082
686.31	34.471
686.63	34.982
686.96	36.071
687.28	34.838
687.60	35.870
687.92	36.563
688.24	37.262
688.56	40.763
688.89	41.494
689.21	40.611
689.53	36.117
689.85	40.798
690.17	35.197
690.49	39.066
690.82	40.888
691.14	36.384
691.46	37.342
691.78	36.948
692.10	38.430
692.42	39.521
692.74	34.440
693.06	38.085
693.39	38.809
693.71	39.301
694.03	38.947
694.35	37.662
694.67	36.842
694.99	39.756
695.31	38.480
695.63	38.278
695.95	37.653
696.27	39.848
696.59	39.119
696.91	40.933
697.23	35.915
697.56	37.100
697.88	34.151
698.20	38.333
698.52	40.000
698.84	36.748
699.16	36.175
699.48	36.342
699.80	37.440
700.12	41.818
700.44	42.440
700.76	43.094
701.08	41.954
701.40	42.179
701.72	42.274
702.04	42.045
702.36	38.810
702.68	38.810
703.00	42.659
703.32	36.968
703.64	41.287
703.96	38.162
704.28	39.826
704.60	45.455
704.91	39.763
705.23	41.935
705.55	46.179
705.87	44.850
706.19	43.463
706.51	44.237
706.83	41.515
707.15	41.176
707.47	38.131
707.79	40.786
708.11	38.584
708.43	39.286
708.74	37.500
709.06	40.000
709.38	38.058
709.70	42.733
710.02	43.620
710.34	39.394
710.66	44.478
710.98	43.750
711.29	43.023
711.61	45.133
711.93	41.026
712.25	44.695
712.57	41.544
712.89	41.869
713.20	43.161
713.52	40.789
713.84	38.924
714.16	41.463
714.48	40.805
714.80	45.289
715.11	42.363
715.43	39.763
715.75	41.739
716.07	41.214
716.39	45.141
716.70	41.528
717.02	42.086
717.34	41.696
717.66	46.642
717.97	48.606
718.29	40.370
718.61	39.781
718.93	46.691
719.24	39.792
719.56	41.356
719.88	44.746
720.20	44.932
720.51	43.902
720.83	46.097
721.15	40.672
721.46	41.135
721.78	46.953
722.10	45.660
722.42	45.113
722.73	41.199
723.05	47.131
723.37	46.154
723.68	40.927
724.00	50.407
724.32	39.919
724.63	45.528
724.95	44.351
725.27	51.012
725.58	47.656
725.90	50.730
726.22	43.396
726.53	43.403
726.85	43.003
727.16	40.925
727.48	45.390
727.80	42.424
728.11	46.014
728.43	41.923
728.74	44.086
729.06	54.015
729.38	47.059
729.69	41.993
730.01	42.662
730.32	40.972
730.64	44.147
730.96	37.624
731.27	43.709
731.59	43.731
731.90	44.898
732.22	41.615
732.53	36.842
732.85	39.744
733.16	37.621
733.48	38.206
733.80	40.260
734.11	42.038
734.43	40.237
734.74	41.714
735.06	40.401
735.37	43.064
735.69	40.127
736.00	42.810
736.32	44.237
736.63	41.214
736.95	42.173
737.26	35.714
737.58	38.710
737.89	39.799
738.21	46.075
738.52	42.857
738.83	42.264
739.15	41.538
739.46	47.445
739.78	39.583
740.09	38.462
740.41	44.839
740.72	40.070
741.04	48.519
741.35	45.000
741.66	52.000
741.98	45.283
742.29	54.067
742.61	49.569
742.92	47.511
743.23	47.863
743.55	46.400
743.86	45.614
744.18	48.673
744.49	52.632
744.80	46.948
745.12	50.909
745.43	51.982
745.74	45.946
746.06	48.624
746.37	47.982
746.68	50.679
747.00	49.537
747.31	46.667
747.62	45.133
747.94	46.256
748.25	46.383
748.56	51.982
748.88	51.485
749.19	55.000
749.50	44.651
749.82	44.715
750.13	44.082
750.44	44.161
750.75	44.912
751.07	45.338
751.38	45.645
751.69	44.765
752.01	42.481
752.32	41.877
752.63	44.681
752.94	46.311
753.26	50.000
753.57	48.374
753.88	44.531
754.19	43.214
754.51	47.569
754.82	44.043
755.13	43.396
755.44	42.857
755.75	42.336
756.07	37.589
756.38	42.336
756.69	43.960
757.00	40.719
757.31	40.059
757.63	39.474
757.94	39.946
758.25	37.255
758.56	36.543
758.87	35.484
759.18	38.485
759.50	36.677
759.81	39.564
760.12	38.437
760.43	37.249
760.74	38.587
761.05	40.113
761.36	38.235
761.67	41.193
761.99	42.547
762.30	43.056
762.61	43.511
762.92	40.234
763.23	43.697
763.54	44.400
763.85	39.844
764.16	47.308
764.47	41.065
764.78	43.463
765.10	42.089
765.41	41.003
765.72	38.623
766.03	37.931
766.34	39.333
766.65	48.936
766.96	43.162
767.27	54.315
767.58	53.125
767.89	56.842
768.20	57.471
768.51	48.223
768.82	50.000
769.13	42.276
769.44	45.344
769.75	45.494
770.06	43.119
770.37	50.679
770.68	48.148
770.99	44.889
771.30	40.164
771.61	52.018
771.92	46.721
772.23	52.101
772.54	50.256
772.85	49.738
773.16	54.787
773.47	53.261
773.78	54.822
774.09	53.571
774.39	54.971
774.70	53.704
775.01	59.420
775.32	62.092
775.63	59.211
775.94	64.029
776.25	69.291
776.56	67.910
776.87	57.377
777.18	60.156
777.48	66.412
777.79	59.091
778.10	65.926
778.41	70.536
778.72	51.095
779.03	61.745
779.34	56.376
779.65	60.811
779.95	53.374
780.26	54.902
780.57	56.552
780.88	70.312
781.19	57.143
781.50	58.108
781.80	56.604
782.11	53.672
782.42	53.165
782.73	57.055
783.04	58.784
783.34	64.085
783.65	65.753
783.96	68.657
784.27	53.147
784.57	53.957
784.88	60.185
785.19	62.698
785.50	66.981
785.81	67.910
786.11	71.311
786.42	65.891
786.73	70.796
787.04	73.585
787.34	76.786
787.65	76.000
787.96	73.874
788.26	72.727
788.57	72.881
788.88	76.860
789.19	70.833
789.49	64.394
789.80	69.466
790.11	87.619
790.41	80.198
790.72	80.723
791.03	86.957
791.33	84.884
791.64	80.412
791.95	79.208
792.25	75.556
792.56	97.403
792.87	101.282
793.17	100.000
793.48	89.655
793.79	83.908
794.09	72.727
794.40	68.067
794.70	69.853
795.01	57.778
795.32	62.590
795.62	68.504
795.93	67.241
796.23	61.062
796.54	82.353
796.85	77.027
797.15	104.225
797.46	86.364
797.76	100.000
798.07	87.342
798.37	90.769
798.68	107.576
798.99	83.099
799.29	92.208
799.60	79.545
799.90	98.630
800.21	116.418
800.51	106.897
800.82	115.789
801.12	109.836
801.43	98.485
801.73	85.135
802.04	103.175
802.34	88.889
802.65	95.312
802.95	132.203
803.26	101.563
803.56	84.286
803.87	107.692
804.17	95.588
804.48	131.481
804.78	87.931
805.09	91.176
805.39	123.077
805.70	96.429
806.00	103.279
806.30	103.030
806.61	93.902
806.91	81.013
807.22	96.053
807.52	102.985
807.83	95.775
808.13	103.125
808.43	116.667
808.74	86.842
809.04	97.101
809.35	105.970
809.65	97.368
809.95	127.419
810.26	113.559
810.56	103.175
810.86	156.818
811.17	145.238
811.47	111.667
811.77	120.370
812.08	101.818
812.38	124.000
812.69	144.444
812.99	140.909
813.29	124.490
813.59	102.381
813.90	153.061
814.20	130.909
814.50	109.231
814.81	108.824
815.11	140.816
815.41	95.082
815.72	138.095
816.02	138.182
816.32	133.333
816.62	137.500
816.93	200.000
817.23	161.905
817.53	136.364
817.84	172.727
818.14	145.652
818.44	151.111
818.74	191.176
819.04	142.500
819.35	160.000
819.65	182.353
819.95	182.143
820.25	175.000
820.56	156.410
820.86	147.727
821.16	148.837
821.46	143.590
821.76	138.000
822.07	191.429
822.37	157.500
822.67	178.788
822.97	113.725
823.27	239.286
823.57	159.459
823.88	180.000
824.18	213.333
824.48	161.905
824.78	240.000
825.08	241.667
825.38	154.054
825.69	143.902
825.99	262.500
826.29	172.414
826.59	173.684
826.89	155.263
827.19	197.059
827.49	206.452
827.79	143.182
828.09	145.455
828.39	123.404
828.70	140.816
829.00	218.519
829.30	141.935
829.60	140.000
829.90	366.667
830.20	217.857
830.50	191.304
830.80	234.783
831.10	230.000
831.40	240.000
831.70	265.217
832.00	261.538
832.30	192.593
832.60	318.750
832.90	203.333
833.20	378.571
833.50	232.258
833.80	210.345
834.10	203.125
834.40	265.385
834.70	261.111
835.00	319.048
835.30	151.429
835.60	361.538
835.90	227.586
836.20	421.429
836.50	231.034
836.80	212.000
837.10	205.556
837.40	261.905
837.70	341.176
838.00	218.519
838.30	257.143
838.60	300.000
838.90	219.231
839.19	300.000
839.49	371.429
839.79	370.000
840.09	280.000
840.39	295.238
840.69	282.609
840.99	305.556
841.29	630.000
841.59	341.667
841.88	362.500
842.18	189.655
842.48	247.619
842.78	206.667
843.08	256.522
843.38	190.625
843.68	816.667
843.97	230.769
844.27	217.241
844.57	300.000
844.87	418.750
845.17	211.111
845.47	1400.000
845.76	500.000
846.06	311.765
846.36	662.500
846.66	464.286
846.96	350.000
847.25	454.545
847.55	418.182
847.85	273.913
848.15	550.000
848.44	364.286
848.74	288.889
849.04	311.765
849.34	570.000
849.63	252.632
849.93	481.818
850.23	980.000
850.53	428.571
850.82	2600.000
851.12	-5900.000
851.42	5000.000
851.71	270.000
852.01	-1566.667
852.31	270.833
852.61	1566.667
852.90	295.238
853.20	276.000
853.50	270.588
853.79	280.952
854.09	250.000
854.39	368.750
854.68	205.405
854.98	193.548
855.28	193.333
855.57	255.172
855.87	222.222
856.17	305.263
856.46	373.333
856.76	300.000
857.05	203.448
857.35	270.833
857.65	420.000
857.94	282.609
858.24	242.308
858.53	255.000
858.83	277.273
859.13	353.333
859.42	0.000
859.72	566.667
860.01	463.636
860.31	295.455
860.60	321.053
860.90	252.174
861.20	522.222
861.49	475.000
861.79	-5200.000
862.08	787.500
862.38	276.190
862.67	338.462
862.97	347.059
863.26	577.778
863.56	294.444
863.85	441.667
864.15	737.500
864.44	380.000
864.74	933.333
865.03	737.500
865.33	300.000
865.62	454.545
865.92	423.077
866.21	541.667
866.51	0.000
866.80	481.818
867.10	1240.000
867.39	476.923
867.69	518.182
867.98	310.526
868.27	472.727
868.57	315.789
868.86	-5500.000
869.16	350.000
869.45	2350.000
869.75	-4400.000
870.04	458.333
870.33	742.857
870.63	1050.000
870.92	2750.000
871.22	742.857
871.51	364.706
871.80	252.381
872.10	392.857
>>>>>End Processed Spectral Data<<<<<
