SpectraSuite Data File
++++++++++++++++++++++++++++++++++++
Date: Tue May 12 19:56:24 PDT 2015
User: schluterlab
Dark Spectrum Present: Yes
Reference Spectrum Present: Yes
Number of Sampled Component Spectra: 1
Spectrometers: USB2E3373
Integration Time (usec): 3000 (USB2E3373)
Spectra Averaged: 3 (USB2E3373)
Boxcar Smoothing: 0 (USB2E3373)
Correct for Electrical Dark: No (USB2E3373)
Strobe/Lamp Enabled: No (USB2E3373)
Correct for Detector Non-linearity: No (USB2E3373)
Correct for Stray Light: No (USB2E3373)
Number of Pixels in Processed Spectrum: 2048
>>>>>Begin Processed Spectral Data<<<<<
178.53	0.000
178.91	-130.000
179.29	-233.333
179.67	666.667
180.04	0.000
180.42	-200.000
180.80	-833.333
181.18	1300.000
181.56	-750.000
181.94	350.000
182.31	2400.000
182.69	-100.000
183.07	0.000
183.45	283.333
183.83	320.000
184.20	366.667
184.58	1200.000
184.96	466.667
185.34	-566.667
185.72	-128.571
186.09	-233.333
186.47	-2800.000
186.85	-220.000
187.23	233.333
187.61	-300.000
187.98	-540.000
188.36	1000.000
188.74	-500.000
189.12	-155.556
189.49	-140.000
189.87	400.000
190.25	244.444
190.63	866.667
191.00	400.000
191.38	-666.667
191.76	540.000
192.14	-185.714
192.51	-110.000
192.89	-240.000
193.27	-260.000
193.65	-700.000
194.02	-216.667
194.40	2400.000
194.78	-212.500
195.15	-285.714
195.53	533.333
195.91	240.000
196.29	-650.000
196.66	-400.000
197.04	-400.000
197.42	380.000
197.79	-275.000
198.17	-208.333
198.55	-1000.000
198.92	-211.111
199.30	450.000
199.68	-400.000
200.05	-1550.000
200.43	-88.889
200.81	-191.667
201.18	466.667
201.56	-550.000
201.94	-1800.000
202.31	-100.000
202.69	-44.444
203.07	-116.667
203.44	-525.000
203.82	0.000
204.19	425.000
204.57	-833.333
204.95	209.091
205.32	380.000
205.70	475.000
206.08	-900.000
206.45	-300.000
206.83	2200.000
207.20	-177.778
207.58	-161.538
207.96	433.333
208.33	833.333
208.71	566.667
209.08	700.000
209.46	-133.333
209.84	533.333
210.21	-633.333
210.59	650.000
210.96	333.333
211.34	-400.000
211.71	1200.000
212.09	-120.000
212.46	-400.000
212.84	-275.000
213.22	342.857
213.59	-175.000
213.97	0.000
214.34	-900.000
214.72	-2000.000
215.09	1250.000
215.47	-113.333
215.84	-137.500
216.22	-2400.000
216.59	2900.000
216.97	-166.667
217.34	-283.333
217.72	-5.556
218.09	450.000
218.47	-36.842
218.84	-237.500
219.22	-92.857
219.59	-190.000
219.97	-160.000
220.34	516.667
220.72	100.000
221.09	-750.000
221.47	0.000
221.84	400.000
222.22	-250.000
222.59	-500.000
222.97	-30.435
223.34	200.000
223.72	471.429
224.09	-300.000
224.46	207.692
224.84	-33.333
225.21	-550.000
225.59	-475.000
225.96	-35.000
226.34	416.667
226.71	320.000
227.08	-38.462
227.46	-271.429
227.83	-125.000
228.21	-600.000
228.58	350.000
228.95	-68.421
229.33	-18.750
229.70	-366.667
230.08	-200.000
230.45	-1033.333
230.82	-2900.000
231.20	-57.143
231.57	-260.000
231.95	-866.667
232.32	233.333
232.69	-850.000
233.07	12.500
233.44	-237.500
233.81	-12.903
234.19	-200.000
234.56	-61.111
234.93	-383.333
235.31	-3.704
235.68	-7.407
236.05	-42.308
236.43	-26.316
236.80	-45.455
237.17	-85.714
237.55	-85.000
237.92	20.930
238.29	-6.452
238.67	53.571
239.04	28.571
239.41	13.725
239.79	18.000
240.16	10.000
240.53	17.241
240.91	35.616
241.28	30.986
241.65	46.875
242.02	28.070
242.40	14.667
242.77	30.526
243.14	34.118
243.51	39.785
243.89	37.143
244.26	40.741
244.63	40.816
245.00	30.357
245.38	31.933
245.75	44.068
246.12	38.281
246.49	39.200
246.87	33.607
247.24	34.507
247.61	39.735
247.98	39.888
248.36	42.138
248.73	45.455
249.10	41.111
249.47	46.875
249.84	37.563
250.22	40.104
250.59	47.191
250.96	43.636
251.33	47.170
251.70	41.284
252.08	43.723
252.45	48.163
252.82	40.506
253.19	48.638
253.56	44.706
253.94	49.187
254.31	51.439
254.68	44.792
255.05	46.358
255.42	50.545
255.79	52.649
256.16	46.528
256.54	44.242
256.91	50.000
257.28	51.299
257.65	45.246
258.02	51.351
258.39	47.130
258.76	50.153
259.14	49.118
259.51	51.831
259.88	54.755
260.25	47.727
260.62	47.191
260.99	45.682
261.36	47.989
261.73	49.867
262.10	51.771
262.47	52.617
262.85	50.900
263.22	48.925
263.59	49.330
263.96	48.564
264.33	49.865
264.70	49.631
265.07	50.246
265.44	51.054
265.81	53.012
266.18	50.585
266.55	50.714
266.92	50.446
267.29	48.000
267.66	49.318
268.03	49.247
268.40	48.970
268.77	50.780
269.14	47.479
269.51	50.226
269.88	48.504
270.25	49.156
270.62	51.261
270.99	48.000
271.36	49.890
271.73	47.917
272.10	50.000
272.47	49.800
272.84	46.497
273.21	49.269
273.58	45.918
273.95	48.008
274.32	49.323
274.69	48.728
275.06	46.904
275.43	47.200
275.80	49.904
276.17	48.814
276.54	48.859
276.91	48.177
277.28	48.743
277.65	48.015
278.02	45.265
278.39	48.639
278.76	51.955
279.13	49.016
279.50	48.917
279.87	50.943
280.23	46.995
280.60	46.643
280.97	49.209
281.34	49.831
281.71	42.451
282.08	49.016
282.45	46.737
282.82	48.148
283.19	44.613
283.56	49.659
283.92	46.445
284.29	47.208
284.66	47.788
285.03	42.024
285.40	47.667
285.77	49.097
286.14	45.483
286.51	45.981
286.87	45.705
287.24	46.474
287.61	46.142
287.98	46.479
288.35	46.667
288.72	46.789
289.08	43.711
289.45	43.058
289.82	42.391
290.19	43.485
290.56	42.981
290.93	43.575
291.29	42.979
291.66	39.466
292.03	43.185
292.40	41.727
292.77	42.711
293.13	39.354
293.50	40.771
293.87	42.580
294.24	39.045
294.60	41.120
294.97	37.812
295.34	39.863
295.71	38.835
296.08	39.208
296.44	40.448
296.81	38.939
297.18	39.457
297.55	37.060
297.91	37.183
298.28	37.212
298.65	37.387
299.02	37.855
299.38	35.332
299.75	37.194
300.12	36.331
300.48	36.737
300.85	36.675
301.22	35.817
301.59	36.740
301.95	37.195
302.32	36.938
302.69	34.126
303.05	34.947
303.42	36.232
303.79	34.607
304.15	35.561
304.52	35.196
304.89	34.724
305.25	35.321
305.62	35.114
305.99	34.938
306.35	36.018
306.72	35.621
307.09	35.256
307.45	35.275
307.82	35.219
308.19	35.864
308.55	33.650
308.92	35.169
309.29	33.473
309.65	33.953
310.02	33.753
310.38	34.968
310.75	33.299
311.12	32.452
311.48	33.710
311.85	32.725
312.22	35.021
312.58	35.448
312.95	33.984
313.31	32.645
313.68	34.657
314.05	35.551
314.41	34.185
314.78	35.276
315.14	35.162
315.51	33.962
315.87	35.449
316.24	34.026
316.61	34.951
316.97	34.412
317.34	35.789
317.70	34.174
318.07	35.005
318.43	35.917
318.80	36.066
319.16	35.788
319.53	35.943
319.89	35.511
320.26	37.266
320.62	35.659
320.99	37.551
321.35	37.945
321.72	38.788
322.08	37.327
322.45	36.095
322.81	39.409
323.18	38.159
323.54	39.526
323.91	39.374
324.27	39.441
324.64	39.269
325.00	39.581
325.37	39.838
325.73	38.686
326.10	38.967
326.46	41.160
326.83	41.425
327.19	42.533
327.56	42.263
327.92	40.365
328.29	40.950
328.65	41.996
329.01	41.651
329.38	42.883
329.74	41.876
330.11	41.752
330.47	42.551
330.84	42.199
331.20	42.791
331.56	43.208
331.93	41.903
332.29	41.998
332.66	41.863
333.02	42.340
333.38	42.555
333.75	42.543
334.11	41.682
334.48	42.039
334.84	42.254
335.20	41.271
335.57	42.598
335.93	42.047
336.29	41.408
336.66	42.532
337.02	43.246
337.38	43.208
337.75	43.182
338.11	42.571
338.47	43.361
338.84	42.081
339.20	43.446
339.56	42.591
339.93	43.694
340.29	43.880
340.65	44.018
341.02	42.516
341.38	42.807
341.74	42.972
342.11	43.590
342.47	42.745
342.83	43.539
343.20	42.971
343.56	43.094
343.92	42.607
344.28	41.852
344.65	43.322
345.01	43.815
345.37	42.735
345.73	44.358
346.10	44.944
346.46	41.846
346.82	43.246
347.19	44.071
347.55	44.133
347.91	42.342
348.27	42.460
348.63	44.512
349.00	44.825
349.36	43.941
349.72	43.186
350.08	43.290
350.45	43.613
350.81	43.765
351.17	42.669
351.53	42.673
351.89	45.423
352.26	42.764
352.62	44.563
352.98	46.025
353.34	45.113
353.70	43.292
354.07	44.481
354.43	43.072
354.79	44.590
355.15	43.261
355.51	45.151
355.87	45.462
356.24	44.281
356.60	44.491
356.96	43.602
357.32	44.691
357.68	43.437
358.04	43.922
358.40	44.599
358.77	43.534
359.13	44.257
359.49	44.080
359.85	45.244
360.21	43.458
360.57	45.136
360.93	45.606
361.29	44.548
361.66	44.085
362.02	44.976
362.38	46.309
362.74	45.503
363.10	44.570
363.46	44.846
363.82	45.789
364.18	45.647
364.54	45.573
364.90	46.593
365.26	46.125
365.62	46.480
365.98	46.027
366.35	46.293
366.71	46.229
367.07	45.830
367.43	43.971
367.79	47.166
368.15	46.479
368.51	47.790
368.87	48.311
369.23	48.448
369.59	47.794
369.95	45.902
370.31	47.955
370.67	47.143
371.03	47.136
371.39	48.414
371.75	46.657
372.11	47.037
372.47	46.399
372.83	47.334
373.19	47.666
373.55	46.183
373.91	47.273
374.27	49.227
374.63	49.485
374.99	48.170
375.35	47.823
375.71	48.494
376.07	47.986
376.42	47.787
376.78	47.666
377.14	48.813
377.50	47.401
377.86	49.652
378.22	49.273
378.58	50.461
378.94	50.098
379.30	48.777
379.66	48.656
380.02	48.824
380.38	48.473
380.74	50.404
381.09	49.174
381.45	50.095
381.81	49.171
382.17	50.489
382.53	51.808
382.89	50.160
383.25	50.476
383.61	50.350
383.97	50.942
384.32	50.258
384.68	50.000
385.04	50.605
385.40	49.649
385.76	50.411
386.12	50.429
386.48	50.228
386.83	52.074
387.19	51.980
387.55	50.324
387.91	49.907
388.27	51.695
388.62	50.583
388.98	51.654
389.34	51.334
389.70	52.244
390.06	52.145
390.42	52.333
390.77	51.576
391.13	52.505
391.49	53.032
391.85	52.096
392.20	52.079
392.56	50.753
392.92	52.999
393.28	52.484
393.64	52.882
393.99	51.169
394.35	52.304
394.71	52.583
395.07	52.851
395.42	51.873
395.78	53.629
396.14	52.099
396.50	52.264
396.85	52.214
397.21	52.393
397.57	52.271
397.92	53.880
398.28	52.818
398.64	52.698
399.00	52.002
399.35	52.931
399.71	51.617
400.07	53.057
400.42	52.756
400.78	53.679
401.14	52.652
401.49	52.842
401.85	53.143
402.21	53.173
402.57	51.964
402.92	54.117
403.28	52.861
403.63	52.372
403.99	53.567
404.35	52.739
404.70	51.932
405.06	52.945
405.42	52.570
405.77	52.200
406.13	52.748
406.49	53.186
406.84	52.304
407.20	53.779
407.55	53.440
407.91	52.448
408.27	53.059
408.62	52.283
408.98	53.024
409.34	52.241
409.69	52.508
410.05	53.368
410.40	51.509
410.76	53.300
411.11	52.812
411.47	53.129
411.83	51.578
412.18	53.272
412.54	52.393
412.89	52.137
413.25	52.602
413.60	52.742
413.96	52.039
414.31	51.816
414.67	54.693
415.03	52.905
415.38	53.760
415.74	53.392
416.09	52.309
416.45	52.795
416.80	52.434
417.16	52.750
417.51	52.672
417.87	52.941
418.22	52.674
418.58	52.039
418.93	52.224
419.29	53.324
419.64	54.327
420.00	52.325
420.35	53.233
420.71	52.689
421.06	53.212
421.42	52.196
421.77	52.862
422.12	52.865
422.48	52.541
422.83	52.644
423.19	52.882
423.54	51.497
423.90	51.792
424.25	52.931
424.61	53.290
424.96	52.887
425.31	52.415
425.67	52.364
426.02	53.540
426.38	52.896
426.73	52.025
427.09	52.397
427.44	52.346
427.79	53.465
428.15	51.871
428.50	52.387
428.85	49.840
429.21	52.540
429.56	52.431
429.92	51.433
430.27	50.400
430.62	50.676
430.98	50.887
431.33	52.280
431.68	52.954
432.04	51.438
432.39	51.575
432.74	50.917
433.10	51.486
433.45	51.678
433.80	51.845
434.16	51.093
434.51	51.561
434.86	51.480
435.22	51.397
435.57	51.715
435.92	50.341
436.28	51.432
436.63	52.594
436.98	51.728
437.34	52.399
437.69	51.914
438.04	50.541
438.39	51.110
438.75	51.385
439.10	53.155
439.45	53.145
439.81	50.984
440.16	51.206
440.51	50.743
440.86	51.452
441.22	50.208
441.57	50.541
441.92	51.574
442.27	51.029
442.63	51.242
442.98	52.017
443.33	51.293
443.68	50.804
444.03	50.258
444.39	50.495
444.74	51.689
445.09	50.590
445.44	50.496
445.79	51.726
446.15	51.429
446.50	50.665
446.85	51.100
447.20	49.508
447.55	50.611
447.91	49.559
448.26	50.623
448.61	50.695
448.96	49.911
449.31	50.633
449.66	49.818
450.02	50.355
450.37	50.365
450.72	49.551
451.07	49.835
451.42	49.473
451.77	48.487
452.12	49.499
452.47	50.271
452.83	49.751
453.18	50.236
453.53	50.294
453.88	50.096
454.23	50.351
454.58	49.543
454.93	48.569
455.28	48.744
455.63	49.578
455.98	49.112
456.34	49.096
456.69	49.221
457.04	49.278
457.39	48.752
457.74	48.357
458.09	48.102
458.44	48.682
458.79	47.291
459.14	49.493
459.49	49.108
459.84	48.751
460.19	48.593
460.54	48.737
460.89	48.765
461.24	49.221
461.59	47.634
461.94	47.403
462.29	47.682
462.64	47.841
462.99	48.078
463.34	49.524
463.69	48.422
464.04	48.364
464.39	47.074
464.74	46.788
465.09	47.588
465.44	46.551
465.79	46.992
466.14	46.897
466.49	45.985
466.84	46.929
467.19	46.459
467.54	45.225
467.89	45.591
468.24	45.518
468.59	46.597
468.94	46.200
469.29	46.436
469.64	46.025
469.99	44.917
470.34	44.979
470.68	45.846
471.03	44.526
471.38	45.325
471.73	46.294
472.08	44.698
472.43	45.297
472.78	45.613
473.13	46.035
473.48	47.234
473.83	46.631
474.17	45.297
474.52	46.082
474.87	45.202
475.22	44.727
475.57	45.593
475.92	45.424
476.27	45.811
476.61	45.213
476.96	44.932
477.31	44.920
477.66	43.754
478.01	43.378
478.36	44.699
478.70	45.296
479.05	44.689
479.40	43.560
479.75	45.597
480.10	44.643
480.45	45.445
480.79	45.044
481.14	44.755
481.49	44.216
481.84	44.747
482.19	43.171
482.53	43.284
482.88	44.382
483.23	43.568
483.58	42.475
483.92	42.111
484.27	42.546
484.62	44.130
484.97	42.707
485.31	42.537
485.66	42.456
486.01	42.837
486.36	44.195
486.70	44.713
487.05	45.073
487.40	44.171
487.75	42.829
488.09	42.199
488.44	42.539
488.79	41.705
489.13	42.103
489.48	41.917
489.83	41.609
490.17	42.053
490.52	41.109
490.87	41.741
491.22	41.272
491.56	41.749
491.91	41.817
492.26	42.427
492.60	41.735
492.95	41.273
493.30	42.185
493.64	42.343
493.99	42.556
494.34	42.271
494.68	41.130
495.03	40.619
495.37	41.764
495.72	41.930
496.07	42.089
496.41	40.069
496.76	40.974
497.11	40.867
497.45	40.834
497.80	41.225
498.14	40.496
498.49	40.043
498.84	39.780
499.18	40.114
499.53	40.187
499.87	39.939
500.22	40.156
500.56	41.130
500.91	41.217
501.26	40.210
501.60	40.316
501.95	39.867
502.29	40.431
502.64	39.821
502.98	40.535
503.33	39.940
503.67	40.429
504.02	40.296
504.36	39.959
504.71	39.787
505.06	40.279
505.40	41.072
505.75	39.336
506.09	39.653
506.44	39.109
506.78	40.096
507.13	39.468
507.47	40.554
507.82	39.063
508.16	39.087
508.51	40.536
508.85	39.615
509.19	39.331
509.54	39.660
509.88	39.528
510.23	39.382
510.57	39.182
510.92	39.172
511.26	38.599
511.61	39.612
511.95	38.519
512.30	39.072
512.64	38.299
512.98	39.811
513.33	38.101
513.67	38.323
514.02	38.161
514.36	38.612
514.70	39.344
515.05	39.268
515.39	39.649
515.74	38.095
516.08	38.293
516.42	39.901
516.77	38.944
517.11	38.532
517.46	38.663
517.80	39.119
518.14	38.899
518.49	39.069
518.83	39.883
519.17	38.496
519.52	38.351
519.86	38.442
520.20	37.962
520.55	38.251
520.89	38.731
521.23	39.078
521.58	38.029
521.92	38.184
522.26	38.557
522.61	38.157
522.95	39.041
523.29	37.314
523.64	38.399
523.98	36.425
524.32	38.451
524.66	38.001
525.01	38.351
525.35	37.483
525.69	37.784
526.04	38.478
526.38	37.834
526.72	39.028
527.06	38.045
527.41	38.200
527.75	37.545
528.09	37.765
528.43	37.349
528.78	37.177
529.12	37.945
529.46	37.342
529.80	37.985
530.15	38.082
530.49	37.727
530.83	36.659
531.17	37.218
531.51	37.402
531.86	37.535
532.20	35.498
532.54	37.482
532.88	35.855
533.22	37.572
533.57	36.966
533.91	37.853
534.25	38.561
534.59	36.589
534.93	37.005
535.27	35.892
535.62	36.799
535.96	38.032
536.30	37.091
536.64	38.913
536.98	36.578
537.32	38.021
537.66	36.217
538.01	36.156
538.35	35.855
538.69	35.315
539.03	36.049
539.37	36.181
539.71	36.957
540.05	36.541
540.39	35.657
540.73	37.949
541.07	36.103
541.42	37.206
541.76	36.475
542.10	36.083
542.44	36.777
542.78	35.704
543.12	35.523
543.46	36.364
543.80	36.240
544.14	36.631
544.48	36.000
544.82	35.628
545.16	37.536
545.50	36.900
545.84	36.796
546.18	36.105
546.52	35.972
546.86	35.654
547.20	35.076
547.54	35.406
547.88	34.402
548.22	35.373
548.56	36.364
548.90	35.649
549.24	35.015
549.58	36.215
549.92	36.316
550.26	35.367
550.60	34.893
550.94	35.159
551.28	34.959
551.62	35.790
551.96	34.505
552.30	35.659
552.64	35.387
552.98	35.290
553.32	33.485
553.66	35.129
554.00	35.676
554.34	35.703
554.68	34.609
555.02	34.048
555.36	34.392
555.69	34.896
556.03	33.925
556.37	34.284
556.71	34.615
557.05	35.156
557.39	34.779
557.73	35.220
558.07	34.742
558.41	33.839
558.75	34.025
559.08	36.170
559.42	34.615
559.76	32.350
560.10	35.126
560.44	33.729
560.78	34.711
561.12	34.936
561.45	35.937
561.79	33.554
562.13	33.803
562.47	34.939
562.81	33.434
563.15	32.700
563.48	32.285
563.82	34.352
564.16	33.382
564.50	34.097
564.84	34.018
565.17	35.408
565.51	33.779
565.85	34.437
566.19	34.029
566.52	34.122
566.86	34.495
567.20	34.664
567.54	34.333
567.88	34.769
568.21	35.170
568.55	34.578
568.89	34.725
569.23	35.442
569.56	35.494
569.90	35.118
570.24	35.422
570.57	35.741
570.91	37.045
571.25	36.226
571.59	35.902
571.92	35.535
572.26	35.606
572.60	35.696
572.93	35.298
573.27	35.302
573.61	35.593
573.95	35.813
574.28	35.752
574.62	35.185
574.96	35.359
575.29	34.796
575.63	35.175
575.97	35.065
576.30	34.818
576.64	35.143
576.98	35.209
577.31	35.458
577.65	36.041
577.98	35.697
578.32	35.615
578.66	35.105
578.99	35.797
579.33	35.387
579.67	35.524
580.00	35.644
580.34	35.613
580.67	34.741
581.01	35.542
581.35	34.829
581.68	35.309
582.02	35.360
582.35	35.261
582.69	35.751
583.02	35.369
583.36	34.896
583.70	35.774
584.03	35.392
584.37	34.770
584.70	34.894
585.04	35.074
585.37	34.833
585.71	35.398
586.04	35.733
586.38	35.304
586.72	35.796
587.05	35.611
587.39	35.027
587.72	35.093
588.06	34.707
588.39	34.356
588.73	34.666
589.06	34.629
589.40	34.460
589.73	34.966
590.07	34.379
590.40	34.203
590.73	35.444
591.07	34.848
591.40	34.536
591.74	33.489
592.07	34.814
592.41	34.349
592.74	34.683
593.08	34.373
593.41	34.248
593.75	35.019
594.08	35.788
594.41	34.288
594.75	34.338
595.08	34.749
595.42	34.548
595.75	34.091
596.09	34.948
596.42	33.615
596.75	34.136
597.09	34.095
597.42	34.256
597.75	34.428
598.09	34.176
598.42	33.791
598.76	33.652
599.09	34.958
599.42	33.360
599.76	34.798
600.09	34.678
600.42	33.711
600.76	34.142
601.09	34.431
601.42	33.937
601.76	33.360
602.09	34.395
602.42	33.739
602.76	33.944
603.09	34.334
603.42	34.412
603.76	33.865
604.09	34.211
604.42	34.307
604.76	34.003
605.09	33.632
605.42	34.408
605.75	33.440
606.09	34.000
606.42	33.990
606.75	33.970
607.09	34.608
607.42	34.419
607.75	33.287
608.08	34.284
608.42	33.511
608.75	34.467
609.08	32.357
609.41	34.059
609.75	34.071
610.08	32.661
610.41	33.893
610.74	33.721
611.07	32.840
611.41	33.619
611.74	33.841
612.07	34.598
612.40	33.370
612.73	33.507
613.07	32.296
613.40	33.583
613.73	31.443
614.06	32.260
614.39	33.568
614.72	34.002
615.06	32.893
615.39	33.430
615.72	32.307
616.05	32.986
616.38	32.622
616.71	32.338
617.05	33.668
617.38	33.032
617.71	33.050
618.04	33.114
618.37	31.982
618.70	32.948
619.03	33.793
619.36	33.137
619.69	30.871
620.03	32.571
620.36	32.729
620.69	32.594
621.02	31.671
621.35	32.340
621.68	32.583
622.01	31.729
622.34	31.910
622.67	32.968
623.00	32.596
623.33	32.205
623.66	33.546
623.99	32.217
624.32	32.010
624.65	33.594
624.99	33.594
625.32	31.675
625.65	31.785
625.98	33.167
626.31	30.649
626.64	31.892
626.97	33.732
627.30	33.148
627.63	31.163
627.96	32.402
628.29	32.027
628.62	30.928
628.95	32.946
629.28	32.748
629.61	31.766
629.94	32.884
630.26	30.753
630.59	31.832
630.92	29.294
631.25	31.508
631.58	31.395
631.91	29.727
632.24	30.414
632.57	30.797
632.90	34.440
633.23	31.484
633.56	31.572
633.89	30.211
634.22	30.385
634.55	31.143
634.88	31.727
635.20	30.274
635.53	30.447
635.86	31.793
636.19	30.423
636.52	32.615
636.85	28.814
637.18	29.922
637.51	31.301
637.83	30.587
638.16	30.725
638.49	29.971
638.82	28.692
639.15	29.000
639.48	31.150
639.81	30.551
640.13	29.250
640.46	29.606
640.79	29.612
641.12	30.853
641.45	29.238
641.77	29.299
642.10	31.433
642.43	32.492
642.76	27.419
643.09	29.585
643.41	28.136
643.74	27.431
644.07	26.808
644.40	29.242
644.73	28.177
645.05	27.099
645.38	28.077
645.71	28.244
646.04	30.112
646.36	29.735
646.69	29.400
647.02	30.664
647.35	28.600
647.67	30.261
648.00	29.903
648.33	28.516
648.66	30.241
648.98	30.678
649.31	31.153
649.64	27.539
649.96	30.574
650.29	28.142
650.62	26.160
650.94	30.869
651.27	28.516
651.60	30.402
651.92	28.435
652.25	25.621
652.58	30.521
652.90	29.004
653.23	28.336
653.56	27.257
653.88	29.380
654.21	27.977
654.54	25.891
654.86	30.755
655.19	28.710
655.52	34.187
655.84	36.634
656.17	36.847
656.49	49.459
656.82	56.393
657.15	44.873
657.47	33.433
657.80	24.902
658.13	20.603
658.45	34.290
658.78	32.531
659.10	31.547
659.43	30.912
659.75	29.068
660.08	29.161
660.41	27.345
660.73	24.515
661.06	25.636
661.38	29.637
661.71	28.884
662.03	28.704
662.36	26.969
662.68	24.700
663.01	28.846
663.33	29.009
663.66	23.684
663.98	28.362
664.31	26.341
664.63	25.000
664.96	28.266
665.28	25.059
665.61	28.972
665.93	29.724
666.26	27.594
666.58	27.523
666.91	27.400
667.23	27.586
667.56	27.160
667.88	26.316
668.21	27.157
668.53	27.157
668.86	26.276
669.18	25.635
669.50	27.249
669.83	26.000
670.15	25.500
670.48	29.073
670.80	29.188
671.13	28.916
671.45	25.765
671.77	28.986
672.10	27.253
672.42	26.892
672.75	27.573
673.07	29.159
673.39	29.572
673.72	30.579
674.04	29.149
674.37	26.559
674.69	28.271
675.01	29.070
675.34	25.980
675.66	26.667
675.98	23.232
676.31	26.196
676.63	24.742
676.95	25.420
677.28	27.228
677.60	26.566
677.92	28.070
678.25	27.146
678.57	28.306
678.89	25.459
679.22	29.358
679.54	27.394
679.86	29.336
680.18	27.824
680.51	28.131
680.83	26.250
681.15	30.065
681.48	28.936
681.80	28.261
682.12	30.193
682.44	27.802
682.77	27.500
683.09	26.961
683.41	27.820
683.73	28.392
684.06	25.381
684.38	29.976
684.70	32.333
685.02	28.571
685.34	25.732
685.67	27.273
685.99	29.940
686.31	28.731
686.63	30.097
686.96	27.846
687.28	28.953
687.60	29.774
687.92	28.059
688.24	28.000
688.56	27.033
688.89	29.909
689.21	24.186
689.53	24.041
689.85	28.101
690.17	27.941
690.49	28.000
690.82	24.324
691.14	31.070
691.46	28.250
691.78	27.990
692.10	29.128
692.42	26.147
692.74	29.384
693.06	26.747
693.39	27.586
693.71	24.186
694.03	28.744
694.35	25.495
694.67	27.990
694.99	27.763
695.31	27.762
695.63	28.919
695.95	27.809
696.27	29.745
696.59	22.255
696.91	24.217
697.23	29.226
697.56	29.275
697.88	27.400
698.20	27.361
698.52	30.048
698.84	25.815
699.16	29.288
699.48	27.487
699.80	25.000
700.12	25.895
700.44	21.829
700.76	26.814
701.08	24.444
701.40	25.329
701.72	26.333
702.04	25.170
702.36	23.607
702.68	27.181
703.00	29.022
703.32	23.653
703.64	26.498
703.96	27.848
704.28	26.056
704.60	24.658
704.91	20.066
705.23	23.860
705.55	18.216
705.87	20.504
706.19	24.701
706.51	25.391
706.83	21.612
707.15	25.763
707.47	26.946
707.79	24.355
708.11	28.836
708.43	27.200
708.74	28.142
709.06	26.074
709.38	25.223
709.70	23.701
710.02	25.524
710.34	24.113
710.66	26.592
710.98	23.776
711.29	27.491
711.61	23.759
711.93	30.712
712.25	21.132
712.57	26.953
712.89	25.306
713.20	25.403
713.52	20.325
713.84	27.007
714.16	27.703
714.48	24.915
714.80	25.589
715.11	32.302
715.43	25.939
715.75	25.614
716.07	27.273
716.39	29.352
716.70	25.200
717.02	22.177
717.34	25.974
717.66	21.364
717.97	19.907
718.29	21.778
718.61	20.270
718.93	24.790
719.24	25.105
719.56	23.214
719.88	24.706
720.20	18.803
720.51	24.123
720.83	28.452
721.15	23.673
721.46	26.160
721.78	23.810
722.10	24.031
722.42	25.217
722.73	25.792
723.05	30.876
723.37	27.149
723.68	24.171
724.00	21.759
724.32	23.364
724.63	23.529
724.95	20.548
725.27	24.413
725.58	28.767
725.90	19.369
726.22	23.144
726.53	27.459
726.85	25.556
727.16	27.126
727.48	24.194
727.80	21.005
728.11	26.222
728.43	25.514
728.74	21.930
729.06	24.454
729.38	30.620
729.69	24.400
730.01	28.033
730.32	20.319
730.64	27.308
730.96	29.344
731.27	23.938
731.59	23.906
731.90	21.711
732.22	27.907
732.53	26.316
732.85	23.592
733.16	26.007
733.48	27.612
733.80	29.818
734.11	25.887
734.43	29.242
734.74	27.103
735.06	27.974
735.37	23.003
735.69	24.648
736.00	26.667
736.32	27.622
736.63	26.667
736.95	22.957
737.26	24.638
737.58	25.912
737.89	24.151
738.21	27.481
738.52	27.049
738.83	19.658
739.15	23.636
739.46	13.964
739.78	24.324
740.09	26.190
740.41	25.000
740.72	27.092
741.04	24.506
741.35	26.906
741.66	26.344
741.98	22.449
742.29	22.280
742.61	16.185
742.92	21.078
743.23	25.373
743.55	20.207
743.86	25.604
744.18	20.500
744.49	21.111
744.80	27.419
745.12	24.615
745.43	23.529
745.74	20.856
746.06	28.161
746.37	16.111
746.68	28.108
747.00	14.917
747.31	23.037
747.62	23.158
747.94	23.585
748.25	29.557
748.56	25.758
748.88	20.765
749.19	29.016
749.50	22.941
749.82	27.500
750.13	23.301
750.44	27.897
750.75	30.000
751.07	21.757
751.38	21.484
751.69	26.190
752.01	26.471
752.32	21.901
752.63	26.638
752.94	28.400
753.26	24.201
753.57	27.962
753.88	21.395
754.19	23.789
754.51	25.523
754.82	22.917
755.13	19.912
755.44	29.004
755.75	23.293
756.07	31.760
756.38	32.218
756.69	33.208
757.00	25.887
757.31	27.336
757.63	28.758
757.94	26.061
758.25	29.762
758.56	26.486
758.87	24.107
759.18	27.414
759.50	24.911
759.81	21.622
760.12	29.537
760.43	31.561
760.74	26.048
761.05	28.846
761.36	32.641
761.67	28.267
761.99	29.431
762.30	25.818
762.61	31.301
762.92	27.111
763.23	26.047
763.54	24.365
763.85	24.434
764.16	22.609
764.47	26.522
764.78	24.194
765.10	25.197
765.41	28.763
765.72	28.094
766.03	27.090
766.34	25.379
766.65	28.906
766.96	20.000
767.27	27.374
767.58	23.270
767.89	22.727
768.20	20.946
768.51	14.943
768.82	15.625
769.13	25.000
769.44	29.717
769.75	24.510
770.06	20.388
770.37	20.745
770.68	23.590
770.99	25.381
771.30	23.711
771.61	22.422
771.92	28.774
772.23	19.231
772.54	25.294
772.85	19.178
773.16	18.710
773.47	17.197
773.78	26.347
774.09	23.684
774.39	19.853
774.70	13.534
775.01	26.923
775.32	9.524
775.63	18.110
775.94	12.264
776.25	10.370
776.56	16.364
776.87	11.966
777.18	21.000
777.48	14.423
777.79	14.815
778.10	16.038
778.41	20.588
778.72	21.698
779.03	17.544
779.34	18.487
779.65	23.944
779.95	22.302
780.26	12.097
780.57	17.391
780.88	11.009
781.19	27.778
781.50	12.295
781.80	22.628
782.11	17.949
782.42	15.172
782.73	26.573
783.04	20.000
783.34	22.400
783.65	18.699
783.96	12.295
784.27	11.765
784.57	16.822
784.88	20.536
785.19	12.371
785.50	14.737
785.81	14.000
786.11	18.812
786.42	-4.706
786.73	6.250
787.04	8.163
787.34	13.889
787.65	19.811
787.96	10.309
788.26	27.723
788.57	16.522
788.88	14.679
789.19	19.008
789.49	20.000
789.80	19.828
790.11	2.439
790.41	16.854
790.72	-1.163
791.03	9.302
791.33	0.000
791.64	10.976
791.95	24.390
792.25	-3.614
792.56	7.407
792.87	2.817
793.17	16.867
793.48	12.941
793.79	8.750
794.09	-5.000
794.40	17.391
794.70	18.261
795.01	23.853
795.32	13.386
795.62	10.784
795.93	19.608
796.23	19.192
796.54	0.000
796.85	8.696
797.15	-3.125
797.46	3.390
797.76	6.557
798.07	10.526
798.37	19.355
798.68	-20.312
798.99	13.846
799.29	0.000
799.60	13.043
799.90	2.857
800.21	-15.789
800.51	-3.448
800.82	-1.887
801.12	0.000
801.43	6.452
801.73	8.065
802.04	14.000
802.34	-5.660
802.65	-18.421
802.95	7.273
803.26	3.774
803.56	3.279
803.87	16.000
804.17	-5.556
804.48	23.077
804.78	-16.327
805.09	0.000
805.39	15.254
805.70	-16.667
806.00	-17.857
806.30	-3.390
806.61	3.077
806.91	-6.154
807.22	-1.316
807.52	22.857
807.83	-27.586
808.13	12.658
808.43	-11.475
808.74	6.557
809.04	13.514
809.35	3.704
809.65	0.000
809.95	6.780
810.26	-18.367
810.56	-9.434
810.86	0.000
811.17	-8.108
811.47	-66.667
811.77	0.000
812.08	4.545
812.38	0.000
812.69	-20.513
812.99	0.000
813.29	8.696
813.59	-22.857
813.90	-21.429
814.20	3.636
814.50	12.245
814.81	3.922
815.11	-25.000
815.41	-14.634
815.72	-50.000
816.02	10.638
816.32	0.000
816.62	-36.364
816.93	-69.697
817.23	-32.432
817.53	-44.118
817.84	15.000
818.14	-26.471
818.44	-43.750
818.74	-109.524
819.04	-45.714
819.35	5.714
819.65	-2.273
819.95	2.564
820.25	-61.111
820.56	-48.276
820.86	-7.143
821.16	-43.478
821.46	-14.286
821.76	1.852
822.07	-13.043
822.37	-20.408
822.67	-13.953
822.97	-30.435
823.27	-42.308
823.57	-48.148
823.88	-35.714
824.18	-7.692
824.48	-71.429
824.78	-27.273
825.08	-113.333
825.38	-7.500
825.69	-116.667
825.99	-40.741
826.29	4.444
826.59	-59.259
826.89	-59.259
827.19	-35.714
827.49	-77.273
827.79	-90.909
828.09	-59.091
828.39	-78.261
828.70	-62.963
829.00	-46.429
829.30	-14.286
829.60	-41.935
829.90	-76.923
830.20	7.692
830.50	-31.818
830.80	-61.905
831.10	-150.000
831.40	-92.857
831.70	-22.222
832.00	-94.118
832.30	-43.478
832.60	-20.833
832.90	-254.545
833.20	-77.778
833.50	3.125
833.80	-50.000
834.10	28.000
834.40	-45.833
834.70	-40.909
835.00	-26.923
835.30	-70.000
835.60	-180.000
835.90	-65.000
836.20	-85.714
836.50	-73.913
836.80	-27.778
837.10	-120.000
837.40	-180.000
837.70	-56.522
838.00	-107.143
838.30	2700.000
838.60	-36.000
838.90	-380.000
839.19	-200.000
839.49	-1250.000
839.79	-105.882
840.09	-55.556
840.39	-21.429
840.69	-94.444
840.99	-100.000
841.29	-13.793
841.59	-93.333
841.88	-81.818
842.18	-366.667
842.48	-6.250
842.78	-26.923
843.08	-82.353
843.38	-85.000
843.68	-146.154
843.97	-17.647
844.27	-90.000
844.57	-20.833
844.87	-90.909
845.17	-57.895
845.47	-66.667
845.76	-16.667
846.06	-71.429
846.36	-78.571
846.66	-244.444
846.96	-100.000
847.25	-340.000
847.55	-237.500
847.85	-86.667
848.15	-350.000
848.44	-52.632
848.74	-46.667
849.04	-21.053
849.34	-333.333
849.63	-183.333
849.93	-41.176
850.23	-172.727
850.53	-466.667
850.82	-320.000
851.12	-288.889
851.42	-228.571
851.71	-240.000
852.01	-92.857
852.31	-833.333
852.61	-46.154
852.90	-400.000
853.20	-200.000
853.50	-233.333
853.79	-100.000
854.09	-85.000
854.39	-89.474
854.68	-40.000
854.98	-400.000
855.28	-11.111
855.57	-142.857
855.87	-115.789
856.17	-137.500
856.46	-50.000
856.76	-60.000
857.05	-75.000
857.35	-45.833
857.65	-72.222
857.94	-137.500
858.24	-78.261
858.53	-130.000
858.83	-700.000
859.13	-236.364
859.42	-370.000
859.72	183.333
860.01	-53.846
860.31	-160.000
860.60	-362.500
860.90	-450.000
861.20	-333.333
861.49	-325.000
861.79	1000.000
862.08	0.000
862.38	-73.684
862.67	-107.692
862.97	-350.000
863.26	-91.667
863.56	-34.783
863.85	-233.333
864.15	-142.857
864.44	-75.000
864.74	-116.667
865.03	-144.444
865.33	-333.333
865.62	-1800.000
865.92	-850.000
866.21	-350.000
866.51	-63.636
866.80	-700.000
867.10	-185.714
867.39	-222.222
867.69	-83.333
867.98	340.000
868.27	-525.000
868.57	750.000
868.86	-86.667
869.16	-53.846
869.45	1100.000
869.75	-250.000
870.04	-100.000
870.33	-35.294
870.63	-200.000
870.92	69.565
871.22	-300.000
871.51	700.000
871.80	-50.000
872.10	-433.333
>>>>>End Processed Spectral Data<<<<<
