SpectraSuite Data File
++++++++++++++++++++++++++++++++++++
Date: Wed May 13 19:21:43 PDT 2015
User: schluterlab
Dark Spectrum Present: Yes
Reference Spectrum Present: Yes
Number of Sampled Component Spectra: 1
Spectrometers: USB2E3373
Integration Time (usec): 3000 (USB2E3373)
Spectra Averaged: 3 (USB2E3373)
Boxcar Smoothing: 0 (USB2E3373)
Correct for Electrical Dark: No (USB2E3373)
Strobe/Lamp Enabled: No (USB2E3373)
Correct for Detector Non-linearity: No (USB2E3373)
Correct for Stray Light: No (USB2E3373)
Number of Pixels in Processed Spectrum: 2048
>>>>>Begin Processed Spectral Data<<<<<
178.53	0.000
178.91	-1425.000
179.29	-1475.000
179.67	-261.111
180.04	-1400.000
180.42	3250.000
180.80	1160.000
181.18	-1300.000
181.56	928.571
181.94	0.000
182.31	-885.714
182.69	1866.667
183.07	-800.000
183.45	-677.778
183.83	627.273
184.20	-500.000
184.58	2400.000
184.96	6700.000
185.34	-1080.000
185.72	-800.000
186.09	-2750.000
186.47	2800.000
186.85	2600.000
187.23	5500.000
187.61	-1933.333
187.98	1400.000
188.36	590.909
188.74	645.455
189.12	-940.000
189.49	610.000
189.87	-5100.000
190.25	-1350.000
190.63	478.571
191.00	530.769
191.38	900.000
191.76	-1400.000
192.14	1725.000
192.51	725.000
192.89	1083.333
193.27	562.500
193.65	-1325.000
194.02	660.000
194.40	1220.000
194.78	520.000
195.15	566.667
195.53	700.000
195.91	-2450.000
196.29	387.500
196.66	384.211
197.04	-430.000
197.42	0.000
197.79	640.000
198.17	-6000.000
198.55	757.143
198.92	875.000
199.30	960.000
199.68	0.000
200.05	366.667
200.43	885.714
200.81	5900.000
201.18	2100.000
201.56	-1900.000
201.94	600.000
202.31	644.444
202.69	491.667
203.07	610.000
203.44	0.000
203.82	1225.000
204.19	885.714
204.57	442.857
204.95	812.500
205.32	1900.000
205.70	590.909
206.08	485.714
206.45	3200.000
206.83	431.250
207.20	1183.333
207.58	920.000
207.96	344.444
208.33	775.000
208.71	-866.667
209.08	828.571
209.46	700.000
209.84	554.545
210.21	-1666.667
210.59	1625.000
210.96	-587.500
211.34	2800.000
211.71	610.000
212.09	900.000
212.46	0.000
212.84	1766.667
213.22	1450.000
213.59	-4900.000
213.97	1050.000
214.34	928.571
214.72	654.545
215.09	1100.000
215.47	-2600.000
215.84	-3150.000
216.22	1833.333
216.59	407.143
216.97	1775.000
217.34	600.000
217.72	-1050.000
218.09	0.000
218.47	-6200.000
218.84	744.444
219.22	885.714
219.59	1733.333
219.97	-714.286
220.34	1040.000
220.72	-1766.667
221.09	507.143
221.47	1775.000
221.84	-1016.667
222.22	0.000
222.59	1325.000
222.97	-2750.000
223.34	1400.000
223.72	461.538
224.09	1200.000
224.46	2400.000
224.84	-6500.000
225.21	-1220.000
225.59	-5300.000
225.96	640.000
226.34	370.000
226.71	2850.000
227.08	637.500
227.46	600.000
227.83	-1275.000
228.21	-2350.000
228.58	677.778
228.95	-2500.000
229.33	-2700.000
229.70	2000.000
230.08	885.714
230.45	-1100.000
230.82	533.333
231.20	1000.000
231.57	885.714
231.95	541.667
232.32	290.909
232.69	545.455
233.07	871.429
233.44	446.154
233.81	-2000.000
234.19	363.158
234.56	566.667
234.93	550.000
235.31	618.182
235.68	507.692
236.05	500.000
236.43	209.091
236.80	363.158
237.17	5800.000
237.55	252.381
237.92	282.143
238.29	352.381
238.67	212.903
239.04	265.517
239.41	200.000
239.79	171.739
240.16	188.095
240.53	200.000
240.91	150.980
241.28	156.000
241.65	144.000
242.02	152.174
242.40	135.484
242.77	160.000
243.14	113.978
243.51	123.596
243.89	117.647
244.26	114.444
244.63	110.753
245.00	117.021
245.38	115.842
245.75	88.785
246.12	100.000
246.49	94.161
246.87	104.000
247.24	100.000
247.61	90.000
247.98	81.699
248.36	93.243
248.73	87.261
249.10	88.535
249.47	85.311
249.84	83.422
250.22	73.797
250.59	88.166
250.96	85.859
251.33	80.569
251.70	79.208
252.08	76.190
252.45	71.749
252.82	75.652
253.19	79.574
253.56	75.686
253.94	78.838
254.31	76.172
254.68	76.154
255.05	72.325
255.42	78.862
255.79	76.103
256.16	73.646
256.54	73.852
256.91	68.327
257.28	71.942
257.65	70.297
258.02	68.323
258.39	68.139
258.76	71.572
259.14	65.476
259.51	66.261
259.88	65.217
260.25	70.091
260.62	69.364
260.99	67.391
261.36	70.270
261.73	67.335
262.10	68.895
262.47	65.070
262.85	62.396
263.22	64.957
263.59	64.957
263.96	63.462
264.33	62.402
264.70	63.421
265.07	62.404
265.44	66.414
265.81	58.394
266.18	63.819
266.55	66.585
266.92	63.636
267.29	63.889
267.66	62.615
268.03	60.909
268.40	61.449
268.77	63.246
269.14	60.811
269.51	61.851
269.88	63.869
270.25	60.497
270.62	61.124
270.99	61.720
271.36	60.730
271.73	64.019
272.10	60.435
272.47	62.366
272.84	62.121
273.21	63.103
273.58	59.170
273.95	57.862
274.32	58.884
274.69	59.957
275.06	58.858
275.43	60.851
275.80	61.122
276.17	59.063
276.54	62.786
276.91	57.115
277.28	58.008
277.65	59.188
278.02	61.284
278.39	58.984
278.76	57.636
279.13	58.868
279.50	58.845
279.87	56.574
280.23	57.285
280.60	56.673
280.97	57.116
281.34	56.283
281.71	60.000
282.08	60.077
282.45	54.909
282.82	57.549
283.19	55.793
283.56	55.789
283.92	55.838
284.29	56.085
284.66	56.443
285.03	56.781
285.40	52.465
285.77	55.556
286.14	54.404
286.51	56.333
286.87	52.308
287.24	54.397
287.61	52.327
287.98	53.734
288.35	52.773
288.72	51.558
289.08	51.800
289.45	51.895
289.82	50.894
290.19	51.648
290.56	49.464
290.93	49.547
291.29	51.534
291.66	48.820
292.03	50.000
292.40	50.367
292.77	49.704
293.13	47.463
293.50	48.980
293.87	46.519
294.24	45.926
294.60	47.598
294.97	46.512
295.34	47.250
295.71	47.017
296.08	45.157
296.44	44.704
296.81	42.933
297.18	43.767
297.55	42.216
297.91	43.140
298.28	45.515
298.65	44.778
299.02	45.718
299.38	44.887
299.75	42.318
300.12	42.529
300.48	42.125
300.85	42.540
301.22	40.382
301.59	40.909
301.95	42.065
302.32	43.004
302.69	39.307
303.05	42.061
303.42	39.012
303.79	40.430
304.15	41.958
304.52	41.599
304.89	40.302
305.25	39.675
305.62	40.657
305.99	41.204
306.35	40.492
306.72	40.022
307.09	41.842
307.45	40.878
307.82	39.286
308.19	39.404
308.55	39.590
308.92	39.957
309.29	39.493
309.65	39.343
310.02	39.112
310.38	39.677
310.75	39.916
311.12	40.123
311.48	39.185
311.85	40.881
312.22	39.646
312.58	40.333
312.95	40.444
313.31	38.738
313.68	40.956
314.05	41.223
314.41	41.508
314.78	40.987
315.14	40.318
315.51	40.783
315.87	42.772
316.24	41.509
316.61	41.715
316.97	43.346
317.34	41.683
317.70	44.551
318.07	42.926
318.43	44.227
318.80	46.298
319.16	43.879
319.53	44.090
319.89	45.619
320.26	46.200
320.62	46.627
320.99	47.475
321.35	46.768
321.72	47.844
322.08	49.260
322.45	50.945
322.81	50.678
323.18	52.312
323.54	51.206
323.91	53.019
324.27	53.346
324.64	52.656
325.00	52.209
325.37	55.687
325.73	56.553
326.10	54.810
326.46	56.541
326.83	57.636
327.19	58.668
327.56	60.192
327.92	61.417
328.29	61.668
328.65	62.431
329.01	61.913
329.38	62.350
329.74	61.958
330.11	65.127
330.47	64.555
330.84	63.879
331.20	63.479
331.56	63.761
331.93	65.833
332.29	63.531
332.66	65.398
333.02	64.717
333.38	64.950
333.75	64.973
334.11	64.502
334.48	64.862
334.84	66.544
335.20	65.455
335.57	65.730
335.93	64.911
336.29	65.659
336.66	67.087
337.02	66.154
337.38	67.315
337.75	66.934
338.11	67.771
338.47	67.587
338.84	67.644
339.20	66.606
339.56	68.431
339.93	68.000
340.29	66.757
340.65	67.647
341.02	67.539
341.38	66.815
341.74	67.018
342.11	68.210
342.47	68.194
342.83	67.808
343.20	67.273
343.56	66.639
343.92	66.491
344.28	66.667
344.65	68.272
345.01	65.741
345.37	68.268
345.73	67.682
346.10	68.798
346.46	67.119
346.82	67.710
347.19	66.249
347.55	66.420
347.91	67.961
348.27	69.926
348.63	67.057
349.00	66.505
349.36	66.913
349.72	65.437
350.08	66.126
350.45	66.395
350.81	64.744
351.17	68.720
351.53	68.141
351.89	66.584
352.26	67.245
352.62	67.442
352.98	66.613
353.34	68.036
353.70	67.840
354.07	66.452
354.43	66.825
354.79	65.326
355.15	66.640
355.51	68.825
355.87	69.714
356.24	67.915
356.60	67.522
356.96	67.820
357.32	67.048
357.68	68.425
358.04	66.508
358.40	68.884
358.77	67.293
359.13	67.719
359.49	67.451
359.85	68.333
360.21	69.458
360.57	67.315
360.93	68.846
361.29	66.591
361.66	67.337
362.02	67.612
362.38	68.365
362.74	67.634
363.10	68.098
363.46	67.792
363.82	69.539
364.18	67.695
364.54	70.059
364.90	67.918
365.26	68.824
365.62	70.636
365.98	68.809
366.35	69.699
366.71	68.980
367.07	68.536
367.43	70.247
367.79	70.807
368.15	70.115
368.51	69.113
368.87	69.736
369.23	70.519
369.59	70.818
369.95	69.853
370.31	68.732
370.67	68.043
371.03	72.809
371.39	68.950
371.75	71.250
372.11	69.630
372.47	70.821
372.83	72.839
373.19	69.798
373.55	72.949
373.91	72.312
374.27	70.584
374.63	70.618
374.99	71.328
375.35	70.830
375.71	69.294
376.07	72.702
376.42	70.770
376.78	70.245
377.14	70.692
377.50	73.113
377.86	70.678
378.22	71.049
378.58	70.739
378.94	70.773
379.30	71.565
379.66	71.320
380.02	71.560
380.38	71.160
380.74	72.449
381.09	72.311
381.45	73.325
381.81	72.052
382.17	72.866
382.53	71.447
382.89	72.346
383.25	73.796
383.61	73.978
383.97	73.171
384.32	72.926
384.68	72.553
385.04	72.649
385.40	72.817
385.76	72.850
386.12	72.280
386.48	73.820
386.83	75.305
387.19	74.212
387.55	74.459
387.91	73.700
388.27	72.287
388.62	73.694
388.98	73.833
389.34	74.218
389.70	72.900
390.06	74.081
390.42	72.957
390.77	73.601
391.13	75.239
391.49	73.731
391.85	72.884
392.20	73.565
392.56	75.505
392.92	73.514
393.28	73.964
393.64	74.101
393.99	73.122
394.35	73.635
394.71	72.961
395.07	72.586
395.42	74.660
395.78	73.728
396.14	72.688
396.50	74.311
396.85	75.016
397.21	73.058
397.57	74.644
397.92	74.579
398.28	72.478
398.64	73.536
399.00	72.636
399.35	74.055
399.71	73.727
400.07	74.098
400.42	74.724
400.78	73.643
401.14	74.329
401.49	73.075
401.85	72.656
402.21	72.814
402.57	72.548
402.92	73.897
403.28	74.766
403.63	73.948
403.99	75.732
404.35	73.515
404.70	74.520
405.06	72.801
405.42	74.485
405.77	72.743
406.13	71.558
406.49	73.743
406.84	72.888
407.20	73.168
407.55	73.580
407.91	75.467
408.27	74.282
408.62	72.908
408.98	72.917
409.34	72.817
409.69	74.194
410.05	73.916
410.40	73.517
410.76	72.999
411.11	72.919
411.47	73.419
411.83	74.343
412.18	73.408
412.54	73.101
412.89	72.048
413.25	73.022
413.60	72.514
413.96	71.767
414.31	72.053
414.67	72.560
415.03	73.311
415.38	72.938
415.74	73.376
416.09	73.089
416.45	73.427
416.80	72.769
417.16	73.592
417.51	73.590
417.87	71.869
418.22	73.565
418.58	72.111
418.93	73.710
419.29	72.311
419.64	72.040
420.00	71.829
420.35	71.652
420.71	73.700
421.06	71.718
421.42	72.573
421.77	71.749
422.12	71.421
422.48	70.426
422.83	73.209
423.19	70.442
423.54	71.561
423.90	71.478
424.25	70.966
424.61	70.655
424.96	72.886
425.31	71.595
425.67	69.944
426.02	71.371
426.38	72.772
426.73	70.743
427.09	71.550
427.44	70.098
427.79	71.363
428.15	71.607
428.50	69.807
428.85	70.441
429.21	69.575
429.56	71.021
429.92	70.911
430.27	70.705
430.62	69.278
430.98	70.317
431.33	69.381
431.68	70.628
432.04	68.903
432.39	70.817
432.74	70.856
433.10	71.703
433.45	70.379
433.80	70.177
434.16	69.658
434.51	69.000
434.86	69.156
435.22	70.928
435.57	71.003
435.92	69.046
436.28	71.767
436.63	70.254
436.98	69.720
437.34	70.662
437.69	69.312
438.04	70.883
438.39	70.806
438.75	69.494
439.10	71.229
439.45	69.421
439.81	69.547
440.16	69.283
440.51	70.299
440.86	69.485
441.22	70.133
441.57	70.488
441.92	70.778
442.27	70.344
442.63	69.036
442.98	71.775
443.33	69.891
443.68	68.095
444.03	69.449
444.39	69.426
444.74	70.292
445.09	69.865
445.44	69.163
445.79	68.629
446.15	68.819
446.50	68.928
446.85	68.756
447.20	69.352
447.55	70.798
447.91	70.546
448.26	69.950
448.61	69.135
448.96	69.657
449.31	70.472
449.66	68.711
450.02	68.078
450.37	69.274
450.72	69.882
451.07	69.470
451.42	68.328
451.77	69.524
452.12	68.649
452.47	69.465
452.83	70.513
453.18	69.254
453.53	70.625
453.88	69.640
454.23	69.755
454.58	69.534
454.93	71.647
455.28	67.955
455.63	68.871
455.98	69.583
456.34	69.598
456.69	69.881
457.04	69.536
457.39	67.680
457.74	67.615
458.09	68.028
458.44	68.814
458.79	65.835
459.14	68.397
459.49	68.885
459.84	67.590
460.19	67.236
460.54	65.972
460.89	67.526
461.24	69.702
461.59	69.088
461.94	67.633
462.29	68.605
462.64	66.688
462.99	66.363
463.34	67.133
463.69	69.543
464.04	67.478
464.39	67.014
464.74	66.667
465.09	67.431
465.44	66.316
465.79	66.107
466.14	66.338
466.49	66.685
466.84	67.426
467.19	66.566
467.54	67.688
467.89	66.206
468.24	66.667
468.59	68.132
468.94	66.402
469.29	67.866
469.64	67.537
469.99	68.606
470.34	67.900
470.68	69.397
471.03	67.347
471.38	70.049
471.73	67.422
472.08	67.434
472.43	67.588
472.78	68.400
473.13	66.752
473.48	67.353
473.83	67.622
474.17	66.459
474.52	66.749
474.87	66.959
475.22	66.628
475.57	64.696
475.92	65.799
476.27	65.389
476.61	66.078
476.96	64.926
477.31	66.353
477.66	66.521
478.01	63.147
478.36	65.891
478.70	64.071
479.05	65.335
479.40	65.302
479.75	65.175
480.10	63.966
480.45	63.589
480.79	62.972
481.14	64.188
481.49	63.787
481.84	63.740
482.19	64.698
482.53	64.541
482.88	64.076
483.23	62.757
483.58	64.104
483.92	62.371
484.27	61.786
484.62	62.716
484.97	62.121
485.31	62.329
485.66	59.980
486.01	57.738
486.36	56.043
486.70	56.351
487.05	57.059
487.40	59.448
487.75	59.858
488.09	60.813
488.44	61.574
488.79	63.183
489.13	62.147
489.48	62.887
489.83	62.192
490.17	63.218
490.52	61.736
490.87	62.144
491.22	61.528
491.56	61.412
491.91	62.308
492.26	60.818
492.60	61.060
492.95	61.132
493.30	61.729
493.64	62.203
493.99	61.328
494.34	62.026
494.68	61.447
495.03	61.043
495.37	60.214
495.72	62.086
496.07	62.042
496.41	60.088
496.76	60.642
497.11	60.108
497.45	60.084
497.80	60.509
498.14	61.208
498.49	60.829
498.84	61.266
499.18	59.857
499.53	60.019
499.87	60.531
500.22	59.680
500.56	60.583
500.91	60.769
501.26	60.123
501.60	60.750
501.95	58.845
502.29	61.012
502.64	59.730
502.98	58.626
503.33	59.232
503.67	58.886
504.02	60.430
504.36	57.932
504.71	59.453
505.06	59.036
505.40	59.212
505.75	58.486
506.09	58.260
506.44	59.793
506.78	58.987
507.13	59.667
507.47	59.545
507.82	59.676
508.16	58.764
508.51	60.223
508.85	58.640
509.19	58.776
509.54	59.184
509.88	60.278
510.23	58.663
510.57	59.133
510.92	59.503
511.26	57.965
511.61	57.884
511.95	57.046
512.30	58.696
512.64	59.215
512.98	59.164
513.33	59.154
513.67	57.951
514.02	58.063
514.36	58.820
514.70	58.771
515.05	58.338
515.39	57.768
515.74	57.545
516.08	58.580
516.42	58.435
516.77	57.748
517.11	58.324
517.46	58.352
517.80	58.885
518.14	57.730
518.49	58.401
518.83	56.989
519.17	57.794
519.52	57.329
519.86	58.129
520.20	58.439
520.55	59.186
520.89	60.523
521.23	59.530
521.58	58.884
521.92	59.767
522.26	56.010
522.61	59.128
522.95	57.950
523.29	57.334
523.64	59.207
523.98	57.486
524.32	58.022
524.66	58.208
525.01	57.475
525.35	57.931
525.69	56.650
526.04	57.134
526.38	57.596
526.72	56.626
527.06	58.632
527.41	55.322
527.75	57.814
528.09	57.739
528.43	57.425
528.78	57.775
529.12	55.576
529.46	57.012
529.80	57.054
530.15	56.822
530.49	55.077
530.83	55.380
531.17	57.768
531.51	58.236
531.86	56.710
532.20	57.432
532.54	56.887
532.88	55.841
533.22	54.716
533.57	55.494
533.91	54.786
534.25	55.529
534.59	56.376
534.93	54.670
535.27	55.582
535.62	54.335
535.96	55.242
536.30	54.927
536.64	55.184
536.98	55.740
537.32	54.707
537.66	56.067
538.01	55.497
538.35	53.523
538.69	55.010
539.03	53.541
539.37	53.994
539.71	53.402
540.05	54.837
540.39	54.817
540.73	53.493
541.07	55.548
541.42	55.643
541.76	54.581
542.10	54.851
542.44	53.841
542.78	55.204
543.12	52.335
543.46	55.410
543.80	54.717
544.14	52.246
544.48	54.413
544.82	52.790
545.16	54.912
545.50	52.635
545.84	53.965
546.18	54.613
546.52	53.820
546.86	54.296
547.20	54.214
547.54	52.639
547.88	54.018
548.22	52.055
548.56	52.013
548.90	52.241
549.24	52.997
549.58	53.820
549.92	52.953
550.26	54.332
550.60	52.974
550.94	53.803
551.28	52.451
551.62	54.206
551.96	52.702
552.30	53.652
552.64	53.617
552.98	52.203
553.32	52.731
553.66	52.965
554.00	52.780
554.34	52.105
554.68	53.290
555.02	52.539
555.36	51.427
555.69	51.759
556.03	52.692
556.37	51.910
556.71	51.364
557.05	51.681
557.39	51.714
557.73	52.152
558.07	53.735
558.41	53.111
558.75	51.359
559.08	52.871
559.42	52.986
559.76	50.662
560.10	50.250
560.44	50.943
560.78	49.701
561.12	50.858
561.45	49.804
561.79	50.231
562.13	50.905
562.47	50.888
562.81	51.395
563.15	49.766
563.48	50.398
563.82	50.228
564.16	49.313
564.50	48.503
564.84	48.862
565.17	50.515
565.51	49.521
565.85	49.619
566.19	49.405
566.52	50.412
566.86	49.066
567.20	48.467
567.54	48.801
567.88	48.343
568.21	48.254
568.55	47.118
568.89	47.179
569.23	46.212
569.56	45.020
569.90	45.094
570.24	44.098
570.57	43.897
570.91	43.051
571.25	43.576
571.59	43.240
571.92	43.059
572.26	43.356
572.60	43.544
572.93	42.759
573.27	43.390
573.61	42.574
573.95	42.558
574.28	41.985
574.62	42.177
574.96	41.481
575.29	42.071
575.63	42.683
575.97	41.968
576.30	42.485
576.64	42.532
576.98	41.906
577.31	42.167
577.65	41.759
577.98	41.154
578.32	40.667
578.66	41.216
578.99	41.406
579.33	41.636
579.67	41.182
580.00	41.836
580.34	41.528
580.67	41.598
581.01	41.714
581.35	41.235
581.68	40.673
582.02	40.021
582.35	40.452
582.69	40.155
583.02	40.845
583.36	41.157
583.70	42.008
584.03	41.614
584.37	42.899
584.70	42.294
585.04	41.707
585.37	40.634
585.71	41.189
586.04	41.556
586.38	41.536
586.72	42.392
587.05	40.397
587.39	41.161
587.72	41.407
588.06	41.676
588.39	41.564
588.73	41.742
589.06	42.350
589.40	42.290
589.73	42.344
590.07	43.203
590.40	42.163
590.73	43.872
591.07	43.630
591.40	44.327
591.74	44.545
592.07	43.935
592.41	43.076
592.74	42.097
593.08	41.006
593.41	40.588
593.75	40.787
594.08	41.737
594.41	41.393
594.75	42.144
595.08	41.052
595.42	41.331
595.75	41.987
596.09	42.696
596.42	42.122
596.75	41.790
597.09	43.853
597.42	41.737
597.75	42.260
598.09	41.739
598.42	41.581
598.76	41.265
599.09	40.593
599.42	40.502
599.76	40.959
600.09	40.546
600.42	40.321
600.76	40.393
601.09	40.583
601.42	40.791
601.76	41.176
602.09	41.542
602.42	41.441
602.76	41.959
603.09	41.660
603.42	40.531
603.76	40.663
604.09	41.062
604.42	41.826
604.76	42.176
605.09	42.246
605.42	41.727
605.75	41.101
606.09	41.155
606.42	41.357
606.75	40.647
607.09	41.189
607.42	40.436
607.75	40.717
608.08	41.337
608.42	41.820
608.75	41.975
609.08	40.796
609.41	41.361
609.75	41.544
610.08	41.753
610.41	41.527
610.74	42.053
611.07	42.737
611.41	42.002
611.74	42.182
612.07	42.857
612.40	42.497
612.73	41.947
613.07	42.672
613.40	42.443
613.73	40.745
614.06	41.935
614.39	40.587
614.72	41.158
615.06	42.595
615.39	42.091
615.72	41.360
616.05	41.467
616.38	42.079
616.71	42.162
617.05	43.934
617.38	42.754
617.71	42.643
618.04	43.089
618.37	42.164
618.70	43.248
619.03	42.632
619.36	42.227
619.69	43.169
620.03	45.604
620.36	43.850
620.69	44.589
621.02	45.059
621.35	44.558
621.68	43.614
622.01	44.272
622.34	44.781
622.67	44.106
623.00	42.920
623.33	43.817
623.66	43.317
623.99	44.330
624.32	42.939
624.65	43.432
624.99	42.139
625.32	43.157
625.65	43.727
625.98	44.658
626.31	43.779
626.64	44.735
626.97	44.971
627.30	44.223
627.63	45.037
627.96	44.828
628.29	45.844
628.62	45.471
628.95	46.698
629.28	46.077
629.61	45.738
629.94	46.000
630.26	46.425
630.59	45.853
630.92	44.540
631.25	43.435
631.58	45.445
631.91	45.335
632.24	46.308
632.57	45.331
632.90	47.368
633.23	46.644
633.56	47.345
633.89	47.905
634.22	47.787
634.55	48.402
634.88	46.467
635.20	47.909
635.53	47.590
635.86	47.772
636.19	45.765
636.52	46.597
636.85	45.246
637.18	44.700
637.51	47.636
637.83	44.636
638.16	49.488
638.49	46.977
638.82	48.293
639.15	48.000
639.48	47.382
639.81	49.330
640.13	48.828
640.46	48.054
640.79	45.839
641.12	48.693
641.45	48.603
641.77	49.779
642.10	48.684
642.43	51.502
642.76	48.297
643.09	50.767
643.41	48.103
643.74	49.537
644.07	48.933
644.40	49.693
644.73	51.181
645.05	51.664
645.38	48.973
645.71	49.114
646.04	51.495
646.36	53.255
646.69	53.010
647.02	51.190
647.35	53.608
647.67	49.381
648.00	50.569
648.33	50.000
648.66	48.333
648.98	48.726
649.31	47.384
649.64	46.338
649.96	46.647
650.29	47.393
650.62	47.249
650.94	49.919
651.27	52.703
651.60	47.587
651.92	51.917
652.25	45.440
652.58	47.975
652.90	48.815
653.23	47.149
653.56	48.346
653.88	46.910
654.21	47.235
654.54	49.670
654.86	48.754
655.19	44.459
655.52	32.337
655.84	28.085
656.17	36.851
656.49	50.369
656.82	52.580
657.15	40.180
657.47	30.609
657.80	23.751
658.13	24.919
658.45	37.139
658.78	38.063
659.10	39.773
659.43	41.014
659.75	43.546
660.08	46.076
660.41	49.814
660.73	50.826
661.06	50.478
661.38	52.364
661.71	53.269
662.03	51.479
662.36	49.304
662.68	52.610
663.01	50.707
663.33	49.894
663.66	49.790
663.98	51.836
664.31	48.529
664.63	51.215
664.96	46.479
665.28	49.180
665.61	49.708
665.93	50.503
666.26	53.347
666.58	51.046
666.91	54.757
667.23	52.809
667.56	49.460
667.88	54.060
668.21	50.959
668.53	53.362
668.86	48.918
669.18	50.320
669.50	51.522
669.83	54.902
670.15	51.778
670.48	48.802
670.80	51.509
671.13	49.894
671.45	51.064
671.77	48.880
672.10	48.429
672.42	48.057
672.75	48.590
673.07	45.070
673.39	49.910
673.72	47.461
674.04	51.373
674.37	46.796
674.69	47.853
675.01	47.071
675.34	50.308
675.66	51.789
675.98	52.953
676.31	47.689
676.63	50.955
676.95	48.428
677.28	51.402
677.60	50.110
677.92	50.422
678.25	48.665
678.57	50.797
678.89	51.503
679.22	46.562
679.54	50.763
679.86	47.890
680.18	45.438
680.51	49.113
680.83	45.907
681.15	47.170
681.48	50.662
681.80	49.323
682.12	46.169
682.44	45.068
682.77	51.120
683.09	54.077
683.41	50.554
683.73	50.331
684.06	49.174
684.38	45.793
684.70	47.868
685.02	47.842
685.34	44.505
685.67	44.406
685.99	45.533
686.31	46.246
686.63	43.816
686.96	45.000
687.28	43.863
687.60	47.283
687.92	44.241
688.24	47.338
688.56	49.398
688.89	49.793
689.21	51.747
689.53	46.138
689.85	49.667
690.17	47.619
690.49	47.983
690.82	52.804
691.14	47.321
691.46	47.890
691.78	47.189
692.10	48.554
692.42	47.705
692.74	46.058
693.06	46.383
693.39	45.585
693.71	48.690
694.03	48.632
694.35	46.104
694.67	45.995
694.99	48.537
695.31	47.794
695.63	49.043
695.95	50.122
696.27	48.477
696.59	52.591
696.91	50.518
697.23	48.826
697.56	45.629
697.88	43.967
698.20	45.833
698.52	45.806
698.84	46.102
699.16	46.313
699.48	45.843
699.80	50.242
700.12	55.325
700.44	49.867
700.76	52.486
701.08	50.287
701.40	48.045
701.72	50.146
702.04	54.545
702.36	50.425
702.68	50.708
703.00	48.753
703.32	48.138
703.64	47.185
703.96	55.153
704.28	52.035
704.60	56.305
704.91	53.116
705.23	51.320
705.55	57.475
705.87	59.468
706.19	55.124
706.51	54.829
706.83	55.758
707.15	49.580
707.47	46.212
707.79	49.386
708.11	44.292
708.43	45.714
708.74	48.980
709.06	45.714
709.38	48.031
709.70	53.488
710.02	53.116
710.34	50.000
710.66	52.239
710.98	49.432
711.29	48.837
711.61	53.097
711.93	50.321
712.25	54.019
712.57	56.618
712.89	57.785
713.20	51.672
713.52	52.632
713.84	51.266
714.16	50.000
714.48	51.724
714.80	52.584
715.11	51.873
715.43	50.445
715.75	50.145
716.07	51.118
716.39	49.216
716.70	55.482
717.02	49.640
717.34	53.357
717.66	54.851
717.97	62.948
718.29	57.407
718.61	52.555
718.93	56.250
719.24	51.903
719.56	54.915
719.88	50.508
720.20	56.757
720.51	52.613
720.83	59.480
721.15	53.358
721.46	51.773
721.78	55.197
722.10	56.226
722.42	60.150
722.73	53.184
723.05	58.197
723.37	57.490
723.68	58.301
724.00	54.472
724.32	56.048
724.63	53.252
724.95	54.812
725.27	57.490
725.58	55.859
725.90	51.825
726.22	56.226
726.53	50.347
726.85	52.218
727.16	52.669
727.48	53.191
727.80	50.379
728.11	53.623
728.43	53.846
728.74	51.613
729.06	58.029
729.38	54.412
729.69	55.516
730.01	49.147
730.32	48.264
730.64	50.167
730.96	49.175
731.27	48.675
731.59	51.376
731.90	49.854
732.22	50.000
732.53	48.916
732.85	54.808
733.16	47.910
733.48	52.159
733.80	52.922
734.11	52.548
734.43	48.521
734.74	44.571
735.06	47.564
735.37	51.445
735.69	48.408
736.00	53.922
736.32	48.287
736.63	47.284
736.95	53.035
737.26	47.959
737.58	47.419
737.89	50.836
738.21	52.901
738.52	54.643
738.83	53.962
739.15	48.846
739.46	53.650
739.78	51.042
740.09	47.385
740.41	50.323
740.72	50.523
741.04	54.074
741.35	50.833
741.66	65.778
741.98	53.302
742.29	60.766
742.61	62.069
742.92	57.014
743.23	58.120
743.55	55.600
743.86	57.456
744.18	63.717
744.49	54.545
744.80	58.685
745.12	57.727
745.43	55.507
745.74	63.514
746.06	55.505
746.37	59.193
746.68	56.561
747.00	55.556
747.31	58.571
747.62	54.867
747.94	60.352
748.25	51.064
748.56	56.828
748.88	53.465
749.19	63.000
749.50	56.744
749.82	52.439
750.13	52.245
750.44	46.350
750.75	51.579
751.07	49.518
751.38	50.871
751.69	52.708
752.01	51.880
752.32	51.264
752.63	51.773
752.94	53.689
753.26	60.400
753.57	53.659
753.88	53.906
754.19	47.143
754.51	51.042
754.82	50.181
755.13	50.566
755.44	51.504
755.75	49.635
756.07	49.645
756.38	52.920
756.69	49.329
757.00	48.802
757.31	44.214
757.63	44.737
757.94	45.576
758.25	44.853
758.56	41.975
758.87	44.892
759.18	47.576
759.50	52.978
759.81	48.910
760.12	45.312
760.43	44.126
760.74	45.652
761.05	44.633
761.36	41.176
761.67	47.159
761.99	46.894
762.30	54.861
762.61	52.290
762.92	53.125
763.23	52.941
763.54	53.600
763.85	48.828
764.16	54.231
764.47	47.529
764.78	47.703
765.10	45.570
765.41	46.608
765.72	47.006
766.03	48.276
766.34	50.000
766.65	59.149
766.96	60.256
767.27	59.391
767.58	57.812
767.89	59.474
768.20	64.943
768.51	56.345
768.82	52.752
769.13	50.813
769.44	55.870
769.75	54.077
770.06	51.376
770.37	55.204
770.68	58.796
770.99	51.556
771.30	47.131
771.61	55.157
771.92	54.918
772.23	56.723
772.54	61.538
772.85	63.874
773.16	62.234
773.47	64.130
773.78	64.467
774.09	63.690
774.39	64.327
774.70	66.667
775.01	74.638
775.32	71.895
775.63	69.079
775.94	66.906
776.25	78.740
776.56	64.925
776.87	73.770
777.18	74.219
777.48	80.153
777.79	72.727
778.10	70.370
778.41	74.107
778.72	68.613
779.03	67.785
779.34	65.772
779.65	64.189
779.95	66.871
780.26	73.203
780.57	73.793
780.88	86.719
781.19	70.677
781.50	68.919
781.80	68.553
782.11	59.322
782.42	60.127
782.73	66.258
783.04	71.622
783.34	70.423
783.65	67.123
783.96	76.119
784.27	67.832
784.57	61.151
784.88	74.074
785.19	77.778
785.50	82.075
785.81	83.582
786.11	80.328
786.42	72.868
786.73	74.336
787.04	92.453
787.34	90.179
787.65	88.000
787.96	82.883
788.26	79.339
788.57	80.508
788.88	76.860
789.19	71.528
789.49	81.818
789.80	74.809
790.11	94.286
790.41	97.030
790.72	90.361
791.03	102.174
791.33	100.000
791.64	92.784
791.95	85.149
792.25	100.000
792.56	96.104
792.87	120.513
793.17	97.468
793.48	105.747
793.79	87.356
794.09	92.045
794.40	73.109
794.70	73.529
795.01	70.370
795.32	64.748
795.62	64.567
795.93	79.310
796.23	91.150
796.54	100.000
796.85	98.649
797.15	133.803
797.46	119.697
797.76	106.024
798.07	97.468
798.37	113.846
798.68	110.606
798.99	108.451
799.29	100.000
799.60	80.682
799.90	113.699
800.21	117.910
800.51	131.034
800.82	136.842
801.12	124.590
801.43	116.667
801.73	93.243
802.04	126.984
802.34	116.049
802.65	120.313
802.95	122.034
803.26	132.813
803.56	107.143
803.87	112.308
804.17	110.294
804.48	140.741
804.78	120.690
805.09	113.235
805.39	125.000
805.70	132.143
806.00	132.787
806.30	106.061
806.61	98.780
806.91	105.063
807.22	114.474
807.52	91.045
807.83	126.761
808.13	125.000
808.43	130.000
808.74	106.579
809.04	120.290
809.35	132.836
809.65	103.947
809.95	140.323
810.26	118.644
810.56	106.349
810.86	159.091
811.17	183.333
811.47	120.000
811.77	135.185
812.08	147.273
812.38	158.000
812.69	166.667
812.99	179.545
813.29	155.102
813.59	159.524
813.90	165.306
814.20	132.727
814.50	112.308
814.81	117.647
815.11	151.020
815.41	122.951
815.72	169.048
816.02	129.091
816.32	161.905
816.62	145.000
816.93	146.341
817.23	183.333
817.53	147.727
817.84	218.182
818.14	150.000
818.44	177.778
818.74	202.941
819.04	147.500
819.35	191.429
819.65	185.294
819.95	221.429
820.25	285.000
820.56	189.744
820.86	156.818
821.16	190.698
821.46	146.154
821.76	152.000
822.07	228.571
822.37	177.500
822.67	193.939
822.97	135.294
823.27	232.143
823.57	186.486
823.88	192.500
824.18	206.667
824.48	180.952
824.78	256.000
825.08	279.167
825.38	170.270
825.69	178.049
825.99	250.000
826.29	224.138
826.59	213.158
826.89	173.684
827.19	194.118
827.49	219.355
827.79	181.818
828.09	175.000
828.39	136.170
828.70	144.898
829.00	222.222
829.30	190.323
829.60	167.500
829.90	413.333
830.20	246.429
830.50	269.565
830.80	273.913
831.10	216.667
831.40	233.333
831.70	226.087
832.00	261.538
832.30	229.630
832.60	406.250
832.90	240.000
833.20	471.429
833.50	232.258
833.80	196.552
834.10	218.750
834.40	246.154
834.70	416.667
835.00	366.667
835.30	202.857
835.60	476.923
835.90	224.138
836.20	378.571
836.50	234.483
836.80	208.000
837.10	197.222
837.40	319.048
837.70	364.706
838.00	237.037
838.30	266.667
838.60	285.714
838.90	292.308
839.19	310.000
839.49	407.143
839.79	355.000
840.09	270.000
840.39	295.238
840.69	282.609
840.99	366.667
841.29	520.000
841.59	425.000
841.88	362.500
842.18	210.345
842.48	342.857
842.78	226.667
843.08	304.348
843.38	193.750
843.68	1083.333
843.97	226.923
844.27	241.379
844.57	347.619
844.87	381.250
845.17	244.444
845.47	1833.333
845.76	622.222
846.06	329.412
846.36	700.000
846.66	450.000
846.96	275.000
847.25	454.545
847.55	436.364
847.85	282.609
848.15	530.000
848.44	442.857
848.74	294.444
849.04	329.412
849.34	670.000
849.63	336.842
849.93	518.182
850.23	1040.000
850.53	500.000
850.82	2300.000
851.12	-5800.000
851.42	5400.000
851.71	285.000
852.01	-1600.000
852.31	262.500
852.61	1966.667
852.90	300.000
853.20	280.000
853.50	394.118
853.79	338.095
854.09	237.500
854.39	337.500
854.68	191.892
854.98	216.129
855.28	213.333
855.57	224.138
855.87	233.333
856.17	305.263
856.46	386.667
856.76	394.118
857.05	241.379
857.35	283.333
857.65	466.667
857.94	286.957
858.24	250.000
858.53	355.000
858.83	318.182
859.13	406.667
859.42	0.000
859.72	577.778
860.01	472.727
860.31	295.455
860.60	310.526
860.90	269.565
861.20	711.111
861.49	575.000
861.79	-6400.000
862.08	700.000
862.38	361.905
862.67	430.769
862.97	400.000
863.26	644.444
863.56	372.222
863.85	550.000
864.15	737.500
864.44	440.000
864.74	1066.667
865.03	712.500
865.33	331.579
865.62	563.636
865.92	446.154
866.21	466.667
866.51	0.000
866.80	563.636
867.10	1320.000
867.39	484.615
867.69	481.818
867.98	310.526
868.27	509.091
868.57	368.421
868.86	-5500.000
869.16	343.750
869.45	2900.000
869.75	-5200.000
870.04	566.667
870.33	671.429
870.63	1050.000
870.92	2900.000
871.22	785.714
871.51	417.647
871.80	304.762
872.10	450.000
>>>>>End Processed Spectral Data<<<<<
