SpectraSuite Data File
++++++++++++++++++++++++++++++++++++
Date: Wed May 13 19:27:34 PDT 2015
User: schluterlab
Dark Spectrum Present: Yes
Reference Spectrum Present: Yes
Number of Sampled Component Spectra: 1
Spectrometers: USB2E3373
Integration Time (usec): 3000 (USB2E3373)
Spectra Averaged: 3 (USB2E3373)
Boxcar Smoothing: 0 (USB2E3373)
Correct for Electrical Dark: No (USB2E3373)
Strobe/Lamp Enabled: No (USB2E3373)
Correct for Detector Non-linearity: No (USB2E3373)
Correct for Stray Light: No (USB2E3373)
Number of Pixels in Processed Spectrum: 2048
>>>>>Begin Processed Spectral Data<<<<<
178.53	0.000
178.91	-1550.000
179.29	-1225.000
179.67	-255.556
180.04	-1300.000
180.42	2800.000
180.80	1100.000
181.18	-1000.000
181.56	771.429
181.94	0.000
182.31	-685.714
182.69	2033.333
183.07	-562.500
183.45	-611.111
183.83	590.909
184.20	-470.000
184.58	2900.000
184.96	6400.000
185.34	-720.000
185.72	-625.000
186.09	-2200.000
186.47	3000.000
186.85	2750.000
187.23	4800.000
187.61	-1566.667
187.98	1150.000
188.36	609.091
188.74	500.000
189.12	-1180.000
189.49	540.000
189.87	-5000.000
190.25	-1450.000
190.63	385.714
191.00	392.308
191.38	983.333
191.76	-1325.000
192.14	1500.000
192.51	775.000
192.89	1050.000
193.27	687.500
193.65	-1250.000
194.02	520.000
194.40	1100.000
194.78	480.000
195.15	475.000
195.53	590.000
195.91	-2200.000
196.29	350.000
196.66	326.316
197.04	-350.000
197.42	0.000
197.79	550.000
198.17	-5100.000
198.55	728.571
198.92	837.500
199.30	940.000
199.68	0.000
200.05	366.667
200.43	728.571
200.81	5400.000
201.18	1933.333
201.56	-1900.000
201.94	577.778
202.31	633.333
202.69	491.667
203.07	600.000
203.44	0.000
203.82	1375.000
204.19	871.429
204.57	500.000
204.95	687.500
205.32	1633.333
205.70	490.909
206.08	342.857
206.45	2400.000
206.83	381.250
207.20	950.000
207.58	920.000
207.96	300.000
208.33	800.000
208.71	-883.333
209.08	857.143
209.46	677.778
209.84	563.636
210.21	-1666.667
210.59	1400.000
210.96	-512.500
211.34	2900.000
211.71	580.000
212.09	866.667
212.46	0.000
212.84	1733.333
213.22	1300.000
213.59	-5300.000
213.97	866.667
214.34	800.000
214.72	663.636
215.09	1320.000
215.47	-2200.000
215.84	-2300.000
216.22	1833.333
216.59	450.000
216.97	1375.000
217.34	490.909
217.72	-800.000
218.09	0.000
218.47	-4500.000
218.84	666.667
219.22	714.286
219.59	1666.667
219.97	-700.000
220.34	1080.000
220.72	-1766.667
221.09	400.000
221.47	1625.000
221.84	-883.333
222.22	0.000
222.59	1350.000
222.97	-2200.000
223.34	1140.000
223.72	392.308
224.09	1220.000
224.46	1750.000
224.84	-5400.000
225.21	-980.000
225.59	-5100.000
225.96	570.000
226.34	290.000
226.71	2800.000
227.08	675.000
227.46	540.000
227.83	-1000.000
228.21	-2500.000
228.58	544.444
228.95	-2550.000
229.33	-2300.000
229.70	1766.667
230.08	571.429
230.45	-960.000
230.82	341.667
231.20	816.667
231.57	657.143
231.95	600.000
232.32	227.273
232.69	490.909
233.07	714.286
233.44	392.308
233.81	-2066.667
234.19	321.053
234.56	483.333
234.93	466.667
235.31	445.455
235.68	323.077
236.05	371.429
236.43	172.727
236.80	305.263
237.17	4900.000
237.55	228.571
237.92	221.429
238.29	290.476
238.67	183.871
239.04	196.552
239.41	161.111
239.79	126.087
240.16	142.857
240.53	134.091
240.91	127.451
241.28	114.000
241.65	122.000
242.02	92.754
242.40	106.452
242.77	105.000
243.14	80.645
243.51	84.270
243.89	78.824
244.26	78.889
244.63	69.892
245.00	86.170
245.38	84.158
245.75	55.140
246.12	65.138
246.49	61.314
246.87	68.800
247.24	61.538
247.61	57.143
247.98	56.209
248.36	54.730
248.73	50.955
249.10	64.968
249.47	47.458
249.84	50.267
250.22	45.989
250.59	44.379
250.96	51.010
251.33	46.445
251.70	44.554
252.08	49.048
252.45	46.188
252.82	47.826
253.19	46.809
253.56	43.137
253.94	40.664
254.31	41.016
254.68	44.231
255.05	42.435
255.42	39.431
255.79	40.074
256.16	42.960
256.54	36.042
256.91	40.214
257.28	32.734
257.65	39.274
258.02	36.957
258.39	39.117
258.76	36.789
259.14	36.905
259.51	35.866
259.88	34.161
260.25	35.347
260.62	35.838
260.99	33.540
261.36	38.739
261.73	33.524
262.10	35.465
262.47	38.873
262.85	32.869
263.22	34.473
263.59	36.182
263.96	30.495
264.33	35.248
264.70	32.105
265.07	34.783
265.44	33.586
265.81	32.360
266.18	30.402
266.55	30.000
266.92	32.432
267.29	34.028
267.66	31.422
268.03	30.455
268.40	30.374
268.77	30.072
269.14	31.757
269.51	32.280
269.88	32.401
270.25	30.700
270.62	29.888
270.99	29.892
271.36	30.258
271.73	30.607
272.10	31.304
272.47	31.828
272.84	30.519
273.21	31.656
273.58	29.476
273.95	26.625
274.32	28.099
274.69	31.263
275.06	29.134
275.43	29.574
275.80	28.257
276.17	30.957
276.54	29.938
276.91	31.818
277.28	28.711
277.65	30.174
278.02	30.435
278.39	30.078
278.76	27.273
279.13	29.623
279.50	29.609
279.87	27.291
280.23	28.942
280.60	27.853
280.97	28.835
281.34	28.319
281.71	28.909
282.08	28.791
282.45	26.545
282.82	28.597
283.19	25.847
283.56	28.246
283.92	27.580
284.29	27.160
284.66	29.038
285.03	28.210
285.40	26.232
285.77	27.609
286.14	26.943
286.51	27.000
286.87	29.573
287.24	25.570
287.61	26.324
287.98	26.136
288.35	24.247
288.72	25.078
289.08	24.257
289.45	24.712
289.82	25.691
290.19	23.234
290.56	22.971
290.93	24.169
291.29	22.699
291.66	24.631
292.03	25.727
292.40	24.229
292.77	24.556
293.13	23.731
293.50	23.615
293.87	22.074
294.24	23.407
294.60	21.834
294.97	22.384
295.34	25.952
295.71	22.585
296.08	20.370
296.44	22.971
296.81	21.268
297.18	22.087
297.55	19.657
297.91	22.032
298.28	22.222
298.65	21.802
299.02	21.739
299.38	20.452
299.75	18.194
300.12	19.668
300.48	20.125
300.85	20.962
301.22	19.873
301.59	21.338
301.95	20.025
302.32	20.282
302.69	19.952
303.05	18.909
303.42	20.000
303.79	19.139
304.15	18.648
304.52	19.467
304.89	18.118
305.25	18.445
305.62	19.026
305.99	19.717
306.35	19.687
306.72	18.722
307.09	19.756
307.45	18.356
307.82	17.969
308.19	18.874
308.55	19.417
308.92	17.938
309.29	17.846
309.65	17.073
310.02	17.653
310.38	18.925
310.75	17.635
311.12	18.628
311.48	19.018
311.85	18.029
312.22	17.794
312.58	19.023
312.95	18.691
313.31	15.825
313.68	17.672
314.05	19.625
314.41	17.990
314.78	17.321
315.14	18.073
315.51	17.714
315.87	17.525
316.24	16.981
316.61	17.641
316.97	18.395
317.34	16.047
317.70	18.642
318.07	16.362
318.43	17.906
318.80	18.182
319.16	18.738
319.53	17.355
319.89	17.714
320.26	18.600
320.62	17.857
320.99	17.273
321.35	18.485
321.72	17.556
322.08	18.460
322.45	18.607
322.81	18.023
323.18	19.364
323.54	19.017
323.91	18.585
324.27	18.834
324.64	17.521
325.00	17.133
325.37	19.472
325.73	18.492
326.10	18.005
326.46	17.921
326.83	19.327
327.19	17.848
327.56	18.990
327.92	17.323
328.29	18.279
328.65	18.785
329.01	19.404
329.38	18.779
329.74	19.760
330.11	18.756
330.47	19.651
330.84	19.945
331.20	18.852
331.56	19.817
331.93	20.370
332.29	19.698
332.66	19.646
333.02	20.201
333.38	19.874
333.75	19.608
334.11	19.573
334.48	19.876
334.84	20.129
335.20	19.818
335.57	20.762
335.93	19.107
336.29	18.773
336.66	20.289
337.02	19.819
337.38	19.537
337.75	18.182
338.11	19.606
338.47	18.877
338.84	19.523
339.20	18.440
339.56	20.803
339.93	19.455
340.29	20.018
340.65	19.430
341.02	20.942
341.38	19.395
341.74	19.298
342.11	19.039
342.47	18.326
342.83	18.836
343.20	20.346
343.56	19.545
343.92	18.421
344.28	19.388
344.65	18.745
345.01	18.855
345.37	18.182
345.73	19.374
346.10	18.926
346.46	18.983
346.82	19.440
347.19	18.129
347.55	18.227
347.91	18.932
348.27	19.803
348.63	19.231
349.00	18.932
349.36	17.570
349.72	18.765
350.08	18.071
350.45	19.040
350.81	18.278
351.17	19.044
351.53	17.690
351.89	17.739
352.26	18.627
352.62	18.765
352.98	18.720
353.34	18.077
353.70	17.349
354.07	18.226
354.43	17.698
354.79	16.573
355.15	17.159
355.51	19.265
355.87	17.633
356.24	18.160
356.60	18.524
356.96	18.423
357.32	17.334
357.68	17.402
358.04	17.260
358.40	17.815
358.77	18.232
359.13	17.285
359.49	17.098
359.85	15.397
360.21	16.906
360.57	18.054
360.93	18.077
361.29	17.234
361.66	16.718
362.02	16.791
362.38	17.490
362.74	17.485
363.10	15.766
363.46	16.875
363.82	17.536
364.18	17.181
364.54	17.756
364.90	17.635
365.26	16.765
365.62	17.093
365.98	16.216
366.35	16.404
366.71	16.341
367.07	15.805
367.43	17.199
367.79	16.417
368.15	16.595
368.51	15.988
368.87	17.131
369.23	16.020
369.59	17.017
369.95	15.882
370.31	16.382
370.67	16.522
371.03	17.303
371.39	16.108
371.75	16.250
372.11	16.572
372.47	15.689
372.83	17.579
373.19	16.402
373.55	16.408
373.91	16.274
374.27	16.220
374.63	15.055
374.99	16.879
375.35	15.283
375.71	16.244
376.07	16.529
376.42	15.475
376.78	16.103
377.14	15.332
377.50	16.026
377.86	14.960
378.22	15.676
378.58	13.972
378.94	15.399
379.30	15.712
379.66	16.053
380.02	15.541
380.38	14.815
380.74	15.006
381.09	15.709
381.45	15.673
381.81	15.786
382.17	15.796
382.53	15.283
382.89	15.679
383.25	15.134
383.61	15.242
383.97	15.134
384.32	15.409
384.68	14.994
385.04	16.411
385.40	14.303
385.76	15.663
386.12	14.832
386.48	15.230
386.83	16.100
387.19	15.523
387.55	15.523
387.91	14.994
388.27	14.960
388.62	15.243
388.98	14.742
389.34	14.894
389.70	15.267
390.06	14.829
390.42	15.370
390.77	15.394
391.13	14.422
391.49	14.911
391.85	14.004
392.20	14.132
392.56	14.836
392.92	15.127
393.28	13.846
393.64	15.348
393.99	15.272
394.35	14.640
394.71	14.868
395.07	14.393
395.42	15.637
395.78	14.249
396.14	14.463
396.50	15.727
396.85	15.067
397.21	15.413
397.57	14.879
397.92	14.663
398.28	13.677
398.64	15.591
399.00	14.494
399.35	14.100
399.71	14.236
400.07	15.021
400.42	15.460
400.78	15.139
401.14	14.329
401.49	15.224
401.85	14.761
402.21	14.012
402.57	14.744
402.92	15.069
403.28	15.678
403.63	14.295
403.99	14.268
404.35	14.909
404.70	14.329
405.06	14.094
405.42	14.223
405.77	13.714
406.13	14.052
406.49	14.962
406.84	15.535
407.20	14.303
407.55	15.316
407.91	15.533
408.27	14.550
408.62	14.449
408.98	14.461
409.34	13.961
409.69	14.000
410.05	14.374
410.40	14.985
410.76	14.277
411.11	15.501
411.47	14.633
411.83	14.905
412.18	13.296
412.54	13.761
412.89	14.759
413.25	14.286
413.60	14.947
413.96	13.418
414.31	15.128
414.67	14.702
415.03	13.775
415.38	15.206
415.74	14.855
416.09	14.958
416.45	13.989
416.80	15.334
417.16	14.946
417.51	14.267
417.87	13.873
418.22	14.700
418.58	14.784
418.93	14.496
419.29	14.131
419.64	15.050
420.00	15.122
420.35	14.783
420.71	14.943
421.06	14.857
421.42	14.269
421.77	14.742
422.12	13.251
422.48	14.247
422.83	14.560
423.19	14.420
423.54	14.568
423.90	14.667
424.25	14.070
424.61	14.405
424.96	14.111
425.31	14.009
425.67	13.764
426.02	13.829
426.38	14.164
426.73	14.336
427.09	14.347
427.44	14.376
427.79	14.204
428.15	14.821
428.50	13.751
428.85	15.077
429.21	13.528
429.56	13.893
429.92	14.041
430.27	14.052
430.62	13.210
430.98	14.167
431.33	13.763
431.68	13.874
432.04	13.259
432.39	13.764
432.74	14.722
433.10	14.658
433.45	14.519
433.80	14.579
434.16	14.263
434.51	14.421
434.86	14.595
435.22	14.619
435.57	15.137
435.92	14.102
436.28	14.235
436.63	14.956
436.98	14.139
437.34	15.206
437.69	14.761
438.04	14.221
438.39	14.507
438.75	14.410
439.10	14.637
439.45	14.935
439.81	14.260
440.16	13.947
440.51	14.528
440.86	14.476
441.22	13.626
441.57	13.323
441.92	14.893
442.27	13.886
442.63	14.429
442.98	14.254
443.33	14.837
443.68	13.681
444.03	14.153
444.39	13.827
444.74	13.961
445.09	14.016
445.44	13.997
445.79	13.855
446.15	14.981
446.50	14.486
446.85	14.286
447.20	14.227
447.55	14.015
447.91	15.279
448.26	14.691
448.61	14.811
448.96	15.338
449.31	15.017
449.66	15.025
450.02	13.760
450.37	14.512
450.72	13.875
451.07	14.503
451.42	14.650
451.77	14.563
452.12	15.127
452.47	14.863
452.83	14.918
453.18	15.342
453.53	14.533
453.88	14.589
454.23	14.286
454.58	14.416
454.93	15.639
455.28	14.963
455.63	15.231
455.98	16.131
456.34	14.824
456.69	15.153
457.04	14.799
457.39	14.144
457.74	14.626
458.09	14.721
458.44	14.652
458.79	13.883
459.14	15.011
459.49	14.244
459.84	14.183
460.19	14.496
460.54	15.104
460.89	14.756
461.24	14.754
461.59	16.037
461.94	14.920
462.29	14.837
462.64	14.614
462.99	14.639
463.34	15.400
463.69	14.759
464.04	14.841
464.39	14.667
464.74	14.557
465.09	13.872
465.44	15.291
465.79	14.150
466.14	14.505
466.49	14.961
466.84	15.236
467.19	14.303
467.54	15.438
467.89	14.166
468.24	15.300
468.59	15.324
468.94	14.233
469.29	14.460
469.64	15.930
469.99	15.629
470.34	14.795
470.68	15.374
471.03	14.966
471.38	15.427
471.73	15.523
472.08	16.382
472.43	14.761
472.78	15.405
473.13	15.469
473.48	14.794
473.83	15.122
474.17	14.997
474.52	15.136
474.87	15.412
475.22	14.626
475.57	13.864
475.92	14.604
476.27	13.811
476.61	15.058
476.96	13.909
477.31	14.443
477.66	14.770
478.01	14.062
478.36	14.014
478.70	13.863
479.05	14.058
479.40	14.125
479.75	14.133
480.10	14.165
480.45	14.089
480.79	13.760
481.14	14.335
481.49	14.001
481.84	13.489
482.19	14.721
482.53	14.266
482.88	14.565
483.23	14.252
483.58	14.422
483.92	14.339
484.27	14.074
484.62	13.578
484.97	13.007
485.31	13.562
485.66	12.512
486.01	12.030
486.36	11.457
486.70	11.365
487.05	12.269
487.40	12.411
487.75	12.459
488.09	13.315
488.44	12.608
488.79	13.707
489.13	13.980
489.48	13.785
489.83	13.336
490.17	13.547
490.52	14.349
490.87	13.659
491.22	13.824
491.56	13.394
491.91	12.797
492.26	13.597
492.60	13.871
492.95	13.564
493.30	13.925
493.64	13.579
493.99	13.324
494.34	13.876
494.68	14.011
495.03	14.098
495.37	14.053
495.72	14.181
496.07	13.921
496.41	13.761
496.76	13.500
497.11	14.318
497.45	13.740
497.80	13.964
498.14	13.478
498.49	13.610
498.84	13.615
499.18	13.286
499.53	13.580
499.87	13.933
500.22	13.895
500.56	14.612
500.91	12.837
501.26	13.893
501.60	13.526
501.95	13.932
502.29	13.730
502.64	14.804
502.98	13.698
503.33	14.077
503.67	14.153
504.02	13.938
504.36	13.617
504.71	13.288
505.06	14.120
505.40	14.050
505.75	13.549
506.09	14.140
506.44	13.962
506.78	14.321
507.13	13.882
507.47	13.889
507.82	14.539
508.16	14.134
508.51	14.866
508.85	13.952
509.19	13.980
509.54	14.184
509.88	13.601
510.23	13.573
510.57	14.603
510.92	14.034
511.26	14.645
511.61	14.212
511.95	13.622
512.30	14.316
512.64	14.240
512.98	13.987
513.33	14.454
513.67	13.661
514.02	13.745
514.36	14.200
514.70	15.440
515.05	13.887
515.39	14.807
515.74	14.640
516.08	14.813
516.42	15.094
516.77	14.939
517.11	14.317
517.46	14.334
517.80	14.576
518.14	13.086
518.49	14.469
518.83	14.432
519.17	14.896
519.52	14.205
519.86	14.546
520.20	15.145
520.55	15.081
520.89	14.659
521.23	14.294
521.58	15.006
521.92	14.758
522.26	14.399
522.61	15.140
522.95	13.874
523.29	14.607
523.64	14.329
523.98	14.726
524.32	14.475
524.66	14.913
525.01	14.951
525.35	14.560
525.69	15.086
526.04	15.639
526.38	15.131
526.72	14.172
527.06	14.689
527.41	13.676
527.75	14.084
528.09	15.350
528.43	15.105
528.78	14.382
529.12	15.455
529.46	14.942
529.80	13.985
530.15	15.016
530.49	15.200
530.83	14.557
531.17	15.731
531.51	15.240
531.86	14.452
532.20	15.385
532.54	15.759
532.88	15.083
533.22	14.304
533.57	14.568
533.91	15.111
534.25	14.945
534.59	15.253
534.93	14.753
535.27	15.208
535.62	15.201
535.96	14.815
536.30	14.304
536.64	14.681
536.98	15.395
537.32	15.207
537.66	15.133
538.01	15.471
538.35	14.674
538.69	15.890
539.03	14.945
539.37	14.441
539.71	14.193
540.05	14.967
540.39	14.551
540.73	14.683
541.07	14.860
541.42	15.264
541.76	14.903
542.10	15.395
542.44	14.172
542.78	15.283
543.12	14.715
543.46	15.213
543.80	15.290
544.14	14.570
544.48	15.492
544.82	13.983
545.16	15.680
545.50	14.460
545.84	15.054
546.18	15.017
546.52	14.659
546.86	15.120
547.20	15.914
547.54	15.030
547.88	16.263
548.22	14.259
548.56	14.654
548.90	14.277
549.24	14.141
549.58	16.166
549.92	15.522
550.26	15.412
550.60	14.039
550.94	15.000
551.28	14.338
551.62	15.457
551.96	14.526
552.30	16.587
552.64	15.957
552.98	14.983
553.32	15.577
553.66	16.224
554.00	15.237
554.34	15.666
554.68	15.021
555.02	15.374
555.36	15.518
555.69	15.223
556.03	15.007
556.37	15.280
556.71	14.461
557.05	14.776
557.39	15.045
557.73	15.385
558.07	14.358
558.41	15.702
558.75	15.356
559.08	15.884
559.42	15.495
559.76	15.000
560.10	14.418
560.44	15.024
560.78	14.704
561.12	14.644
561.45	15.450
561.79	13.579
562.13	14.889
562.47	15.437
562.81	15.411
563.15	14.783
563.48	14.721
563.82	14.481
564.16	14.650
564.50	14.323
564.84	14.602
565.17	14.286
565.51	14.058
565.85	15.799
566.19	14.527
566.52	14.250
566.86	13.562
567.20	14.800
567.54	14.212
567.88	14.014
568.21	14.497
568.55	13.600
568.89	13.278
569.23	12.745
569.56	13.239
569.90	13.208
570.24	12.809
570.57	12.819
570.91	12.540
571.25	12.817
571.59	12.754
571.92	12.586
572.26	12.594
572.60	13.063
572.93	12.594
573.27	12.600
573.61	12.814
573.95	12.274
574.28	12.714
574.62	12.123
574.96	12.115
575.29	12.488
575.63	12.322
575.97	12.132
576.30	12.427
576.64	12.383
576.98	11.983
577.31	12.315
577.65	12.096
577.98	12.183
578.32	11.855
578.66	11.950
578.99	12.280
579.33	11.983
579.67	12.308
580.00	11.964
580.34	12.197
580.67	12.243
581.01	12.705
581.35	12.027
581.68	11.996
582.02	11.824
582.35	11.808
582.69	11.977
583.02	12.116
583.36	12.336
583.70	12.438
584.03	12.226
584.37	13.202
584.70	12.644
585.04	12.427
585.37	12.395
585.71	12.617
586.04	12.346
586.38	12.853
586.72	12.787
587.05	12.986
587.39	12.454
587.72	12.394
588.06	12.353
588.39	12.785
588.73	12.995
589.06	13.400
589.40	13.300
589.73	12.988
590.07	12.740
590.40	12.751
590.73	13.232
591.07	13.879
591.40	13.792
591.74	13.766
592.07	13.525
592.41	13.518
592.74	13.034
593.08	13.058
593.41	12.749
593.75	12.836
594.08	12.772
594.41	13.220
594.75	12.976
595.08	12.956
595.42	13.345
595.75	13.355
596.09	12.805
596.42	13.792
596.75	13.634
597.09	14.805
597.42	13.111
597.75	13.627
598.09	13.478
598.42	14.046
598.76	13.052
599.09	12.619
599.42	12.809
599.76	13.104
600.09	13.042
600.42	12.600
600.76	12.821
601.09	13.078
601.42	12.823
601.76	13.321
602.09	13.518
602.42	13.336
602.76	13.906
603.09	13.415
603.42	13.393
603.76	13.186
604.09	12.912
604.42	13.290
604.76	14.129
605.09	13.718
605.42	12.783
605.75	13.286
606.09	12.403
606.42	12.873
606.75	12.816
607.09	13.771
607.42	13.308
607.75	13.755
608.08	13.157
608.42	14.030
608.75	12.985
609.08	13.737
609.41	14.136
609.75	13.530
610.08	13.855
610.41	13.268
610.74	13.576
611.07	14.328
611.41	13.494
611.74	14.480
612.07	13.768
612.40	14.428
612.73	13.421
613.07	13.901
613.40	13.849
613.73	13.477
614.06	14.032
614.39	14.473
614.72	13.684
615.06	14.653
615.39	13.694
615.72	13.599
616.05	13.663
616.38	14.119
616.71	14.430
617.05	15.018
617.38	14.311
617.71	13.754
618.04	14.784
618.37	13.838
618.70	15.059
619.03	14.539
619.36	14.189
619.69	14.577
620.03	15.659
620.36	15.307
620.69	15.685
621.02	15.782
621.35	15.114
621.68	14.953
622.01	15.402
622.34	15.431
622.67	15.894
623.00	14.674
623.33	14.725
623.66	15.011
623.99	13.991
624.32	13.980
624.65	16.031
624.99	14.660
625.32	15.062
625.65	15.101
625.98	15.680
626.31	16.096
626.64	16.571
626.97	16.209
627.30	15.461
627.63	15.422
627.96	16.484
628.29	16.535
628.62	16.194
628.95	17.830
629.28	15.055
629.61	17.049
629.94	17.810
630.26	15.443
630.59	16.587
630.92	15.326
631.25	15.400
631.58	16.416
631.91	15.822
632.24	16.561
632.57	17.209
632.90	16.447
633.23	17.450
633.56	18.644
633.89	16.761
634.22	17.594
634.55	17.515
634.88	17.126
635.20	16.607
635.53	18.916
635.86	17.203
636.19	17.765
636.52	17.301
636.85	17.526
637.18	16.705
637.51	16.903
637.83	15.536
638.16	17.647
638.49	18.640
638.82	17.446
639.15	17.000
639.48	19.327
639.81	18.767
640.13	17.318
640.46	19.329
640.79	19.287
641.12	16.781
641.45	17.737
641.77	19.293
642.10	17.690
642.43	17.568
642.76	18.421
643.09	19.785
643.41	18.665
643.74	20.525
644.07	18.445
644.40	20.399
644.73	20.315
645.05	19.810
645.38	20.063
645.71	20.290
646.04	19.601
646.36	22.871
646.69	21.070
647.02	19.558
647.35	19.416
647.67	21.593
648.00	20.813
648.33	19.967
648.66	18.485
648.98	19.790
649.31	17.040
649.64	18.535
649.96	18.778
650.29	19.273
650.62	19.903
650.94	20.746
651.27	21.115
651.60	20.965
651.92	21.246
652.25	18.567
652.58	19.159
652.90	20.537
653.23	16.795
653.56	19.843
653.88	19.176
654.21	21.011
654.54	19.307
654.86	18.380
655.19	17.162
655.52	11.895
655.84	9.645
656.17	12.100
656.49	16.767
656.82	17.094
657.15	13.229
657.47	9.886
657.80	7.643
658.13	8.041
658.45	12.310
658.78	12.673
659.10	13.346
659.43	14.159
659.75	15.096
660.08	16.519
660.41	18.156
660.73	18.933
661.06	20.064
661.38	23.091
661.71	22.115
662.03	22.091
662.36	19.682
662.68	19.679
663.01	22.828
663.33	21.019
663.66	22.269
663.98	21.166
664.31	19.958
664.63	20.850
664.96	18.712
665.28	22.336
665.61	20.078
665.93	20.523
666.26	22.110
666.58	21.757
666.91	23.044
667.23	23.596
667.56	21.382
667.88	22.436
668.21	21.748
668.53	20.607
668.86	22.294
669.18	25.373
669.50	22.826
669.83	20.697
670.15	23.556
670.48	19.826
670.80	21.767
671.13	22.505
671.45	21.064
671.77	23.829
672.10	22.181
672.42	19.965
672.75	18.905
673.07	17.958
673.39	18.807
673.72	18.945
674.04	20.196
674.37	20.777
674.69	20.450
675.01	20.084
675.34	23.614
675.66	23.579
675.98	21.589
676.31	23.319
676.63	22.081
676.95	19.706
677.28	23.364
677.60	22.198
677.92	23.207
678.25	20.534
678.57	19.920
678.89	21.844
679.22	21.022
679.54	18.893
679.86	20.917
680.18	21.288
680.51	18.972
680.83	21.708
681.15	21.509
681.48	21.361
681.80	19.923
682.12	20.498
682.44	20.116
682.77	20.367
683.09	24.464
683.41	21.064
683.73	22.296
684.06	22.107
684.38	23.092
684.70	21.705
685.02	22.702
685.34	19.963
685.67	20.105
685.99	17.869
686.31	22.355
686.63	19.081
686.96	18.571
687.28	20.939
687.60	20.290
687.92	20.841
688.24	19.202
688.56	22.691
688.89	22.199
689.21	22.926
689.53	22.965
689.85	22.395
690.17	18.427
690.49	21.231
690.82	21.963
691.14	20.982
691.46	19.198
691.78	23.293
692.10	21.488
692.42	20.559
692.74	19.917
693.06	20.851
693.39	22.177
693.71	21.616
694.03	22.737
694.35	20.130
694.67	24.256
694.99	25.610
695.31	20.098
695.63	22.010
695.95	23.716
696.27	24.619
696.59	23.316
696.91	28.497
697.23	21.831
697.56	22.601
697.88	20.245
698.20	22.292
698.52	22.796
698.84	23.608
699.16	21.889
699.48	23.278
699.80	22.464
700.12	27.013
700.44	24.403
700.76	25.414
701.08	25.862
701.40	24.302
701.72	25.948
702.04	30.398
702.36	20.963
702.68	23.229
703.00	25.762
703.32	24.468
703.64	24.933
703.96	25.905
704.28	25.000
704.60	27.566
704.91	26.409
705.23	29.032
705.55	25.914
705.87	31.229
706.19	24.735
706.51	28.037
706.83	28.788
707.15	25.210
707.47	21.970
707.79	23.342
708.11	23.973
708.43	22.857
708.74	22.959
709.06	24.935
709.38	25.197
709.70	24.709
710.02	25.519
710.34	26.061
710.66	28.657
710.98	28.125
711.29	25.291
711.61	30.678
711.93	25.321
712.25	29.260
712.57	29.779
712.89	25.260
713.20	29.179
713.52	27.632
713.84	27.532
714.16	22.561
714.48	21.552
714.80	29.179
715.11	25.072
715.43	25.816
715.75	26.957
716.07	30.671
716.39	25.078
716.70	30.565
717.02	29.496
717.34	27.208
717.66	31.343
717.97	28.685
718.29	31.111
718.61	30.657
718.93	31.985
719.24	25.952
719.56	26.441
719.88	30.169
720.20	26.689
720.51	32.056
720.83	28.625
721.15	30.597
721.46	27.305
721.78	31.541
722.10	32.453
722.42	31.955
722.73	26.592
723.05	28.279
723.37	23.887
723.68	29.344
724.00	28.049
724.32	30.242
724.63	28.455
724.95	30.544
725.27	34.008
725.58	27.344
725.90	28.467
726.22	28.679
726.53	27.431
726.85	27.986
727.16	28.826
727.48	29.078
727.80	29.545
728.11	27.899
728.43	28.846
728.74	28.674
729.06	29.562
729.38	31.250
729.69	31.317
730.01	27.986
730.32	29.167
730.64	29.431
730.96	27.393
731.27	31.126
731.59	25.076
731.90	25.948
732.22	25.155
732.53	24.149
732.85	25.321
733.16	28.939
733.48	27.575
733.80	28.247
734.11	28.025
734.43	23.373
734.74	23.714
735.06	22.063
735.37	27.457
735.69	22.293
736.00	25.490
736.32	28.037
736.63	23.642
736.95	29.712
737.26	22.789
737.58	27.742
737.89	26.087
738.21	31.058
738.52	26.786
738.83	27.925
739.15	30.769
739.46	28.467
739.78	25.347
740.09	25.846
740.41	28.065
740.72	26.481
741.04	30.741
741.35	25.417
741.66	33.778
741.98	31.132
742.29	34.928
742.61	37.500
742.92	28.959
743.23	32.479
743.55	34.400
743.86	39.912
744.18	30.973
744.49	34.928
744.80	36.150
745.12	40.000
745.43	26.872
745.74	31.081
746.06	34.862
746.37	33.184
746.68	35.747
747.00	35.648
747.31	35.714
747.62	27.434
747.94	36.564
748.25	28.085
748.56	33.480
748.88	37.624
749.19	36.000
749.50	32.093
749.82	26.016
750.13	27.347
750.44	29.197
750.75	30.175
751.07	31.511
751.38	28.571
751.69	29.603
752.01	31.955
752.32	29.603
752.63	27.660
752.94	31.967
753.26	37.200
753.57	28.862
753.88	31.250
754.19	29.643
754.51	29.514
754.82	28.520
755.13	29.434
755.44	27.820
755.75	28.467
756.07	28.014
756.38	28.102
756.69	29.195
757.00	25.749
757.31	25.223
757.63	23.392
757.94	24.933
758.25	22.794
758.56	22.963
758.87	23.387
759.18	25.758
759.50	25.705
759.81	26.480
760.12	24.062
760.43	24.355
760.74	25.543
761.05	26.554
761.36	25.668
761.67	25.284
761.99	27.329
762.30	29.167
762.61	28.626
762.92	31.641
763.23	32.353
763.54	34.400
763.85	28.125
764.16	35.000
764.47	30.418
764.78	28.622
765.10	24.051
765.41	26.254
765.72	24.551
766.03	24.765
766.34	29.333
766.65	33.191
766.96	29.060
767.27	37.056
767.58	38.021
767.89	38.421
768.20	37.931
768.51	34.010
768.82	36.697
769.13	30.488
769.44	27.935
769.75	30.043
770.06	24.771
770.37	32.579
770.68	33.796
770.99	35.556
771.30	30.328
771.61	33.184
771.92	29.508
772.23	37.395
772.54	35.897
772.85	41.361
773.16	37.234
773.47	36.413
773.78	44.162
774.09	36.310
774.39	44.444
774.70	46.296
775.01	44.203
775.32	50.327
775.63	50.000
775.94	38.129
776.25	58.268
776.56	51.493
776.87	50.820
777.18	53.906
777.48	57.252
777.79	56.818
778.10	48.148
778.41	50.000
778.72	37.956
779.03	40.268
779.34	39.597
779.65	35.135
779.95	45.399
780.26	49.020
780.57	58.621
780.88	56.250
781.19	47.368
781.50	57.432
781.80	46.541
782.11	37.853
782.42	43.038
782.73	42.945
783.04	43.243
783.34	48.592
783.65	46.575
783.96	46.269
784.27	44.755
784.57	48.921
784.88	50.000
785.19	53.175
785.50	47.170
785.81	56.716
786.11	46.721
786.42	51.938
786.73	53.982
787.04	53.774
787.34	50.893
787.65	56.000
787.96	60.360
788.26	42.975
788.57	52.542
788.88	54.545
789.19	56.250
789.49	48.485
789.80	47.328
790.11	67.619
790.41	62.376
790.72	61.446
791.03	67.391
791.33	74.419
791.64	53.608
791.95	68.317
792.25	67.778
792.56	80.519
792.87	76.923
793.17	81.013
793.48	80.460
793.79	59.770
794.09	69.318
794.40	54.622
794.70	53.676
795.01	42.222
795.32	50.360
795.62	53.543
795.93	62.069
796.23	53.097
796.54	63.529
796.85	75.676
797.15	97.183
797.46	78.788
797.76	85.542
798.07	73.418
798.37	76.923
798.68	81.818
798.99	64.789
799.29	76.623
799.60	69.318
799.90	90.411
800.21	86.567
800.51	110.345
800.82	84.211
801.12	80.328
801.43	86.364
801.73	75.676
802.04	98.413
802.34	83.951
802.65	93.750
802.95	105.085
803.26	98.438
803.56	67.143
803.87	69.231
804.17	94.118
804.48	124.074
804.78	100.000
805.09	83.824
805.39	94.231
805.70	112.500
806.00	108.197
806.30	84.848
806.61	74.390
806.91	65.823
807.22	76.316
807.52	76.119
807.83	84.507
808.13	95.312
808.43	90.000
808.74	69.737
809.04	98.551
809.35	85.075
809.65	84.211
809.95	120.968
810.26	105.085
810.56	92.063
810.86	138.636
811.17	157.143
811.47	106.667
811.77	105.556
812.08	96.364
812.38	116.000
812.69	133.333
812.99	127.273
813.29	108.163
813.59	116.667
813.90	122.449
814.20	87.273
814.50	93.846
814.81	94.118
815.11	91.837
815.41	98.361
815.72	133.333
816.02	120.000
816.32	119.048
816.62	115.000
816.93	112.195
817.23	152.381
817.53	115.909
817.84	169.697
818.14	126.087
818.44	124.444
818.74	164.706
819.04	130.000
819.35	145.714
819.65	152.941
819.95	217.857
820.25	215.000
820.56	156.410
820.86	134.091
821.16	141.860
821.46	110.256
821.76	150.000
822.07	151.429
822.37	170.000
822.67	178.788
822.97	101.961
823.27	235.714
823.57	156.757
823.88	157.500
824.18	200.000
824.48	164.286
824.78	232.000
825.08	208.333
825.38	151.351
825.69	139.024
825.99	229.167
826.29	186.207
826.59	152.632
826.89	147.368
827.19	155.882
827.49	180.645
827.79	150.000
828.09	134.091
828.39	117.021
828.70	122.449
829.00	200.000
829.30	135.484
829.60	147.500
829.90	346.667
830.20	182.143
830.50	191.304
830.80	213.043
831.10	210.000
831.40	196.667
831.70	165.217
832.00	261.538
832.30	229.630
832.60	331.250
832.90	200.000
833.20	450.000
833.50	174.194
833.80	165.517
834.10	209.375
834.40	276.923
834.70	266.667
835.00	285.714
835.30	168.571
835.60	376.923
835.90	193.103
836.20	328.571
836.50	193.103
836.80	220.000
837.10	166.667
837.40	257.143
837.70	341.176
838.00	214.815
838.30	242.857
838.60	295.238
838.90	238.462
839.19	295.000
839.49	400.000
839.79	305.000
840.09	280.000
840.39	266.667
840.69	247.826
840.99	322.222
841.29	470.000
841.59	416.667
841.88	337.500
842.18	210.345
842.48	257.143
842.78	190.000
843.08	260.870
843.38	184.375
843.68	1050.000
843.97	257.692
844.27	172.414
844.57	319.048
844.87	362.500
845.17	214.815
845.47	1600.000
845.76	444.444
846.06	305.882
846.36	500.000
846.66	400.000
846.96	337.500
847.25	381.818
847.55	472.727
847.85	265.217
848.15	400.000
848.44	385.714
848.74	294.444
849.04	282.353
849.34	470.000
849.63	284.211
849.93	536.364
850.23	1040.000
850.53	492.857
850.82	2550.000
851.12	-3700.000
851.42	5200.000
851.71	300.000
852.01	-1566.667
852.31	275.000
852.61	1966.667
852.90	266.667
853.20	224.000
853.50	294.118
853.79	290.476
854.09	225.000
854.39	293.750
854.68	178.378
854.98	187.097
855.28	156.667
855.57	231.034
855.87	214.815
856.17	236.842
856.46	300.000
856.76	358.824
857.05	210.345
857.35	187.500
857.65	380.000
857.94	265.217
858.24	261.538
858.53	295.000
858.83	259.091
859.13	346.667
859.42	0.000
859.72	666.667
860.01	545.455
860.31	227.273
860.60	305.263
860.90	260.870
861.20	600.000
861.49	500.000
861.79	-5000.000
862.08	712.500
862.38	290.476
862.67	269.231
862.97	341.176
863.26	511.111
863.56	250.000
863.85	508.333
864.15	650.000
864.44	413.333
864.74	950.000
865.03	525.000
865.33	336.842
865.62	500.000
865.92	453.846
866.21	325.000
866.51	0.000
866.80	490.909
867.10	1220.000
867.39	423.077
867.69	445.455
867.98	273.684
868.27	454.545
868.57	336.842
868.86	-5200.000
869.16	350.000
869.45	2300.000
869.75	-3700.000
870.04	408.333
870.33	571.429
870.63	1225.000
870.92	2850.000
871.22	800.000
871.51	317.647
871.80	271.429
872.10	428.571
>>>>>End Processed Spectral Data<<<<<
