SpectraSuite Data File
++++++++++++++++++++++++++++++++++++
Date: Tue May 12 19:42:41 PDT 2015
User: schluterlab
Dark Spectrum Present: Yes
Reference Spectrum Present: Yes
Number of Sampled Component Spectra: 1
Spectrometers: USB2E3373
Integration Time (usec): 3000 (USB2E3373)
Spectra Averaged: 3 (USB2E3373)
Boxcar Smoothing: 0 (USB2E3373)
Correct for Electrical Dark: No (USB2E3373)
Strobe/Lamp Enabled: No (USB2E3373)
Correct for Detector Non-linearity: No (USB2E3373)
Correct for Stray Light: No (USB2E3373)
Number of Pixels in Processed Spectrum: 2048
>>>>>Begin Processed Spectral Data<<<<<
178.53	0.000
178.91	-80.000
179.29	-183.333
179.67	500.000
180.04	0.000
180.42	0.000
180.80	-400.000
181.18	850.000
181.56	-400.000
181.94	183.333
182.31	900.000
182.69	-114.286
183.07	0.000
183.45	191.667
183.83	300.000
184.20	283.333
184.58	550.000
184.96	216.667
185.34	-133.333
185.72	-28.571
186.09	-116.667
186.47	-1200.000
186.85	-140.000
187.23	225.000
187.61	-128.571
187.98	-320.000
188.36	-200.000
188.74	-50.000
189.12	-33.333
189.49	-50.000
189.87	350.000
190.25	111.111
190.63	400.000
191.00	-0.000
191.38	0.000
191.76	300.000
192.14	-71.429
192.51	-20.000
192.89	160.000
193.27	-200.000
193.65	-233.333
194.02	-116.667
194.40	-200.000
194.78	-75.000
195.15	-71.429
195.53	200.000
195.91	260.000
196.29	-300.000
196.66	33.333
197.04	-28.571
197.42	220.000
197.79	-262.500
198.17	-66.667
198.55	-200.000
198.92	-111.111
199.30	350.000
199.68	-250.000
200.05	-900.000
200.43	-22.222
200.81	-8.333
201.18	183.333
201.56	100.000
201.94	-900.000
202.31	-50.000
202.69	11.111
203.07	-66.667
203.44	-150.000
203.82	0.000
204.19	150.000
204.57	-366.667
204.95	154.545
205.32	320.000
205.70	375.000
206.08	-500.000
206.45	-100.000
206.83	1400.000
207.20	-144.444
207.58	30.769
207.96	266.667
208.33	666.667
208.71	333.333
209.08	-150.000
209.46	-55.556
209.84	333.333
210.21	-333.333
210.59	250.000
210.96	144.444
211.34	100.000
211.71	650.000
212.09	0.000
212.46	-12.500
212.84	-150.000
213.22	185.714
213.59	-125.000
213.97	0.000
214.34	-350.000
214.72	-1000.000
215.09	350.000
215.47	33.333
215.84	-50.000
216.22	-400.000
216.59	200.000
216.97	-41.667
217.34	-16.667
217.72	61.111
218.09	375.000
218.47	-21.053
218.84	-50.000
219.22	-14.286
219.59	-50.000
219.97	-70.000
220.34	183.333
220.72	-9.091
221.09	-550.000
221.47	0.000
221.84	250.000
222.22	-250.000
222.59	-175.000
222.97	0.000
223.34	73.333
223.72	100.000
224.09	-266.667
224.46	161.538
224.84	0.000
225.21	-100.000
225.59	-225.000
225.96	10.000
226.34	116.667
226.71	190.000
227.08	-69.231
227.46	-28.571
227.83	-16.667
228.21	-550.000
228.58	150.000
228.95	5.263
229.33	-50.000
229.70	-133.333
230.08	-200.000
230.45	-666.667
230.82	-700.000
231.20	38.095
231.57	-20.000
231.95	-466.667
232.32	88.889
232.69	-600.000
233.07	18.750
233.44	-50.000
233.81	32.258
234.19	-180.000
234.56	-11.111
234.93	-200.000
235.31	7.407
235.68	3.704
236.05	0.000
236.43	-21.053
236.80	-36.364
237.17	0.000
237.55	-55.000
237.92	-6.977
238.29	-12.903
238.67	-10.714
239.04	-20.000
239.41	-1.961
239.79	2.000
240.16	7.500
240.53	-1.724
240.91	13.699
241.28	9.859
241.65	18.750
242.02	-10.526
242.40	-9.333
242.77	2.105
243.14	9.412
243.51	5.376
243.89	3.810
244.26	12.037
244.63	2.041
245.00	-0.893
245.38	0.840
245.75	5.932
246.12	6.250
246.49	0.800
246.87	3.279
247.24	0.000
247.61	9.272
247.98	7.865
248.36	12.579
248.73	6.818
249.10	11.667
249.47	10.417
249.84	4.569
250.22	5.208
250.59	5.618
250.96	10.909
251.33	12.736
251.70	12.844
252.08	12.554
252.45	9.796
252.82	5.907
253.19	9.728
253.56	12.941
253.94	8.537
254.31	11.871
254.68	9.375
255.05	13.576
255.42	11.636
255.79	10.265
256.16	9.375
256.54	14.545
256.91	15.385
257.28	12.987
257.65	9.180
258.02	13.514
258.39	13.595
258.76	13.150
259.14	11.765
259.51	10.704
259.88	12.968
260.25	11.364
260.62	11.517
260.99	9.192
261.36	10.345
261.73	13.600
262.10	11.717
262.47	13.774
262.85	12.853
263.22	10.484
263.59	17.426
263.96	11.749
264.33	7.547
264.70	12.285
265.07	11.330
265.44	13.583
265.81	12.289
266.18	13.115
266.55	12.857
266.92	14.955
267.29	15.111
267.66	10.000
268.03	15.269
268.40	11.213
268.77	12.249
269.14	11.555
269.51	12.670
269.88	14.530
270.25	9.283
270.62	12.185
270.99	10.105
271.36	9.492
271.73	14.167
272.10	10.996
272.47	10.200
272.84	9.979
273.21	10.647
273.58	10.000
273.95	12.550
274.32	13.733
274.69	14.090
275.06	13.321
275.43	10.000
275.80	11.472
276.17	10.277
276.54	15.209
276.91	14.395
277.28	12.959
277.65	11.531
278.02	10.985
278.39	16.152
278.76	13.222
279.13	12.880
279.50	12.274
279.87	13.019
280.23	13.479
280.60	9.364
280.97	13.005
281.34	11.525
281.71	9.236
282.08	11.628
282.45	10.582
282.82	11.953
283.19	13.300
283.56	13.481
283.92	13.744
284.29	11.844
284.66	12.566
285.03	8.748
285.40	12.500
285.77	10.016
286.14	12.044
286.51	10.611
286.87	11.994
287.24	11.058
287.61	11.883
287.98	11.737
288.35	11.163
288.72	12.538
289.08	10.377
289.45	12.012
289.82	9.627
290.19	11.212
290.56	12.735
290.93	13.294
291.29	12.057
291.66	10.815
292.03	11.191
292.40	11.223
292.77	10.350
293.13	10.426
293.50	11.157
293.87	10.264
294.24	9.691
294.60	11.202
294.97	9.695
295.34	10.959
295.71	9.293
296.08	8.607
296.44	10.145
296.81	8.926
297.18	11.255
297.55	8.543
297.91	9.518
298.28	8.824
298.65	9.702
299.02	9.371
299.38	8.673
299.75	9.653
300.12	10.432
300.48	10.446
300.85	8.435
301.22	11.178
301.59	8.881
301.95	10.488
302.32	9.478
302.69	9.037
303.05	9.681
303.42	9.903
303.79	8.315
304.15	10.306
304.52	8.156
304.89	8.568
305.25	8.716
305.62	9.091
305.99	8.623
306.35	8.166
306.72	8.932
307.09	8.923
307.45	8.198
307.82	10.245
308.19	9.571
308.55	9.388
308.92	8.792
309.29	9.310
309.65	9.391
310.02	8.910
310.38	10.128
310.75	10.041
311.12	9.563
311.48	9.764
311.85	9.220
312.22	10.434
312.58	10.574
312.95	10.472
313.31	9.341
313.68	9.732
314.05	11.519
314.41	9.528
314.78	8.543
315.14	10.774
315.51	11.023
315.87	11.816
316.24	10.979
316.61	10.971
316.97	10.588
317.34	11.483
317.70	11.204
318.07	12.150
318.43	13.327
318.80	12.568
319.16	11.650
319.53	13.396
319.89	12.027
320.26	13.668
320.62	15.698
320.99	14.082
321.35	15.217
321.72	14.949
322.08	15.743
322.45	16.174
322.81	16.256
323.18	16.587
323.54	16.209
323.91	16.129
324.27	17.358
324.64	16.963
325.00	17.197
325.37	18.705
325.73	17.062
326.10	18.301
326.46	19.130
326.83	20.141
327.19	20.087
327.56	20.955
327.92	20.052
328.29	22.222
328.65	22.316
329.01	20.459
329.38	21.763
329.74	23.770
330.11	22.367
330.47	21.508
330.84	21.147
331.20	22.921
331.56	22.547
331.93	22.964
332.29	22.017
332.66	24.141
333.02	23.584
333.38	24.816
333.75	22.873
334.11	22.966
334.48	23.524
334.84	23.850
335.20	23.814
335.57	25.613
335.93	22.977
336.29	24.314
336.66	24.954
337.02	25.204
337.38	24.623
337.75	25.545
338.11	26.162
338.47	25.534
338.84	23.757
339.20	25.390
339.56	24.138
339.93	24.414
340.29	25.476
340.65	25.662
341.02	24.181
341.38	25.419
341.74	25.801
342.11	26.348
342.47	26.399
342.83	25.932
343.20	26.790
343.56	26.136
343.92	25.372
344.28	25.300
344.65	24.486
345.01	26.394
345.37	25.726
345.73	26.270
346.10	26.361
346.46	25.712
346.82	27.103
347.19	26.409
347.55	27.041
347.91	26.044
348.27	26.285
348.63	27.658
349.00	27.880
349.36	26.298
349.72	27.422
350.08	27.823
350.45	26.282
350.81	27.168
351.17	27.183
351.53	27.295
351.89	28.584
352.26	28.537
352.62	28.536
352.98	27.448
353.34	27.569
353.70	27.819
354.07	29.736
354.43	27.212
354.79	28.033
355.15	28.249
355.51	29.258
355.87	28.726
356.24	29.739
356.60	28.881
356.96	26.856
357.32	29.465
357.68	28.958
358.04	29.173
358.40	30.442
358.77	29.880
359.13	31.084
359.49	29.120
359.85	30.935
360.21	29.262
360.57	30.303
360.93	31.512
361.29	29.361
361.66	31.625
362.02	30.612
362.38	31.779
362.74	31.975
363.10	30.995
363.46	31.678
363.82	32.312
364.18	31.113
364.54	32.290
364.90	31.926
365.26	32.042
365.62	32.097
365.98	33.133
366.35	32.980
366.71	32.860
367.07	32.620
367.43	31.625
367.79	32.413
368.15	34.099
368.51	35.206
368.87	33.700
369.23	33.989
369.59	34.338
369.95	32.861
370.31	33.561
370.67	34.662
371.03	35.759
371.39	34.063
371.75	34.770
372.11	35.704
372.47	35.338
372.83	36.669
373.19	36.069
373.55	35.928
373.91	36.439
374.27	37.528
374.63	37.187
374.99	36.164
375.35	35.922
375.71	37.877
376.07	37.668
376.42	36.999
376.78	37.213
377.14	39.455
377.50	38.509
377.86	38.719
378.22	37.913
378.58	38.684
378.94	38.376
379.30	38.674
379.66	38.156
380.02	39.860
380.38	39.059
380.74	39.341
381.09	39.644
381.45	39.810
381.81	40.306
382.17	40.130
382.53	41.683
382.89	40.603
383.25	40.520
383.61	41.386
383.97	41.650
384.32	41.419
384.68	42.082
385.04	41.502
385.40	42.236
385.76	42.315
386.12	41.848
386.48	43.640
386.83	43.450
387.19	43.359
387.55	42.487
387.91	43.489
388.27	42.866
388.62	43.847
388.98	43.639
389.34	42.746
389.70	44.359
390.06	43.960
390.42	44.828
390.77	45.339
391.13	46.259
391.49	46.226
391.85	45.309
392.20	45.677
392.56	44.925
392.92	45.331
393.28	44.883
393.64	45.535
393.99	45.000
394.35	45.101
394.71	46.358
395.07	45.557
395.42	45.651
395.78	46.573
396.14	46.169
396.50	46.766
396.85	47.389
397.21	46.248
397.57	45.030
397.92	46.183
398.28	46.643
398.64	45.905
399.00	46.605
399.35	46.131
399.71	47.186
400.07	46.387
400.42	47.308
400.78	48.049
401.14	46.402
401.49	46.721
401.85	47.873
402.21	46.701
402.57	46.748
402.92	47.676
403.28	47.529
403.63	47.372
403.99	47.094
404.35	47.452
404.70	47.498
405.06	47.985
405.42	47.365
405.77	46.790
406.13	46.476
406.49	47.066
406.84	47.447
407.20	46.840
407.55	48.163
407.91	47.622
408.27	47.274
408.62	46.945
408.98	46.976
409.34	47.695
409.69	47.090
410.05	47.474
410.40	47.078
410.76	47.509
411.11	46.412
411.47	48.027
411.83	47.006
412.18	47.186
412.54	45.860
412.89	46.826
413.25	48.276
413.60	47.959
413.96	47.249
414.31	46.272
414.67	49.831
415.03	47.856
415.38	47.563
415.74	48.086
416.09	46.864
416.45	47.700
416.80	47.775
417.16	49.859
417.51	48.647
417.87	48.769
418.22	47.794
418.58	48.721
418.93	47.518
419.29	48.779
419.64	48.420
420.00	47.413
420.35	47.709
420.71	48.656
421.06	48.735
421.42	48.181
421.77	47.868
422.12	48.198
422.48	49.058
422.83	48.754
423.19	48.294
423.54	48.381
423.90	48.764
424.25	50.453
424.61	48.968
424.96	49.816
425.31	50.181
425.67	49.515
426.02	50.311
426.38	49.421
426.73	47.913
427.09	49.770
427.44	48.951
427.79	49.752
428.15	48.320
428.50	49.937
428.85	48.428
429.21	49.552
429.56	49.448
429.92	49.540
430.27	49.120
430.62	50.027
430.98	49.275
431.33	50.167
431.68	49.617
432.04	50.690
432.39	49.317
432.74	48.577
433.10	51.001
433.45	51.108
433.80	50.714
434.16	50.518
434.51	49.666
434.86	50.574
435.22	50.349
435.57	51.517
435.92	50.031
436.28	50.498
436.63	50.089
436.98	51.358
437.34	50.736
437.69	51.914
438.04	51.382
438.39	53.068
438.75	51.692
439.10	53.452
439.45	53.209
439.81	51.492
440.16	52.257
440.51	50.805
440.86	51.326
441.22	51.876
441.57	52.479
441.92	53.727
442.27	53.429
442.63	52.709
442.98	54.768
443.33	53.173
443.68	53.300
444.03	53.918
444.39	53.670
444.74	53.578
445.09	55.372
445.44	53.061
445.79	54.962
446.15	54.519
446.50	54.598
446.85	54.455
447.20	52.681
447.55	54.159
447.91	55.614
448.26	54.540
448.61	54.985
448.96	55.293
449.31	53.828
449.66	53.511
450.02	54.734
450.37	54.800
450.72	54.758
451.07	56.163
451.42	55.797
451.77	54.351
452.12	55.388
452.47	55.217
452.83	56.413
453.18	55.098
453.53	56.368
453.88	56.094
454.23	53.994
454.58	55.418
454.93	54.973
455.28	55.669
455.63	54.191
455.98	55.140
456.34	54.655
456.69	56.127
457.04	54.724
457.39	55.181
457.74	55.436
458.09	54.636
458.44	56.591
458.79	54.358
459.14	55.456
459.49	54.586
459.84	55.529
460.19	54.784
460.54	53.662
460.89	54.059
461.24	53.831
461.59	55.899
461.94	55.227
462.29	54.073
462.64	55.501
462.99	55.620
463.34	54.432
463.69	56.173
464.04	55.741
464.39	55.370
464.74	53.731
465.09	55.048
465.44	54.169
465.79	54.452
466.14	54.535
466.49	53.837
466.84	53.808
467.19	55.556
467.54	54.443
467.89	54.278
468.24	53.788
468.59	54.385
468.94	54.943
469.29	54.602
469.64	55.799
469.99	54.218
470.34	55.304
470.68	53.538
471.03	53.577
471.38	55.572
471.73	54.869
472.08	55.445
472.43	55.325
472.78	55.547
473.13	55.579
473.48	55.256
473.83	54.954
474.17	53.836
474.52	54.923
474.87	55.619
475.22	54.701
475.57	54.524
475.92	52.814
476.27	53.888
476.61	53.014
476.96	54.653
477.31	55.822
477.66	53.922
478.01	55.091
478.36	55.129
478.70	54.423
479.05	55.427
479.40	54.616
479.75	54.683
480.10	54.600
480.45	55.183
480.79	54.645
481.14	54.823
481.49	53.933
481.84	55.606
482.19	53.805
482.53	53.922
482.88	53.838
483.23	54.824
483.58	54.208
483.92	52.764
484.27	54.356
484.62	53.748
484.97	52.812
485.31	52.591
485.66	52.515
486.01	51.956
486.36	53.090
486.70	52.408
487.05	52.997
487.40	52.411
487.75	52.161
488.09	51.222
488.44	51.945
488.79	52.408
489.13	52.369
489.48	51.988
489.83	51.225
490.17	52.086
490.52	51.147
490.87	53.215
491.22	51.972
491.56	52.470
491.91	51.857
492.26	53.136
492.60	53.316
492.95	52.207
493.30	51.908
493.64	52.079
493.99	54.261
494.34	53.218
494.68	51.239
495.03	51.876
495.37	52.357
495.72	52.584
496.07	51.166
496.41	51.334
496.76	51.194
497.11	51.797
497.45	52.034
497.80	51.765
498.14	51.795
498.49	52.322
498.84	50.786
499.18	51.220
499.53	53.531
499.87	52.739
500.22	52.208
500.56	53.323
500.91	53.120
501.26	51.024
501.60	51.172
501.95	52.712
502.29	52.078
502.64	50.075
502.98	50.782
503.33	50.325
503.67	52.425
504.02	51.788
504.36	51.515
504.71	51.489
505.06	51.741
505.40	51.635
505.75	52.133
506.09	52.004
506.44	51.985
506.78	50.910
507.13	52.172
507.47	52.133
507.82	51.618
508.16	51.670
508.51	52.516
508.85	51.429
509.19	50.905
509.54	52.521
509.88	51.669
510.23	52.697
510.57	51.562
510.92	51.417
511.26	52.039
511.61	52.340
511.95	51.475
512.30	53.101
512.64	51.496
512.98	53.692
513.33	51.934
513.67	52.216
514.02	51.983
514.36	52.728
514.70	53.127
515.05	52.866
515.39	53.576
515.74	53.947
516.08	51.852
516.42	53.884
516.77	52.919
517.11	53.089
517.46	52.530
517.80	55.329
518.14	53.384
518.49	54.981
518.83	53.048
519.17	52.828
519.52	53.904
519.86	54.592
520.20	53.185
520.55	53.460
520.89	55.803
521.23	54.375
521.58	54.233
521.92	53.738
522.26	54.433
522.61	54.061
522.95	55.342
523.29	53.374
523.64	54.206
523.98	54.839
524.32	54.343
524.66	54.793
525.01	55.533
525.35	53.830
525.69	53.407
526.04	55.743
526.38	53.941
526.72	54.583
527.06	55.556
527.41	53.792
527.75	54.630
528.09	53.960
528.43	53.650
528.78	53.599
529.12	54.589
529.46	53.156
529.80	54.255
530.15	54.135
530.49	54.114
530.83	54.808
531.17	54.167
531.51	54.747
531.86	52.311
532.20	52.742
532.54	54.604
532.88	54.618
533.22	55.603
533.57	53.310
533.91	54.164
534.25	54.243
534.59	53.095
534.93	53.660
535.27	53.199
535.62	52.600
535.96	53.175
536.30	52.610
536.64	53.577
536.98	53.392
537.32	54.018
537.66	52.639
538.01	52.872
538.35	52.364
538.69	53.008
539.03	53.569
539.37	52.548
539.71	53.261
540.05	53.039
540.39	52.578
540.73	52.015
541.07	52.941
541.42	51.319
541.76	52.014
542.10	52.296
542.44	52.962
542.78	51.173
543.12	51.336
543.46	50.969
543.80	51.608
544.14	51.183
544.48	52.491
544.82	51.526
545.16	52.971
545.50	54.294
545.84	52.012
546.18	51.835
546.52	51.576
546.86	51.186
547.20	52.803
547.54	50.038
547.88	50.570
548.22	51.406
548.56	52.149
548.90	50.456
549.24	50.585
549.58	51.118
549.92	51.203
550.26	50.965
550.60	51.626
550.94	51.190
551.28	49.837
551.62	50.614
551.96	50.399
552.30	51.008
552.64	51.240
552.98	49.257
553.32	49.167
553.66	49.090
554.00	50.039
554.34	51.875
554.68	50.239
555.02	49.841
555.36	51.787
555.69	49.424
556.03	48.485
556.37	49.737
556.71	49.472
557.05	49.297
557.39	50.602
557.73	48.664
558.07	48.983
558.41	49.561
558.75	50.539
559.08	50.298
559.42	49.080
559.76	49.537
560.10	49.715
560.44	48.298
560.78	48.234
561.12	48.009
561.45	49.702
561.79	48.678
562.13	49.815
562.47	48.471
562.81	48.143
563.15	47.833
563.48	47.865
563.82	48.326
564.16	47.605
564.50	47.350
564.84	47.626
565.17	47.353
565.51	47.924
565.85	47.676
566.19	48.156
566.52	47.885
566.86	47.678
567.20	47.838
567.54	47.288
567.88	46.663
568.21	47.831
568.55	47.255
568.89	47.198
569.23	45.331
569.56	46.621
569.90	47.152
570.24	46.414
570.57	45.071
570.91	46.033
571.25	45.971
571.59	45.180
571.92	44.713
572.26	44.122
572.60	45.029
572.93	44.303
573.27	43.251
573.61	44.197
573.95	43.678
574.28	44.028
574.62	43.245
574.96	42.764
575.29	43.160
575.63	42.834
575.97	42.581
576.30	42.655
576.64	42.834
576.98	43.292
577.31	43.053
577.65	43.470
577.98	42.723
578.32	42.523
578.66	42.205
578.99	44.074
579.33	42.419
579.67	42.384
580.00	42.420
580.34	43.035
580.67	42.167
581.01	42.740
581.35	42.123
581.68	42.243
582.02	41.875
582.35	42.252
582.69	42.055
583.02	42.145
583.36	41.258
583.70	42.286
584.03	42.460
584.37	42.307
584.70	41.447
585.04	41.211
585.37	41.273
585.71	41.843
586.04	42.387
586.38	42.141
586.72	42.155
587.05	42.680
587.39	41.918
587.72	41.650
588.06	41.772
588.39	42.682
588.73	41.193
589.06	41.680
589.40	42.063
589.73	42.820
590.07	41.309
590.40	41.756
590.73	41.774
591.07	42.338
591.40	42.439
591.74	42.957
592.07	41.643
592.41	43.112
592.74	42.522
593.08	41.360
593.41	41.138
593.75	41.692
594.08	41.938
594.41	40.806
594.75	41.073
595.08	42.072
595.42	40.856
595.75	41.250
596.09	42.674
596.42	41.311
596.75	42.909
597.09	41.325
597.42	41.342
597.75	41.417
598.09	41.760
598.42	40.984
598.76	41.166
599.09	40.966
599.42	40.480
599.76	41.036
600.09	41.677
600.42	40.352
600.76	39.992
601.09	40.431
601.42	39.654
601.76	40.260
602.09	40.888
602.42	41.772
602.76	41.318
603.09	41.253
603.42	41.312
603.76	40.999
604.09	41.061
604.42	41.176
604.76	41.031
605.09	40.104
605.42	41.469
605.75	40.384
606.09	40.444
606.42	39.720
606.75	40.187
607.09	40.812
607.42	40.523
607.75	40.358
608.08	40.037
608.42	40.446
608.75	40.720
609.08	39.021
609.41	39.762
609.75	39.758
610.08	39.535
610.41	40.763
610.74	40.192
611.07	40.190
611.41	39.507
611.74	41.676
612.07	40.792
612.40	40.891
612.73	40.220
613.07	40.106
613.40	39.735
613.73	39.977
614.06	39.169
614.39	40.480
614.72	39.020
615.06	40.126
615.39	38.857
615.72	38.410
616.05	38.783
616.38	39.324
616.71	39.490
617.05	39.070
617.38	39.484
617.71	39.125
618.04	40.604
618.37	38.980
618.70	39.742
619.03	40.464
619.36	40.280
619.69	39.580
620.03	40.580
620.36	40.816
620.69	40.207
621.02	40.459
621.35	40.851
621.68	40.864
622.01	40.553
622.34	40.201
622.67	40.051
623.00	38.984
623.33	40.000
623.66	40.956
623.99	39.793
624.32	39.793
624.65	37.266
624.99	38.750
625.32	38.705
625.65	38.110
625.98	40.833
626.31	38.788
626.64	39.910
626.97	41.360
627.30	40.833
627.63	39.628
627.96	39.199
628.29	39.866
628.62	40.722
628.95	40.232
629.28	39.463
629.61	40.857
629.94	41.805
630.26	39.644
630.59	41.675
630.92	39.621
631.25	38.994
631.58	40.116
631.91	38.155
632.24	38.698
632.57	41.141
632.90	40.467
633.23	41.935
633.56	40.377
633.89	40.633
634.22	40.385
634.55	38.896
634.88	40.562
635.20	41.644
635.53	39.665
635.86	41.033
636.19	39.427
636.52	41.644
636.85	40.287
637.18	39.508
637.51	39.702
637.83	39.106
638.16	40.967
638.49	40.346
638.82	38.959
639.15	39.571
639.48	40.902
639.81	38.897
640.13	40.276
640.46	42.520
640.79	38.295
641.12	39.690
641.45	38.569
641.77	37.420
642.10	39.088
642.43	40.741
642.76	41.398
643.09	39.100
643.41	39.068
643.74	39.236
644.07	39.859
644.40	39.170
644.73	39.411
645.05	41.412
645.38	42.692
645.71	44.847
646.04	41.264
646.36	41.856
646.69	41.586
647.02	42.383
647.35	41.400
647.67	42.685
648.00	39.417
648.33	38.921
648.66	38.219
648.98	37.458
649.31	40.275
649.64	38.726
649.96	37.669
650.29	36.283
650.62	40.816
650.94	40.481
651.27	38.921
651.60	38.815
651.92	39.313
652.25	37.859
652.58	40.754
652.90	37.367
653.23	37.660
653.56	35.243
653.88	38.504
654.21	38.185
654.54	35.647
654.86	37.230
655.19	36.452
655.52	36.192
655.84	35.216
656.17	34.615
656.49	46.953
656.82	53.710
657.15	42.982
657.47	32.147
657.80	23.752
658.13	19.836
658.45	32.669
658.78	32.358
659.10	31.652
659.43	31.181
659.75	31.536
660.08	30.996
660.41	32.873
660.73	34.903
661.06	34.000
661.38	35.282
661.71	38.512
662.03	38.194
662.36	38.663
662.68	34.532
663.01	42.067
663.33	41.038
663.66	37.321
663.98	36.430
664.31	37.561
664.63	35.092
664.96	38.717
665.28	36.170
665.61	41.121
665.93	39.631
666.26	38.190
666.58	36.468
666.91	39.578
667.23	37.192
667.56	35.802
667.88	36.842
668.21	37.056
668.53	39.848
668.86	33.673
669.18	34.264
669.50	39.075
669.83	37.500
670.15	36.000
670.48	36.591
670.80	36.548
671.13	35.422
671.45	37.500
671.77	34.783
672.10	36.264
672.42	35.060
672.75	34.563
673.07	33.458
673.39	33.463
673.72	36.364
674.04	32.766
674.37	36.028
674.69	35.514
675.01	36.512
675.34	35.294
675.66	31.905
675.98	38.384
676.31	35.516
676.63	33.247
676.95	34.772
677.28	38.366
677.60	38.095
677.92	34.336
678.25	34.339
678.57	33.179
678.89	34.862
679.22	36.468
679.54	32.739
679.86	36.188
680.18	33.473
680.51	34.908
680.83	35.000
681.15	34.858
681.48	35.319
681.80	33.913
682.12	35.760
682.44	32.543
682.77	35.000
683.09	35.539
683.41	34.085
683.73	34.925
684.06	34.264
684.38	35.492
684.70	36.721
685.02	33.766
685.34	30.753
685.67	34.783
685.99	33.533
686.31	34.515
686.63	35.146
686.96	33.740
687.28	34.086
687.60	33.881
687.92	33.755
688.24	35.158
688.56	32.088
688.89	33.562
689.21	30.930
689.53	35.550
689.85	35.190
690.17	34.559
690.49	31.529
690.82	31.695
691.14	36.554
691.46	32.250
691.78	32.057
692.10	35.092
692.42	32.110
692.74	33.886
693.06	33.494
693.39	31.281
693.71	32.093
694.03	30.676
694.35	31.436
694.67	35.115
694.99	34.771
695.31	32.011
695.63	34.324
695.95	34.831
696.27	37.394
696.59	34.125
696.91	35.043
697.23	34.097
697.56	34.715
697.88	31.850
698.20	30.993
698.52	34.135
698.84	34.586
699.16	31.398
699.48	35.340
699.80	32.418
700.12	32.231
700.44	27.139
700.76	33.754
701.08	30.476
701.40	30.592
701.72	36.333
702.04	36.735
702.36	35.082
702.68	33.557
703.00	36.909
703.32	25.449
703.64	30.599
703.96	33.228
704.28	31.338
704.60	36.644
704.91	30.263
705.23	31.228
705.55	28.253
705.87	29.496
706.19	35.458
706.51	28.516
706.83	34.799
707.15	35.254
707.47	32.335
707.79	32.665
708.11	29.894
708.43	32.800
708.74	33.060
709.06	30.675
709.38	29.080
709.70	29.870
710.02	36.014
710.34	26.241
710.66	31.086
710.98	32.168
711.29	39.175
711.61	28.014
711.93	35.206
712.25	28.679
712.57	34.766
712.89	32.653
713.20	33.468
713.52	27.642
713.84	36.861
714.16	30.743
714.48	31.741
714.80	29.630
715.11	36.770
715.43	27.645
715.75	31.228
716.07	30.909
716.39	33.106
716.70	32.400
717.02	27.016
717.34	35.065
717.66	30.909
717.97	27.315
718.29	31.111
718.61	31.532
718.93	29.412
719.24	33.054
719.56	29.911
719.88	28.627
720.20	31.624
720.51	35.526
720.83	32.636
721.15	27.347
721.46	27.004
721.78	29.437
722.10	31.783
722.42	29.565
722.73	27.602
723.05	29.493
723.37	30.769
723.68	27.488
724.00	28.704
724.32	31.308
724.63	28.507
724.95	29.224
725.27	33.803
725.58	33.790
725.90	30.180
726.22	32.314
726.53	34.426
726.85	33.333
727.16	32.389
727.48	31.452
727.80	27.397
728.11	31.556
728.43	27.160
728.74	25.877
729.06	31.878
729.38	34.884
729.69	28.400
730.01	26.778
730.32	28.287
730.64	32.308
730.96	25.869
731.27	30.502
731.59	29.966
731.90	27.961
732.22	30.897
732.53	26.316
732.85	29.225
733.16	27.106
733.48	26.493
733.80	30.182
734.11	26.596
734.43	30.325
734.74	27.726
735.06	25.723
735.37	26.518
735.69	24.648
736.00	25.926
736.32	30.420
736.63	31.111
736.95	27.237
737.26	29.348
737.58	22.993
737.89	23.019
738.21	28.626
738.52	35.246
738.83	26.068
739.15	29.091
739.46	20.721
739.78	26.255
740.09	23.016
740.41	30.303
740.72	23.904
741.04	27.273
741.35	31.390
741.66	31.183
741.98	25.000
742.29	26.943
742.61	20.231
742.92	25.980
743.23	32.338
743.55	29.534
743.86	32.850
744.18	26.000
744.49	31.667
744.80	25.806
745.12	29.231
745.43	30.481
745.74	28.877
746.06	32.759
746.37	23.333
746.68	32.973
747.00	17.127
747.31	29.319
747.62	27.895
747.94	26.887
748.25	27.094
748.56	25.253
748.88	27.322
749.19	25.907
749.50	30.000
749.82	29.500
750.13	25.728
750.44	24.464
750.75	30.000
751.07	19.247
751.38	19.531
751.69	28.175
752.01	25.210
752.32	23.967
752.63	24.891
752.94	25.600
753.26	25.571
753.57	26.540
753.88	22.326
754.19	27.313
754.51	24.268
754.82	27.083
755.13	26.549
755.44	27.706
755.75	24.900
756.07	27.468
756.38	28.033
756.69	30.566
757.00	25.177
757.31	28.720
757.63	23.203
757.94	24.848
758.25	23.810
758.56	22.703
758.87	23.810
759.18	29.907
759.50	25.267
759.81	26.255
760.12	25.623
760.43	27.243
760.74	29.341
761.05	30.128
761.36	27.596
761.67	27.052
761.99	21.405
762.30	24.364
762.61	27.642
762.92	24.000
763.23	27.442
763.54	23.350
763.85	28.959
764.16	23.913
764.47	26.957
764.78	32.258
765.10	24.803
765.41	23.746
765.72	22.408
766.03	25.418
766.34	25.758
766.65	25.391
766.96	21.778
767.27	27.933
767.58	32.075
767.89	25.325
768.20	30.405
768.51	24.713
768.82	18.750
769.13	27.315
769.44	22.642
769.75	22.059
770.06	23.301
770.37	31.383
770.68	21.026
770.99	24.365
771.30	19.588
771.61	22.422
771.92	22.642
772.23	29.808
772.54	22.941
772.85	18.493
773.16	27.742
773.47	28.025
773.78	28.144
774.09	31.579
774.39	19.118
774.70	14.286
775.01	23.077
775.32	25.397
775.63	21.260
775.94	19.811
776.25	18.519
776.56	20.909
776.87	28.205
777.18	23.000
777.48	23.077
777.79	20.370
778.10	16.038
778.41	21.569
778.72	23.585
779.03	13.158
779.34	15.126
779.65	18.310
779.95	25.180
780.26	19.355
780.57	24.638
780.88	22.936
781.19	34.259
781.50	23.770
781.80	29.927
782.11	22.436
782.42	14.483
782.73	29.371
783.04	21.600
783.34	13.600
783.65	31.707
783.96	19.672
784.27	16.807
784.57	14.953
784.88	20.536
785.19	27.835
785.50	26.316
785.81	22.000
786.11	24.752
786.42	21.176
786.73	14.583
787.04	21.429
787.34	19.444
787.65	36.792
787.96	11.340
788.26	27.723
788.57	18.261
788.88	15.596
789.19	20.661
789.49	20.870
789.80	18.103
790.11	-2.439
790.41	26.966
790.72	6.977
791.03	13.953
791.33	9.091
791.64	32.927
791.95	23.171
792.25	8.434
792.56	12.346
792.87	9.859
793.17	22.892
793.48	16.471
793.79	10.000
794.09	5.000
794.40	14.130
794.70	21.739
795.01	25.688
795.32	14.961
795.62	25.490
795.93	19.608
796.23	10.101
796.54	15.116
796.85	13.043
797.15	18.750
797.46	8.475
797.76	11.475
798.07	11.842
798.37	12.903
798.68	10.938
798.99	24.615
799.29	24.242
799.60	36.232
799.90	12.857
800.21	8.772
800.51	6.897
800.82	26.415
801.12	31.373
801.43	12.903
801.73	24.194
802.04	14.000
802.34	3.774
802.65	-10.526
802.95	20.000
803.26	37.736
803.56	11.475
803.87	10.000
804.17	11.111
804.48	28.846
804.78	0.000
805.09	25.532
805.39	25.424
805.70	10.417
806.00	30.357
806.30	13.559
806.61	18.462
806.91	-3.077
807.22	10.526
807.52	18.571
807.83	12.069
808.13	18.987
808.43	14.754
808.74	18.033
809.04	20.270
809.35	7.407
809.65	26.786
809.95	10.169
810.26	6.122
810.56	13.208
810.86	1.961
811.17	-8.108
811.47	-25.926
811.77	17.647
812.08	25.000
812.38	8.333
812.69	28.205
812.99	16.667
813.29	28.261
813.59	5.714
813.90	38.095
814.20	7.273
814.50	-6.122
814.81	15.686
815.11	16.667
815.41	-17.073
815.72	0.000
816.02	36.170
816.32	25.000
816.62	12.121
816.93	-3.030
817.23	0.000
817.53	14.706
817.84	20.000
818.14	-2.941
818.44	34.375
818.74	-33.333
819.04	0.000
819.35	28.571
819.65	15.909
819.95	20.513
820.25	-44.444
820.56	-6.897
820.86	-21.429
821.16	4.348
821.46	11.905
821.76	14.815
822.07	0.000
822.37	18.367
822.67	2.326
822.97	-65.217
823.27	-42.308
823.57	-11.111
823.88	-28.571
824.18	-17.949
824.48	0.000
824.78	6.061
825.08	-80.000
825.38	20.000
825.69	-61.111
825.99	11.111
826.29	28.889
826.59	-7.407
826.89	-7.407
827.19	-3.571
827.49	-50.000
827.79	-59.091
828.09	63.636
828.39	-26.087
828.70	18.519
829.00	10.714
829.30	28.571
829.60	25.806
829.90	-15.385
830.20	-12.821
830.50	-18.182
830.80	-28.571
831.10	-72.222
831.40	-78.571
831.70	-18.519
832.00	17.647
832.30	-4.348
832.60	-4.167
832.90	-54.545
833.20	-16.667
833.50	3.125
833.80	-19.231
834.10	0.000
834.40	29.167
834.70	13.636
835.00	30.769
835.30	5.000
835.60	-80.000
835.90	-5.000
836.20	-64.286
836.50	0.000
836.80	-44.444
837.10	33.333
837.40	-110.000
837.70	21.739
838.00	-14.286
838.30	1100.000
838.60	12.000
838.90	-20.000
839.19	-22.222
839.49	-700.000
839.79	-11.765
840.09	-100.000
840.39	10.714
840.69	-77.778
840.99	-91.667
841.29	-31.034
841.59	-93.333
841.88	-18.182
842.18	-333.333
842.48	25.000
842.78	3.846
843.08	-41.176
843.38	10.000
843.68	-69.231
843.97	-23.529
844.27	-90.000
844.57	4.167
844.87	-9.091
845.17	-36.842
845.47	-11.111
845.76	13.889
846.06	-52.381
846.36	28.571
846.66	-100.000
846.96	-35.000
847.25	-100.000
847.55	-62.500
847.85	-120.000
848.15	-350.000
848.44	36.842
848.74	60.000
849.04	-26.316
849.34	-166.667
849.63	-33.333
849.93	5.882
850.23	-109.091
850.53	-33.333
850.82	-20.000
851.12	-188.889
851.42	0.000
851.71	20.000
852.01	-7.143
852.31	-100.000
852.61	-38.462
852.90	-180.000
853.20	-133.333
853.50	-44.444
853.79	-20.000
854.09	-90.000
854.39	-52.632
854.68	-25.000
854.98	-175.000
855.28	-22.222
855.57	-85.714
855.87	-42.105
856.17	-87.500
856.46	23.077
856.76	-26.667
857.05	-18.750
857.35	37.500
857.65	-27.778
857.94	-50.000
858.24	17.391
858.53	-100.000
858.83	-266.667
859.13	-190.909
859.42	-150.000
859.72	33.333
860.01	-15.385
860.31	-70.000
860.60	-87.500
860.90	-200.000
861.20	-200.000
861.49	-50.000
861.79	900.000
862.08	19.355
862.38	-10.526
862.67	-23.077
862.97	-160.000
863.26	116.667
863.56	-4.348
863.85	-83.333
864.15	-21.429
864.44	62.500
864.74	-116.667
865.03	-55.556
865.33	-400.000
865.62	-1700.000
865.92	-600.000
866.21	-300.000
866.51	-81.818
866.80	-300.000
867.10	-142.857
867.39	55.556
867.69	0.000
867.98	100.000
868.27	-200.000
868.57	450.000
868.86	20.000
869.16	-69.231
869.45	150.000
869.75	-133.333
870.04	-91.667
870.33	-11.765
870.63	-57.143
870.92	78.261
871.22	-112.500
871.51	340.000
871.80	-31.250
872.10	-266.667
>>>>>End Processed Spectral Data<<<<<
