SpectraSuite Data File
++++++++++++++++++++++++++++++++++++
Date: Wed May 13 19:17:30 PDT 2015
User: schluterlab
Dark Spectrum Present: Yes
Reference Spectrum Present: Yes
Number of Sampled Component Spectra: 1
Spectrometers: USB2E3373
Integration Time (usec): 3000 (USB2E3373)
Spectra Averaged: 3 (USB2E3373)
Boxcar Smoothing: 0 (USB2E3373)
Correct for Electrical Dark: No (USB2E3373)
Strobe/Lamp Enabled: No (USB2E3373)
Correct for Detector Non-linearity: No (USB2E3373)
Correct for Stray Light: No (USB2E3373)
Number of Pixels in Processed Spectrum: 2048
>>>>>Begin Processed Spectral Data<<<<<
178.53	0.000
178.91	-1525.000
179.29	-1700.000
179.67	-255.556
180.04	-1075.000
180.42	2500.000
180.80	1200.000
181.18	-1125.000
181.56	785.714
181.94	0.000
182.31	-785.714
182.69	1733.333
183.07	-575.000
183.45	-588.889
183.83	590.909
184.20	-520.000
184.58	2550.000
184.96	6200.000
185.34	-1120.000
185.72	-812.500
186.09	-2850.000
186.47	2850.000
186.85	2600.000
187.23	6900.000
187.61	-1900.000
187.98	1575.000
188.36	618.182
188.74	527.273
189.12	-1020.000
189.49	660.000
189.87	-5600.000
190.25	-1525.000
190.63	500.000
191.00	484.615
191.38	1016.667
191.76	-1375.000
192.14	1750.000
192.51	825.000
192.89	1100.000
193.27	662.500
193.65	-1325.000
194.02	580.000
194.40	1000.000
194.78	650.000
195.15	533.333
195.53	710.000
195.91	-2150.000
196.29	412.500
196.66	363.158
197.04	-420.000
197.42	0.000
197.79	720.000
198.17	-5700.000
198.55	814.286
198.92	862.500
199.30	940.000
199.68	0.000
200.05	372.222
200.43	971.429
200.81	5800.000
201.18	1866.667
201.56	-1633.333
201.94	688.889
202.31	588.889
202.69	475.000
203.07	540.000
203.44	0.000
203.82	1525.000
204.19	800.000
204.57	492.857
204.95	762.500
205.32	1766.667
205.70	618.182
206.08	492.857
206.45	3050.000
206.83	425.000
207.20	1116.667
207.58	1060.000
207.96	333.333
208.33	825.000
208.71	-1000.000
209.08	857.143
209.46	744.444
209.84	590.909
210.21	-1766.667
210.59	1475.000
210.96	-512.500
211.34	2750.000
211.71	610.000
212.09	983.333
212.46	0.000
212.84	1966.667
213.22	1750.000
213.59	-4800.000
213.97	833.333
214.34	885.714
214.72	636.364
215.09	1380.000
215.47	-3250.000
215.84	-2900.000
216.22	2066.667
216.59	457.143
216.97	1550.000
217.34	581.818
217.72	-800.000
218.09	0.000
218.47	-5600.000
218.84	722.222
219.22	928.571
219.59	2233.333
219.97	-842.857
220.34	1240.000
220.72	-1833.333
221.09	464.286
221.47	1650.000
221.84	-1033.333
222.22	0.000
222.59	1350.000
222.97	-2700.000
223.34	1220.000
223.72	530.769
224.09	1080.000
224.46	2850.000
224.84	-5900.000
225.21	-1300.000
225.59	-5300.000
225.96	690.000
226.34	310.000
226.71	3000.000
227.08	825.000
227.46	550.000
227.83	-1325.000
228.21	-3050.000
228.58	777.778
228.95	-2750.000
229.33	-2350.000
229.70	2033.333
230.08	1057.143
230.45	-1180.000
230.82	525.000
231.20	916.667
231.57	771.429
231.95	500.000
232.32	268.182
232.69	436.364
233.07	842.857
233.44	507.692
233.81	-2300.000
234.19	347.368
234.56	566.667
234.93	500.000
235.31	581.818
235.68	430.769
236.05	478.571
236.43	215.152
236.80	347.368
237.17	5900.000
237.55	290.476
237.92	271.429
238.29	352.381
238.67	219.355
239.04	258.621
239.41	227.778
239.79	167.391
240.16	192.857
240.53	165.909
240.91	152.941
241.28	174.000
241.65	172.000
242.02	107.246
242.40	145.161
242.77	126.667
243.14	109.677
243.51	101.124
243.89	115.294
244.26	93.333
244.63	105.376
245.00	78.723
245.38	100.990
245.75	88.785
246.12	91.743
246.49	84.672
246.87	87.200
247.24	84.615
247.61	85.000
247.98	74.510
248.36	66.216
248.73	82.166
249.10	83.439
249.47	75.141
249.84	67.380
250.22	66.310
250.59	70.414
250.96	68.182
251.33	69.668
251.70	70.792
252.08	69.524
252.45	60.987
252.82	59.565
253.19	64.681
253.56	61.569
253.94	65.560
254.31	58.984
254.68	63.462
255.05	61.624
255.42	64.228
255.79	59.926
256.16	61.733
256.54	55.830
256.91	62.633
257.28	56.835
257.65	57.096
258.02	58.075
258.39	58.991
258.76	54.515
259.14	52.679
259.51	56.231
259.88	54.969
260.25	57.704
260.62	53.179
260.99	53.106
261.36	54.955
261.73	53.582
262.10	51.163
262.47	55.775
262.85	55.989
263.22	48.433
263.59	57.835
263.96	54.670
264.33	51.175
264.70	51.579
265.07	50.128
265.44	49.747
265.81	51.095
266.18	52.764
266.55	52.683
266.92	52.826
267.29	51.852
267.66	47.936
268.03	53.636
268.40	49.766
268.77	50.835
269.14	50.901
269.51	49.436
269.88	51.981
270.25	48.758
270.62	49.213
270.99	49.677
271.36	46.996
271.73	50.467
272.10	50.000
272.47	50.108
272.84	49.567
273.21	47.379
273.58	47.817
273.95	48.218
274.32	48.967
274.69	49.251
275.06	46.063
275.43	49.149
275.80	49.499
276.17	47.047
276.54	47.817
276.91	46.838
277.28	45.117
277.65	48.162
278.02	44.928
278.39	47.070
278.76	45.818
279.13	48.679
279.50	46.741
279.87	46.215
280.23	47.904
280.60	45.455
280.97	45.287
281.34	45.487
281.71	44.364
282.08	49.328
282.45	47.455
282.82	45.471
283.19	42.959
283.56	45.614
283.92	45.008
284.29	44.092
284.66	46.642
285.03	43.219
285.40	44.542
285.77	44.444
286.14	42.660
286.51	44.667
286.87	43.761
287.24	45.765
287.61	41.734
287.98	43.182
288.35	41.997
288.72	44.704
289.08	43.505
289.45	41.845
289.82	41.138
290.19	38.932
290.56	38.285
290.93	38.520
291.29	42.025
291.66	38.938
292.03	40.843
292.40	39.648
292.77	38.757
293.13	38.507
293.50	39.796
293.87	38.519
294.24	36.444
294.60	38.719
294.97	39.244
295.34	38.787
295.71	37.358
296.08	36.182
296.44	35.763
296.81	35.535
297.18	40.921
297.55	35.884
297.91	35.224
298.28	37.617
298.65	35.640
299.02	37.549
299.38	36.388
299.75	34.367
300.12	36.015
300.48	34.000
300.85	36.498
301.22	36.433
301.59	33.712
301.95	35.390
302.32	35.558
302.69	33.692
303.05	33.939
303.42	34.074
303.79	34.428
304.15	31.935
304.52	31.634
304.89	31.940
305.25	33.643
305.62	33.069
305.99	34.238
306.35	33.110
306.72	34.978
307.09	31.964
307.45	34.122
307.82	31.027
308.19	32.450
308.55	33.981
308.92	34.479
309.29	32.735
309.65	32.768
310.02	33.192
310.38	34.301
310.75	32.735
311.12	32.753
311.48	32.915
311.85	33.229
312.22	34.339
312.58	34.096
312.95	34.741
313.31	31.942
313.68	34.615
314.05	34.813
314.41	34.171
314.78	35.045
315.14	33.863
315.51	34.706
315.87	35.743
316.24	34.161
316.61	35.185
316.97	34.540
317.34	34.344
317.70	37.667
318.07	36.670
318.43	38.454
318.80	36.926
319.16	39.360
319.53	37.336
319.89	39.048
320.26	40.700
320.62	41.468
320.99	41.010
321.35	40.404
321.72	41.992
322.08	41.955
322.45	43.184
322.81	43.023
323.18	43.642
323.54	44.063
323.91	45.377
324.27	46.176
324.64	46.692
325.00	46.348
325.37	49.591
325.73	49.282
326.10	49.956
326.46	50.627
326.83	51.424
327.19	51.751
327.56	53.310
327.92	52.668
328.29	53.949
328.65	55.617
329.01	55.235
329.38	56.337
329.74	56.787
330.11	56.645
330.47	56.566
330.84	58.640
331.20	58.834
331.56	58.073
331.93	57.685
332.29	57.409
332.66	58.496
333.02	59.872
333.38	60.253
333.75	60.428
334.11	59.609
334.48	59.627
334.84	60.478
335.20	58.909
335.57	60.562
335.93	59.107
336.29	61.538
336.66	61.948
337.02	60.543
337.38	62.963
337.75	61.408
338.11	60.519
338.47	63.260
338.84	62.786
339.20	62.661
339.56	62.591
339.93	62.364
340.29	63.134
340.65	62.834
341.02	62.565
341.38	63.523
341.74	61.754
342.11	62.533
342.47	63.965
342.83	62.757
343.20	61.732
343.56	60.489
343.92	61.579
344.28	62.415
344.65	63.457
345.01	61.027
345.37	62.350
345.73	63.621
346.10	63.171
346.46	63.644
346.82	61.697
347.19	62.322
347.55	61.823
347.91	63.269
348.27	62.366
348.63	62.124
349.00	60.761
349.36	62.479
349.72	62.470
350.08	60.697
350.45	62.815
350.81	62.713
351.17	62.075
351.53	61.835
351.89	62.129
352.26	60.300
352.62	62.310
352.98	61.021
353.34	62.531
353.70	61.948
354.07	61.452
354.43	62.460
354.79	60.177
355.15	59.856
355.51	64.109
355.87	62.939
356.24	62.296
356.60	61.107
356.96	62.027
357.32	64.595
357.68	62.441
358.04	61.679
358.40	62.154
358.77	61.659
359.13	61.484
359.49	61.333
359.85	60.556
360.21	61.802
360.57	62.412
360.93	61.462
361.29	61.754
361.66	60.759
362.02	61.194
362.38	63.118
362.74	63.021
363.10	61.584
363.46	61.189
363.82	60.620
364.18	61.013
364.54	62.556
364.90	61.331
365.26	62.500
365.62	62.893
365.98	61.286
366.35	59.814
366.71	61.894
367.07	61.471
367.43	62.264
367.79	62.170
368.15	61.351
368.51	60.974
368.87	63.241
369.23	62.985
369.59	62.274
369.95	62.647
370.31	62.179
370.67	61.087
371.03	64.045
371.39	63.703
371.75	63.603
372.11	61.451
372.47	64.223
372.83	64.049
373.19	62.355
373.55	63.636
373.91	63.476
374.27	62.680
374.63	64.145
374.99	63.065
375.35	63.643
375.71	62.234
376.07	63.923
376.42	64.649
376.78	63.552
377.14	63.501
377.50	63.576
377.86	63.165
378.22	63.464
378.58	62.030
378.94	63.231
379.30	65.013
379.66	64.404
380.02	63.084
380.38	62.659
380.74	63.565
381.09	64.181
381.45	64.720
381.81	64.373
382.17	63.439
382.53	62.516
382.89	65.185
383.25	64.978
383.61	64.622
383.97	64.165
384.32	63.880
384.68	64.622
385.04	64.659
385.40	62.663
385.76	64.066
386.12	64.184
386.48	64.695
386.83	66.581
387.19	65.615
387.55	64.378
387.91	64.933
388.27	64.684
388.62	64.659
388.98	64.066
389.34	64.018
389.70	64.255
390.06	64.829
390.42	65.629
390.77	65.076
391.13	65.539
391.49	64.975
391.85	65.627
392.20	64.858
392.56	65.341
392.92	64.803
393.28	64.438
393.64	65.228
393.99	63.531
394.35	64.578
394.71	63.864
395.07	63.053
395.42	65.080
395.78	64.249
396.14	64.432
396.50	65.664
396.85	65.353
397.21	64.365
397.57	65.592
397.92	64.243
398.28	65.135
398.64	64.576
399.00	64.913
399.35	64.636
399.71	64.294
400.07	64.222
400.42	64.417
400.78	64.536
401.14	65.549
401.49	64.239
401.85	64.670
402.21	63.054
402.57	64.775
402.92	65.511
403.28	65.834
403.63	64.356
403.99	64.586
404.35	63.455
404.70	64.209
405.06	63.425
405.42	63.880
405.77	64.171
406.13	62.867
406.49	64.400
406.84	64.324
407.20	63.593
407.55	65.986
407.91	65.467
408.27	64.008
408.62	63.456
408.98	63.725
409.34	64.699
409.69	64.452
410.05	63.321
410.40	64.220
410.76	63.321
411.11	62.123
411.47	63.195
411.83	62.859
412.18	62.647
412.54	65.068
412.89	63.253
413.25	62.869
413.60	64.793
413.96	62.113
414.31	63.548
414.67	63.688
415.03	63.311
415.38	62.436
415.74	62.572
416.09	63.357
416.45	64.190
416.80	63.714
417.16	63.673
417.51	64.499
417.87	63.969
418.22	63.155
418.58	63.138
418.93	64.558
419.29	64.799
419.64	63.287
420.00	63.902
420.35	62.783
420.71	63.718
421.06	61.993
421.42	62.281
421.77	62.948
422.12	62.718
422.48	62.439
422.83	61.969
423.19	61.326
423.54	63.030
423.90	63.362
424.25	61.418
424.61	62.321
424.96	63.557
425.31	62.625
425.67	61.966
426.02	62.514
426.38	62.821
426.73	61.673
427.09	62.188
427.44	63.082
427.79	62.507
428.15	62.381
428.50	62.317
428.85	62.634
429.21	61.568
429.56	62.312
429.92	62.104
430.27	62.959
430.62	61.854
430.98	62.481
431.33	61.289
431.68	61.937
432.04	61.661
432.39	62.707
432.74	62.717
433.10	63.214
433.45	63.207
433.80	62.860
434.16	61.592
434.51	61.895
434.86	63.056
435.22	63.813
435.57	63.161
435.92	62.493
436.28	62.693
436.63	63.521
436.98	62.564
437.34	63.983
437.69	64.002
438.04	63.575
438.39	63.522
438.75	62.638
439.10	63.184
439.45	62.869
439.81	62.900
440.16	62.281
440.51	63.210
440.86	64.679
441.22	62.959
441.57	62.420
441.92	62.027
442.27	62.594
442.63	61.927
442.98	63.775
443.33	62.609
443.68	62.210
444.03	62.518
444.39	62.074
444.74	63.149
445.09	62.264
445.44	62.493
445.79	62.741
446.15	61.249
446.50	62.843
446.85	63.001
447.20	63.131
447.55	64.154
447.91	62.162
448.26	63.717
448.61	63.426
448.96	64.064
449.31	64.061
449.66	62.971
450.02	62.674
450.37	63.265
450.72	61.985
451.07	61.792
451.42	62.736
451.77	63.535
452.12	62.067
452.47	62.438
452.83	64.219
453.18	61.553
453.53	64.440
453.88	62.729
454.23	62.642
454.58	63.780
454.93	64.526
455.28	63.342
455.63	63.653
455.98	63.869
456.34	63.882
456.69	65.122
457.04	63.467
457.39	62.420
457.74	63.494
458.09	62.162
458.44	62.087
458.79	60.792
459.14	62.810
459.49	62.464
459.84	62.881
460.19	61.992
460.54	60.706
460.89	62.589
461.24	63.267
461.59	63.626
461.94	62.330
462.29	63.323
462.64	62.412
462.99	62.459
463.34	64.467
463.69	62.539
464.04	61.507
464.39	61.333
464.74	61.913
465.09	62.244
465.44	61.662
465.79	61.242
466.14	61.795
466.49	61.290
466.84	61.763
467.19	61.316
467.54	62.812
467.89	61.645
468.24	61.373
468.59	63.248
468.94	61.148
469.29	62.596
469.64	63.119
469.99	63.261
470.34	63.276
470.68	62.787
471.03	62.517
471.38	63.377
471.73	62.292
472.08	64.013
472.43	62.186
472.78	62.146
473.13	60.976
473.48	60.986
473.83	61.829
474.17	62.414
474.52	63.337
474.87	62.405
475.22	61.172
475.57	59.430
475.92	60.542
476.27	59.752
476.61	60.838
476.96	61.078
477.31	61.015
477.66	61.105
478.01	60.638
478.36	60.973
478.70	61.371
479.05	61.289
479.40	60.491
479.75	62.227
480.10	60.785
480.45	59.686
480.79	59.723
481.14	60.714
481.49	59.468
481.84	59.625
482.19	60.200
482.53	60.092
482.88	60.726
483.23	59.860
483.58	60.009
483.92	60.778
484.27	58.780
484.62	59.526
484.97	59.007
485.31	58.767
485.66	56.957
486.01	55.122
486.36	52.546
486.70	52.105
487.05	53.473
487.40	54.469
487.75	54.682
488.09	56.294
488.44	56.704
488.79	58.987
489.13	58.518
489.48	59.299
489.83	58.610
490.17	59.798
490.52	59.256
490.87	59.566
491.22	59.254
491.56	58.633
491.91	58.585
492.26	59.026
492.60	58.940
492.95	58.980
493.30	59.206
493.64	59.543
493.99	58.589
494.34	59.343
494.68	58.929
495.03	59.398
495.37	58.818
495.72	60.234
496.07	59.072
496.41	58.540
496.76	58.443
497.11	57.812
497.45	57.848
497.80	58.253
498.14	58.309
498.49	59.024
498.84	59.684
499.18	58.429
499.53	58.547
499.87	58.434
500.22	58.926
500.56	58.981
500.91	57.885
501.26	58.369
501.60	59.374
501.95	57.058
502.29	58.903
502.64	58.939
502.98	58.485
503.33	58.044
503.67	58.144
504.02	58.232
504.36	57.651
504.71	58.720
505.06	57.783
505.40	58.872
505.75	56.654
506.09	58.601
506.44	58.559
506.78	58.987
507.13	59.465
507.47	58.838
507.82	58.359
508.16	58.004
508.51	60.122
508.85	58.788
509.19	58.673
509.54	58.673
509.88	57.239
510.23	59.383
510.57	59.185
510.92	58.674
511.26	57.605
511.61	59.025
511.95	57.881
512.30	58.590
512.64	58.302
512.98	58.789
513.33	59.904
513.67	57.577
514.02	58.712
514.36	59.203
514.70	59.491
515.05	59.230
515.39	59.114
515.74	58.896
516.08	59.419
516.42	59.489
516.77	60.256
517.11	58.713
517.46	59.424
517.80	59.930
518.14	59.583
518.49	60.385
518.83	58.409
519.17	58.834
519.52	59.423
519.86	59.099
520.20	59.884
520.55	60.443
520.89	60.158
521.23	59.891
521.58	59.364
521.92	60.073
522.26	59.182
522.61	61.184
522.95	59.239
523.29	60.012
523.64	59.146
523.98	60.444
524.32	60.072
524.66	59.591
525.01	58.885
525.35	59.789
525.69	60.222
526.04	58.567
526.38	59.365
526.72	59.018
527.06	61.268
527.41	58.911
527.75	59.164
528.09	60.051
528.43	60.612
528.78	60.111
529.12	58.242
529.46	59.706
529.80	59.777
530.15	58.442
530.49	57.908
530.83	58.734
531.17	60.770
531.51	60.960
531.86	59.419
532.20	59.844
532.54	59.513
532.88	58.280
533.22	57.776
533.57	58.333
533.91	58.098
534.25	57.290
534.59	58.450
534.93	56.752
535.27	57.936
535.62	56.227
535.96	59.196
536.30	57.088
536.64	58.854
536.98	58.792
537.32	58.130
537.66	58.067
538.01	59.184
538.35	57.789
538.69	59.221
539.03	57.505
539.37	57.380
539.71	56.254
540.05	56.993
540.39	58.804
540.73	56.468
541.07	58.404
541.42	57.860
541.76	58.194
542.10	58.538
542.44	59.603
542.78	58.762
543.12	56.942
543.46	57.574
543.80	57.840
544.14	57.381
544.48	58.222
544.82	55.484
545.16	57.450
545.50	56.298
545.84	57.460
546.18	56.768
546.52	57.743
546.86	58.144
547.20	58.193
547.54	57.248
547.88	56.505
548.22	55.230
548.56	56.101
548.90	56.338
549.24	55.421
549.58	57.572
549.92	57.761
550.26	57.955
550.60	57.054
550.94	58.803
551.28	57.132
551.62	58.447
551.96	56.982
552.30	57.065
552.64	57.268
552.98	55.797
553.32	57.451
553.66	56.987
554.00	57.584
554.34	56.384
554.68	57.582
555.02	55.783
555.36	56.994
555.69	55.074
556.03	56.057
556.37	56.344
556.71	56.344
557.05	55.812
557.39	56.893
557.73	55.116
558.07	57.505
558.41	57.308
558.75	58.413
559.08	57.718
559.42	58.352
559.76	57.059
560.10	56.174
560.44	56.604
560.78	53.360
561.12	55.079
561.45	54.563
561.79	54.515
562.13	55.936
562.47	56.626
562.81	55.788
563.15	55.786
563.48	55.371
563.82	55.382
564.16	54.807
564.50	54.492
564.84	54.172
565.17	55.212
565.51	53.994
565.85	53.109
566.19	55.103
566.52	54.908
566.86	52.984
567.20	53.302
567.54	52.340
567.88	51.385
568.21	51.376
568.55	50.708
568.89	51.411
569.23	49.599
569.56	48.866
569.90	48.528
570.24	47.327
570.57	47.365
570.91	45.378
571.25	45.769
571.59	46.156
571.92	44.960
572.26	45.061
572.60	45.015
572.93	44.858
573.27	45.253
573.61	45.840
573.95	44.858
574.28	44.146
574.62	43.732
574.96	43.465
575.29	43.501
575.63	43.801
575.97	44.311
576.30	43.680
576.64	43.695
576.98	43.680
577.31	43.600
577.65	43.453
577.98	42.581
578.32	42.335
578.66	42.537
578.99	42.707
579.33	43.137
579.67	43.250
580.00	43.778
580.34	43.308
580.67	43.016
581.01	42.815
581.35	42.585
581.68	41.919
582.02	41.613
582.35	42.116
582.69	41.785
583.02	41.933
583.36	42.518
583.70	43.007
584.03	43.051
584.37	43.557
584.70	43.757
585.04	43.493
585.37	42.801
585.71	42.834
586.04	43.223
586.38	43.234
586.72	44.270
587.05	43.575
587.39	42.982
587.72	43.056
588.06	43.090
588.39	43.292
588.73	43.297
589.06	44.874
589.40	44.512
589.73	45.195
590.07	44.982
590.40	45.232
590.73	46.292
591.07	46.642
591.40	46.520
591.74	48.095
592.07	46.204
592.41	46.093
592.74	45.543
593.08	44.637
593.41	44.227
593.75	43.317
594.08	43.949
594.41	43.726
594.75	44.806
595.08	44.631
595.42	43.783
595.75	43.803
596.09	44.499
596.42	45.147
596.75	46.222
597.09	46.061
597.42	45.110
597.75	46.529
598.09	46.043
598.42	45.361
598.76	44.629
599.09	44.774
599.42	43.668
599.76	44.327
600.09	43.461
600.42	43.572
600.76	43.179
601.09	43.825
601.42	45.091
601.76	44.213
602.09	44.862
602.42	43.949
602.76	44.538
603.09	45.043
603.42	44.553
603.76	44.017
604.09	44.242
604.42	45.455
604.76	45.550
605.09	45.304
605.42	45.404
605.75	46.151
606.09	44.449
606.42	45.239
606.75	44.255
607.09	44.830
607.42	45.143
607.75	44.051
608.08	45.072
608.42	45.764
608.75	44.635
609.08	45.745
609.41	45.217
609.75	45.117
610.08	45.947
610.41	45.298
610.74	46.925
611.07	46.393
611.41	45.976
611.74	46.858
612.07	46.222
612.40	47.167
612.73	45.895
613.07	47.306
613.40	46.709
613.73	46.251
614.06	47.258
614.39	46.985
614.72	45.632
615.06	47.216
615.39	46.338
615.72	45.450
616.05	45.136
616.38	47.526
616.71	48.219
617.05	47.409
617.38	47.685
617.71	47.027
618.04	47.837
618.37	47.664
618.70	48.351
619.03	50.066
619.36	49.287
619.69	49.085
620.03	50.481
620.36	49.599
620.69	48.973
621.02	50.369
621.35	50.979
621.68	50.000
622.01	50.077
622.34	51.362
622.67	51.179
623.00	48.936
623.33	48.678
623.66	50.250
623.99	51.252
624.32	49.073
624.65	49.647
624.99	49.150
625.32	49.312
625.65	50.488
625.98	49.808
626.31	51.866
626.64	52.163
626.97	51.621
627.30	51.372
627.63	51.189
627.96	52.902
628.29	52.668
628.62	52.882
628.95	55.283
629.28	54.653
629.61	54.445
629.94	55.810
630.26	55.958
630.59	53.289
630.92	52.203
631.25	54.492
631.58	55.155
631.91	53.651
632.24	55.591
632.57	55.509
632.90	55.482
633.23	56.152
633.56	56.610
633.89	56.172
634.22	57.208
634.55	59.408
634.88	58.204
635.20	60.215
635.53	58.916
635.86	60.767
636.19	57.765
636.52	56.632
636.85	55.899
637.18	56.336
637.51	58.983
637.83	55.364
638.16	59.719
638.49	58.816
638.82	59.924
639.15	59.000
639.48	61.471
639.81	61.662
640.13	58.464
640.46	60.134
640.79	57.596
641.12	58.735
641.45	59.637
641.77	62.445
642.10	60.965
642.43	60.511
642.76	61.610
643.09	64.571
643.41	60.698
643.74	62.037
644.07	60.518
644.40	64.110
644.73	63.150
645.05	64.501
645.38	63.349
645.71	62.963
646.04	63.953
646.36	65.275
646.69	64.548
647.02	64.626
647.35	65.808
647.67	66.549
648.00	63.089
648.33	62.046
648.66	58.636
648.98	58.921
649.31	59.641
649.64	59.043
649.96	60.060
650.29	62.243
650.62	63.107
650.94	63.209
651.27	65.878
651.60	62.230
651.92	61.182
652.25	61.889
652.58	59.969
652.90	62.401
653.23	59.014
653.56	60.945
653.88	59.429
654.21	61.295
654.54	62.871
654.86	59.346
655.19	55.946
655.52	36.701
655.84	32.250
656.17	41.199
656.49	55.240
656.82	55.118
657.15	41.036
657.47	30.304
657.80	23.412
658.13	24.057
658.45	35.733
658.78	35.208
659.10	36.575
659.43	39.959
659.75	42.608
660.08	47.278
660.41	52.142
660.73	58.069
661.06	61.465
661.38	65.273
661.71	63.462
662.03	68.047
662.36	61.233
662.68	64.458
663.01	65.859
663.33	66.879
663.66	70.378
663.98	66.091
664.31	67.017
664.63	63.360
664.96	60.966
665.28	65.164
665.61	64.717
665.93	66.398
666.26	65.720
666.58	63.808
666.91	67.653
667.23	68.315
667.56	65.443
667.88	66.453
668.21	67.377
668.53	64.425
668.86	65.368
669.18	69.723
669.50	66.522
669.83	69.717
670.15	68.444
670.48	67.538
670.80	66.164
671.13	67.091
671.45	64.043
671.77	68.635
672.10	62.292
672.42	59.541
672.75	56.882
673.07	60.739
673.39	59.494
673.72	61.133
674.04	62.549
674.37	62.718
674.69	62.986
675.01	61.715
675.34	61.807
675.66	64.842
675.98	61.914
676.31	65.336
676.63	65.605
676.95	60.377
677.28	66.589
677.60	65.275
677.92	66.245
678.25	64.476
678.57	62.351
678.89	62.124
679.22	61.297
679.54	61.832
679.86	60.550
680.18	58.318
680.51	58.511
680.83	57.295
681.15	59.245
681.48	62.004
681.80	61.122
682.12	58.621
682.44	58.801
682.77	61.100
683.09	68.240
683.41	67.184
683.73	63.135
684.06	62.397
684.38	61.057
684.70	59.884
685.02	60.788
685.34	56.410
685.67	55.944
685.99	55.842
686.31	57.167
686.63	54.417
686.96	57.143
687.28	57.220
687.60	56.159
687.92	59.049
688.24	61.407
688.56	61.446
688.89	59.751
689.21	65.939
689.53	59.708
689.85	64.745
690.17	58.178
690.49	63.694
690.82	63.318
691.14	62.054
691.46	58.439
691.78	57.831
692.10	61.777
692.42	57.285
692.74	58.921
693.06	60.638
693.39	60.164
693.71	60.917
694.03	62.316
694.35	60.823
694.67	61.556
694.99	67.561
695.31	59.804
695.63	66.268
695.95	65.526
696.27	62.690
696.59	64.508
696.91	65.285
697.23	59.155
697.56	59.488
697.88	55.828
698.20	56.250
698.52	58.925
698.84	60.134
699.16	59.447
699.48	57.720
699.80	63.527
700.12	70.130
700.44	66.844
700.76	68.508
701.08	66.954
701.40	63.966
701.72	69.971
702.04	69.602
702.36	65.722
702.68	69.122
703.00	64.266
703.32	60.372
703.64	64.343
703.96	62.117
704.28	68.023
704.60	65.689
704.91	69.436
705.23	68.328
705.55	74.086
705.87	73.422
706.19	71.378
706.51	64.174
706.83	64.242
707.15	68.067
707.47	60.354
707.79	59.705
708.11	62.329
708.43	60.238
708.74	58.929
709.06	62.338
709.38	60.892
709.70	64.826
710.02	67.953
710.34	66.364
710.66	66.866
710.98	65.909
711.29	63.081
711.61	65.487
711.93	66.026
712.25	69.775
712.57	78.676
712.89	72.318
713.20	62.310
713.52	67.434
713.84	64.557
714.16	64.329
714.48	62.069
714.80	69.605
715.11	58.501
715.43	65.282
715.75	64.058
716.07	62.939
716.39	62.069
716.70	69.103
717.02	70.504
717.34	64.664
717.66	73.134
717.97	78.486
718.29	72.593
718.61	69.708
718.93	73.897
719.24	68.166
719.56	68.475
719.88	70.508
720.20	72.635
720.51	72.822
720.83	70.632
721.15	68.284
721.46	69.504
721.78	67.742
722.10	73.585
722.42	72.180
722.73	71.910
723.05	78.279
723.37	74.089
723.68	67.181
724.00	66.667
724.32	71.371
724.63	71.138
724.95	73.640
725.27	68.016
725.58	67.578
725.90	69.343
726.22	67.925
726.53	63.542
726.85	64.846
727.16	66.904
727.48	65.957
727.80	67.803
728.11	67.754
728.43	68.077
728.74	63.082
729.06	69.343
729.38	72.059
729.69	68.327
730.01	64.846
730.32	59.375
730.64	68.562
730.96	59.076
731.27	63.245
731.59	62.080
731.90	62.099
732.22	59.938
732.53	59.133
732.85	60.577
733.16	59.807
733.48	59.136
733.80	62.013
734.11	65.924
734.43	60.947
734.74	59.714
735.06	54.441
735.37	60.983
735.69	62.102
736.00	62.418
736.32	62.305
736.63	61.661
736.95	58.786
737.26	58.844
737.58	63.226
737.89	59.866
738.21	66.553
738.52	65.357
738.83	61.887
739.15	63.077
739.46	71.168
739.78	64.236
740.09	61.538
740.41	59.677
740.72	59.930
741.04	63.704
741.35	70.000
741.66	71.556
741.98	73.113
742.29	77.990
742.61	71.552
742.92	78.281
743.23	66.239
743.55	64.800
743.86	74.123
744.18	70.354
744.49	77.033
744.80	79.343
745.12	75.455
745.43	68.282
745.74	74.775
746.06	72.936
746.37	70.404
746.68	72.398
747.00	81.481
747.31	80.952
747.62	65.929
747.94	66.520
748.25	68.085
748.56	75.330
748.88	81.188
749.19	79.000
749.50	72.558
749.82	71.138
750.13	62.857
750.44	62.044
750.75	69.474
751.07	62.701
751.38	64.111
751.69	66.065
752.01	62.782
752.32	62.455
752.63	63.121
752.94	66.393
753.26	71.600
753.57	64.634
753.88	67.188
754.19	60.357
754.51	62.153
754.82	61.372
755.13	66.415
755.44	66.165
755.75	65.328
756.07	64.539
756.38	65.693
756.69	61.409
757.00	55.090
757.31	56.677
757.63	57.602
757.94	53.351
758.25	48.039
758.56	52.593
758.87	54.301
759.18	59.394
759.50	52.978
759.81	57.009
760.12	56.562
760.43	57.020
760.74	54.891
761.05	57.627
761.36	52.674
761.67	58.807
761.99	54.348
762.30	62.153
762.61	63.359
762.92	65.625
763.23	69.328
763.54	72.400
763.85	66.016
764.16	66.154
764.47	65.779
764.78	59.011
765.10	53.165
765.41	56.637
765.72	58.683
766.03	57.053
766.34	58.333
766.65	68.936
766.96	67.521
767.27	72.081
767.58	75.521
767.89	78.421
768.20	82.184
768.51	70.558
768.82	70.183
769.13	65.854
769.44	63.158
769.75	72.532
770.06	59.174
770.37	67.873
770.68	65.278
770.99	64.444
771.30	59.836
771.61	71.749
771.92	65.984
772.23	69.748
772.54	70.769
772.85	66.492
773.16	75.532
773.47	75.000
773.78	74.112
774.09	75.595
774.39	79.532
774.70	81.481
775.01	81.884
775.32	90.196
775.63	85.526
775.94	88.489
776.25	90.551
776.56	89.552
776.87	87.705
777.18	87.500
777.48	83.969
777.79	85.606
778.10	88.148
778.41	97.321
778.72	83.942
779.03	79.195
779.34	77.852
779.65	77.703
779.95	82.822
780.26	90.850
780.57	85.517
780.88	100.000
781.19	88.722
781.50	81.081
781.80	82.390
782.11	65.537
782.42	73.418
782.73	77.914
783.04	83.108
783.34	78.169
783.65	86.986
783.96	84.328
784.27	88.112
784.57	75.540
784.88	87.037
785.19	96.032
785.50	97.170
785.81	92.537
786.11	95.902
786.42	94.574
786.73	84.071
787.04	106.604
787.34	94.643
787.65	97.000
787.96	93.694
788.26	88.430
788.57	90.678
788.88	92.562
789.19	81.944
789.49	91.667
789.80	84.733
790.11	100.000
790.41	103.960
790.72	110.843
791.03	115.217
791.33	108.140
791.64	107.216
791.95	95.050
792.25	115.556
792.56	122.078
792.87	119.231
793.17	134.177
793.48	116.092
793.79	117.241
794.09	107.955
794.40	91.597
794.70	85.294
795.01	66.667
795.32	79.137
795.62	85.827
795.93	89.655
796.23	88.496
796.54	108.235
796.85	120.270
797.15	142.254
797.46	119.697
797.76	122.892
798.07	116.456
798.37	106.154
798.68	116.667
798.99	112.676
799.29	122.078
799.60	113.636
799.90	135.616
800.21	155.224
800.51	137.931
800.82	136.842
801.12	149.180
801.43	124.242
801.73	109.459
802.04	122.222
802.34	107.407
802.65	137.500
802.95	145.763
803.26	134.375
803.56	112.857
803.87	115.385
804.17	138.235
804.48	161.111
804.78	122.414
805.09	120.588
805.39	153.846
805.70	137.500
806.00	142.623
806.30	131.818
806.61	106.098
806.91	105.063
807.22	103.947
807.52	107.463
807.83	128.169
808.13	140.625
808.43	155.000
808.74	119.737
809.04	123.188
809.35	132.836
809.65	117.105
809.95	138.710
810.26	115.254
810.56	142.857
810.86	170.455
811.17	207.143
811.47	141.667
811.77	161.111
812.08	140.000
812.38	182.000
812.69	216.667
812.99	197.727
813.29	153.061
813.59	145.238
813.90	167.347
814.20	140.000
814.50	115.385
814.81	130.882
815.11	165.306
815.41	122.951
815.72	183.333
816.02	140.000
816.32	178.571
816.62	155.000
816.93	156.098
817.23	214.286
817.53	168.182
817.84	206.061
818.14	167.391
818.44	164.444
818.74	229.412
819.04	182.500
819.35	208.571
819.65	217.647
819.95	235.714
820.25	330.000
820.56	225.641
820.86	156.818
821.16	190.698
821.46	187.179
821.76	176.000
822.07	228.571
822.37	172.500
822.67	206.061
822.97	152.941
823.27	239.286
823.57	191.892
823.88	177.500
824.18	233.333
824.48	216.667
824.78	280.000
825.08	245.833
825.38	216.216
825.69	168.293
825.99	312.500
826.29	237.931
826.59	200.000
826.89	176.316
827.19	208.824
827.49	212.903
827.79	177.273
828.09	175.000
828.39	157.447
828.70	163.265
829.00	244.444
829.30	222.581
829.60	170.000
829.90	433.333
830.20	225.000
830.50	295.652
830.80	273.913
831.10	236.667
831.40	266.667
831.70	239.130
832.00	242.308
832.30	285.185
832.60	400.000
832.90	223.333
833.20	592.857
833.50	219.355
833.80	227.586
834.10	250.000
834.40	288.462
834.70	394.444
835.00	371.429
835.30	205.714
835.60	469.231
835.90	248.276
836.20	421.429
836.50	241.379
836.80	244.000
837.10	233.333
837.40	314.286
837.70	435.294
838.00	240.741
838.30	257.143
838.60	404.762
838.90	303.846
839.19	335.000
839.49	514.286
839.79	375.000
840.09	330.000
840.39	290.476
840.69	295.652
840.99	355.556
841.29	660.000
841.59	508.333
841.88	406.250
842.18	210.345
842.48	295.238
842.78	206.667
843.08	295.652
843.38	234.375
843.68	1100.000
843.97	234.615
844.27	241.379
844.57	357.143
844.87	418.750
845.17	255.556
845.47	1933.333
845.76	700.000
846.06	400.000
846.36	725.000
846.66	450.000
846.96	393.750
847.25	527.273
847.55	563.636
847.85	317.391
848.15	610.000
848.44	428.571
848.74	305.556
849.04	370.588
849.34	650.000
849.63	321.053
849.93	545.455
850.23	1220.000
850.53	514.286
850.82	2600.000
851.12	-5200.000
851.42	5600.000
851.71	330.000
852.01	-1866.667
852.31	316.667
852.61	2133.333
852.90	271.429
853.20	276.000
853.50	388.235
853.79	319.048
854.09	270.833
854.39	437.500
854.68	224.324
854.98	251.613
855.28	233.333
855.57	272.414
855.87	288.889
856.17	342.105
856.46	420.000
856.76	329.412
857.05	220.690
857.35	245.833
857.65	433.333
857.94	321.739
858.24	257.692
858.53	340.000
858.83	286.364
859.13	473.333
859.42	0.000
859.72	688.889
860.01	518.182
860.31	309.091
860.60	315.789
860.90	291.304
861.20	700.000
861.49	566.667
861.79	-6100.000
862.08	825.000
862.38	338.095
862.67	469.231
862.97	405.882
863.26	733.333
863.56	355.556
863.85	508.333
864.15	725.000
864.44	486.667
864.74	1050.000
865.03	837.500
865.33	336.842
865.62	554.545
865.92	438.462
866.21	458.333
866.51	0.000
866.80	518.182
867.10	1120.000
867.39	546.154
867.69	518.182
867.98	300.000
868.27	636.364
868.57	321.053
868.86	-5600.000
869.16	375.000
869.45	2500.000
869.75	-6000.000
870.04	533.333
870.33	871.429
870.63	1400.000
870.92	3000.000
871.22	871.429
871.51	411.765
871.80	252.381
872.10	457.143
>>>>>End Processed Spectral Data<<<<<
