SpectraSuite Data File
++++++++++++++++++++++++++++++++++++
Date: Tue May 12 19:35:55 PDT 2015
User: schluterlab
Dark Spectrum Present: Yes
Reference Spectrum Present: Yes
Number of Sampled Component Spectra: 1
Spectrometers: USB2E3373
Integration Time (usec): 3000 (USB2E3373)
Spectra Averaged: 3 (USB2E3373)
Boxcar Smoothing: 0 (USB2E3373)
Correct for Electrical Dark: No (USB2E3373)
Strobe/Lamp Enabled: No (USB2E3373)
Correct for Detector Non-linearity: No (USB2E3373)
Correct for Stray Light: No (USB2E3373)
Number of Pixels in Processed Spectrum: 2048
>>>>>Begin Processed Spectral Data<<<<<
178.53	0.000
178.91	-20.000
179.29	0.000
179.67	166.667
180.04	0.000
180.42	-60.000
180.80	100.000
181.18	700.000
181.56	-250.000
181.94	66.667
182.31	1000.000
182.69	-28.571
183.07	0.000
183.45	233.333
183.83	160.000
184.20	166.667
184.58	700.000
184.96	266.667
185.34	-233.333
185.72	-50.000
186.09	16.667
186.47	-300.000
186.85	-140.000
187.23	125.000
187.61	-71.429
187.98	-20.000
188.36	400.000
188.74	-100.000
189.12	-11.111
189.49	-40.000
189.87	250.000
190.25	144.444
190.63	433.333
191.00	180.000
191.38	-133.333
191.76	160.000
192.14	100.000
192.51	40.000
192.89	60.000
193.27	-60.000
193.65	-300.000
194.02	-50.000
194.40	100.000
194.78	-25.000
195.15	-114.286
195.53	400.000
195.91	200.000
196.29	-275.000
196.66	-433.333
197.04	-171.429
197.42	60.000
197.79	-87.500
198.17	16.667
198.55	-300.000
198.92	-11.111
199.30	450.000
199.68	-50.000
200.05	-750.000
200.43	5.556
200.81	-33.333
201.18	83.333
201.56	50.000
201.94	-800.000
202.31	-50.000
202.69	-111.111
203.07	33.333
203.44	-200.000
203.82	0.000
204.19	150.000
204.57	-300.000
204.95	109.091
205.32	-100.000
205.70	200.000
206.08	-600.000
206.45	-40.000
206.83	1500.000
207.20	-44.444
207.58	0.000
207.96	-33.333
208.33	333.333
208.71	300.000
209.08	700.000
209.46	-11.111
209.84	566.667
210.21	-200.000
210.59	350.000
210.96	155.556
211.34	50.000
211.71	650.000
212.09	300.000
212.46	-87.500
212.84	-25.000
213.22	100.000
213.59	62.500
213.97	0.000
214.34	-550.000
214.72	-1600.000
215.09	100.000
215.47	13.333
215.84	-37.500
216.22	-400.000
216.59	300.000
216.97	25.000
217.34	-16.667
217.72	22.222
218.09	150.000
218.47	-52.632
218.84	-12.500
219.22	21.429
219.59	40.000
219.97	-70.000
220.34	50.000
220.72	72.727
221.09	-700.000
221.47	0.000
221.84	-0.000
222.22	-225.000
222.59	-150.000
222.97	21.739
223.34	146.667
223.72	185.714
224.09	-100.000
224.46	184.615
224.84	-66.667
225.21	-50.000
225.59	-25.000
225.96	75.000
226.34	150.000
226.71	220.000
227.08	-53.846
227.46	85.714
227.83	50.000
228.21	-550.000
228.58	116.667
228.95	21.053
229.33	6.250
229.70	-66.667
230.08	-100.000
230.45	-533.333
230.82	-1300.000
231.20	33.333
231.57	-20.000
231.95	-200.000
232.32	-44.444
232.69	-400.000
233.07	0.000
233.44	-75.000
233.81	25.806
234.19	-80.000
234.56	27.778
234.93	-100.000
235.31	14.815
235.68	18.519
236.05	-19.231
236.43	-26.316
236.80	4.545
237.17	-64.286
237.55	-15.000
237.92	13.953
238.29	3.226
238.67	28.571
239.04	-2.857
239.41	0.000
239.79	14.000
240.16	-2.500
240.53	20.690
240.91	15.068
241.28	22.535
241.65	15.625
242.02	-3.509
242.40	4.000
242.77	3.158
243.14	21.176
243.51	23.656
243.89	9.524
244.26	13.889
244.63	28.571
245.00	8.036
245.38	5.882
245.75	0.847
246.12	19.531
246.49	10.400
246.87	15.574
247.24	19.014
247.61	16.556
247.98	14.607
248.36	15.723
248.73	16.477
249.10	13.889
249.47	15.104
249.84	15.736
250.22	10.938
250.59	17.978
250.96	15.000
251.33	22.170
251.70	20.183
252.08	18.182
252.45	17.551
252.82	15.612
253.19	16.342
253.56	16.471
253.94	16.667
254.31	19.065
254.68	17.708
255.05	17.550
255.42	18.182
255.79	17.219
256.16	15.625
256.54	18.485
256.91	19.872
257.28	17.208
257.65	12.131
258.02	16.216
258.39	19.940
258.76	14.985
259.14	15.588
259.51	18.873
259.88	21.037
260.25	14.773
260.62	14.045
260.99	16.156
261.36	17.529
261.73	17.600
262.10	17.166
262.47	16.804
262.85	18.766
263.22	17.742
263.59	19.303
263.96	15.405
264.33	16.442
264.70	16.708
265.07	17.241
265.44	18.735
265.81	18.554
266.18	16.628
266.55	16.429
266.92	18.080
267.29	17.556
267.66	17.045
268.03	17.419
268.40	14.645
268.77	16.704
269.14	17.857
269.51	18.326
269.88	19.658
270.25	17.300
270.62	17.857
270.99	18.737
271.36	14.790
271.73	18.542
272.10	19.710
272.47	17.800
272.84	17.834
273.21	17.119
273.58	17.143
273.95	17.928
274.32	16.828
274.69	16.830
275.06	18.574
275.43	16.000
275.80	18.164
276.17	16.798
276.54	19.772
276.91	19.194
277.28	17.988
277.65	16.068
278.02	18.561
278.39	18.149
278.76	17.691
279.13	20.215
279.50	18.051
279.87	16.981
280.23	17.304
280.60	15.724
280.97	17.047
281.34	17.288
281.71	14.920
282.08	17.352
282.45	15.520
282.82	16.330
283.19	17.340
283.56	19.454
283.92	17.536
284.29	18.274
284.66	16.283
285.03	14.751
285.40	16.667
285.77	16.913
286.14	16.799
286.51	16.720
286.87	16.532
287.24	14.263
287.61	15.895
287.98	18.310
288.35	17.519
288.72	16.361
289.08	15.409
289.45	16.537
289.82	15.683
290.19	14.545
290.56	17.945
290.93	14.180
291.29	15.887
291.66	14.326
292.03	16.356
292.40	17.698
292.77	13.703
293.13	14.684
293.50	15.565
293.87	14.147
294.24	14.888
294.60	16.393
294.97	12.881
295.34	15.342
295.71	14.286
296.08	15.710
296.44	14.888
296.81	13.066
297.18	15.265
297.55	14.196
297.91	15.228
298.28	13.043
298.65	12.937
299.02	13.810
299.38	13.776
299.75	14.286
300.12	13.070
300.48	13.967
300.85	12.225
301.22	13.942
301.59	12.895
301.95	14.878
302.32	12.880
302.69	12.842
303.05	12.633
303.42	13.889
303.79	12.584
304.15	13.590
304.52	13.073
304.89	11.838
305.25	12.844
305.62	13.636
305.99	12.542
306.35	12.081
306.72	14.706
307.09	11.643
307.45	13.053
307.82	11.846
308.19	13.971
308.55	14.241
308.92	12.818
309.29	13.494
309.65	13.519
310.02	12.474
310.38	13.220
310.75	14.242
311.12	13.327
311.48	14.286
311.85	11.753
312.22	13.223
312.58	12.689
312.95	14.271
313.31	13.766
313.68	12.711
314.05	14.499
314.41	13.556
314.78	13.869
315.14	12.831
315.51	15.591
315.87	13.672
316.24	14.243
316.61	15.049
316.97	14.804
317.34	14.928
317.70	15.500
318.07	15.622
318.43	15.406
318.80	16.758
319.16	15.564
319.53	17.453
319.89	16.761
320.26	17.797
320.62	19.089
320.99	19.082
321.35	19.960
321.72	21.313
322.08	21.386
322.45	21.893
322.81	20.985
323.18	21.956
323.54	22.654
323.91	22.486
324.27	23.819
324.64	23.899
325.00	25.205
325.37	26.709
325.73	26.460
326.10	28.722
326.46	27.924
326.83	29.112
327.19	30.480
327.56	32.007
327.92	32.118
328.29	33.154
328.65	35.876
329.01	34.954
329.38	35.354
329.74	35.190
330.11	35.322
330.47	35.847
330.84	37.406
331.20	39.094
331.56	37.830
331.93	37.694
332.29	39.778
332.66	39.693
333.02	39.554
333.38	40.901
333.75	41.446
334.11	40.597
334.48	41.234
334.84	41.502
335.20	40.018
335.57	42.325
335.93	42.140
336.29	42.687
336.66	43.078
337.02	41.795
337.38	43.962
337.75	43.364
338.11	43.482
338.47	45.032
338.84	44.659
339.20	43.905
339.56	44.828
339.93	44.054
340.29	44.062
340.65	45.205
341.02	44.198
341.38	43.689
341.74	46.085
342.11	44.651
342.47	43.794
342.83	44.926
343.20	45.270
343.56	46.329
343.92	46.107
344.28	45.283
344.65	47.089
345.01	47.474
345.37	45.641
345.73	46.425
346.10	46.672
346.46	46.592
346.82	47.749
347.19	46.510
347.55	48.044
347.91	49.222
348.27	49.031
348.63	48.142
349.00	48.080
349.36	47.815
349.72	48.522
350.08	49.018
350.45	47.762
350.81	48.059
351.17	48.517
351.53	47.907
351.89	50.345
352.26	49.106
352.62	50.450
352.98	48.536
353.34	50.710
353.70	50.700
354.07	50.165
354.43	48.080
354.79	49.426
355.15	49.556
355.51	51.345
355.87	51.374
356.24	51.389
356.60	51.836
356.96	50.790
357.32	51.770
357.68	51.392
358.04	52.836
358.40	51.800
358.77	51.245
359.13	53.092
359.49	51.360
359.85	53.078
360.21	53.053
360.57	53.270
360.93	53.840
361.29	52.648
361.66	53.155
362.02	54.239
362.38	54.312
362.74	53.267
363.10	53.167
363.46	53.800
363.82	54.288
364.18	53.369
364.54	53.893
364.90	54.444
365.26	56.408
365.62	55.110
365.98	55.097
366.35	56.959
366.71	55.041
367.07	57.491
367.43	55.090
367.79	56.032
368.15	55.967
368.51	55.356
368.87	57.122
369.23	56.548
369.59	56.029
369.95	55.514
370.31	58.712
370.67	56.842
371.03	58.746
371.39	57.931
371.75	56.315
372.11	56.889
372.47	56.793
372.83	58.510
373.19	59.488
373.55	57.784
373.91	58.712
374.27	59.971
374.63	57.806
374.99	58.712
375.35	58.781
375.71	59.971
376.07	58.657
376.42	58.368
376.78	61.324
377.14	60.196
377.50	58.003
377.86	60.097
378.22	60.700
378.58	59.474
378.94	59.725
379.30	59.073
379.66	59.475
380.02	60.648
380.38	61.514
380.74	60.348
381.09	60.483
381.45	62.032
381.81	61.480
382.17	61.238
382.53	62.919
382.89	62.348
383.25	60.495
383.61	61.093
383.97	61.923
384.32	61.419
384.68	61.622
385.04	60.662
385.40	60.000
385.76	61.923
386.12	61.584
386.48	62.361
386.83	62.409
387.19	62.580
387.55	62.370
387.91	60.997
388.27	63.212
388.62	63.342
388.98	62.723
389.34	61.939
389.70	62.308
390.06	64.554
390.42	62.813
390.77	63.246
391.13	61.874
391.49	65.229
391.85	63.407
392.20	63.696
392.56	62.475
392.92	63.389
393.28	61.520
393.64	63.521
393.99	64.351
394.35	64.309
394.71	61.788
395.07	63.660
395.42	62.921
395.78	63.978
396.14	63.824
396.50	64.554
396.85	63.516
397.21	62.937
397.57	64.253
397.92	63.804
398.28	64.329
398.64	63.810
399.00	62.855
399.35	63.775
399.71	61.617
400.07	61.828
400.42	63.526
400.78	63.212
401.14	62.879
401.49	62.274
401.85	63.556
402.21	63.008
402.57	61.945
402.92	63.679
403.28	63.849
403.63	62.436
403.99	62.417
404.35	62.102
404.70	62.381
405.06	62.864
405.42	63.240
405.77	60.939
406.13	61.888
406.49	62.650
406.84	63.699
407.20	61.462
407.55	62.792
407.91	64.056
408.27	61.702
408.62	61.865
408.98	63.835
409.34	62.420
409.69	61.405
410.05	62.500
410.40	62.685
410.76	61.395
411.11	60.698
411.47	61.701
411.83	62.331
412.18	61.846
412.54	61.578
412.89	61.464
413.25	62.571
413.60	62.372
413.96	60.971
414.31	60.931
414.67	62.255
415.03	62.102
415.38	63.092
415.74	61.854
416.09	61.613
416.45	61.359
416.80	60.987
417.16	62.341
417.51	61.138
417.87	62.175
418.22	61.832
418.58	62.059
418.93	62.798
419.29	60.787
419.64	63.118
420.00	61.231
420.35	62.649
420.71	63.636
421.06	62.557
421.42	61.418
421.77	61.754
422.12	59.776
422.48	61.907
422.83	61.155
423.19	61.706
423.54	60.660
423.90	62.176
424.25	62.900
424.61	61.484
424.96	61.118
425.31	62.983
425.67	61.030
426.02	63.230
426.38	61.519
426.73	60.872
427.09	61.326
427.44	61.111
427.79	62.562
428.15	62.334
428.50	61.307
428.85	61.257
429.21	62.642
429.56	60.829
429.92	59.762
430.27	61.333
430.62	59.492
430.98	58.624
431.33	61.290
431.68	61.980
432.04	62.198
432.39	60.190
432.74	60.848
433.10	61.795
433.45	62.508
433.80	61.369
434.16	61.680
434.51	60.702
434.86	61.934
435.22	61.467
435.57	63.786
435.92	60.124
436.28	61.644
436.63	60.525
436.98	61.358
437.34	61.740
437.69	60.062
438.04	63.101
438.39	62.924
438.75	60.492
439.10	62.321
439.45	62.837
439.81	62.794
440.16	61.657
440.51	61.338
440.86	61.237
441.22	60.750
441.57	60.969
441.92	62.065
442.27	61.314
442.63	61.738
442.98	63.142
443.33	61.105
443.68	61.176
444.03	60.155
444.39	60.125
444.74	60.790
445.09	61.924
445.44	60.583
445.79	61.057
446.15	62.449
446.50	60.035
446.85	61.936
447.20	60.394
447.55	60.617
447.91	61.199
448.26	60.890
448.61	60.725
448.96	61.679
449.31	61.784
449.66	60.956
450.02	60.178
450.37	61.604
450.72	60.682
451.07	62.690
451.42	61.924
451.77	61.160
452.12	60.840
452.47	61.314
452.83	62.640
453.18	61.580
453.53	61.594
453.88	62.285
454.23	61.086
454.58	61.554
454.93	60.218
455.28	61.236
455.63	61.274
455.98	61.739
456.34	61.018
456.69	61.341
457.04	60.039
457.39	61.486
457.74	61.568
458.09	60.797
458.44	59.841
458.79	60.542
459.14	61.002
459.49	59.490
459.84	60.583
460.19	58.662
460.54	59.091
460.89	60.235
461.24	60.584
461.59	60.883
461.94	59.369
462.29	59.962
462.64	61.421
462.99	62.509
463.34	59.048
463.69	60.082
464.04	61.001
464.39	60.064
464.74	59.117
465.09	60.322
465.44	58.188
465.79	58.183
466.14	58.771
466.49	59.488
466.84	59.091
467.19	58.155
467.54	58.223
467.89	59.765
468.24	58.902
468.59	59.620
468.94	59.650
469.29	59.516
469.64	61.269
469.99	59.553
470.34	59.264
470.68	60.154
471.03	58.905
471.38	59.611
471.73	60.320
472.08	60.427
472.43	60.858
472.78	59.246
473.13	57.895
473.48	58.990
473.83	59.379
474.17	59.173
474.52	60.080
474.87	59.659
475.22	59.149
475.57	58.578
475.92	57.305
476.27	57.746
476.61	58.629
476.96	59.218
477.31	58.619
477.66	57.408
478.01	57.387
478.36	58.625
478.70	59.324
479.05	57.806
479.40	57.877
479.75	59.675
480.10	58.820
480.45	58.901
480.79	58.692
481.14	58.250
481.49	57.995
481.84	56.616
482.19	56.732
482.53	56.961
482.88	56.990
483.23	58.492
483.58	57.574
483.92	57.286
484.27	57.502
484.62	57.001
484.97	55.975
485.31	55.298
485.66	54.290
486.01	52.347
486.36	52.515
486.70	52.906
487.05	53.792
487.40	53.895
487.75	53.593
488.09	52.851
488.44	54.173
488.79	55.008
489.13	55.819
489.48	56.405
489.83	56.542
490.17	55.884
490.52	55.354
490.87	57.319
491.22	56.509
491.56	55.830
491.91	56.124
492.26	57.114
492.60	57.602
492.95	56.520
493.30	56.665
493.64	56.846
493.99	57.084
494.34	57.273
494.68	56.046
495.03	55.730
495.37	56.766
495.72	56.171
496.07	55.933
496.41	55.435
496.76	55.635
497.11	56.475
497.45	56.655
497.80	56.750
498.14	56.072
498.49	57.715
498.84	55.346
499.18	55.423
499.53	55.556
499.87	54.941
500.22	56.104
500.56	56.672
500.91	56.057
501.26	55.381
501.60	54.944
501.95	56.192
502.29	55.464
502.64	54.156
502.98	54.871
503.33	54.269
503.67	54.109
504.02	54.699
504.36	53.929
504.71	55.160
505.06	55.115
505.40	54.584
505.75	54.608
506.09	55.796
506.44	56.438
506.78	54.550
507.13	54.723
507.47	56.842
507.82	55.692
508.16	54.621
508.51	54.978
508.85	55.110
509.19	54.032
509.54	55.014
509.88	55.811
510.23	55.899
510.57	55.423
510.92	55.556
511.26	55.715
511.61	55.137
511.95	56.564
512.30	54.609
512.64	55.484
512.98	56.054
513.33	54.455
513.67	54.311
514.02	55.469
514.36	54.982
514.70	55.556
515.05	54.451
515.39	56.148
515.74	56.203
516.08	55.807
516.42	56.868
516.77	55.714
517.11	54.128
517.46	55.528
517.80	56.350
518.14	56.546
518.49	56.856
518.83	57.263
519.17	55.463
519.52	54.341
519.86	55.478
520.20	55.732
520.55	55.614
520.89	57.085
521.23	56.313
521.58	55.754
521.92	55.140
522.26	56.838
522.61	55.563
522.95	55.342
523.29	55.533
523.64	55.224
523.98	56.586
524.32	56.498
524.66	55.948
525.01	56.564
525.35	55.335
525.69	54.370
526.04	56.448
526.38	56.203
526.72	55.278
527.06	56.681
527.41	55.563
527.75	56.569
528.09	55.516
528.43	55.067
528.78	55.206
529.12	54.863
529.46	53.488
529.80	54.459
530.15	55.733
530.49	54.672
530.83	55.387
531.17	54.590
531.51	55.460
531.86	54.552
532.20	53.535
532.54	54.892
532.88	54.182
533.22	54.239
533.57	52.690
533.91	54.714
534.25	54.379
534.59	54.264
534.93	53.392
535.27	53.131
535.62	52.735
535.96	52.826
536.30	52.401
536.64	54.006
536.98	52.507
537.32	54.315
537.66	51.979
538.01	54.492
538.35	53.673
538.69	51.592
539.03	51.983
539.37	51.256
539.71	53.188
540.05	51.954
540.39	51.852
540.73	52.381
541.07	53.529
541.42	51.746
541.76	51.655
542.10	51.148
542.44	53.396
542.78	50.660
543.12	51.625
543.46	52.086
543.80	51.036
544.14	50.753
544.48	50.175
544.82	49.965
545.16	51.159
545.50	52.402
545.84	51.792
546.18	51.161
546.52	51.191
546.86	51.415
547.20	50.758
547.54	49.128
547.88	50.000
548.22	48.945
548.56	50.599
548.90	49.965
549.24	51.096
549.58	49.553
549.92	49.624
550.26	49.653
550.60	50.595
550.94	52.778
551.28	50.488
551.62	51.679
551.96	52.157
552.30	50.233
552.64	50.413
552.98	50.000
553.32	48.561
553.66	50.455
554.00	49.730
554.34	49.844
554.68	50.877
555.02	49.921
555.36	49.881
555.69	50.576
556.03	49.446
556.37	49.587
556.71	49.095
557.05	49.922
557.39	50.843
557.73	50.157
558.07	49.218
558.41	49.641
558.75	50.622
559.08	51.319
559.42	51.756
559.76	50.632
560.10	51.100
560.44	50.277
560.78	48.610
561.12	48.310
561.45	48.512
561.79	47.283
562.13	47.517
562.47	48.700
562.81	47.991
563.15	47.985
563.48	45.993
563.82	46.652
564.16	46.734
564.50	47.708
564.84	48.264
565.17	49.070
565.51	47.361
565.85	46.620
566.19	46.068
566.52	47.240
566.86	46.721
567.20	46.440
567.54	46.075
567.88	44.964
568.21	45.018
568.55	44.482
568.89	44.451
569.23	43.022
569.56	43.632
569.90	42.184
570.24	41.095
570.57	41.008
570.91	41.557
571.25	40.909
571.59	39.607
571.92	39.194
572.26	39.833
572.60	39.320
572.93	39.849
573.27	38.774
573.61	39.121
573.95	38.218
574.28	37.462
574.62	37.820
574.96	37.705
575.29	37.610
575.63	37.203
575.97	37.054
576.30	37.941
576.64	37.293
576.98	38.170
577.31	37.287
577.65	37.479
577.98	36.614
578.32	35.979
578.66	36.318
578.99	37.764
579.33	36.743
579.67	37.272
580.00	36.630
580.34	37.316
580.67	36.139
581.01	36.214
581.35	35.862
581.68	35.967
582.02	35.928
582.35	36.300
582.69	36.107
583.02	35.973
583.36	36.216
583.70	36.637
584.03	36.589
584.37	36.626
584.70	36.738
585.04	35.989
585.37	35.650
585.71	36.229
586.04	37.416
586.38	36.393
586.72	36.297
587.05	36.616
587.39	36.807
587.72	36.177
588.06	36.866
588.39	36.226
588.73	36.727
589.06	36.804
589.40	37.592
589.73	37.285
590.07	37.708
590.40	38.316
590.73	37.901
591.07	37.619
591.40	38.054
591.74	38.013
592.07	37.536
592.41	38.660
592.74	37.452
593.08	36.364
593.41	36.442
593.75	36.603
594.08	37.183
594.41	37.114
594.75	36.962
595.08	37.359
595.42	36.350
595.75	36.856
596.09	36.910
596.42	37.294
596.75	37.500
597.09	37.034
597.42	37.494
597.75	38.086
598.09	37.125
598.42	37.388
598.76	37.705
599.09	37.101
599.42	35.445
599.76	36.367
600.09	36.180
600.42	35.234
600.76	35.373
601.09	36.431
601.42	35.588
601.76	36.972
602.09	36.489
602.42	36.995
602.76	37.086
603.09	36.684
603.42	36.542
603.76	36.131
604.09	36.466
604.42	35.294
604.76	37.243
605.09	36.986
605.42	36.635
605.75	36.318
606.09	36.933
606.42	36.395
606.75	36.190
607.09	37.360
607.42	36.898
607.75	35.583
608.08	35.968
608.42	36.615
608.75	36.668
609.08	36.194
609.41	37.325
609.75	38.020
610.08	35.969
610.41	36.438
610.74	35.844
611.07	37.546
611.41	36.884
611.74	36.779
612.07	37.221
612.40	37.660
612.73	37.153
613.07	36.465
613.40	37.665
613.73	37.171
614.06	36.417
614.39	37.141
614.72	37.249
615.06	37.256
615.39	35.739
615.72	36.170
616.05	37.101
616.38	36.773
616.71	36.381
617.05	37.374
617.38	37.613
617.71	37.296
618.04	38.502
618.37	37.279
618.70	37.500
619.03	38.724
619.36	39.028
619.69	37.869
620.03	39.817
620.36	38.776
620.69	38.359
621.02	38.797
621.35	39.745
621.68	41.494
622.01	39.305
622.34	39.531
622.67	39.798
623.00	38.165
623.33	40.079
623.66	38.645
623.99	38.915
624.32	39.793
624.65	38.672
624.99	37.578
625.32	37.836
625.65	38.351
625.98	40.250
626.31	38.615
626.64	38.288
626.97	39.706
627.30	39.259
627.63	40.465
627.96	39.758
628.29	41.109
628.62	41.031
628.95	42.239
629.28	41.632
629.61	41.693
629.94	42.116
630.26	42.155
630.59	41.675
630.92	40.991
631.25	43.352
631.58	42.791
631.91	41.344
632.24	42.959
632.57	43.282
632.90	44.895
633.23	46.194
633.56	43.648
633.89	43.272
634.22	44.744
634.55	43.233
634.88	44.043
635.20	44.658
635.53	44.134
635.86	43.342
636.19	43.929
636.52	45.148
636.85	41.591
637.18	43.005
637.51	42.683
637.83	42.318
638.16	44.523
638.49	43.948
638.82	41.350
639.15	43.857
639.48	42.213
639.81	43.368
640.13	43.338
640.46	44.724
640.79	46.357
641.12	45.116
641.45	44.479
641.77	43.631
642.10	45.440
642.43	44.949
642.76	46.595
643.09	44.291
643.41	45.161
643.74	44.444
644.07	44.797
644.40	46.390
644.73	43.278
645.05	45.802
645.38	48.269
645.71	46.183
646.04	46.097
646.36	43.750
646.69	49.710
647.02	49.219
647.35	50.400
647.67	47.495
648.00	46.408
648.33	48.940
648.66	47.124
648.98	43.559
649.31	46.472
649.64	44.923
649.96	40.709
650.29	45.133
650.62	46.011
650.94	43.623
651.27	46.821
651.60	46.845
651.92	42.748
652.25	42.447
652.58	41.652
652.90	40.925
653.23	44.241
653.56	42.361
653.88	43.613
654.21	43.100
654.54	45.028
654.86	46.043
655.19	37.903
655.52	37.639
655.84	29.065
656.17	27.213
656.49	36.425
656.82	42.780
657.15	34.960
657.47	26.418
657.80	19.136
658.13	16.208
658.45	27.395
658.78	26.940
659.10	26.215
659.43	27.548
659.75	28.565
660.08	30.144
660.41	33.268
660.73	36.704
661.06	39.818
661.38	43.548
661.71	45.952
662.03	47.454
662.36	46.062
662.68	45.084
663.01	50.000
663.33	43.632
663.66	46.651
663.98	46.699
664.31	48.049
664.63	43.578
664.96	47.743
665.28	43.262
665.61	42.290
665.93	42.396
666.26	42.384
666.58	42.431
666.91	42.623
667.23	43.350
667.56	47.160
667.88	46.366
668.21	48.477
668.53	47.970
668.86	44.898
669.18	47.970
669.50	46.015
669.83	40.250
670.15	41.500
670.48	44.862
670.80	47.716
671.13	43.614
671.45	40.306
671.77	42.995
672.10	39.341
672.42	39.442
672.75	38.641
673.07	39.813
673.39	38.132
673.72	40.909
674.04	41.489
674.37	46.189
674.69	42.523
675.01	43.488
675.34	40.931
675.66	37.857
675.98	39.394
676.31	44.081
676.63	40.722
676.95	42.686
677.28	41.089
677.60	43.609
677.92	44.612
678.25	39.211
678.57	40.603
678.89	40.367
679.22	40.596
679.54	39.644
679.86	40.043
680.18	38.075
680.51	38.809
680.83	38.958
681.15	41.612
681.48	39.362
681.80	37.826
682.12	42.398
682.44	37.500
682.77	39.318
683.09	37.255
683.41	43.358
683.73	41.960
684.06	41.878
684.38	36.930
684.70	41.801
685.02	38.745
685.34	35.356
685.67	36.561
685.99	36.327
686.31	38.060
686.63	38.447
686.96	35.772
687.28	39.014
687.60	38.809
687.92	35.232
688.24	37.053
688.56	35.604
688.89	39.726
689.21	37.209
689.53	38.363
689.85	39.494
690.17	38.235
690.49	34.118
690.82	35.381
691.14	37.598
691.46	38.000
691.78	36.842
692.10	39.220
692.42	35.550
692.74	39.100
693.06	39.759
693.39	35.961
693.71	34.884
694.03	37.440
694.35	38.366
694.67	39.440
694.99	39.353
695.31	40.227
695.63	39.189
695.95	39.888
696.27	42.493
696.59	38.872
696.91	37.892
697.23	40.401
697.56	38.601
697.88	34.660
698.20	36.562
698.52	37.019
698.84	37.343
699.16	37.203
699.48	36.649
699.80	34.615
700.12	37.741
700.44	34.808
700.76	37.539
701.08	36.190
701.40	41.118
701.72	44.000
702.04	38.776
702.36	41.639
702.68	37.248
703.00	36.278
703.32	35.928
703.64	39.748
703.96	38.608
704.28	39.437
704.60	42.808
704.91	35.197
705.23	40.000
705.55	36.431
705.87	40.288
706.19	39.841
706.51	37.891
706.83	35.531
707.15	35.932
707.47	35.629
707.79	35.244
708.11	34.921
708.43	36.533
708.74	33.607
709.06	31.902
709.38	37.685
709.70	32.468
710.02	39.510
710.34	35.106
710.66	40.449
710.98	41.608
711.29	37.113
711.61	35.461
711.93	41.573
712.25	34.717
712.57	40.234
712.89	42.449
713.20	35.484
713.52	36.585
713.84	35.036
714.16	40.541
714.48	42.662
714.80	40.741
715.11	34.708
715.43	31.741
715.75	36.842
716.07	38.545
716.39	39.932
716.70	37.200
717.02	37.500
717.34	43.290
717.66	40.000
717.97	35.185
718.29	34.222
718.61	36.486
718.93	34.874
719.24	36.820
719.56	39.286
719.88	36.471
720.20	29.487
720.51	38.158
720.83	42.259
721.15	35.510
721.46	33.755
721.78	37.662
722.10	32.171
722.42	38.696
722.73	34.842
723.05	33.641
723.37	34.842
723.68	36.493
724.00	37.963
724.32	37.850
724.63	37.557
724.95	31.963
725.27	39.906
725.58	34.703
725.90	31.081
726.22	34.498
726.53	34.426
726.85	30.000
727.16	35.628
727.48	35.887
727.80	33.333
728.11	35.111
728.43	36.626
728.74	35.965
729.06	36.681
729.38	36.822
729.69	31.200
730.01	35.565
730.32	31.873
730.64	37.308
730.96	28.571
731.27	30.116
731.59	27.273
731.90	30.921
732.22	34.219
732.53	27.018
732.85	26.761
733.16	32.601
733.48	26.493
733.80	34.545
734.11	29.078
734.43	32.130
734.74	23.676
735.06	28.296
735.37	29.712
735.69	27.465
736.00	31.481
736.32	28.671
736.63	32.593
736.95	24.903
737.26	29.348
737.58	29.562
737.89	29.434
738.21	32.061
738.52	36.475
738.83	29.060
739.15	33.182
739.46	28.829
739.78	28.571
740.09	28.175
740.41	35.606
740.72	25.498
741.04	32.806
741.35	36.323
741.66	42.473
741.98	29.592
742.29	34.715
742.61	31.214
742.92	33.333
743.23	39.303
743.55	31.606
743.86	35.266
744.18	32.000
744.49	39.444
744.80	39.785
745.12	32.308
745.43	30.481
745.74	35.829
746.06	43.678
746.37	31.111
746.68	37.838
747.00	30.387
747.31	35.602
747.62	34.211
747.94	35.849
748.25	38.424
748.56	33.333
748.88	32.240
749.19	37.306
749.50	38.235
749.82	37.000
750.13	32.524
750.44	30.901
750.75	28.000
751.07	30.544
751.38	25.781
751.69	30.952
752.01	32.353
752.32	36.777
752.63	31.441
752.94	28.400
753.26	29.680
753.57	26.066
753.88	26.977
754.19	36.564
754.51	27.197
754.82	32.917
755.13	23.894
755.44	31.602
755.75	31.325
756.07	32.189
756.38	29.289
756.69	32.453
757.00	29.433
757.31	29.758
757.63	29.085
757.94	21.212
758.25	25.000
758.56	23.243
758.87	25.595
759.18	35.514
759.50	27.402
759.81	28.571
760.12	28.470
760.43	31.229
760.74	29.641
761.05	27.564
761.36	27.300
761.67	24.620
761.99	28.094
762.30	29.455
762.61	27.642
762.92	32.000
763.23	31.628
763.54	35.025
763.85	30.769
764.16	27.391
764.47	26.957
764.78	27.016
765.10	24.803
765.41	30.100
765.72	26.087
766.03	25.418
766.34	31.818
766.65	30.078
766.96	26.222
767.27	29.609
767.58	37.107
767.89	31.818
768.20	29.054
768.51	29.885
768.82	30.000
769.13	33.796
769.44	26.415
769.75	23.529
770.06	19.417
770.37	27.128
770.68	24.103
770.99	26.396
771.30	30.928
771.61	24.215
771.92	28.774
772.23	25.000
772.54	31.765
772.85	28.082
773.16	28.387
773.47	28.025
773.78	34.731
774.09	38.158
774.39	25.735
774.70	27.068
775.01	26.154
775.32	19.841
775.63	37.008
775.94	25.472
776.25	22.963
776.56	27.273
776.87	29.915
777.18	32.000
777.48	27.885
777.79	21.296
778.10	33.962
778.41	33.333
778.72	26.415
779.03	35.965
779.34	28.571
779.65	33.099
779.95	28.777
780.26	21.774
780.57	29.710
780.88	34.862
781.19	22.222
781.50	15.574
781.80	32.117
782.11	23.718
782.42	23.448
782.73	31.469
783.04	31.200
783.34	23.200
783.65	23.577
783.96	21.311
784.27	23.529
784.57	20.561
784.88	24.107
785.19	37.113
785.50	41.053
785.81	24.000
786.11	18.812
786.42	11.765
786.73	30.208
787.04	23.469
787.34	31.481
787.65	33.962
787.96	14.433
788.26	31.683
788.57	19.130
788.88	11.927
789.19	28.926
789.49	34.783
789.80	26.724
790.11	13.415
790.41	37.079
790.72	19.767
791.03	40.698
791.33	15.584
791.64	34.146
791.95	28.049
792.25	6.024
792.56	18.519
792.87	23.944
793.17	19.277
793.48	21.176
793.79	28.750
794.09	26.667
794.40	27.174
794.70	24.348
795.01	32.110
795.32	22.047
795.62	27.451
795.93	16.667
796.23	43.434
796.54	26.744
796.85	30.435
797.15	28.125
797.46	27.119
797.76	34.426
798.07	30.263
798.37	12.903
798.68	14.062
798.99	27.692
799.29	27.273
799.60	10.145
799.90	30.000
800.21	0.000
800.51	31.034
800.82	9.434
801.12	21.569
801.43	32.258
801.73	24.194
802.04	28.000
802.34	22.642
802.65	36.842
802.95	23.636
803.26	37.736
803.56	13.115
803.87	22.000
804.17	0.000
804.48	50.000
804.78	10.204
805.09	38.298
805.39	25.424
805.70	-2.083
806.00	17.857
806.30	8.475
806.61	29.231
806.91	23.077
807.22	6.579
807.52	27.143
807.83	20.690
808.13	30.380
808.43	16.393
808.74	22.951
809.04	35.135
809.35	37.037
809.65	30.357
809.95	37.288
810.26	12.245
810.56	35.849
810.86	25.490
811.17	21.622
811.47	-18.519
811.77	15.686
812.08	6.818
812.38	29.167
812.69	2.564
812.99	35.714
813.29	32.609
813.59	20.000
813.90	16.667
814.20	16.364
814.50	28.571
814.81	21.569
815.11	16.667
815.41	-12.195
815.72	23.077
816.02	23.404
816.32	40.625
816.62	27.273
816.93	3.030
817.23	8.108
817.53	41.176
817.84	50.000
818.14	0.000
818.44	37.500
818.74	-66.667
819.04	20.000
819.35	-11.429
819.65	43.182
819.95	30.769
820.25	27.778
820.56	6.897
820.86	35.714
821.16	-26.087
821.46	14.286
821.76	9.259
822.07	47.826
822.37	10.204
822.67	20.930
822.97	-21.739
823.27	-34.615
823.57	22.222
823.88	35.714
824.18	2.564
824.48	39.286
824.78	24.242
825.08	-53.333
825.38	10.000
825.69	-50.000
825.99	14.815
826.29	26.667
826.59	-14.815
826.89	0.000
827.19	57.143
827.49	36.364
827.79	-50.000
828.09	50.000
828.39	-43.478
828.70	-3.704
829.00	21.429
829.30	21.429
829.60	-16.129
829.90	-7.692
830.20	5.128
830.50	-13.636
830.80	0.000
831.10	0.000
831.40	-50.000
831.70	-7.407
832.00	35.294
832.30	52.174
832.60	37.500
832.90	-18.182
833.20	-16.667
833.50	25.000
833.80	-3.846
834.10	24.000
834.40	4.167
834.70	22.727
835.00	-3.846
835.30	-10.000
835.60	-120.000
835.90	15.000
836.20	-64.286
836.50	21.739
836.80	-16.667
837.10	93.333
837.40	-40.000
837.70	8.696
838.00	-50.000
838.30	-200.000
838.60	36.000
838.90	40.000
839.19	0.000
839.49	-200.000
839.79	17.647
840.09	-22.222
840.39	32.143
840.69	-55.556
840.99	-25.000
841.29	-17.241
841.59	-40.000
841.88	-54.545
842.18	-166.667
842.48	62.500
842.78	19.231
843.08	-23.529
843.38	20.000
843.68	7.692
843.97	-17.647
844.27	-20.000
844.57	29.167
844.87	-18.182
845.17	0.000
845.47	-33.333
845.76	19.444
846.06	-9.524
846.36	-14.286
846.66	-77.778
846.96	-25.000
847.25	0.000
847.55	-125.000
847.85	0.000
848.15	-50.000
848.44	57.895
848.74	53.333
849.04	21.053
849.34	-100.000
849.63	-50.000
849.93	35.294
850.23	-81.818
850.53	-200.000
850.82	-20.000
851.12	-100.000
851.42	-28.571
851.71	140.000
852.01	7.143
852.31	-66.667
852.61	53.846
852.90	-100.000
853.20	-144.444
853.50	-122.222
853.79	0.000
854.09	0.000
854.39	-10.526
854.68	-50.000
854.98	-25.000
855.28	-11.111
855.57	-21.429
855.87	-15.789
856.17	-25.000
856.46	15.385
856.76	-40.000
857.05	-25.000
857.35	20.833
857.65	5.556
857.94	100.000
858.24	13.043
858.53	-90.000
858.83	-66.667
859.13	-81.818
859.42	-70.000
859.72	16.667
860.01	69.231
860.31	-70.000
860.60	-50.000
860.90	-100.000
861.20	-100.000
861.49	-375.000
861.79	450.000
862.08	6.452
862.38	5.263
862.67	38.462
862.97	-10.000
863.26	16.667
863.56	30.435
863.85	-150.000
864.15	-57.143
864.44	37.500
864.74	-91.667
865.03	-88.889
865.33	33.333
865.62	-800.000
865.92	-400.000
866.21	-200.000
866.51	-27.273
866.80	-300.000
867.10	-28.571
867.39	77.778
867.69	0.000
867.98	160.000
868.27	-250.000
868.57	500.000
868.86	0.000
869.16	53.846
869.45	750.000
869.75	-200.000
870.04	-108.333
870.33	70.588
870.63	-142.857
870.92	69.565
871.22	-137.500
871.51	400.000
871.80	-37.500
872.10	-133.333
>>>>>End Processed Spectral Data<<<<<
