SpectraSuite Data File
++++++++++++++++++++++++++++++++++++
Date: Wed May 13 19:41:40 PDT 2015
User: schluterlab
Dark Spectrum Present: Yes
Reference Spectrum Present: Yes
Number of Sampled Component Spectra: 1
Spectrometers: USB2E3373
Integration Time (usec): 3000 (USB2E3373)
Spectra Averaged: 3 (USB2E3373)
Boxcar Smoothing: 0 (USB2E3373)
Correct for Electrical Dark: No (USB2E3373)
Strobe/Lamp Enabled: No (USB2E3373)
Correct for Detector Non-linearity: No (USB2E3373)
Correct for Stray Light: No (USB2E3373)
Number of Pixels in Processed Spectrum: 2048
>>>>>Begin Processed Spectral Data<<<<<
178.53	0.000
178.91	-1250.000
179.29	-1300.000
179.67	-250.000
180.04	-1400.000
180.42	2300.000
180.80	1260.000
181.18	-925.000
181.56	657.143
181.94	0.000
182.31	-600.000
182.69	2166.667
183.07	-537.500
183.45	-522.222
183.83	609.091
184.20	-370.000
184.58	2300.000
184.96	5300.000
185.34	-760.000
185.72	-650.000
186.09	-2200.000
186.47	3300.000
186.85	2250.000
187.23	4800.000
187.61	-2133.333
187.98	1325.000
188.36	554.545
188.74	509.091
189.12	-1000.000
189.49	580.000
189.87	-5900.000
190.25	-1225.000
190.63	428.571
191.00	492.308
191.38	900.000
191.76	-1225.000
192.14	1450.000
192.51	737.500
192.89	1000.000
193.27	687.500
193.65	-1225.000
194.02	600.000
194.40	1200.000
194.78	620.000
195.15	508.333
195.53	640.000
195.91	-2300.000
196.29	356.250
196.66	352.632
197.04	-330.000
197.42	0.000
197.79	640.000
198.17	-4100.000
198.55	742.857
198.92	750.000
199.30	1200.000
199.68	0.000
200.05	372.222
200.43	814.286
200.81	4800.000
201.18	1900.000
201.56	-1633.333
201.94	633.333
202.31	677.778
202.69	516.667
203.07	580.000
203.44	0.000
203.82	1625.000
204.19	828.571
204.57	485.714
204.95	725.000
205.32	1466.667
205.70	527.273
206.08	471.429
206.45	2850.000
206.83	343.750
207.20	1050.000
207.58	840.000
207.96	366.667
208.33	750.000
208.71	-883.333
209.08	771.429
209.46	655.556
209.84	554.545
210.21	-1800.000
210.59	1450.000
210.96	-600.000
211.34	2850.000
211.71	630.000
212.09	766.667
212.46	0.000
212.84	1766.667
213.22	1475.000
213.59	-4900.000
213.97	750.000
214.34	914.286
214.72	645.455
215.09	1080.000
215.47	-2350.000
215.84	-2450.000
216.22	1600.000
216.59	442.857
216.97	1200.000
217.34	463.636
217.72	-800.000
218.09	0.000
218.47	-6200.000
218.84	700.000
219.22	828.571
219.59	2100.000
219.97	-671.429
220.34	1160.000
220.72	-2166.667
221.09	450.000
221.47	1325.000
221.84	-833.333
222.22	0.000
222.59	1600.000
222.97	-2850.000
223.34	1240.000
223.72	476.923
224.09	1160.000
224.46	2000.000
224.84	-5000.000
225.21	-1240.000
225.59	-5900.000
225.96	630.000
226.34	335.000
226.71	2900.000
227.08	787.500
227.46	530.000
227.83	-1400.000
228.21	-2750.000
228.58	633.333
228.95	-2750.000
229.33	-2500.000
229.70	1700.000
230.08	685.714
230.45	-960.000
230.82	450.000
231.20	1050.000
231.57	785.714
231.95	466.667
232.32	300.000
232.69	381.818
233.07	885.714
233.44	430.769
233.81	-2166.667
234.19	310.526
234.56	550.000
234.93	441.667
235.31	554.545
235.68	376.923
236.05	442.857
236.43	184.848
236.80	278.947
237.17	4400.000
237.55	280.952
237.92	221.429
238.29	347.619
238.67	177.419
239.04	255.172
239.41	172.222
239.79	141.304
240.16	176.190
240.53	150.000
240.91	117.647
241.28	146.000
241.65	118.000
242.02	111.594
242.40	112.903
242.77	126.667
243.14	86.022
243.51	100.000
243.89	88.235
244.26	88.889
244.63	78.495
245.00	75.532
245.38	91.089
245.75	73.832
246.12	77.064
246.49	74.453
246.87	73.600
247.24	70.000
247.61	65.000
247.98	63.399
248.36	62.162
248.73	68.153
249.10	71.338
249.47	61.582
249.84	67.914
250.22	51.337
250.59	63.314
250.96	57.071
251.33	55.450
251.70	56.931
252.08	54.762
252.45	45.740
252.82	51.739
253.19	54.894
253.56	54.118
253.94	51.867
254.31	51.562
254.68	55.000
255.05	52.768
255.42	50.813
255.79	50.735
256.16	51.986
256.54	48.057
256.91	51.601
257.28	45.683
257.65	48.185
258.02	47.205
258.39	44.795
258.76	48.161
259.14	47.024
259.51	46.809
259.88	48.137
260.25	43.505
260.62	41.618
260.99	47.205
261.36	48.048
261.73	46.991
262.10	43.605
262.47	42.817
262.85	45.961
263.22	41.880
263.59	45.869
263.96	41.484
264.33	43.342
264.70	43.947
265.07	42.199
265.44	42.172
265.81	36.496
266.18	41.457
266.55	42.195
266.92	43.980
267.29	38.426
267.66	39.450
268.03	39.773
268.40	41.589
268.77	41.527
269.14	39.640
269.51	40.181
269.88	39.860
270.25	39.729
270.62	39.101
270.99	39.140
271.36	38.197
271.73	41.589
272.10	41.739
272.47	40.645
272.84	38.745
273.21	41.509
273.58	37.118
273.95	38.365
274.32	36.570
274.69	39.829
275.06	38.780
275.43	37.234
275.80	38.878
276.17	36.864
276.54	37.630
276.91	37.352
277.28	37.695
277.65	38.491
278.02	37.474
278.39	37.500
278.76	36.000
279.13	39.057
279.50	37.989
279.87	36.454
280.23	37.725
280.60	36.364
280.97	33.457
281.34	34.867
281.71	37.636
282.08	38.580
282.45	35.818
282.82	36.234
283.19	33.155
283.56	34.737
283.92	36.548
284.29	36.332
284.66	35.390
285.03	32.911
285.40	35.563
285.77	34.343
286.14	35.924
286.51	35.167
286.87	35.385
287.24	37.296
287.61	34.992
287.98	33.117
288.35	34.548
288.72	33.333
289.08	30.986
289.45	33.937
289.82	32.358
290.19	32.810
290.56	31.700
290.93	30.060
291.29	30.982
291.66	29.646
292.03	32.994
292.40	29.809
292.77	30.917
293.13	30.746
293.50	30.904
293.87	31.556
294.24	30.074
294.60	30.713
294.97	29.070
295.34	28.491
295.71	30.682
296.08	29.060
296.44	29.023
296.81	28.137
297.18	29.404
297.55	25.726
297.91	28.364
298.28	29.183
298.65	28.590
299.02	26.614
299.38	25.764
299.75	25.876
300.12	26.948
300.48	25.625
300.85	27.127
301.22	26.242
301.59	25.631
301.95	26.952
302.32	26.829
302.69	27.001
303.05	27.030
303.42	26.049
303.79	26.387
304.15	24.592
304.52	24.681
304.89	24.855
305.25	25.290
305.62	26.161
305.99	26.328
306.35	26.174
306.72	26.009
307.09	25.416
307.45	26.014
307.82	25.446
308.19	26.600
308.55	24.488
308.92	25.994
309.29	24.604
309.65	25.451
310.02	25.687
310.38	25.269
310.75	25.554
311.12	26.612
311.48	25.810
311.85	27.044
312.22	25.702
312.58	25.364
312.95	26.294
313.31	25.049
313.68	27.131
314.05	27.613
314.41	26.734
314.78	27.090
315.14	26.614
315.51	27.188
315.87	28.317
316.24	26.812
316.61	28.168
316.97	28.474
317.34	27.691
317.70	28.872
318.07	29.066
318.43	30.039
318.80	29.428
319.16	30.508
319.53	28.049
319.89	31.714
320.26	31.500
320.62	31.548
320.99	31.717
321.35	32.121
321.72	33.470
322.08	33.564
322.45	35.323
322.81	34.109
323.18	34.104
323.54	34.508
323.91	35.283
324.27	36.807
324.64	36.719
325.00	36.700
325.37	39.399
325.73	40.305
326.10	38.747
326.46	38.978
326.83	41.415
327.19	40.137
327.56	42.944
327.92	41.645
328.29	42.502
328.65	43.646
329.01	41.697
329.38	42.183
329.74	43.398
330.11	42.884
330.47	44.353
330.84	45.221
331.20	43.989
331.56	45.046
331.93	46.389
332.29	44.188
332.66	45.310
333.02	44.516
333.38	45.348
333.75	46.257
334.11	47.509
334.48	45.430
334.84	47.151
335.20	47.545
335.57	45.784
335.93	46.161
336.29	45.696
336.66	45.717
337.02	45.339
337.38	46.574
337.75	45.544
338.11	46.285
338.47	46.961
338.84	48.121
339.20	46.330
339.56	46.533
339.93	47.091
340.29	47.736
340.65	46.435
341.02	47.818
341.38	48.754
341.74	46.491
342.11	48.035
342.47	47.048
342.83	45.548
343.20	48.745
343.56	47.599
343.92	47.895
344.28	47.109
344.65	47.120
345.01	46.128
345.37	46.141
345.73	47.631
346.10	48.338
346.46	46.356
346.82	46.540
347.19	47.536
347.55	45.977
347.91	48.220
348.27	47.905
348.63	47.659
349.00	45.307
349.36	47.455
349.72	46.993
350.08	47.407
350.45	46.867
350.81	47.522
351.17	47.407
351.53	47.338
351.89	46.865
352.26	47.514
352.62	47.795
352.98	47.731
353.34	48.726
353.70	47.791
354.07	47.742
354.43	46.825
354.79	48.351
355.15	47.326
355.51	48.521
355.87	50.122
356.24	48.697
356.60	49.158
356.96	48.029
357.32	48.896
357.68	48.740
358.04	47.348
358.40	49.802
358.77	46.792
359.13	47.514
359.49	48.157
359.85	48.016
360.21	49.362
360.57	48.482
360.93	48.692
361.29	49.584
361.66	48.529
362.02	49.776
362.38	49.810
362.74	51.265
363.10	49.001
363.46	50.037
363.82	49.962
364.18	49.413
364.54	50.371
364.90	50.637
365.26	51.765
365.62	51.059
365.98	51.059
366.35	49.642
366.71	50.832
367.07	51.202
367.43	52.032
367.79	50.678
368.15	52.514
368.51	51.163
368.87	51.535
369.23	51.500
369.59	53.584
369.95	52.426
370.31	52.849
370.67	51.957
371.03	54.532
371.39	53.207
371.75	53.603
372.11	53.058
372.47	54.765
372.83	55.115
373.19	52.673
373.55	55.432
373.91	55.891
374.27	52.852
374.63	55.418
374.99	54.944
375.35	54.780
375.71	55.243
376.07	55.487
376.42	56.190
376.78	55.931
377.14	56.174
377.50	58.278
377.86	56.516
378.22	56.890
378.58	55.576
378.94	57.071
379.30	57.952
379.66	59.327
380.02	58.231
380.38	57.741
380.74	57.803
381.09	58.435
381.45	59.496
381.81	59.705
382.17	59.873
382.53	60.440
382.89	60.000
383.25	62.539
383.61	62.206
383.97	60.663
384.32	60.200
384.68	61.896
385.04	62.508
385.40	61.796
385.76	62.039
386.12	63.666
386.48	64.128
386.83	64.593
387.19	64.750
387.55	63.946
387.91	63.785
388.27	64.929
388.62	65.765
388.98	64.926
389.34	65.832
389.70	66.401
390.06	66.857
390.42	68.677
390.77	66.094
391.13	67.900
391.49	67.703
391.85	69.255
392.20	67.319
392.56	69.129
392.92	69.570
393.28	69.408
393.64	69.484
393.99	69.456
394.35	71.526
394.71	70.640
395.07	69.408
395.42	72.064
395.78	71.565
396.14	71.943
396.50	74.812
396.85	73.808
397.21	73.613
397.57	74.520
397.92	74.399
398.28	74.047
398.64	74.014
399.00	74.147
399.35	75.014
399.71	74.711
400.07	75.754
400.42	76.564
400.78	75.935
401.14	77.805
401.49	77.731
401.85	77.435
402.21	78.263
402.57	78.532
402.92	79.571
403.28	79.638
403.63	79.579
403.99	81.783
404.35	80.061
404.70	80.036
405.06	80.082
405.42	82.595
405.77	81.486
406.13	81.716
406.49	83.205
406.84	82.871
407.20	82.801
407.55	84.748
407.91	85.533
408.27	87.109
408.62	83.925
408.98	85.846
409.34	87.208
409.69	86.516
410.05	87.918
410.40	88.073
410.76	88.292
411.11	85.404
411.47	87.796
411.83	88.760
412.18	88.374
412.54	90.224
412.89	89.096
413.25	92.090
413.60	93.020
413.96	89.557
414.31	92.770
414.67	93.790
415.03	93.179
415.38	92.332
415.74	93.891
416.09	96.146
416.45	93.641
416.80	95.704
417.16	97.453
417.51	98.474
417.87	96.660
418.22	97.792
418.58	97.289
418.93	97.113
419.29	99.236
419.64	97.670
420.00	97.317
420.35	97.507
420.71	99.761
421.06	99.344
421.42	99.649
421.77	100.448
422.12	98.428
422.48	99.137
422.83	102.912
423.19	99.503
423.54	101.857
423.90	100.754
424.25	100.726
424.61	100.536
424.96	102.391
425.31	101.938
425.67	99.719
426.02	102.629
426.38	106.410
426.73	102.809
427.09	106.748
427.44	104.198
427.79	104.485
428.15	106.786
428.50	106.495
428.85	106.198
429.21	106.019
429.56	107.621
429.92	105.586
430.27	106.256
430.62	107.424
430.98	107.369
431.33	105.464
431.68	107.749
432.04	106.763
432.39	109.252
432.74	109.096
433.10	110.640
433.45	110.845
433.80	109.368
434.16	108.654
434.51	109.211
434.86	111.288
435.22	112.729
435.57	112.584
435.92	112.405
436.28	113.405
436.63	111.479
436.98	112.936
437.34	114.431
437.69	114.936
438.04	114.503
438.39	113.493
438.75	113.945
439.10	114.581
439.45	114.168
439.81	116.314
440.16	113.043
440.51	115.173
440.86	114.650
441.22	114.794
441.57	115.074
441.92	114.841
442.27	114.586
442.63	114.587
442.98	116.845
443.33	113.641
443.68	116.262
444.03	117.130
444.39	117.381
444.74	117.532
445.09	116.442
445.44	114.653
445.79	115.438
446.15	116.146
446.50	117.609
446.85	115.930
447.20	117.695
447.55	119.710
447.91	118.478
448.26	118.531
448.61	118.428
448.96	119.380
449.31	118.673
449.66	117.895
450.02	119.220
450.37	117.687
450.72	119.966
451.07	119.927
451.42	119.635
451.77	120.082
452.12	117.610
452.47	119.154
452.83	120.862
453.18	118.643
453.53	120.532
453.88	118.429
454.23	119.904
454.58	120.533
454.93	121.551
455.28	120.449
455.63	120.449
455.98	122.202
456.34	120.415
456.69	121.666
457.04	123.096
457.39	121.157
457.74	120.546
458.09	120.817
458.44	121.494
458.79	118.167
459.14	120.485
459.49	120.724
459.84	120.055
460.19	119.564
460.54	116.956
460.89	121.393
461.24	121.919
461.59	120.395
461.94	120.838
462.29	123.442
462.64	121.315
462.99	120.494
463.34	120.267
463.69	123.327
464.04	119.826
464.39	118.957
464.74	119.133
465.09	119.843
465.44	119.668
465.79	120.694
466.14	117.789
466.49	120.245
466.84	121.366
467.19	118.890
467.54	120.125
467.89	120.888
468.24	118.732
468.59	120.879
468.94	121.197
469.29	122.879
469.64	122.222
469.99	122.530
470.34	122.193
470.68	124.138
471.03	121.497
471.38	122.933
471.73	121.586
472.08	122.434
472.43	121.168
472.78	121.461
473.13	120.988
473.48	120.662
473.83	121.220
474.17	121.157
474.52	123.201
474.87	121.308
475.22	119.675
475.57	120.795
475.92	118.003
476.27	118.771
476.61	119.801
476.96	121.056
477.31	119.414
477.66	120.405
478.01	119.289
478.36	120.254
478.70	120.405
479.05	120.341
479.40	119.806
479.75	122.471
480.10	121.322
480.45	119.419
480.79	118.729
481.14	120.352
481.49	120.218
481.84	119.662
482.19	120.945
482.53	119.404
482.88	119.358
483.23	119.626
483.58	118.926
483.92	120.197
484.27	116.601
484.62	118.491
484.97	117.146
485.31	119.110
485.66	114.356
486.01	111.809
486.36	109.152
486.70	109.590
487.05	112.111
487.40	113.304
487.75	113.992
488.09	116.288
488.44	116.511
488.79	119.349
489.13	119.977
489.48	118.515
489.83	117.825
490.17	117.229
490.52	117.848
490.87	118.001
491.22	117.599
491.56	116.902
491.91	118.008
492.26	117.501
492.60	117.834
492.95	116.183
493.30	115.654
493.64	117.685
493.99	116.063
494.34	116.374
494.68	117.995
495.03	117.481
495.37	116.147
495.72	117.982
496.07	118.422
496.41	113.540
496.76	115.435
497.11	115.624
497.45	116.628
497.80	117.946
498.14	116.135
498.49	117.268
498.84	116.347
499.18	116.286
499.53	116.762
499.87	116.589
500.22	115.073
500.56	117.621
500.91	115.673
501.26	115.789
501.60	116.706
501.95	112.924
502.29	115.136
502.64	115.363
502.98	114.446
503.33	112.797
503.67	113.596
504.02	114.500
504.36	113.898
504.71	116.659
505.06	114.169
505.40	113.904
505.75	114.465
506.09	113.120
506.44	115.146
506.78	114.954
507.13	116.456
507.47	114.293
507.82	114.539
508.16	115.299
508.51	117.098
508.85	111.867
509.19	116.480
509.54	113.571
509.88	113.756
510.23	115.219
510.57	117.079
510.92	115.588
511.26	113.052
511.61	113.382
511.95	114.718
512.30	115.270
512.64	114.347
512.98	116.345
513.33	114.400
513.67	112.166
514.02	114.286
514.36	115.401
514.70	114.831
515.05	113.385
515.39	114.526
515.74	115.315
516.08	114.366
516.42	114.539
516.77	113.824
517.11	113.873
517.46	113.262
517.80	115.912
518.14	115.402
518.49	115.228
518.83	112.330
519.17	114.434
519.52	112.281
519.86	112.778
520.20	113.873
520.55	115.440
520.89	117.214
521.23	114.113
521.58	114.346
521.92	115.983
522.26	114.094
522.61	115.576
522.95	113.382
523.29	115.155
523.64	113.293
523.98	114.603
524.32	113.631
524.66	112.808
525.01	113.174
525.35	113.383
525.69	112.808
526.04	113.707
526.38	112.569
526.72	111.472
527.06	112.869
527.41	110.396
527.75	113.505
528.09	114.130
528.43	113.129
528.78	112.723
529.12	111.394
529.46	113.166
529.80	113.738
530.15	112.274
530.49	108.800
530.83	113.608
531.17	115.470
531.51	113.748
531.86	112.839
532.20	112.907
532.54	112.172
532.88	113.158
533.22	109.806
533.57	110.062
533.91	108.850
534.25	110.207
534.59	110.860
534.93	108.626
535.27	109.716
535.62	109.341
535.96	111.927
536.30	111.697
536.64	111.397
536.98	111.480
537.32	112.113
537.66	110.733
538.01	110.797
538.35	110.019
538.69	110.657
539.03	111.176
539.37	109.265
539.71	107.777
540.05	110.784
540.39	110.764
540.73	107.827
541.07	109.020
541.42	110.894
541.76	110.903
542.10	109.314
542.44	110.927
542.78	109.420
543.12	107.166
543.46	109.508
543.80	109.174
544.14	108.087
544.48	107.746
544.82	107.248
545.16	109.824
545.50	106.170
545.84	107.728
546.18	108.687
546.52	107.639
546.86	108.385
547.20	109.777
547.54	107.214
547.88	107.207
548.22	104.795
548.56	104.151
548.90	105.698
549.24	107.138
549.58	107.844
549.92	107.624
550.26	108.736
550.60	106.916
550.94	107.113
551.28	107.827
551.62	108.627
551.96	105.474
552.30	106.689
552.64	105.815
552.98	106.847
553.32	104.585
553.66	106.817
554.00	106.658
554.34	106.211
554.68	107.368
555.02	104.725
555.36	105.567
555.69	105.007
556.03	104.509
556.37	104.707
556.71	102.387
557.05	104.972
557.39	104.619
557.73	103.246
558.07	105.801
558.41	104.631
558.75	106.098
559.08	106.711
559.42	107.407
559.76	104.559
560.10	103.926
560.44	104.403
560.78	102.129
561.12	103.364
561.45	102.151
561.79	102.044
562.13	102.951
562.47	104.918
562.81	104.045
563.15	100.669
563.48	100.265
563.82	100.196
564.16	101.112
564.50	103.060
564.84	100.316
565.17	100.901
565.51	101.981
565.85	101.015
566.19	100.250
566.52	102.407
566.86	98.071
567.20	99.587
567.54	99.543
567.88	98.642
568.21	99.471
568.55	96.309
568.89	97.860
569.23	95.588
569.56	93.968
569.90	93.585
570.24	93.434
570.57	92.996
570.91	90.465
571.25	90.117
571.59	90.044
571.92	90.409
572.26	91.334
572.60	91.712
572.93	91.244
573.27	90.447
573.61	90.592
573.95	90.310
574.28	88.266
574.62	88.435
574.96	87.216
575.29	87.949
575.63	88.084
575.97	87.972
576.30	87.945
576.64	89.032
576.98	86.850
577.31	87.246
577.65	87.861
577.98	87.093
578.32	85.703
578.66	85.723
578.99	86.670
579.33	85.911
579.67	86.354
580.00	87.077
580.34	86.640
580.67	86.575
581.01	86.081
581.35	85.150
581.68	85.066
582.02	84.065
582.35	84.665
582.69	84.916
583.02	84.767
583.36	85.105
583.70	86.264
584.03	87.382
584.37	87.009
584.70	87.095
585.04	85.127
585.37	84.483
585.71	84.563
586.04	84.537
586.38	85.920
586.72	85.363
587.05	84.352
587.39	84.538
587.72	84.179
588.06	84.285
588.39	85.350
588.73	85.538
589.06	86.226
589.40	85.926
589.73	86.695
590.07	86.014
590.40	84.545
590.73	87.471
591.07	87.627
591.40	86.504
591.74	88.701
592.07	85.515
592.41	85.697
592.74	83.820
593.08	83.278
593.41	84.309
593.75	81.543
594.08	83.171
594.41	83.351
594.75	83.512
595.08	82.963
595.42	83.363
595.75	84.081
596.09	84.942
596.42	84.479
596.75	83.537
597.09	84.675
597.42	82.462
597.75	84.260
598.09	83.783
598.42	83.119
598.76	82.408
599.09	81.110
599.42	80.750
599.76	81.406
600.09	81.093
600.42	80.972
600.76	81.000
601.09	80.255
601.42	81.659
601.76	80.911
602.09	81.621
602.42	81.330
602.76	81.258
603.09	81.471
603.42	81.765
603.76	81.059
604.09	80.807
604.42	82.063
604.76	81.316
605.09	81.302
605.42	81.018
605.75	81.374
606.09	80.846
606.42	80.670
606.75	79.511
607.09	79.657
607.42	80.274
607.75	78.312
608.08	79.592
608.42	80.368
608.75	79.035
609.08	78.400
609.41	80.295
609.75	79.038
610.08	80.254
610.41	78.305
610.74	80.464
611.07	80.534
611.41	79.441
611.74	80.744
612.07	79.917
612.40	81.899
612.73	79.000
613.07	82.435
613.40	80.937
613.73	79.601
614.06	79.677
614.39	77.661
614.72	78.053
615.06	77.941
615.39	79.512
615.72	77.658
616.05	78.363
616.38	79.044
616.71	81.770
617.05	80.153
617.38	81.058
617.71	82.523
618.04	80.829
618.37	78.060
618.70	79.900
619.03	79.671
619.36	81.466
619.69	80.634
620.03	81.731
620.36	79.278
620.69	79.795
621.02	80.531
621.35	81.284
621.68	80.218
622.01	81.734
622.34	79.879
622.67	82.053
623.00	79.897
623.33	77.555
623.66	79.914
623.99	80.339
624.32	80.385
624.65	79.308
624.99	77.691
625.32	77.915
625.65	78.362
625.98	80.784
626.31	80.249
626.64	81.878
626.97	81.047
627.30	78.886
627.63	80.066
627.96	81.161
628.29	80.402
628.62	81.610
628.95	81.792
629.28	82.755
629.61	83.043
629.94	84.000
630.26	80.076
630.59	80.934
630.92	80.364
631.25	81.046
631.58	81.682
631.91	80.122
632.24	81.751
632.57	82.476
632.90	81.798
633.23	84.452
633.56	82.486
633.89	83.465
634.22	83.541
634.55	86.272
634.88	82.156
635.20	83.513
635.53	84.217
635.86	84.406
636.19	82.824
636.52	80.161
636.85	80.069
637.18	79.032
637.51	82.270
637.83	80.518
638.16	81.586
638.49	79.975
638.82	82.807
639.15	81.375
639.48	81.172
639.81	82.976
640.13	80.599
640.46	81.611
640.79	82.431
641.12	81.431
641.45	84.358
641.77	86.156
642.10	84.649
642.43	81.832
642.76	85.759
643.09	85.890
643.41	83.308
643.74	83.642
644.07	83.841
644.40	81.748
644.73	85.039
645.05	83.677
645.38	81.991
645.71	82.287
646.04	84.551
646.36	85.810
646.69	82.776
647.02	82.313
647.35	86.770
647.67	82.478
648.00	80.000
648.33	82.178
648.66	80.758
648.98	81.859
649.31	80.867
649.64	80.568
649.96	78.987
650.29	82.464
650.62	82.686
650.94	82.496
651.27	83.108
651.60	80.532
651.92	78.275
652.25	81.759
652.58	78.972
652.90	79.937
653.23	75.809
653.56	79.370
653.88	80.983
654.21	79.779
654.54	77.888
654.86	76.012
655.19	73.649
655.52	56.127
655.84	52.753
656.17	68.557
656.49	91.014
656.82	93.516
657.15	71.515
657.47	53.759
657.80	41.420
658.13	43.070
658.45	63.678
658.78	64.968
659.10	67.045
659.43	68.958
659.75	72.488
660.08	76.835
660.41	81.844
660.73	80.305
661.06	79.618
661.38	84.909
661.71	82.500
662.03	83.826
662.36	78.728
662.68	80.723
663.01	78.990
663.33	84.076
663.66	81.092
663.98	80.562
664.31	79.202
664.63	74.899
664.96	75.855
665.28	79.918
665.61	77.973
665.93	79.879
666.26	77.079
666.58	80.126
666.91	80.973
667.23	82.247
667.56	80.562
667.88	79.701
668.21	77.825
668.53	78.742
668.86	79.654
669.18	81.237
669.50	79.783
669.83	84.096
670.15	80.889
670.48	77.778
670.80	80.603
671.13	78.981
671.45	75.319
671.77	80.652
672.10	73.567
672.42	76.148
672.75	73.632
673.07	74.824
673.39	75.407
673.72	77.539
674.04	76.078
674.37	77.476
674.69	77.301
675.01	76.569
675.34	77.618
675.66	78.316
675.98	75.153
676.31	73.739
676.63	76.008
676.95	76.939
677.28	77.570
677.60	76.703
677.92	78.481
678.25	74.127
678.57	76.892
678.89	75.150
679.22	76.228
679.54	75.191
679.86	73.578
680.18	73.345
680.51	72.163
680.83	70.996
681.15	72.642
681.48	73.913
681.80	74.275
682.12	70.690
682.44	71.954
682.77	75.764
683.09	77.039
683.41	74.501
683.73	73.951
684.06	74.174
684.38	73.973
684.70	70.736
685.02	73.921
685.34	69.780
685.67	67.483
685.99	68.900
686.31	68.430
686.63	71.378
686.96	70.357
687.28	71.119
687.60	71.196
687.92	70.018
688.24	71.103
688.56	73.494
688.89	75.519
689.21	74.454
689.53	72.860
689.85	76.275
690.17	68.530
690.49	75.584
690.82	75.234
691.14	72.098
691.46	70.042
691.78	69.076
692.10	71.901
692.42	71.058
692.74	69.917
693.06	72.766
693.39	71.253
693.71	72.707
694.03	73.474
694.35	69.264
694.67	68.421
694.99	72.683
695.31	71.078
695.63	75.359
695.95	74.328
696.27	72.081
696.59	75.389
696.91	72.021
697.23	68.779
697.56	69.083
697.88	65.440
698.20	68.958
698.52	69.462
698.84	70.601
699.16	68.433
699.48	72.684
699.80	71.981
700.12	76.883
700.44	74.536
700.76	73.481
701.08	77.586
701.40	72.067
701.72	76.093
702.04	78.693
702.36	69.972
702.68	76.204
703.00	73.407
703.32	68.085
703.64	71.582
703.96	74.373
704.28	71.512
704.60	72.434
704.91	75.371
705.23	69.208
705.55	82.392
705.87	79.734
706.19	79.505
706.51	73.209
706.83	73.333
707.15	69.748
707.47	65.909
707.79	68.059
708.11	67.123
708.43	66.190
708.74	68.878
709.06	71.688
709.38	70.604
709.70	74.709
710.02	72.700
710.34	73.333
710.66	71.045
710.98	73.011
711.29	75.581
711.61	75.221
711.93	72.756
712.25	77.170
712.57	76.103
712.89	76.125
713.20	72.948
713.52	75.658
713.84	72.152
714.16	73.171
714.48	70.402
714.80	77.508
715.11	67.435
715.43	70.920
715.75	72.174
716.07	75.080
716.39	73.354
716.70	76.412
717.02	78.777
717.34	68.551
717.66	80.224
717.97	82.072
718.29	75.926
718.61	74.818
718.93	76.471
719.24	75.779
719.56	65.763
719.88	72.203
720.20	71.284
720.51	76.655
720.83	78.810
721.15	74.254
721.46	70.922
721.78	78.495
722.10	78.113
722.42	82.331
722.73	75.281
723.05	79.098
723.37	71.660
723.68	79.151
724.00	73.171
724.32	79.435
724.63	77.236
724.95	79.079
725.27	76.518
725.58	75.000
725.90	76.277
726.22	75.849
726.53	71.528
726.85	71.331
727.16	73.665
727.48	69.149
727.80	76.894
728.11	69.565
728.43	73.077
728.74	69.892
729.06	80.292
729.38	78.309
729.69	74.021
730.01	66.212
730.32	68.403
730.64	68.896
730.96	66.007
731.27	69.205
731.59	66.972
731.90	64.431
732.22	67.391
732.53	65.325
732.85	70.513
733.16	67.524
733.48	68.771
733.80	66.234
734.11	68.471
734.43	65.680
734.74	61.714
735.06	63.897
735.37	69.364
735.69	63.376
736.00	69.281
736.32	69.159
736.63	64.537
736.95	66.773
737.26	64.966
737.58	67.097
737.89	65.886
738.21	67.577
738.52	69.286
738.83	69.434
739.15	71.538
739.46	66.423
739.78	68.403
740.09	63.692
740.41	63.226
740.72	66.202
741.04	70.000
741.35	76.250
741.66	80.444
741.98	72.642
742.29	83.254
742.61	67.672
742.92	70.136
743.23	76.923
743.55	68.800
743.86	71.930
744.18	72.566
744.49	73.684
744.80	78.404
745.12	79.545
745.43	69.163
745.74	77.928
746.06	72.018
746.37	71.300
746.68	73.756
747.00	74.074
747.31	73.810
747.62	71.239
747.94	72.687
748.25	71.064
748.56	74.449
748.88	79.208
749.19	85.000
749.50	75.349
749.82	73.984
750.13	64.898
750.44	63.139
750.75	71.579
751.07	63.987
751.38	65.854
751.69	65.343
752.01	68.797
752.32	65.704
752.63	60.284
752.94	71.311
753.26	68.000
753.57	61.789
753.88	64.062
754.19	67.143
754.51	63.889
754.82	61.733
755.13	64.528
755.44	69.925
755.75	63.139
756.07	64.539
756.38	66.058
756.69	60.067
757.00	55.689
757.31	57.270
757.63	60.234
757.94	59.249
758.25	53.676
758.56	55.309
758.87	57.258
759.18	60.909
759.50	59.248
759.81	59.190
760.12	60.312
760.43	59.599
760.74	55.978
761.05	62.429
761.36	55.615
761.67	57.386
761.99	60.248
762.30	65.972
762.61	58.779
762.92	67.969
763.23	67.647
763.54	65.200
763.85	64.062
764.16	66.923
764.47	68.441
764.78	61.484
765.10	52.532
765.41	56.342
765.72	60.180
766.03	59.561
766.34	60.000
766.65	76.596
766.96	64.530
767.27	73.604
767.58	72.917
767.89	72.105
768.20	77.011
768.51	71.066
768.82	68.807
769.13	64.634
769.44	61.943
769.75	70.386
770.06	68.807
770.37	66.063
770.68	74.537
770.99	66.667
771.30	61.475
771.61	70.404
771.92	62.295
772.23	66.807
772.54	72.821
772.85	69.110
773.16	76.596
773.47	77.174
773.78	73.096
774.09	74.405
774.39	71.345
774.70	77.778
775.01	87.681
775.32	79.739
775.63	80.263
775.94	83.453
776.25	85.827
776.56	83.582
776.87	83.607
777.18	90.625
777.48	87.786
777.79	81.818
778.10	85.926
778.41	92.857
778.72	72.263
779.03	79.866
779.34	79.195
779.65	74.324
779.95	74.233
780.26	69.935
780.57	80.690
780.88	93.750
781.19	83.459
781.50	77.027
781.80	81.132
782.11	68.927
782.42	74.684
782.73	70.552
783.04	77.027
783.34	80.282
783.65	80.822
783.96	84.328
784.27	72.727
784.57	69.065
784.88	80.556
785.19	82.540
785.50	97.170
785.81	80.597
786.11	84.426
786.42	86.047
786.73	84.956
787.04	93.396
787.34	87.500
787.65	90.000
787.96	78.378
788.26	84.298
788.57	90.678
788.88	92.562
789.19	82.639
789.49	86.364
789.80	89.313
790.11	100.000
790.41	94.059
790.72	110.843
791.03	95.652
791.33	108.140
791.64	92.784
791.95	93.069
792.25	103.333
792.56	115.584
792.87	125.641
793.17	118.987
793.48	102.299
793.79	97.701
794.09	109.091
794.40	88.235
794.70	88.235
795.01	69.630
795.32	79.137
795.62	85.827
795.93	90.517
796.23	84.071
796.54	98.824
796.85	106.757
797.15	140.845
797.46	121.212
797.76	104.819
798.07	101.266
798.37	107.692
798.68	119.697
798.99	92.958
799.29	107.792
799.60	86.364
799.90	119.178
800.21	111.940
800.51	146.552
800.82	150.877
801.12	127.869
801.43	119.697
801.73	97.297
802.04	138.095
802.34	102.469
802.65	132.812
802.95	130.508
803.26	128.125
803.56	100.000
803.87	104.615
804.17	117.647
804.48	138.889
804.78	117.241
805.09	98.529
805.39	153.846
805.70	121.429
806.00	142.623
806.30	103.030
806.61	98.780
806.91	93.671
807.22	111.842
807.52	117.910
807.83	104.225
808.13	114.062
808.43	128.333
808.74	94.737
809.04	98.551
809.35	135.821
809.65	103.947
809.95	146.774
810.26	122.034
810.56	106.349
810.86	156.818
811.17	190.476
811.47	131.667
811.77	118.519
812.08	147.273
812.38	160.000
812.69	197.222
812.99	168.182
813.29	157.143
813.59	135.714
813.90	163.265
814.20	134.545
814.50	110.769
814.81	113.235
815.11	132.653
815.41	129.508
815.72	183.333
816.02	127.273
816.32	190.476
816.62	147.500
816.93	170.732
817.23	161.905
817.53	165.909
817.84	200.000
818.14	163.043
818.44	171.111
818.74	202.941
819.04	195.000
819.35	165.714
819.65	188.235
819.95	189.286
820.25	280.000
820.56	166.667
820.86	165.909
821.16	172.093
821.46	184.615
821.76	170.000
822.07	222.857
822.37	185.000
822.67	206.061
822.97	143.137
823.27	221.429
823.57	154.054
823.88	195.000
824.18	223.333
824.48	192.857
824.78	268.000
825.08	241.667
825.38	175.676
825.69	173.171
825.99	241.667
826.29	203.448
826.59	176.316
826.89	171.053
827.19	173.529
827.49	174.194
827.79	168.182
828.09	152.273
828.39	127.660
828.70	142.857
829.00	196.296
829.30	206.452
829.60	167.500
829.90	353.333
830.20	214.286
830.50	247.826
830.80	239.130
831.10	210.000
831.40	193.333
831.70	217.391
832.00	226.923
832.30	192.593
832.60	375.000
832.90	216.667
833.20	464.286
833.50	193.548
833.80	224.138
834.10	196.875
834.40	250.000
834.70	388.889
835.00	342.857
835.30	180.000
835.60	407.692
835.90	258.621
836.20	364.286
836.50	224.138
836.80	192.000
837.10	219.444
837.40	280.952
837.70	335.294
838.00	251.852
838.30	233.333
838.60	309.524
838.90	265.385
839.19	285.000
839.49	407.143
839.79	315.000
840.09	330.000
840.39	290.476
840.69	330.435
840.99	288.889
841.29	530.000
841.59	475.000
841.88	387.500
842.18	217.241
842.48	323.810
842.78	236.667
843.08	247.826
843.38	228.125
843.68	900.000
843.97	265.385
844.27	213.793
844.57	395.238
844.87	350.000
845.17	244.444
845.47	1900.000
845.76	522.222
846.06	370.588
846.36	575.000
846.66	435.714
846.96	381.250
847.25	445.455
847.55	454.545
847.85	308.696
848.15	570.000
848.44	400.000
848.74	344.444
849.04	347.059
849.34	600.000
849.63	252.632
849.93	445.455
850.23	1260.000
850.53	414.286
850.82	2450.000
851.12	-5200.000
851.42	5100.000
851.71	280.000
852.01	-1766.667
852.31	262.500
852.61	1633.333
852.90	309.524
853.20	252.000
853.50	335.294
853.79	261.905
854.09	229.167
854.39	412.500
854.68	200.000
854.98	212.903
855.28	200.000
855.57	251.724
855.87	240.741
856.17	284.211
856.46	300.000
856.76	317.647
857.05	244.828
857.35	229.167
857.65	426.667
857.94	273.913
858.24	246.154
858.53	300.000
858.83	281.818
859.13	333.333
859.42	0.000
859.72	655.556
860.01	490.909
860.31	295.455
860.60	310.526
860.90	239.130
861.20	655.556
861.49	550.000
861.79	-5600.000
862.08	650.000
862.38	242.857
862.67	376.923
862.97	405.882
863.26	600.000
863.56	333.333
863.85	383.333
864.15	662.500
864.44	380.000
864.74	833.333
865.03	800.000
865.33	315.789
865.62	509.091
865.92	484.615
866.21	450.000
866.51	0.000
866.80	527.273
867.10	1240.000
867.39	423.077
867.69	481.818
867.98	289.474
868.27	563.636
868.57	321.053
868.86	-5500.000
869.16	350.000
869.45	2600.000
869.75	-5500.000
870.04	425.000
870.33	828.571
870.63	1250.000
870.92	2300.000
871.22	814.286
871.51	400.000
871.80	280.952
872.10	442.857
>>>>>End Processed Spectral Data<<<<<
