SpectraSuite Data File
++++++++++++++++++++++++++++++++++++
Date: Tue May 12 19:57:37 PDT 2015
User: schluterlab
Dark Spectrum Present: Yes
Reference Spectrum Present: Yes
Number of Sampled Component Spectra: 1
Spectrometers: USB2E3373
Integration Time (usec): 3000 (USB2E3373)
Spectra Averaged: 3 (USB2E3373)
Boxcar Smoothing: 0 (USB2E3373)
Correct for Electrical Dark: No (USB2E3373)
Strobe/Lamp Enabled: No (USB2E3373)
Correct for Detector Non-linearity: No (USB2E3373)
Correct for Stray Light: No (USB2E3373)
Number of Pixels in Processed Spectrum: 2048
>>>>>Begin Processed Spectral Data<<<<<
178.53	0.000
178.91	-210.000
179.29	-183.333
179.67	766.667
180.04	0.000
180.42	-380.000
180.80	-733.333
181.18	1050.000
181.56	-750.000
181.94	333.333
182.31	1600.000
182.69	-185.714
183.07	0.000
183.45	308.333
183.83	400.000
184.20	433.333
184.58	1250.000
184.96	316.667
185.34	-433.333
185.72	-100.000
186.09	-300.000
186.47	-2400.000
186.85	-200.000
187.23	275.000
187.61	-228.571
187.98	-200.000
188.36	850.000
188.74	-350.000
189.12	-188.889
189.49	-120.000
189.87	400.000
190.25	244.444
190.63	733.333
191.00	400.000
191.38	-533.333
191.76	380.000
192.14	-214.286
192.51	-120.000
192.89	-280.000
193.27	-340.000
193.65	-666.667
194.02	-400.000
194.40	900.000
194.78	-237.500
195.15	-257.143
195.53	666.667
195.91	420.000
196.29	-775.000
196.66	-500.000
197.04	-371.429
197.42	460.000
197.79	-225.000
198.17	-125.000
198.55	-1700.000
198.92	-200.000
199.30	1200.000
199.68	-500.000
200.05	-1100.000
200.43	-72.222
200.81	-100.000
201.18	416.667
201.56	-950.000
201.94	-2000.000
202.31	-166.667
202.69	-111.111
203.07	-116.667
203.44	-475.000
203.82	0.000
204.19	400.000
204.57	-600.000
204.95	218.182
205.32	240.000
205.70	500.000
206.08	-1600.000
206.45	-100.000
206.83	2400.000
207.20	-211.111
207.58	-30.769
207.96	566.667
208.33	866.667
208.71	666.667
209.08	700.000
209.46	-11.111
209.84	866.667
210.21	-466.667
210.59	1000.000
210.96	322.222
211.34	-500.000
211.71	1200.000
212.09	-220.000
212.46	-200.000
212.84	-325.000
213.22	285.714
213.59	-25.000
213.97	0.000
214.34	-250.000
214.72	-2200.000
215.09	1050.000
215.47	-120.000
215.84	-150.000
216.22	-1200.000
216.59	1400.000
216.97	-75.000
217.34	-400.000
217.72	-38.889
218.09	525.000
218.47	-63.158
218.84	-287.500
219.22	-85.714
219.59	-190.000
219.97	-130.000
220.34	400.000
220.72	181.818
221.09	-750.000
221.47	0.000
221.84	950.000
222.22	-550.000
222.59	-425.000
222.97	-52.174
223.34	206.667
223.72	300.000
224.09	-150.000
224.46	215.385
224.84	-100.000
225.21	-700.000
225.59	-375.000
225.96	-20.000
226.34	400.000
226.71	300.000
227.08	-61.538
227.46	-285.714
227.83	-8.333
228.21	-1800.000
228.58	400.000
228.95	5.263
229.33	-43.750
229.70	-400.000
230.08	-177.778
230.45	-800.000
230.82	-2200.000
231.20	-42.857
231.57	-500.000
231.95	-833.333
232.32	188.889
232.69	-700.000
233.07	-31.250
233.44	-162.500
233.81	-19.355
234.19	-420.000
234.56	-105.556
234.93	-266.667
235.31	-29.630
235.68	-33.333
236.05	-34.615
236.43	-68.421
236.80	-40.909
237.17	-107.143
237.55	-80.000
237.92	9.302
238.29	9.677
238.67	-25.000
239.04	8.571
239.41	11.765
239.79	2.000
240.16	-25.000
240.53	12.069
240.91	12.329
241.28	2.817
241.65	35.937
242.02	10.526
242.40	14.667
242.77	17.895
243.14	24.706
243.51	12.903
243.89	15.238
244.26	18.519
244.63	19.388
245.00	7.143
245.38	20.168
245.75	25.424
246.12	23.438
246.49	24.000
246.87	15.574
247.24	21.127
247.61	33.113
247.98	23.596
248.36	32.075
248.73	28.977
249.10	20.000
249.47	31.250
249.84	27.411
250.22	22.396
250.59	21.910
250.96	27.273
251.33	33.491
251.70	27.982
252.08	26.840
252.45	23.265
252.82	22.785
253.19	32.685
253.56	32.941
253.94	29.675
254.31	33.453
254.68	26.042
255.05	31.788
255.42	26.182
255.79	33.113
256.16	30.903
256.54	31.818
256.91	34.615
257.28	28.571
257.65	30.492
258.02	33.934
258.39	34.139
258.76	29.358
259.14	30.000
259.51	34.085
259.88	33.141
260.25	27.841
260.62	30.899
260.99	32.591
261.36	32.184
261.73	33.333
262.10	33.243
262.47	31.956
262.85	34.447
263.22	32.258
263.59	35.657
263.96	31.593
264.33	29.380
264.70	31.450
265.07	33.005
265.44	34.426
265.81	34.458
266.18	33.958
266.55	35.476
266.92	32.812
267.29	34.222
267.66	31.364
268.03	33.548
268.40	32.952
268.77	32.294
269.14	30.882
269.51	32.805
269.88	33.547
270.25	33.122
270.62	33.824
270.99	32.842
271.36	33.554
271.73	33.750
272.10	34.647
272.47	31.200
272.84	29.512
273.21	30.898
273.58	32.041
273.95	30.677
274.32	30.948
274.69	32.094
275.06	31.895
275.43	35.800
275.80	35.373
276.17	30.632
276.54	34.791
276.91	35.317
277.28	31.915
277.65	31.758
278.02	31.818
278.39	34.120
278.76	32.775
279.13	34.168
279.50	32.671
279.87	32.453
280.23	31.694
280.60	30.035
280.97	32.337
281.34	32.712
281.71	31.794
282.08	33.274
282.45	29.277
282.82	31.818
283.19	31.481
283.56	32.765
283.92	30.648
284.29	30.118
284.66	32.212
285.03	30.360
285.40	33.333
285.77	32.348
286.14	30.903
286.51	33.280
286.87	33.063
287.24	30.609
287.61	29.321
287.98	33.490
288.35	30.233
288.72	32.416
289.08	28.459
289.45	28.861
289.82	29.037
290.19	29.394
290.56	29.378
290.93	28.804
291.29	30.922
291.66	29.354
292.03	28.121
292.40	29.353
292.77	28.426
293.13	29.369
293.50	28.237
293.87	26.768
294.24	27.949
294.60	26.639
294.97	24.792
295.34	26.164
295.71	24.827
296.08	26.366
296.44	27.800
296.81	23.803
297.18	25.744
297.55	26.256
297.91	25.635
298.28	23.018
298.65	24.191
299.02	25.894
299.38	25.255
299.75	23.938
300.12	23.741
300.48	25.352
300.85	23.594
301.22	24.519
301.59	24.574
301.95	24.268
302.32	25.273
302.69	23.424
303.05	24.085
303.42	23.309
303.79	24.045
304.15	25.255
304.52	25.028
304.89	22.097
305.25	23.509
305.62	24.659
305.99	23.068
306.35	24.049
306.72	24.074
307.09	23.286
307.45	24.272
307.82	24.120
308.19	23.982
308.55	23.312
308.92	22.987
309.29	22.699
309.65	24.665
310.02	23.375
310.38	23.561
310.75	24.180
311.12	23.296
311.48	24.255
311.85	22.796
312.22	23.554
312.58	21.652
312.95	22.895
313.31	23.009
313.68	22.145
314.05	24.926
314.41	23.183
314.78	21.608
315.14	22.723
315.51	23.535
315.87	24.512
316.24	21.958
316.61	22.427
316.97	22.941
317.34	23.445
317.70	22.129
318.07	24.012
318.43	22.968
318.80	24.317
319.16	21.528
319.53	23.208
319.89	21.875
320.26	22.419
320.62	22.868
320.99	23.469
321.35	22.332
321.72	23.838
322.08	23.960
322.45	24.458
322.81	22.562
323.18	23.586
323.54	23.886
323.91	22.106
324.27	22.951
324.64	22.493
325.00	22.930
325.37	23.381
325.73	22.080
326.10	23.030
326.46	23.844
326.83	23.395
327.19	22.358
327.56	23.784
327.92	22.049
328.29	22.581
328.65	25.141
329.01	23.945
329.38	23.140
329.74	23.027
330.11	22.554
330.47	24.209
330.84	22.838
331.20	23.567
331.56	21.792
331.93	22.324
332.29	21.092
332.66	22.604
333.02	23.398
333.38	23.162
333.75	23.056
334.11	21.429
334.48	21.735
334.84	22.066
335.20	23.635
335.57	21.708
335.93	21.953
336.29	22.212
336.66	22.404
337.02	21.487
337.38	22.358
337.75	22.909
338.11	22.242
338.47	21.356
338.84	21.547
339.20	22.548
339.56	21.901
339.93	22.342
340.29	21.850
340.65	22.192
341.02	22.055
341.38	21.359
341.74	21.886
342.11	20.690
342.47	21.503
342.83	22.029
343.20	23.342
343.56	21.329
343.92	22.047
344.28	20.326
344.65	21.918
345.01	21.603
345.37	21.026
345.73	20.500
346.10	22.213
346.46	21.570
346.82	21.071
347.19	20.521
347.55	21.259
347.91	21.867
348.27	20.809
348.63	21.521
349.00	22.621
349.36	21.270
349.72	22.414
350.08	22.177
350.45	21.562
350.81	21.057
351.17	19.440
351.53	19.646
351.89	20.725
352.26	20.325
352.62	21.668
352.98	20.586
353.34	20.802
353.70	19.918
354.07	21.417
354.43	21.369
354.79	20.984
355.15	20.743
355.51	21.923
355.87	20.816
356.24	21.650
356.60	21.369
356.96	20.063
357.32	20.823
357.68	21.798
358.04	20.421
358.40	20.540
358.77	19.759
359.13	21.044
359.49	19.920
359.85	21.023
360.21	20.539
360.57	20.096
360.93	21.536
361.29	20.249
361.66	20.268
362.02	20.016
362.38	21.212
362.74	20.138
363.10	20.437
363.46	20.241
363.82	19.908
364.18	19.909
364.54	20.153
364.90	19.704
365.26	20.417
365.62	20.136
365.98	20.390
366.35	20.499
366.71	20.836
367.07	21.107
367.43	20.361
367.79	19.259
368.15	19.792
368.51	20.375
368.87	20.999
369.23	21.120
369.59	20.074
369.95	20.119
370.31	20.682
370.67	21.053
371.03	19.969
371.39	20.619
371.75	19.539
372.11	19.111
372.47	20.045
372.83	20.088
373.19	20.030
373.55	20.509
373.91	19.242
374.27	21.118
374.63	19.882
374.99	19.400
375.35	19.376
375.71	19.512
376.07	19.859
376.42	20.539
376.78	19.094
377.14	19.623
377.50	20.246
377.86	19.359
378.22	19.155
378.58	19.671
378.94	20.170
379.30	19.691
379.66	19.782
380.02	19.835
380.38	20.038
380.74	20.385
381.09	19.187
381.45	20.444
381.81	19.069
382.17	19.935
382.53	19.461
382.89	18.473
383.25	19.467
383.61	19.580
383.97	20.208
384.32	19.161
384.68	20.434
385.04	20.115
385.40	19.617
385.76	20.051
386.12	18.944
386.48	19.700
386.83	19.552
387.19	19.860
387.55	19.883
387.91	19.439
388.27	19.386
388.62	18.912
388.98	19.211
389.34	19.128
389.70	19.295
390.06	20.858
390.42	19.135
390.77	19.316
391.13	19.453
391.49	20.013
391.85	18.829
392.20	19.604
392.56	18.533
392.92	19.481
393.28	19.569
393.64	19.253
393.99	18.766
394.35	18.884
394.71	19.801
395.07	19.098
395.42	19.746
395.78	19.086
396.14	19.387
396.50	20.052
396.85	18.969
397.21	18.435
397.57	19.487
397.92	18.893
398.28	19.065
398.64	18.540
399.00	20.255
399.35	20.106
399.71	18.922
400.07	19.456
400.42	20.064
400.78	19.450
401.14	19.381
401.49	18.926
401.85	20.254
402.21	18.909
402.57	17.965
402.92	19.655
403.28	19.571
403.63	19.359
403.99	18.626
404.35	18.790
404.70	19.063
405.06	20.335
405.42	20.104
405.77	19.263
406.13	19.176
406.49	18.612
406.84	20.237
407.20	18.711
407.55	18.971
407.91	18.741
408.27	19.747
408.62	18.457
408.98	19.498
409.34	18.246
409.69	18.328
410.05	17.876
410.40	18.369
410.76	19.054
411.11	18.811
411.47	19.184
411.83	18.674
412.18	19.895
412.54	19.858
412.89	19.560
413.25	19.373
413.60	19.643
413.96	19.029
414.31	18.292
414.67	19.446
415.03	19.502
415.38	19.847
415.74	19.275
416.09	18.332
416.45	18.330
416.80	18.428
417.16	18.688
417.51	19.292
417.87	19.220
418.22	18.717
418.58	18.798
418.93	19.600
419.29	18.725
419.64	19.918
420.00	19.122
420.35	18.958
420.71	19.462
421.06	19.208
421.42	18.821
421.77	20.037
422.12	19.138
422.48	18.903
422.83	19.271
423.19	19.176
423.54	19.243
423.90	18.789
424.25	19.758
424.61	19.419
424.96	19.656
425.31	19.444
425.67	19.758
426.02	18.944
426.38	18.597
426.73	19.502
427.09	19.238
427.44	19.444
427.79	19.616
428.15	19.784
428.50	19.284
428.85	19.564
429.21	21.040
429.56	18.674
429.92	19.632
430.27	18.560
430.62	20.011
430.98	18.915
431.33	19.855
431.68	19.092
432.04	19.102
432.39	19.073
432.74	19.608
433.10	18.678
433.45	19.506
433.80	19.048
434.16	19.678
434.51	19.788
434.86	18.912
435.22	19.267
435.57	19.723
435.92	18.142
436.28	19.738
436.63	20.095
436.98	18.951
437.34	19.066
437.69	18.951
438.04	18.750
438.39	19.191
438.75	18.708
439.10	20.000
439.45	19.961
439.81	19.429
440.16	18.491
440.51	19.517
440.86	19.192
441.22	18.821
441.57	19.715
441.92	19.105
442.27	19.543
442.63	19.808
442.98	19.866
443.33	19.918
443.68	19.856
444.03	19.021
444.39	19.157
444.74	19.347
445.09	20.484
445.44	18.776
445.79	19.849
446.15	19.650
446.50	20.012
446.85	18.592
447.20	18.982
447.55	18.906
447.91	19.224
448.26	20.178
448.61	19.879
448.96	19.101
449.31	19.590
449.66	18.462
450.02	18.817
450.37	20.109
450.72	19.090
451.07	18.919
451.42	20.158
451.77	19.105
452.12	19.361
452.47	18.835
452.83	19.614
453.18	20.257
453.53	19.791
453.88	19.974
454.23	19.233
454.58	19.386
454.93	19.482
455.28	19.756
455.63	18.843
455.98	19.289
456.34	19.089
456.69	19.296
457.04	20.472
457.39	19.663
457.74	18.205
458.09	19.664
458.44	19.681
458.79	19.199
459.14	19.201
459.49	19.363
459.84	19.738
460.19	19.825
460.54	19.192
460.89	19.353
461.24	19.221
461.59	20.063
461.94	20.118
462.29	19.737
462.64	19.986
462.99	19.362
463.34	18.755
463.69	20.165
464.04	19.564
464.39	20.064
464.74	19.922
465.09	20.450
465.44	19.916
465.79	20.217
466.14	19.153
466.49	20.226
466.84	20.086
467.19	20.273
467.54	19.496
467.89	19.660
468.24	18.750
468.59	19.764
468.94	19.906
469.29	19.100
469.64	20.788
469.99	19.971
470.34	18.529
470.68	19.077
471.03	18.832
471.38	19.222
471.73	19.767
472.08	20.142
472.43	19.710
472.78	19.507
473.13	20.772
473.48	21.024
473.83	20.211
474.17	20.747
474.52	20.898
474.87	20.202
475.22	20.203
475.57	18.743
475.92	19.784
476.27	19.228
476.61	19.976
476.96	20.925
477.31	20.034
477.66	19.756
478.01	19.364
478.36	20.115
478.70	20.338
479.05	19.443
479.40	19.679
479.75	20.471
480.10	20.238
480.45	20.366
480.79	19.927
481.14	19.768
481.49	20.103
481.84	20.707
482.19	19.024
482.53	20.049
482.88	19.675
483.23	20.101
483.58	20.347
483.92	21.106
484.27	19.845
484.62	20.462
484.97	19.772
485.31	20.456
485.66	19.320
486.01	20.214
486.36	20.052
486.70	20.410
487.05	20.436
487.40	20.032
487.75	19.811
488.09	19.486
488.44	19.519
488.79	19.878
489.13	20.033
489.48	20.495
489.83	20.111
490.17	19.925
490.52	20.029
490.87	19.634
491.22	20.316
491.56	20.158
491.91	20.633
492.26	20.296
492.60	21.020
492.95	20.123
493.30	20.335
493.64	20.487
493.99	21.509
494.34	20.882
494.68	20.020
495.03	20.284
495.37	20.274
495.72	20.781
496.07	20.284
496.41	20.158
496.76	20.344
497.11	20.187
497.45	20.794
497.80	20.509
498.14	20.327
498.49	19.594
498.84	20.073
499.18	20.187
499.53	20.976
499.87	20.123
500.22	20.519
500.56	21.350
500.91	20.766
501.26	20.840
501.60	20.591
501.95	20.573
502.29	20.575
502.64	20.010
502.98	20.091
503.33	20.220
503.67	20.419
504.02	19.867
504.36	20.339
504.71	21.117
505.06	20.836
505.40	21.233
505.75	20.537
506.09	20.368
506.44	20.655
506.78	20.075
507.13	19.598
507.47	21.219
507.82	19.866
508.16	20.824
508.51	20.952
508.85	20.000
509.19	20.735
509.54	21.360
509.88	21.346
510.23	21.629
510.57	20.386
510.92	20.408
511.26	20.965
511.61	20.205
511.95	19.954
512.30	20.928
512.64	20.587
512.98	21.087
513.33	20.164
513.67	20.719
514.02	21.034
514.36	19.692
514.70	21.494
515.05	21.829
515.39	20.389
515.74	21.867
516.08	19.962
516.42	20.385
516.77	21.118
517.11	20.306
517.46	21.174
517.80	21.378
518.14	22.075
518.49	21.604
518.83	22.179
519.17	21.979
519.52	20.425
519.86	21.533
520.20	20.127
520.55	21.084
520.89	22.267
521.23	22.044
521.58	20.767
521.92	20.694
522.26	22.131
522.61	21.297
522.95	22.123
523.29	20.243
523.64	19.946
523.98	20.027
524.32	21.684
524.66	21.550
525.01	21.375
525.35	21.819
525.69	20.372
526.04	22.128
526.38	21.796
526.72	21.458
527.06	21.800
527.41	20.907
527.75	21.177
528.09	20.863
528.43	21.545
528.78	21.034
529.12	21.507
529.46	21.063
529.80	21.579
530.15	21.751
530.49	21.688
530.83	21.692
531.17	21.045
531.51	21.913
531.86	21.078
532.20	20.851
532.54	21.151
532.88	21.745
533.22	22.198
533.57	21.724
533.91	21.335
534.25	21.589
534.59	20.839
534.93	21.021
535.27	21.145
535.62	20.999
535.96	21.563
536.30	21.781
536.64	22.031
536.98	21.608
537.32	21.354
537.66	21.481
538.01	21.502
538.35	21.745
538.69	20.594
539.03	21.197
539.37	21.536
539.71	21.377
540.05	22.431
540.39	20.988
540.73	21.465
541.07	22.206
541.42	21.026
541.76	21.223
542.10	21.951
542.44	21.749
542.78	20.894
543.12	20.866
543.46	21.684
543.80	21.301
544.14	21.649
544.48	21.965
544.82	21.008
545.16	22.174
545.50	21.252
545.84	22.385
546.18	21.423
546.52	21.368
546.86	21.041
547.20	21.288
547.54	21.683
547.88	21.225
548.22	20.323
548.56	22.340
548.90	21.965
549.24	21.930
549.58	22.653
549.92	22.105
550.26	22.317
550.60	22.046
550.94	22.460
551.28	22.033
551.62	22.523
551.96	21.486
552.30	21.163
552.64	21.863
552.98	20.802
553.32	20.227
553.66	21.396
554.00	21.313
554.34	21.641
554.68	21.372
555.02	21.508
555.36	20.810
555.69	21.599
556.03	21.508
556.37	19.880
556.71	21.267
557.05	21.719
557.39	22.088
557.73	20.991
558.07	21.987
558.41	21.069
558.75	21.328
559.08	21.106
559.42	21.739
559.76	20.893
560.10	21.516
560.44	21.694
560.78	20.210
561.12	21.563
561.45	20.908
561.79	20.411
562.13	21.572
562.47	21.483
562.81	22.290
563.15	20.837
563.48	21.049
563.82	21.325
564.16	21.118
564.50	21.562
564.84	22.679
565.17	21.674
565.51	21.745
565.85	21.479
566.19	22.686
566.52	21.505
566.86	22.678
567.20	22.488
567.54	20.868
567.88	21.117
568.21	20.750
568.55	20.939
568.89	21.099
569.23	21.034
569.56	21.747
569.90	21.199
570.24	21.316
570.57	21.031
570.91	21.179
571.25	21.625
571.59	20.721
571.92	20.961
572.26	21.290
572.60	20.750
572.93	20.563
573.27	20.279
573.61	21.325
573.95	21.018
574.28	20.331
574.62	20.527
574.96	20.261
575.29	20.547
575.63	19.749
575.97	20.227
576.30	20.532
576.64	20.590
576.98	19.845
577.31	20.345
577.65	20.417
577.98	20.423
578.32	20.296
578.66	19.978
578.99	20.681
579.33	20.788
579.67	20.292
580.00	19.912
580.34	20.819
580.67	20.804
581.01	20.050
581.35	20.489
581.68	20.432
582.02	20.436
582.35	20.559
582.69	20.494
583.02	20.371
583.36	20.452
583.70	20.424
584.03	20.812
584.37	21.039
584.70	20.426
585.04	19.973
585.37	20.291
585.71	20.418
586.04	20.533
586.38	20.512
586.72	20.400
587.05	20.556
587.39	21.160
587.72	20.561
588.06	20.942
588.39	20.304
588.73	20.768
589.06	20.494
589.40	20.415
589.73	21.167
590.07	20.790
590.40	20.443
590.73	21.200
591.07	20.736
591.40	20.968
591.74	20.896
592.07	20.821
592.41	21.884
592.74	20.750
593.08	20.699
593.41	20.329
593.75	21.368
594.08	21.166
594.41	20.648
594.75	20.869
595.08	21.153
595.42	20.616
595.75	20.720
596.09	20.697
596.42	21.268
596.75	20.273
597.09	20.243
597.42	20.366
597.75	20.779
598.09	20.459
598.42	21.344
598.76	21.038
599.09	21.513
599.42	20.142
599.76	20.949
600.09	20.957
600.42	20.078
600.76	20.593
601.09	21.137
601.42	20.652
601.76	21.347
602.09	20.737
602.42	20.452
602.76	21.030
603.09	20.496
603.42	20.954
603.76	20.814
604.09	20.092
604.42	19.923
604.76	20.265
605.09	20.217
605.42	21.090
605.75	20.923
606.09	21.422
606.42	20.735
606.75	20.426
607.09	20.802
607.42	22.028
607.75	21.028
608.08	20.627
608.42	21.339
608.75	20.260
609.08	19.081
609.41	21.669
609.75	21.538
610.08	20.775
610.41	21.221
610.74	20.576
611.07	20.730
611.41	20.610
611.74	21.491
612.07	20.871
612.40	21.058
612.73	21.528
613.07	21.257
613.40	21.967
613.73	20.619
614.06	21.429
614.39	20.855
614.72	20.779
615.06	21.642
615.39	20.554
615.72	20.717
616.05	20.522
616.38	20.700
616.71	20.211
617.05	20.477
617.38	21.355
617.71	20.771
618.04	21.419
618.37	20.667
618.70	21.671
619.03	21.175
619.36	20.619
619.69	20.451
620.03	21.205
620.36	20.937
620.69	20.473
621.02	20.428
621.35	21.957
621.68	21.512
622.01	20.499
622.34	21.608
622.67	22.007
623.00	20.721
623.33	20.472
623.66	22.629
623.99	20.973
624.32	21.446
624.65	20.469
624.99	20.547
625.32	21.722
625.65	20.336
625.98	21.417
626.31	20.260
626.64	21.081
626.97	22.151
627.30	21.111
627.63	20.744
627.96	22.626
628.29	21.033
628.62	19.691
628.95	20.908
629.28	21.074
629.61	21.839
629.94	21.784
630.26	21.757
630.59	21.675
630.92	19.389
631.25	21.341
631.58	21.628
631.91	19.704
632.24	20.828
632.57	22.830
632.90	22.017
633.23	22.710
633.56	21.384
633.89	20.844
634.22	23.077
634.55	21.945
634.88	22.356
635.20	20.137
635.53	23.883
635.86	21.875
636.19	22.783
636.52	20.485
636.85	21.382
637.18	23.187
637.51	22.358
637.83	21.089
638.16	21.764
638.49	21.902
638.82	22.222
639.15	20.429
639.48	20.670
639.81	22.355
640.13	21.746
640.46	22.205
640.79	19.845
641.12	20.775
641.45	19.907
641.77	20.064
642.10	21.987
642.43	22.054
642.76	22.043
643.09	18.685
643.41	21.147
643.74	20.486
644.07	20.282
644.40	24.007
644.73	21.547
645.05	22.710
645.38	23.462
645.71	21.756
646.04	23.048
646.36	17.614
646.69	25.532
647.02	22.656
647.35	20.800
647.67	22.244
648.00	23.495
648.33	22.351
648.66	22.078
648.98	21.695
649.31	22.719
649.64	21.687
649.96	18.919
650.29	20.177
650.62	19.852
650.94	22.551
651.27	21.773
651.60	21.606
651.92	20.802
652.25	19.312
652.58	21.544
652.90	20.107
653.23	20.293
653.56	19.965
653.88	22.080
654.21	21.361
654.54	21.576
654.86	23.561
655.19	19.194
655.52	22.272
655.84	22.365
656.17	21.952
656.49	29.196
656.82	33.325
657.15	26.111
657.47	19.513
657.80	14.444
658.13	12.188
658.45	20.239
658.78	19.961
659.10	18.975
659.43	18.769
659.75	18.190
660.08	18.480
660.41	17.670
660.73	18.144
661.06	19.273
661.38	22.177
661.71	19.037
662.03	19.444
662.36	21.241
662.68	18.705
663.01	21.154
663.33	22.642
663.66	21.292
663.98	20.538
664.31	20.000
664.63	17.890
664.96	21.140
665.28	20.331
665.61	20.093
665.93	21.429
666.26	21.854
666.58	20.183
666.91	22.248
667.23	20.197
667.56	21.728
667.88	22.055
668.21	19.289
668.53	20.558
668.86	18.622
669.18	21.574
669.50	25.450
669.83	18.750
670.15	16.000
670.48	20.050
670.80	22.335
671.13	21.928
671.45	21.684
671.77	22.464
672.10	18.681
672.42	19.920
672.75	19.417
673.07	20.187
673.39	20.233
673.72	22.521
674.04	20.000
674.37	22.402
674.69	20.093
675.01	21.628
675.34	20.098
675.66	19.286
675.98	16.919
676.31	18.892
676.63	17.268
676.95	17.266
677.28	18.812
677.60	23.058
677.92	17.293
678.25	17.633
678.57	22.274
678.89	19.266
679.22	21.330
679.54	20.935
679.86	19.272
680.18	19.665
680.51	18.686
680.83	18.333
681.15	19.608
681.48	20.213
681.80	21.522
682.12	19.486
682.44	18.750
682.77	19.545
683.09	18.382
683.41	20.551
683.73	20.352
684.06	20.305
684.38	20.624
684.70	21.709
685.02	19.481
685.34	19.665
685.67	20.751
685.99	20.958
686.31	21.082
686.63	20.971
686.96	18.699
687.28	18.480
687.60	19.713
687.92	17.722
688.24	19.579
688.56	18.022
688.89	20.776
689.21	15.814
689.53	18.414
689.85	22.025
690.17	19.118
690.49	17.882
690.82	19.165
691.14	15.927
691.46	19.000
691.78	19.378
692.10	19.037
692.42	20.183
692.74	19.431
693.06	16.867
693.39	20.936
693.71	17.907
694.03	19.324
694.35	14.356
694.67	17.303
694.99	21.024
695.31	18.980
695.63	19.189
695.95	20.225
696.27	19.263
696.59	14.243
696.91	16.239
697.23	17.479
697.56	17.617
697.88	19.906
698.20	16.949
698.52	17.548
698.84	20.301
699.16	16.359
699.48	17.277
699.80	18.407
700.12	19.559
700.44	13.569
700.76	15.457
701.08	12.063
701.40	21.382
701.72	16.667
702.04	20.068
702.36	20.984
702.68	20.134
703.00	19.558
703.32	17.066
703.64	19.558
703.96	20.253
704.28	14.789
704.60	18.493
704.91	18.421
705.23	17.895
705.55	13.755
705.87	13.669
706.19	16.335
706.51	16.016
706.83	17.582
707.15	16.271
707.47	20.359
707.79	18.911
708.11	18.254
708.43	20.000
708.74	17.760
709.06	16.564
709.38	18.694
709.70	15.909
710.02	17.133
710.34	16.312
710.66	16.854
710.98	18.182
711.29	19.931
711.61	17.021
711.93	18.352
712.25	16.604
712.57	16.016
712.89	16.327
713.20	18.548
713.52	16.260
713.84	14.964
714.16	18.243
714.48	19.454
714.80	17.845
715.11	21.993
715.43	16.382
715.75	14.035
716.07	16.727
716.39	20.137
716.70	16.400
717.02	14.919
717.34	18.182
717.66	9.545
717.97	14.352
718.29	14.667
718.61	18.018
718.93	16.807
719.24	15.900
719.56	13.839
719.88	15.294
720.20	10.684
720.51	16.228
720.83	19.247
721.15	17.959
721.46	11.814
721.78	15.584
722.10	17.054
722.42	19.130
722.73	13.575
723.05	11.060
723.37	13.122
723.68	12.796
724.00	16.667
724.32	18.224
724.63	15.385
724.95	18.721
725.27	15.962
725.58	15.068
725.90	9.459
726.22	12.227
726.53	18.033
726.85	14.815
727.16	15.789
727.48	18.548
727.80	11.872
728.11	19.111
728.43	21.399
728.74	11.404
729.06	15.284
729.38	17.829
729.69	12.000
730.01	11.715
730.32	7.968
730.64	18.462
730.96	15.444
731.27	16.216
731.59	14.478
731.90	17.763
732.22	17.276
732.53	21.053
732.85	12.324
733.16	18.315
733.48	14.925
733.80	17.091
734.11	17.021
734.43	18.051
734.74	18.380
735.06	18.971
735.37	11.821
735.69	11.268
736.00	15.556
736.32	17.133
736.63	16.296
736.95	12.451
737.26	17.029
737.58	13.139
737.89	15.849
738.21	17.557
738.52	14.754
738.83	11.111
739.15	18.182
739.46	9.910
739.78	10.811
740.09	12.302
740.41	16.667
740.72	11.952
741.04	14.625
741.35	11.211
741.66	22.581
741.98	10.204
742.29	16.580
742.61	5.202
742.92	12.255
743.23	19.403
743.55	5.699
743.86	11.594
744.18	14.500
744.49	16.667
744.80	13.441
745.12	16.410
745.43	15.508
745.74	12.834
746.06	26.437
746.37	3.333
746.68	16.216
747.00	9.945
747.31	19.895
747.62	18.421
747.94	13.679
748.25	14.778
748.56	15.657
748.88	17.486
749.19	16.062
749.50	14.118
749.82	12.000
750.13	15.534
750.44	11.159
750.75	15.600
751.07	12.552
751.38	12.109
751.69	22.619
752.01	18.908
752.32	14.050
752.63	14.847
752.94	15.200
753.26	14.155
753.57	15.166
753.88	9.302
754.19	14.097
754.51	12.971
754.82	15.000
755.13	14.159
755.44	16.017
755.75	17.671
756.07	13.305
756.38	14.226
756.69	21.132
757.00	20.213
757.31	13.841
757.63	16.667
757.94	13.030
758.25	17.262
758.56	16.216
758.87	18.155
759.18	20.872
759.50	18.861
759.81	16.602
760.12	16.014
760.43	19.601
760.74	16.168
761.05	16.346
761.36	20.178
761.67	13.070
761.99	18.729
762.30	16.364
762.61	19.919
762.92	16.444
763.23	13.488
763.54	15.736
763.85	17.647
764.16	10.435
764.47	13.043
764.78	13.306
765.10	17.323
765.41	17.391
765.72	14.047
766.03	18.395
766.34	16.667
766.65	14.062
766.96	11.111
767.27	17.318
767.58	12.579
767.89	16.234
768.20	14.865
768.51	16.667
768.82	0.625
769.13	16.667
769.44	9.434
769.75	11.765
770.06	12.621
770.37	13.830
770.68	14.359
770.99	15.228
771.30	12.887
771.61	5.830
771.92	13.208
772.23	14.904
772.54	7.647
772.85	0.685
773.16	14.194
773.47	9.554
773.78	11.976
774.09	11.842
774.39	8.088
774.70	5.263
775.01	3.846
775.32	9.524
775.63	6.299
775.94	5.660
776.25	7.407
776.56	2.727
776.87	11.111
777.18	3.000
777.48	17.308
777.79	6.481
778.10	1.887
778.41	15.686
778.72	12.264
779.03	11.404
779.34	10.084
779.65	1.408
779.95	12.950
780.26	8.065
780.57	13.768
780.88	0.000
781.19	3.704
781.50	4.098
781.80	10.219
782.11	9.615
782.42	4.828
782.73	13.287
783.04	7.200
783.34	9.600
783.65	16.260
783.96	-9.016
784.27	14.286
784.57	1.869
784.88	-2.679
785.19	-1.031
785.50	15.789
785.81	7.000
786.11	1.980
786.42	-17.647
786.73	9.375
787.04	1.020
787.34	-2.778
787.65	20.755
787.96	-3.093
788.26	6.931
788.57	11.304
788.88	0.917
789.19	7.438
789.49	4.348
789.80	8.621
790.11	-2.439
790.41	8.989
790.72	-4.651
791.03	4.651
791.33	-2.597
791.64	2.439
791.95	-1.220
792.25	-12.048
792.56	1.235
792.87	-4.225
793.17	-9.639
793.48	2.353
793.79	7.500
794.09	-21.667
794.40	6.522
794.70	4.348
795.01	2.752
795.32	14.961
795.62	4.902
795.93	12.745
796.23	6.061
796.54	-15.116
796.85	11.594
797.15	3.125
797.46	-22.034
797.76	3.279
798.07	-7.895
798.37	-4.839
798.68	-10.937
798.99	1.538
799.29	-4.545
799.60	-2.899
799.90	7.143
800.21	-21.053
800.51	-8.621
800.82	-33.962
801.12	-3.922
801.43	-14.516
801.73	8.065
802.04	10.000
802.34	-24.528
802.65	-34.211
802.95	0.000
803.26	-7.547
803.56	-9.836
803.87	-18.000
804.17	5.556
804.48	-9.615
804.78	-22.449
805.09	-23.404
805.39	13.559
805.70	-27.083
806.00	-8.929
806.30	-1.695
806.61	-3.077
806.91	-12.308
807.22	-7.895
807.52	-2.857
807.83	0.000
808.13	7.595
808.43	-6.557
808.74	-13.115
809.04	0.000
809.35	-16.667
809.65	-1.786
809.95	-11.864
810.26	-18.367
810.56	0.000
810.86	-7.843
811.17	-13.514
811.47	-66.667
811.77	-25.490
812.08	-29.545
812.38	-50.000
812.69	-23.077
812.99	4.762
813.29	-2.174
813.59	2.857
813.90	-28.571
814.20	1.818
814.50	-2.041
814.81	-5.882
815.11	-16.667
815.41	-41.463
815.72	-34.615
816.02	-12.766
816.32	3.125
816.62	-45.455
816.93	-42.424
817.23	-13.514
817.53	-38.235
817.84	-5.000
818.14	-41.176
818.44	-21.875
818.74	-100.000
819.04	-40.000
819.35	2.857
819.65	0.000
819.95	-20.513
820.25	-116.667
820.56	-68.966
820.86	-50.000
821.16	-34.783
821.46	-4.762
821.76	-5.556
822.07	-56.522
822.37	-12.245
822.67	-2.326
822.97	-47.826
823.27	-100.000
823.57	-37.037
823.88	-25.000
824.18	0.000
824.48	-42.857
824.78	-48.485
825.08	-93.333
825.38	-2.500
825.69	-116.667
825.99	-55.556
826.29	20.000
826.59	-62.963
826.89	-44.444
827.19	-25.000
827.49	-90.909
827.79	-109.091
828.09	-54.545
828.39	-43.478
828.70	-3.704
829.00	-39.286
829.30	-2.381
829.60	-35.484
829.90	-69.231
830.20	-20.513
830.50	-63.636
830.80	-90.476
831.10	-116.667
831.40	-142.857
831.70	-33.333
832.00	-76.471
832.30	-60.870
832.60	-54.167
832.90	-172.727
833.20	-133.333
833.50	-15.625
833.80	-7.692
834.10	-28.000
834.40	-66.667
834.70	-77.273
835.00	-50.000
835.30	-50.000
835.60	-220.000
835.90	-65.000
836.20	-121.429
836.50	-47.826
836.80	-72.222
837.10	-66.667
837.40	-160.000
837.70	-17.391
838.00	-64.286
838.30	2000.000
838.60	24.000
838.90	-440.000
839.19	-266.667
839.49	-1150.000
839.79	-76.471
840.09	-177.778
840.39	-17.857
840.69	-88.889
840.99	-150.000
841.29	13.793
841.59	-66.667
841.88	-81.818
842.18	-466.667
842.48	-62.500
842.78	-46.154
843.08	-58.824
843.38	-65.000
843.68	-69.231
843.97	-94.118
844.27	-140.000
844.57	-45.833
844.87	-81.818
845.17	-47.368
845.47	-100.000
845.76	-30.556
846.06	-95.238
846.36	-164.286
846.66	-200.000
846.96	-45.000
847.25	-400.000
847.55	-262.500
847.85	-106.667
848.15	-300.000
848.44	-78.947
848.74	-106.667
849.04	-42.105
849.34	-366.667
849.63	-350.000
849.93	-94.118
850.23	-200.000
850.53	-500.000
850.82	-220.000
851.12	-277.778
851.42	-171.429
851.71	-280.000
852.01	-50.000
852.31	-433.333
852.61	-69.231
852.90	-280.000
853.20	-200.000
853.50	-277.778
853.79	-150.000
854.09	-130.000
854.39	-78.947
854.68	-40.000
854.98	-475.000
855.28	-50.000
855.57	-192.857
855.87	-89.474
856.17	-168.750
856.46	-53.846
856.76	-113.333
857.05	-81.250
857.35	-54.167
857.65	-105.556
857.94	-200.000
858.24	-100.000
858.53	-190.000
858.83	-933.333
859.13	-309.091
859.42	-180.000
859.72	300.000
860.01	-46.154
860.31	-180.000
860.60	-312.500
860.90	-225.000
861.20	-283.333
861.49	-400.000
861.79	1700.000
862.08	-12.903
862.38	-105.263
862.67	-7.692
862.97	-170.000
863.26	-100.000
863.56	-73.913
863.85	-366.667
864.15	-142.857
864.44	-62.500
864.74	-175.000
865.03	-233.333
865.33	-400.000
865.62	-2100.000
865.92	-800.000
866.21	-483.333
866.51	-100.000
866.80	-866.667
867.10	-371.429
867.39	-144.444
867.69	-116.667
867.98	340.000
868.27	-250.000
868.57	725.000
868.86	-146.667
869.16	-53.846
869.45	950.000
869.75	-283.333
870.04	-175.000
870.33	-23.529
870.63	-257.143
870.92	30.435
871.22	-200.000
871.51	700.000
871.80	-81.250
872.10	-533.333
>>>>>End Processed Spectral Data<<<<<
