SpectraSuite Data File
++++++++++++++++++++++++++++++++++++
Date: Wed May 13 19:12:36 PDT 2015
User: schluterlab
Dark Spectrum Present: Yes
Reference Spectrum Present: Yes
Number of Sampled Component Spectra: 1
Spectrometers: USB2E3373
Integration Time (usec): 3000 (USB2E3373)
Spectra Averaged: 3 (USB2E3373)
Boxcar Smoothing: 0 (USB2E3373)
Correct for Electrical Dark: No (USB2E3373)
Strobe/Lamp Enabled: No (USB2E3373)
Correct for Detector Non-linearity: No (USB2E3373)
Correct for Stray Light: No (USB2E3373)
Number of Pixels in Processed Spectrum: 2048
>>>>>Begin Processed Spectral Data<<<<<
178.53	0.000
178.91	-1525.000
179.29	-1425.000
179.67	-250.000
180.04	-1425.000
180.42	2600.000
180.80	1180.000
181.18	-1175.000
181.56	771.429
181.94	0.000
182.31	-857.143
182.69	1866.667
183.07	-575.000
183.45	-600.000
183.83	509.091
184.20	-500.000
184.58	2550.000
184.96	5400.000
185.34	-1020.000
185.72	-762.500
186.09	-2700.000
186.47	2900.000
186.85	2700.000
187.23	5000.000
187.61	-1600.000
187.98	1450.000
188.36	554.545
188.74	609.091
189.12	-1080.000
189.49	630.000
189.87	-4200.000
190.25	-1200.000
190.63	492.857
191.00	507.692
191.38	983.333
191.76	-1300.000
192.14	1650.000
192.51	662.500
192.89	1066.667
193.27	575.000
193.65	-1425.000
194.02	650.000
194.40	1000.000
194.78	570.000
195.15	500.000
195.53	660.000
195.91	-2550.000
196.29	412.500
196.66	331.579
197.04	-510.000
197.42	0.000
197.79	690.000
198.17	-5500.000
198.55	828.571
198.92	775.000
199.30	1200.000
199.68	0.000
200.05	366.667
200.43	1028.571
200.81	5200.000
201.18	1733.333
201.56	-2000.000
201.94	611.111
202.31	666.667
202.69	500.000
203.07	560.000
203.44	0.000
203.82	1650.000
204.19	900.000
204.57	485.714
204.95	762.500
205.32	1900.000
205.70	609.091
206.08	414.286
206.45	3000.000
206.83	387.500
207.20	1133.333
207.58	920.000
207.96	355.556
208.33	762.500
208.71	-1033.333
209.08	857.143
209.46	733.333
209.84	563.636
210.21	-1866.667
210.59	1750.000
210.96	-625.000
211.34	2550.000
211.71	650.000
212.09	1000.000
212.46	0.000
212.84	2200.000
213.22	1650.000
213.59	-4600.000
213.97	866.667
214.34	771.429
214.72	600.000
215.09	1220.000
215.47	-2350.000
215.84	-2650.000
216.22	1666.667
216.59	478.571
216.97	1425.000
217.34	554.545
217.72	-966.667
218.09	0.000
218.47	-6800.000
218.84	700.000
219.22	800.000
219.59	1866.667
219.97	-800.000
220.34	1180.000
220.72	-1933.333
221.09	442.857
221.47	1525.000
221.84	-983.333
222.22	0.000
222.59	1300.000
222.97	-2800.000
223.34	1360.000
223.72	407.692
224.09	1240.000
224.46	2650.000
224.84	-5800.000
225.21	-1060.000
225.59	-4800.000
225.96	710.000
226.34	320.000
226.71	3550.000
227.08	775.000
227.46	610.000
227.83	-1350.000
228.21	-2850.000
228.58	722.222
228.95	-3000.000
229.33	-2700.000
229.70	1633.333
230.08	885.714
230.45	-1120.000
230.82	525.000
231.20	983.333
231.57	871.429
231.95	500.000
232.32	295.455
232.69	581.818
233.07	857.143
233.44	423.077
233.81	-2100.000
234.19	347.368
234.56	566.667
234.93	533.333
235.31	745.455
235.68	438.462
236.05	478.571
236.43	218.182
236.80	342.105
237.17	6900.000
237.55	304.762
237.92	289.286
238.29	319.048
238.67	209.677
239.04	255.172
239.41	222.222
239.79	178.261
240.16	214.286
240.53	211.364
240.91	154.902
241.28	180.000
241.65	178.000
242.02	142.029
242.40	166.129
242.77	151.667
243.14	132.258
243.51	124.719
243.89	132.941
244.26	131.111
244.63	111.828
245.00	107.447
245.38	118.812
245.75	114.019
246.12	111.009
246.49	102.190
246.87	116.000
247.24	115.385
247.61	97.857
247.98	94.118
248.36	92.568
248.73	94.904
249.10	102.548
249.47	84.746
249.84	92.513
250.22	83.957
250.59	94.675
250.96	100.000
251.33	84.834
251.70	97.030
252.08	87.619
252.45	86.996
252.82	86.087
253.19	87.234
253.56	82.353
253.94	86.307
254.31	77.734
254.68	82.692
255.05	82.288
255.42	83.333
255.79	82.353
256.16	83.394
256.54	80.919
256.91	85.765
257.28	78.058
257.65	78.548
258.02	76.708
258.39	75.710
258.76	74.916
259.14	77.679
259.51	74.468
259.88	80.435
260.25	78.852
260.62	72.832
260.99	79.814
261.36	75.676
261.73	76.791
262.10	77.035
262.47	75.211
262.85	74.373
263.22	75.783
263.59	79.202
263.96	73.626
264.33	71.802
264.70	75.000
265.07	72.634
265.44	75.758
265.81	69.100
266.18	73.618
266.55	73.415
266.92	74.201
267.29	72.685
267.66	72.477
268.03	69.545
268.40	71.963
268.77	71.360
269.14	72.973
269.51	72.009
269.88	74.359
270.25	69.752
270.62	69.663
270.99	72.043
271.36	70.601
271.73	73.131
272.10	72.174
272.47	69.247
272.84	68.182
273.21	68.344
273.58	68.996
273.95	66.457
274.32	67.975
274.69	67.666
275.06	66.142
275.43	71.915
275.80	68.537
276.17	69.043
276.54	67.983
276.91	69.170
277.28	68.750
277.65	68.665
278.02	70.600
278.39	70.508
278.76	65.455
279.13	64.717
279.50	64.991
279.87	67.530
280.23	67.066
280.60	67.505
280.97	68.022
281.34	67.257
281.71	64.364
282.08	66.795
282.45	62.182
282.82	63.588
283.19	62.567
283.56	65.439
283.92	66.159
284.29	64.021
284.66	62.069
285.03	65.461
285.40	63.908
285.77	64.646
286.14	62.867
286.51	62.500
286.87	62.222
287.24	62.541
287.61	60.835
287.98	61.364
288.35	60.697
288.72	59.034
289.08	61.189
289.45	59.143
289.82	59.187
290.19	57.300
290.56	57.887
290.93	56.647
291.29	58.129
291.66	56.195
292.03	56.686
292.40	57.269
292.77	54.290
293.13	54.030
293.50	57.434
293.87	53.185
294.24	54.222
294.60	55.459
294.97	54.215
295.34	53.738
295.71	53.693
296.08	51.425
296.44	50.894
296.81	49.802
297.18	52.439
297.55	50.132
297.91	50.000
298.28	52.209
298.65	50.131
299.02	51.779
299.38	51.926
299.75	50.135
300.12	49.425
300.48	49.500
300.85	48.952
301.22	49.809
301.59	46.465
301.95	48.111
302.32	48.909
302.69	45.878
303.05	47.394
303.42	47.160
303.79	45.866
304.15	46.853
304.52	45.539
304.89	45.296
305.25	45.708
305.62	45.866
305.99	47.226
306.35	46.309
306.72	44.843
307.09	44.173
307.45	44.820
307.82	44.866
308.19	44.812
308.55	45.415
308.92	44.468
309.29	45.195
309.65	43.902
310.02	44.292
310.38	45.699
310.75	43.823
311.12	44.729
311.48	45.246
311.85	43.187
312.22	45.682
312.58	43.451
312.95	45.301
313.31	43.689
313.68	46.570
314.05	45.957
314.41	44.724
314.78	44.109
315.14	43.893
315.51	44.799
315.87	45.446
316.24	45.680
316.61	43.372
316.97	43.836
317.34	44.814
317.70	44.073
318.07	46.776
318.43	47.358
318.80	46.111
319.16	46.516
319.53	45.872
319.89	47.238
320.26	49.000
320.62	47.123
320.99	47.980
321.35	47.778
321.72	48.871
322.08	47.976
322.45	52.139
322.81	49.806
323.18	51.252
323.54	50.278
323.91	49.906
324.27	49.809
324.64	49.674
325.00	49.775
325.37	50.955
325.73	51.077
326.10	51.456
326.46	50.717
326.83	52.373
327.19	52.263
327.56	51.481
327.92	53.806
328.29	52.706
328.65	54.604
329.01	52.076
329.38	54.579
329.74	54.571
330.11	54.854
330.47	55.647
330.84	53.860
331.20	54.554
331.56	54.771
331.93	56.574
332.29	54.481
332.66	53.274
333.02	55.210
333.38	55.285
333.75	54.902
334.11	54.893
334.48	55.812
334.84	55.882
335.20	56.455
335.57	54.125
335.93	54.286
336.29	56.593
336.66	56.628
337.02	55.566
337.38	54.815
337.75	55.526
338.11	55.953
338.47	57.643
338.84	56.187
339.20	56.239
339.56	56.752
339.93	55.909
340.29	56.431
340.65	55.793
341.02	56.108
341.38	55.516
341.74	57.105
342.11	56.245
342.47	56.740
342.83	56.079
343.20	56.537
343.56	56.108
343.92	57.018
344.28	56.888
344.65	57.438
345.01	55.808
345.37	54.803
345.73	57.614
346.10	56.607
346.46	55.593
346.82	56.590
347.19	56.642
347.55	56.076
347.91	57.686
348.27	56.861
348.63	57.107
349.00	56.392
349.36	56.158
349.72	56.455
350.08	56.807
350.45	57.852
350.81	56.133
351.17	56.969
351.53	57.166
351.89	56.023
352.26	56.985
352.62	58.380
352.98	58.266
353.34	57.601
353.70	58.183
354.07	58.306
354.43	57.143
354.79	57.522
355.15	58.180
355.51	58.034
355.87	60.490
356.24	58.143
356.60	57.338
356.96	59.292
357.32	57.482
357.68	58.504
358.04	57.720
358.40	58.591
358.77	57.746
359.13	58.327
359.49	60.471
359.85	58.810
360.21	59.490
360.57	60.623
360.93	61.154
361.29	58.957
361.66	59.520
362.02	58.806
362.38	59.696
362.74	60.417
363.10	59.363
363.46	60.675
363.82	62.358
364.18	60.352
364.54	62.481
364.90	60.765
365.26	61.544
365.62	63.404
365.98	60.628
366.35	60.673
366.71	62.039
367.07	62.491
367.43	62.337
367.79	62.741
368.15	62.931
368.51	63.372
368.87	64.383
369.23	63.424
369.59	64.881
369.95	64.485
370.31	63.248
370.67	62.971
371.03	66.067
371.39	65.015
371.75	65.515
372.11	63.798
372.47	66.642
372.83	67.075
373.19	65.535
373.55	66.741
373.91	68.041
374.27	65.086
374.63	67.855
374.99	67.655
375.35	67.411
375.71	67.101
376.07	65.912
376.42	68.776
376.78	68.522
377.14	67.843
377.50	70.000
377.86	67.952
378.22	68.078
378.58	68.108
378.94	69.579
379.30	72.774
379.66	69.480
380.02	70.639
380.38	70.917
380.74	71.969
381.09	72.311
381.45	72.280
381.81	71.929
382.17	72.803
382.53	72.327
382.89	72.099
383.25	73.233
383.61	74.907
383.97	73.796
384.32	73.612
384.68	73.420
385.04	73.755
385.40	74.427
385.76	73.833
386.12	74.093
386.48	77.093
386.83	76.523
387.19	77.365
387.55	77.860
387.91	76.239
388.27	77.560
388.62	77.566
388.98	76.720
389.34	77.847
389.70	76.763
390.06	79.087
390.42	78.794
390.77	79.198
391.13	80.217
391.49	79.442
391.85	77.721
392.20	80.568
392.56	80.114
392.92	80.695
393.28	80.355
393.64	80.576
393.99	80.024
394.35	81.452
394.71	80.489
395.07	79.875
395.42	82.077
395.78	81.552
396.14	80.323
396.50	81.391
396.85	82.200
397.21	81.689
397.57	82.393
397.92	83.834
398.28	81.839
398.64	81.840
399.00	81.925
399.35	83.249
399.71	81.887
400.07	83.442
400.42	83.436
400.78	82.388
401.14	83.354
401.49	84.478
401.85	83.001
402.21	81.257
402.57	83.837
402.92	85.309
403.28	83.760
403.63	84.468
403.99	85.987
404.35	84.848
404.70	83.873
405.06	84.275
405.42	85.402
405.77	84.971
406.13	83.804
406.49	83.146
406.84	83.225
407.20	85.225
407.55	86.407
407.91	88.400
408.27	86.981
408.62	85.731
408.98	84.743
409.34	85.855
409.69	85.613
410.05	86.431
410.40	86.483
410.76	85.544
411.11	85.887
411.47	85.240
411.83	86.805
412.18	85.900
412.54	86.924
412.89	86.807
413.25	86.128
413.60	86.597
413.96	84.214
414.31	85.905
414.67	87.072
415.03	88.212
415.38	85.631
415.74	87.010
416.09	88.308
416.45	86.680
416.80	87.508
417.16	87.735
417.51	88.321
417.87	86.705
418.22	87.066
418.58	87.153
418.93	86.609
419.29	87.269
419.64	88.917
420.00	87.805
420.35	86.319
420.71	87.806
421.06	85.084
421.42	86.608
421.77	87.276
422.12	87.310
422.48	86.454
422.83	87.536
423.19	86.022
423.54	87.057
423.90	86.957
424.25	87.046
424.61	85.714
424.96	88.571
425.31	86.323
425.67	83.876
426.02	84.686
426.38	88.339
426.73	86.542
427.09	88.085
427.44	86.774
427.79	87.177
428.15	87.440
428.50	86.893
428.85	87.008
429.21	85.919
429.56	86.988
429.92	84.499
430.27	85.055
430.62	85.765
430.98	86.508
431.33	85.000
431.68	87.068
432.04	85.836
432.39	87.264
432.74	87.612
433.10	87.493
433.45	87.230
433.80	86.086
434.16	86.111
434.51	85.000
434.86	85.234
435.22	85.714
435.57	85.653
435.92	85.020
436.28	88.493
436.63	84.934
436.98	84.659
437.34	85.033
437.69	86.173
438.04	85.835
438.39	86.687
438.75	86.345
439.10	86.201
439.45	85.124
439.81	87.372
440.16	85.093
440.51	86.526
440.86	86.914
441.22	86.151
441.57	84.926
441.92	86.336
442.27	84.338
442.63	84.202
442.98	85.465
443.33	84.130
443.68	83.893
444.03	84.675
444.39	84.469
444.74	85.498
445.09	83.989
445.44	83.762
445.79	84.018
446.15	83.801
446.50	83.899
446.85	84.224
447.20	82.662
447.55	85.985
447.91	85.108
448.26	84.418
448.61	84.454
448.96	84.441
449.31	84.871
449.66	84.581
450.02	84.457
450.37	84.354
450.72	83.813
451.07	82.937
451.42	84.012
451.77	84.263
452.12	83.603
452.47	83.893
452.83	84.790
453.18	83.313
453.53	85.096
453.88	83.520
454.23	84.340
454.58	85.039
454.93	86.078
455.28	82.357
455.63	82.706
455.98	83.810
456.34	84.485
456.69	84.659
457.04	84.025
457.39	82.642
457.74	83.169
458.09	83.956
458.44	83.523
458.79	80.315
459.14	83.691
459.49	83.538
459.84	82.327
460.19	81.320
460.54	80.613
460.89	82.447
461.24	84.032
461.59	82.510
461.94	82.059
462.29	82.730
462.64	81.429
462.99	81.522
463.34	81.533
463.69	82.552
464.04	82.319
464.39	79.420
464.74	81.402
465.09	81.846
465.44	81.274
465.79	79.922
466.14	78.435
466.49	78.810
466.84	80.677
467.19	78.636
467.54	79.875
467.89	79.592
468.24	79.465
468.59	80.647
468.94	79.597
469.29	80.206
469.64	80.924
469.99	81.191
470.34	80.647
470.68	80.675
471.03	80.340
471.38	80.612
471.73	79.747
472.08	80.592
472.43	79.146
472.78	79.855
473.13	78.883
473.48	79.463
473.83	79.085
474.17	78.345
474.52	79.467
474.87	78.751
475.22	78.700
475.57	77.431
475.92	78.439
476.27	76.043
476.61	76.558
476.96	77.185
477.31	77.708
477.66	76.915
478.01	76.529
478.36	78.318
478.70	76.791
479.05	77.263
479.40	77.021
479.75	77.173
480.10	76.342
480.45	75.297
480.79	74.964
481.14	76.272
481.49	76.222
481.84	75.126
482.19	75.738
482.53	74.174
482.88	75.430
483.23	75.421
483.58	75.023
483.92	75.492
484.27	72.636
484.62	74.655
484.97	73.394
485.31	73.733
485.66	71.386
486.01	68.699
486.36	66.645
486.70	66.069
487.05	67.366
487.40	69.459
487.75	68.949
488.09	71.216
488.44	71.548
488.79	72.514
489.13	73.453
489.48	72.023
489.83	73.069
490.17	73.170
490.52	73.206
490.87	72.637
491.22	71.305
491.56	70.752
491.91	70.917
492.26	70.648
492.60	70.968
492.95	71.048
493.30	70.794
493.64	71.442
493.99	71.077
494.34	70.722
494.68	72.390
495.03	70.630
495.37	70.638
495.72	71.442
496.07	71.090
496.41	68.407
496.76	69.745
497.11	70.329
497.45	69.725
497.80	69.194
498.14	69.565
498.49	69.610
498.84	68.840
499.18	69.429
499.53	68.519
499.87	69.245
500.22	69.147
500.56	69.854
500.91	68.798
501.26	68.611
501.60	69.625
501.95	66.911
502.29	69.166
502.64	68.203
502.98	67.228
503.33	66.956
503.67	66.497
504.02	68.943
504.36	67.197
504.71	68.686
505.06	67.373
505.40	66.991
505.75	67.068
506.09	66.958
506.44	67.736
506.78	66.975
507.13	68.097
507.47	66.970
507.82	66.261
508.16	67.680
508.51	67.783
508.85	66.385
509.19	67.908
509.54	66.224
509.88	65.482
510.23	66.427
510.57	66.925
510.92	66.080
511.26	66.752
511.61	65.664
511.95	63.831
512.30	65.801
512.64	64.535
512.98	66.131
513.33	65.471
513.67	65.155
514.02	66.234
514.36	66.903
514.70	64.804
515.05	65.756
515.39	65.171
515.74	64.809
516.08	64.561
516.42	64.095
516.77	65.329
517.11	64.706
517.46	64.673
517.80	66.260
518.14	64.794
518.49	65.519
518.83	64.773
519.17	64.492
519.52	64.573
519.86	64.860
520.20	64.624
520.55	65.530
520.89	66.484
521.23	66.104
521.58	65.186
521.92	64.605
522.26	63.026
522.61	65.047
522.95	63.597
523.29	65.064
523.64	64.634
523.98	64.572
524.32	63.993
524.66	64.101
525.01	64.277
525.35	64.498
525.69	63.300
526.04	63.614
526.38	64.552
526.72	62.761
527.06	64.658
527.41	62.624
527.75	63.344
528.09	64.804
528.43	63.862
528.78	61.647
529.12	61.515
529.46	61.972
529.80	62.933
530.15	62.741
530.49	62.523
530.83	62.278
531.17	64.883
531.51	63.813
531.86	61.806
532.20	62.060
532.54	62.332
532.88	62.067
533.22	61.087
533.57	61.049
533.91	60.987
534.25	61.482
534.59	61.013
534.93	59.607
535.27	58.660
535.62	60.134
535.96	61.519
536.30	60.903
536.64	60.786
536.98	61.513
537.32	60.303
537.66	60.267
538.01	61.488
538.35	60.957
538.69	61.455
539.03	59.194
539.37	58.594
539.71	59.170
540.05	60.065
540.39	60.199
540.73	58.473
541.07	60.286
541.42	60.796
541.76	59.806
542.10	60.026
542.44	59.603
542.78	60.211
543.12	58.861
543.46	59.082
543.80	59.336
544.14	58.087
544.48	57.587
544.82	57.024
545.16	58.881
545.50	57.519
545.84	58.804
546.18	57.508
546.52	58.568
546.86	59.107
547.20	58.463
547.54	58.651
547.88	58.673
548.22	56.912
548.56	56.415
548.90	57.362
549.24	57.845
549.58	58.527
549.92	56.456
550.26	58.239
550.60	57.746
550.94	57.394
551.28	56.986
551.62	58.160
551.96	58.035
552.30	57.270
552.64	57.201
552.98	57.085
553.32	56.979
553.66	57.737
554.00	56.898
554.34	57.833
554.68	57.439
555.02	56.982
555.36	55.672
555.69	55.886
556.03	56.460
556.37	57.503
556.71	56.276
557.05	56.653
557.39	55.493
557.73	56.175
558.07	57.070
558.41	56.512
558.75	57.384
559.08	56.525
559.42	57.596
559.76	56.618
560.10	55.389
560.44	55.695
560.78	54.358
561.12	54.551
561.45	54.824
561.79	55.043
562.13	54.326
562.47	55.055
562.81	56.206
563.15	53.712
563.48	54.045
563.82	54.534
564.16	55.788
564.50	53.841
564.84	52.971
565.17	54.054
565.51	53.994
565.85	53.744
566.19	53.976
566.52	53.832
566.86	52.260
567.20	52.594
567.54	52.797
567.88	52.037
568.21	51.799
568.55	52.123
568.89	50.875
569.23	49.688
569.56	49.028
569.90	49.132
570.24	48.296
570.57	47.773
570.91	46.897
571.25	47.437
571.59	46.097
571.92	46.573
572.26	46.707
572.60	47.658
572.93	46.297
573.27	47.057
573.61	46.399
573.95	46.434
574.28	46.005
574.62	45.724
574.96	45.735
575.29	45.393
575.63	45.630
575.97	46.472
576.30	45.990
576.64	45.211
576.98	45.771
577.31	44.616
577.65	44.734
577.98	44.994
578.32	43.924
578.66	44.990
578.99	45.081
579.33	44.396
579.67	44.709
580.00	44.833
580.34	44.661
580.67	45.072
581.01	45.087
581.35	44.651
581.68	44.672
582.02	43.397
582.35	44.014
582.69	43.813
583.02	44.319
583.36	44.524
583.70	45.380
584.03	45.010
584.37	45.455
584.70	45.350
585.04	44.056
585.37	44.455
585.71	44.455
586.04	44.020
586.38	45.507
586.72	44.932
587.05	44.146
587.39	44.090
587.72	44.293
588.06	44.264
588.39	45.048
588.73	45.233
589.06	45.372
589.40	45.152
589.73	46.075
590.07	45.836
590.40	45.488
590.73	46.214
591.07	46.520
591.40	46.436
591.74	47.749
592.07	45.942
592.41	45.845
592.74	44.270
593.08	44.370
593.41	44.606
593.75	43.410
594.08	44.385
594.41	44.751
594.75	44.991
595.08	45.025
595.42	44.483
595.75	45.513
596.09	45.362
596.42	45.462
596.75	45.842
597.09	46.147
597.42	44.688
597.75	44.718
598.09	45.609
598.42	45.275
598.76	45.440
599.09	44.280
599.42	44.287
599.76	44.327
600.09	43.934
600.42	44.047
600.76	43.571
601.09	42.951
601.42	44.368
601.76	44.364
602.09	44.822
602.42	45.263
602.76	45.546
603.09	44.925
603.42	44.397
603.76	44.550
604.09	43.893
604.42	44.517
604.76	45.508
605.09	43.949
605.42	43.908
605.75	43.957
606.09	44.205
606.42	45.116
606.75	44.670
607.09	44.496
607.42	45.015
607.75	43.755
608.08	43.986
608.42	44.599
608.75	44.590
609.08	43.710
609.41	44.693
609.75	45.212
610.08	45.664
610.41	44.646
610.74	45.459
611.07	45.356
611.41	45.339
611.74	45.953
612.07	46.170
612.40	45.750
612.73	44.947
613.07	46.228
613.40	45.182
613.73	44.101
614.06	45.000
614.39	45.254
614.72	46.158
615.06	45.116
615.39	45.064
615.72	44.990
616.05	45.242
616.38	45.748
616.71	45.962
617.05	46.996
617.38	47.144
617.71	45.766
618.04	46.514
618.37	45.653
618.70	47.106
619.03	46.645
619.36	47.386
619.69	48.099
620.03	47.459
620.36	46.190
620.69	47.945
621.02	48.083
621.35	48.943
621.68	46.495
622.01	48.065
622.34	47.579
622.67	48.213
623.00	46.075
623.33	46.390
623.66	47.677
623.99	48.895
624.32	46.862
624.65	46.540
624.99	46.530
625.32	46.488
625.65	46.431
625.98	47.733
626.31	48.600
626.64	50.041
626.97	49.460
627.30	47.880
627.63	48.564
627.96	48.360
628.29	48.731
628.62	48.948
628.95	49.528
629.28	50.274
629.61	49.496
629.94	50.476
630.26	48.904
630.59	48.999
630.92	50.287
631.25	49.852
631.58	50.551
631.91	49.290
632.24	50.422
632.57	49.423
632.90	52.193
633.23	51.678
633.56	51.299
633.89	50.623
634.22	50.511
634.55	52.781
634.88	50.778
635.20	51.613
635.53	51.807
635.86	52.351
636.19	51.765
636.52	50.980
636.85	51.775
637.18	49.424
637.51	52.837
637.83	51.295
638.16	50.000
638.49	53.149
638.82	53.729
639.15	51.875
639.48	51.247
639.81	53.217
640.13	52.865
640.46	53.154
640.79	52.444
641.12	53.095
641.45	52.374
641.77	57.437
642.10	54.386
642.43	55.105
642.76	56.037
643.09	57.669
643.41	53.414
643.74	55.864
644.07	54.726
644.40	55.828
644.73	54.173
645.05	55.784
645.38	55.134
645.71	52.657
646.04	55.648
646.36	58.431
646.69	56.187
647.02	53.741
647.35	53.608
647.67	57.345
648.00	55.772
648.33	52.805
648.66	50.758
648.98	52.624
649.31	51.271
649.64	53.214
649.96	51.714
650.29	54.028
650.62	55.502
650.94	54.295
651.27	56.757
651.60	55.408
651.92	53.035
652.25	50.977
652.58	51.713
652.90	54.028
653.23	51.618
653.56	53.386
653.88	52.298
654.21	54.660
654.54	55.281
654.86	53.894
655.19	49.459
655.52	35.983
655.84	32.031
656.17	41.904
656.49	56.640
656.82	57.435
657.15	43.479
657.47	32.239
657.80	24.811
658.13	25.857
658.45	37.918
658.78	38.502
659.10	39.826
659.43	41.797
659.75	43.189
660.08	47.152
660.41	50.466
660.73	54.257
661.06	54.777
661.38	57.818
661.71	56.923
662.03	58.580
662.36	54.473
662.68	53.614
663.01	57.172
663.33	56.476
663.66	58.193
663.98	57.451
664.31	56.513
664.63	53.441
664.96	55.533
665.28	57.172
665.61	55.361
665.93	54.728
666.26	53.955
666.58	57.950
666.91	59.831
667.23	60.899
667.56	57.883
667.88	56.624
668.21	54.797
668.53	58.134
668.86	55.411
669.18	59.275
669.50	59.565
669.83	59.477
670.15	59.111
670.48	55.773
670.80	57.974
671.13	56.051
671.45	56.383
671.77	57.434
672.10	54.529
672.42	51.060
672.75	53.897
673.07	51.056
673.39	54.973
673.72	57.031
674.04	52.941
674.37	52.621
674.69	55.828
675.01	55.230
675.34	57.084
675.66	57.684
675.98	54.990
676.31	56.303
676.63	57.325
676.95	54.507
677.28	56.308
677.60	52.967
677.92	58.017
678.25	54.415
678.57	54.183
678.89	55.110
679.22	54.813
679.54	55.153
679.86	54.495
680.18	53.131
680.51	52.837
680.83	51.779
681.15	53.962
681.48	52.741
681.80	52.418
682.12	53.257
682.44	50.677
682.77	55.601
683.09	57.725
683.41	55.211
683.73	55.408
684.06	52.479
684.38	51.663
684.70	53.682
685.02	53.659
685.34	52.198
685.67	51.923
685.99	50.859
686.31	49.147
686.63	50.530
686.96	47.321
687.28	50.542
687.60	52.536
687.92	50.640
688.24	50.570
688.56	55.020
688.89	53.112
689.21	56.987
689.53	50.313
689.85	56.541
690.17	54.451
690.49	52.654
690.82	52.804
691.14	50.893
691.46	53.165
691.78	51.406
692.10	55.165
692.42	51.896
692.74	51.452
693.06	51.702
693.39	52.772
693.71	53.712
694.03	55.789
694.35	53.030
694.67	53.776
694.99	59.024
695.31	56.618
695.63	58.134
695.95	56.968
696.27	54.822
696.59	58.031
696.91	56.736
697.23	50.235
697.56	55.011
697.88	52.761
698.20	51.667
698.52	52.473
698.84	52.561
699.16	52.304
699.48	55.344
699.80	55.556
700.12	57.143
700.44	57.560
700.76	58.287
701.08	60.057
701.40	55.866
701.72	61.808
702.04	59.091
702.36	55.241
702.68	59.207
703.00	53.186
703.32	56.649
703.64	56.836
703.96	61.838
704.28	59.302
704.60	60.704
704.91	59.644
705.23	57.478
705.55	63.787
705.87	60.133
706.19	60.777
706.51	57.632
706.83	60.909
707.15	58.543
707.47	58.081
707.79	56.511
708.11	56.621
708.43	51.667
708.74	54.847
709.06	56.623
709.38	56.955
709.70	57.558
710.02	57.567
710.34	57.879
710.66	57.015
710.98	60.227
711.29	53.488
711.61	57.522
711.93	56.090
712.25	63.344
712.57	64.338
712.89	59.516
713.20	55.927
713.52	60.526
713.84	58.544
714.16	58.537
714.48	57.759
714.80	58.663
715.11	57.349
715.43	54.896
715.75	56.232
716.07	58.466
716.39	55.172
716.70	59.136
717.02	62.950
717.34	59.011
717.66	64.552
717.97	66.932
718.29	60.000
718.61	63.139
718.93	64.706
719.24	60.900
719.56	54.576
719.88	58.983
720.20	61.486
720.51	59.582
720.83	62.454
721.15	58.209
721.46	59.929
721.78	65.591
722.10	61.887
722.42	62.030
722.73	65.169
723.05	63.115
723.37	62.348
723.68	64.865
724.00	59.350
724.32	64.113
724.63	65.447
724.95	65.690
725.27	60.729
725.58	64.453
725.90	64.964
726.22	59.623
726.53	56.944
726.85	58.020
727.16	63.701
727.48	61.348
727.80	62.500
728.11	57.609
728.43	58.077
728.74	59.498
729.06	63.139
729.38	61.765
729.69	57.295
730.01	56.314
730.32	59.722
730.64	53.846
730.96	56.436
731.27	58.940
731.59	56.269
731.90	54.519
732.22	53.416
732.53	56.347
732.85	57.372
733.16	54.662
733.48	59.468
733.80	56.169
734.11	61.146
734.43	58.284
734.74	53.429
735.06	51.289
735.37	55.780
735.69	55.096
736.00	61.111
736.32	56.075
736.63	55.272
736.95	61.981
737.26	55.442
737.58	53.226
737.89	57.525
738.21	58.020
738.52	60.357
738.83	53.962
739.15	58.846
739.46	62.044
739.78	55.903
740.09	52.308
740.41	54.839
740.72	53.310
741.04	60.741
741.35	57.917
741.66	65.333
741.98	63.208
742.29	72.249
742.61	65.086
742.92	65.611
743.23	63.248
743.55	62.800
743.86	63.596
744.18	68.584
744.49	69.378
744.80	63.850
745.12	66.818
745.43	59.471
745.74	65.766
746.06	66.514
746.37	61.435
746.68	65.158
747.00	71.759
747.31	66.190
747.62	66.814
747.94	62.996
748.25	59.574
748.56	66.960
748.88	67.822
749.19	68.000
749.50	67.907
749.82	57.317
750.13	55.918
750.44	59.489
750.75	58.947
751.07	57.556
751.38	58.885
751.69	56.318
752.01	62.782
752.32	59.928
752.63	58.511
752.94	60.246
753.26	66.400
753.57	56.098
753.88	64.453
754.19	57.143
754.51	60.764
754.82	58.123
755.13	55.849
755.44	60.150
755.75	56.934
756.07	59.929
756.38	55.839
756.69	55.034
757.00	56.287
757.31	50.148
757.63	50.585
757.94	50.938
758.25	47.304
758.56	48.889
758.87	49.462
759.18	53.030
759.50	52.665
759.81	51.402
760.12	52.187
760.43	52.149
760.74	52.717
761.05	50.847
761.36	52.139
761.67	55.398
761.99	54.348
762.30	56.597
762.61	54.580
762.92	61.328
763.23	58.403
763.54	64.000
763.85	59.766
764.16	65.000
764.47	60.837
764.78	58.304
765.10	49.684
765.41	53.687
765.72	54.790
766.03	54.545
766.34	53.667
766.65	63.830
766.96	65.812
767.27	69.543
767.58	70.312
767.89	70.526
768.20	77.011
768.51	64.467
768.82	66.514
769.13	60.163
769.44	52.227
769.75	59.227
770.06	56.881
770.37	69.231
770.68	64.352
770.99	62.667
771.30	55.328
771.61	56.502
771.92	61.475
772.23	63.445
772.54	66.667
772.85	72.775
773.16	63.830
773.47	70.109
773.78	69.036
774.09	70.238
774.39	69.006
774.70	72.840
775.01	76.812
775.32	78.431
775.63	69.737
775.94	80.576
776.25	82.677
776.56	85.821
776.87	83.607
777.18	81.250
777.48	85.496
777.79	76.515
778.10	76.296
778.41	88.393
778.72	72.993
779.03	67.114
779.34	74.497
779.65	76.351
779.95	74.233
780.26	79.085
780.57	78.621
780.88	87.500
781.19	81.955
781.50	73.649
781.80	77.987
782.11	66.102
782.42	69.620
782.73	71.779
783.04	72.973
783.34	88.028
783.65	87.671
783.96	91.045
784.27	76.224
784.57	67.626
784.88	83.333
785.19	82.540
785.50	85.849
785.81	90.299
786.11	90.164
786.42	86.047
786.73	91.150
787.04	88.679
787.34	93.750
787.65	97.000
787.96	87.387
788.26	80.992
788.57	97.458
788.88	88.430
789.19	77.778
789.49	90.152
789.80	80.153
790.11	93.333
790.41	97.030
790.72	110.843
791.03	104.348
791.33	100.000
791.64	90.722
791.95	97.030
792.25	108.889
792.56	102.597
792.87	117.949
793.17	116.456
793.48	103.448
793.79	114.943
794.09	107.955
794.40	81.513
794.70	86.029
795.01	69.630
795.32	81.295
795.62	77.165
795.93	81.034
796.23	92.920
796.54	108.235
796.85	110.811
797.15	128.169
797.46	128.788
797.76	113.253
798.07	102.532
798.37	123.077
798.68	118.182
798.99	105.634
799.29	107.792
799.60	87.500
799.90	112.329
800.21	123.881
800.51	120.690
800.82	135.088
801.12	132.787
801.43	121.212
801.73	113.514
802.04	136.508
802.34	118.519
802.65	106.250
802.95	125.424
803.26	135.938
803.56	101.429
803.87	104.615
804.17	116.176
804.48	153.704
804.78	113.793
805.09	116.176
805.39	146.154
805.70	132.143
806.00	129.508
806.30	109.091
806.61	103.659
806.91	88.608
807.22	106.579
807.52	114.925
807.83	114.085
808.13	128.125
808.43	133.333
808.74	106.579
809.04	123.188
809.35	108.955
809.65	122.368
809.95	140.323
810.26	128.814
810.56	131.746
810.86	184.091
811.17	169.048
811.47	123.333
811.77	131.481
812.08	147.273
812.38	150.000
812.69	188.889
812.99	188.636
813.29	159.184
813.59	154.762
813.90	161.224
814.20	125.455
814.50	100.000
814.81	120.588
815.11	155.102
815.41	132.787
815.72	166.667
816.02	143.636
816.32	178.571
816.62	165.000
816.93	168.293
817.23	190.476
817.53	168.182
817.84	209.091
818.14	167.391
818.44	166.667
818.74	194.118
819.04	170.000
819.35	188.571
819.65	200.000
819.95	275.000
820.25	295.000
820.56	179.487
820.86	147.727
821.16	153.488
821.46	194.872
821.76	170.000
822.07	228.571
822.37	192.500
822.67	184.848
822.97	143.137
823.27	250.000
823.57	191.892
823.88	205.000
824.18	250.000
824.48	169.048
824.78	232.000
825.08	270.833
825.38	186.486
825.69	173.171
825.99	245.833
826.29	203.448
826.59	197.368
826.89	186.842
827.19	211.765
827.49	267.742
827.79	181.818
828.09	159.091
828.39	165.957
828.70	148.980
829.00	211.111
829.30	206.452
829.60	182.500
829.90	340.000
830.20	232.143
830.50	295.652
830.80	273.913
831.10	243.333
831.40	236.667
831.70	243.478
832.00	238.462
832.30	237.037
832.60	381.250
832.90	226.667
833.20	507.143
833.50	232.258
833.80	251.724
834.10	218.750
834.40	238.462
834.70	372.222
835.00	376.190
835.30	202.857
835.60	415.385
835.90	234.483
836.20	457.143
836.50	248.276
836.80	224.000
837.10	191.667
837.40	257.143
837.70	423.529
838.00	277.778
838.30	361.905
838.60	328.571
838.90	253.846
839.19	295.000
839.49	471.429
839.79	410.000
840.09	305.000
840.39	314.286
840.69	273.913
840.99	300.000
841.29	640.000
841.59	450.000
841.88	387.500
842.18	227.586
842.48	357.143
842.78	256.667
843.08	295.652
843.38	231.250
843.68	800.000
843.97	230.769
844.27	248.276
844.57	361.905
844.87	425.000
845.17	207.407
845.47	1766.667
845.76	611.111
846.06	364.706
846.36	700.000
846.66	442.857
846.96	331.250
847.25	509.091
847.55	572.727
847.85	321.739
848.15	530.000
848.44	342.857
848.74	327.778
849.04	341.176
849.34	620.000
849.63	273.684
849.93	518.182
850.23	1320.000
850.53	492.857
850.82	2450.000
851.12	-5600.000
851.42	6200.000
851.71	370.000
852.01	-1500.000
852.31	287.500
852.61	2066.667
852.90	285.714
853.20	252.000
853.50	358.824
853.79	285.714
854.09	262.500
854.39	437.500
854.68	200.000
854.98	209.677
855.28	250.000
855.57	237.931
855.87	244.444
856.17	310.526
856.46	326.667
856.76	358.824
857.05	220.690
857.35	279.167
857.65	346.667
857.94	247.826
858.24	253.846
858.53	290.000
858.83	295.455
859.13	360.000
859.42	0.000
859.72	655.556
860.01	527.273
860.31	254.545
860.60	352.632
860.90	256.522
861.20	711.111
861.49	525.000
861.79	-5400.000
862.08	800.000
862.38	338.095
862.67	407.692
862.97	376.471
863.26	677.778
863.56	327.778
863.85	475.000
864.15	612.500
864.44	446.667
864.74	1100.000
865.03	812.500
865.33	263.158
865.62	563.636
865.92	492.308
866.21	525.000
866.51	0.000
866.80	518.182
867.10	1340.000
867.39	476.923
867.69	536.364
867.98	300.000
868.27	481.818
868.57	389.474
868.86	-5600.000
869.16	406.250
869.45	2600.000
869.75	-5300.000
870.04	566.667
870.33	728.571
870.63	1275.000
870.92	2900.000
871.22	900.000
871.51	400.000
871.80	271.429
872.10	457.143
>>>>>End Processed Spectral Data<<<<<
