SpectraSuite Data File
++++++++++++++++++++++++++++++++++++
Date: Wed May 13 19:27:58 PDT 2015
User: schluterlab
Dark Spectrum Present: Yes
Reference Spectrum Present: Yes
Number of Sampled Component Spectra: 1
Spectrometers: USB2E3373
Integration Time (usec): 3000 (USB2E3373)
Spectra Averaged: 3 (USB2E3373)
Boxcar Smoothing: 0 (USB2E3373)
Correct for Electrical Dark: No (USB2E3373)
Strobe/Lamp Enabled: No (USB2E3373)
Correct for Detector Non-linearity: No (USB2E3373)
Correct for Stray Light: No (USB2E3373)
Number of Pixels in Processed Spectrum: 2048
>>>>>Begin Processed Spectral Data<<<<<
178.53	0.000
178.91	-1250.000
179.29	-1600.000
179.67	-238.889
180.04	-1425.000
180.42	2600.000
180.80	1120.000
181.18	-1275.000
181.56	785.714
181.94	0.000
182.31	-642.857
182.69	1900.000
183.07	-612.500
183.45	-477.778
183.83	490.909
184.20	-400.000
184.58	2600.000
184.96	6700.000
185.34	-1040.000
185.72	-625.000
186.09	-2450.000
186.47	2550.000
186.85	2600.000
187.23	5700.000
187.61	-1566.667
187.98	1400.000
188.36	572.727
188.74	581.818
189.12	-1120.000
189.49	620.000
189.87	-4500.000
190.25	-1175.000
190.63	414.286
191.00	384.615
191.38	850.000
191.76	-1225.000
192.14	1475.000
192.51	600.000
192.89	1000.000
193.27	600.000
193.65	-1075.000
194.02	560.000
194.40	1040.000
194.78	610.000
195.15	483.333
195.53	660.000
195.91	-2250.000
196.29	412.500
196.66	331.579
197.04	-390.000
197.42	0.000
197.79	720.000
198.17	-5200.000
198.55	671.429
198.92	662.500
199.30	880.000
199.68	0.000
200.05	355.556
200.43	671.429
200.81	4000.000
201.18	1766.667
201.56	-1533.333
201.94	577.778
202.31	677.778
202.69	383.333
203.07	580.000
203.44	0.000
203.82	1525.000
204.19	900.000
204.57	500.000
204.95	737.500
205.32	1600.000
205.70	563.636
206.08	378.571
206.45	2600.000
206.83	437.500
207.20	833.333
207.58	1040.000
207.96	327.778
208.33	800.000
208.71	-750.000
209.08	800.000
209.46	688.889
209.84	527.273
210.21	-1766.667
210.59	1425.000
210.96	-587.500
211.34	2950.000
211.71	540.000
212.09	866.667
212.46	0.000
212.84	1833.333
213.22	1500.000
213.59	-4100.000
213.97	833.333
214.34	900.000
214.72	663.636
215.09	1160.000
215.47	-2300.000
215.84	-2900.000
216.22	1400.000
216.59	392.857
216.97	1375.000
217.34	490.909
217.72	-616.667
218.09	0.000
218.47	-5300.000
218.84	711.111
219.22	700.000
219.59	1933.333
219.97	-614.286
220.34	1080.000
220.72	-1600.000
221.09	485.714
221.47	1675.000
221.84	-950.000
222.22	0.000
222.59	1350.000
222.97	-2600.000
223.34	1220.000
223.72	484.615
224.09	1120.000
224.46	2300.000
224.84	-5400.000
225.21	-1100.000
225.59	-5300.000
225.96	630.000
226.34	335.000
226.71	2550.000
227.08	625.000
227.46	630.000
227.83	-1225.000
228.21	-2650.000
228.58	711.111
228.95	-2600.000
229.33	-2450.000
229.70	1866.667
230.08	814.286
230.45	-1060.000
230.82	475.000
231.20	883.333
231.57	685.714
231.95	483.333
232.32	300.000
232.69	445.455
233.07	785.714
233.44	469.231
233.81	-2033.333
234.19	342.105
234.56	575.000
234.93	450.000
235.31	445.455
235.68	430.769
236.05	385.714
236.43	206.061
236.80	252.632
237.17	5600.000
237.55	285.714
237.92	260.714
238.29	304.762
238.67	212.903
239.04	303.448
239.41	172.222
239.79	160.870
240.16	183.333
240.53	170.455
240.91	133.333
241.28	144.000
241.65	130.000
242.02	128.986
242.40	125.806
242.77	126.667
243.14	101.075
243.51	110.112
243.89	114.118
244.26	102.222
244.63	96.774
245.00	97.872
245.38	91.089
245.75	88.785
246.12	79.817
246.49	96.350
246.87	89.600
247.24	90.769
247.61	78.571
247.98	80.392
248.36	77.703
248.73	72.611
249.10	79.618
249.47	76.836
249.84	73.262
250.22	71.658
250.59	75.740
250.96	74.242
251.33	70.142
251.70	74.257
252.08	66.190
252.45	64.574
252.82	66.957
253.19	66.383
253.56	64.314
253.94	68.880
254.31	65.234
254.68	66.538
255.05	61.624
255.42	67.886
255.79	65.441
256.16	63.899
256.54	59.364
256.91	65.480
257.28	56.835
257.65	59.736
258.02	59.627
258.39	58.360
258.76	60.535
259.14	61.310
259.51	58.967
259.88	53.727
260.25	64.048
260.62	53.179
260.99	61.801
261.36	59.760
261.73	58.739
262.10	61.919
262.47	62.254
262.85	57.103
263.22	53.276
263.59	57.550
263.96	57.692
264.33	56.919
264.70	57.105
265.07	56.777
265.44	56.313
265.81	52.311
266.18	57.286
266.55	57.317
266.92	56.511
267.29	54.167
267.66	53.670
268.03	54.318
268.40	53.505
268.77	55.370
269.14	51.351
269.51	52.822
269.88	54.779
270.25	48.758
270.62	54.157
270.99	53.333
271.36	54.077
271.73	55.140
272.10	55.000
272.47	51.183
272.84	50.866
273.21	54.298
273.58	51.965
273.95	50.943
274.32	51.653
274.69	53.319
275.06	51.378
275.43	55.319
275.80	51.303
276.17	50.916
276.54	53.015
276.91	50.988
277.28	48.828
277.65	51.838
278.02	52.795
278.39	53.320
278.76	49.091
279.13	49.623
279.50	51.210
279.87	49.602
280.23	48.703
280.60	49.323
280.97	48.983
281.34	50.088
281.71	51.455
282.08	52.015
282.45	49.455
282.82	49.378
283.19	48.663
283.56	48.421
283.92	49.069
284.29	49.735
284.66	49.546
285.03	48.644
285.40	48.063
285.77	46.128
286.14	49.223
286.51	48.833
286.87	48.034
287.24	45.928
287.61	45.586
287.98	45.942
288.35	47.068
288.72	47.819
289.08	45.540
289.45	44.152
289.82	45.691
290.19	42.543
290.56	44.870
290.93	42.447
291.29	43.098
291.66	41.445
292.03	43.314
292.40	44.053
292.77	40.976
293.13	41.194
293.50	41.399
293.87	40.889
294.24	40.741
294.60	40.902
294.97	40.116
295.34	41.185
295.71	41.619
296.08	38.889
296.44	40.028
296.81	38.309
297.18	42.005
297.55	37.995
297.91	37.995
298.28	39.491
298.65	38.120
299.02	38.735
299.38	37.583
299.75	35.984
300.12	36.526
300.48	38.000
300.85	38.224
301.22	35.541
301.59	36.237
301.95	36.776
302.32	38.126
302.69	36.201
303.05	36.727
303.42	36.420
303.79	36.353
304.15	34.615
304.52	35.226
304.89	35.308
305.25	35.035
305.62	34.655
305.99	35.419
306.35	33.669
306.72	35.650
307.09	35.405
307.45	35.360
307.82	34.263
308.19	34.768
308.55	34.736
308.92	36.305
309.29	33.369
309.65	35.313
310.02	34.144
310.38	34.194
310.75	36.325
311.12	33.060
311.48	35.005
311.85	34.277
312.22	34.651
312.58	34.615
312.95	35.692
313.31	34.175
313.68	34.823
314.05	35.700
314.41	35.980
314.78	35.750
315.14	35.650
315.51	36.663
315.87	36.832
316.24	36.842
316.61	35.673
316.97	37.084
317.34	37.182
317.70	37.763
318.07	38.114
318.43	38.650
318.80	38.800
319.16	40.960
319.53	40.056
319.89	41.143
320.26	42.300
320.62	42.758
320.99	43.434
321.35	43.838
321.72	43.634
322.08	43.337
322.45	48.060
322.81	46.705
323.18	48.940
323.54	47.681
323.91	50.094
324.27	49.426
324.64	51.165
325.00	51.578
325.37	52.684
325.73	54.578
326.10	56.046
326.46	56.004
326.83	57.722
327.19	57.558
327.56	59.756
327.92	62.205
328.29	63.354
328.65	63.812
329.01	63.899
329.38	64.015
329.74	66.482
330.11	67.107
330.47	65.565
330.84	69.393
331.20	68.124
331.56	69.083
331.93	70.926
332.29	69.565
332.66	71.239
333.02	71.024
333.38	71.545
333.75	73.084
334.11	73.843
334.48	72.937
334.84	75.000
335.20	75.273
335.57	73.527
335.93	72.679
336.29	75.183
336.66	75.383
337.02	74.570
337.38	76.944
337.75	74.064
338.11	75.560
338.47	77.716
338.84	76.352
339.20	75.963
339.56	79.106
339.93	78.364
340.29	76.812
340.65	75.758
341.02	77.923
341.38	78.915
341.74	76.930
342.11	79.825
342.47	78.943
342.83	78.339
343.20	78.701
343.56	75.316
343.92	78.684
344.28	77.126
344.65	77.472
345.01	78.367
345.37	77.530
345.73	78.596
346.10	79.369
346.46	78.220
346.82	78.171
347.19	78.864
347.55	78.818
347.91	77.751
348.27	79.047
348.63	80.268
349.00	78.883
349.36	78.407
349.72	77.867
350.08	78.444
350.45	79.414
350.81	78.635
351.17	79.011
351.53	78.460
351.89	79.950
352.26	78.453
352.62	78.589
352.98	78.930
353.34	79.129
353.70	78.232
354.07	80.565
354.43	78.810
354.79	79.887
355.15	78.691
355.51	80.096
355.87	80.980
356.24	80.456
356.60	78.508
356.96	81.014
357.32	80.294
357.68	81.417
358.04	79.731
358.40	78.860
358.77	78.873
359.13	80.505
359.49	78.824
359.85	80.079
360.21	80.144
360.57	80.156
360.93	80.769
361.29	79.970
361.66	78.328
362.02	80.000
362.38	81.445
362.74	78.795
363.10	79.497
363.46	78.503
363.82	81.406
364.18	80.690
364.54	79.346
364.90	79.958
365.26	81.618
365.62	80.570
365.98	80.278
366.35	78.940
366.71	78.742
367.07	80.699
367.43	80.406
367.79	80.443
368.15	80.101
368.51	79.506
368.87	80.014
369.23	80.249
369.59	81.752
369.95	80.956
370.31	79.558
370.67	78.406
371.03	81.124
371.39	82.289
371.75	80.515
372.11	79.018
372.47	82.185
372.83	81.988
373.19	80.347
373.55	82.188
373.91	82.180
374.27	78.625
374.63	82.400
374.99	80.226
375.35	79.763
375.71	78.958
376.07	81.687
376.42	82.325
376.78	79.457
377.14	82.361
377.50	81.258
377.86	80.053
378.22	79.330
378.58	79.825
378.94	80.893
379.30	80.407
379.66	82.487
380.02	80.590
380.38	79.296
380.74	80.552
381.09	79.340
381.45	80.578
381.81	80.467
382.17	80.828
382.53	81.824
382.89	81.605
383.25	80.863
383.61	81.041
383.97	79.300
384.32	79.913
384.68	79.492
385.04	80.455
385.40	79.505
385.76	80.221
386.12	80.052
386.48	80.994
386.83	81.527
387.19	81.756
387.55	81.323
387.91	80.653
388.27	79.828
388.62	79.594
388.98	79.361
389.34	81.477
389.70	80.441
390.06	81.115
390.42	80.091
390.77	79.262
391.13	80.919
391.49	80.964
391.85	79.694
392.20	79.054
392.56	80.303
392.92	80.459
393.28	79.704
393.64	79.077
393.99	79.169
394.35	78.598
394.71	79.674
395.07	78.816
395.42	80.161
395.78	79.707
396.14	79.764
396.50	79.950
396.85	79.466
397.21	78.545
397.57	79.851
397.92	80.529
398.28	77.186
398.64	78.256
399.00	79.519
399.35	79.695
399.71	78.067
400.07	79.125
400.42	79.755
400.78	79.011
401.14	79.695
401.49	78.448
401.85	77.798
402.21	77.844
402.57	78.162
402.92	78.625
403.28	77.389
403.63	77.475
403.99	78.854
404.35	76.909
404.70	78.717
405.06	77.228
405.42	79.601
405.77	77.771
406.13	77.257
406.49	77.173
406.84	76.728
407.20	77.955
407.55	78.111
407.91	79.800
408.27	79.834
408.62	77.243
408.98	77.880
409.34	77.614
409.69	78.452
410.05	77.633
410.40	77.737
410.76	75.806
411.11	76.055
411.47	76.102
411.83	76.115
412.18	75.325
412.54	77.397
412.89	76.265
413.25	76.919
413.60	76.096
413.96	75.288
414.31	77.035
414.67	76.426
415.03	76.358
415.38	77.384
415.74	77.106
416.09	79.033
416.45	76.171
416.80	76.206
417.16	76.206
417.51	77.571
417.87	75.787
418.22	76.972
418.58	76.049
418.93	75.983
419.29	76.321
419.64	77.519
420.00	75.427
420.35	75.710
420.71	76.390
421.06	75.000
421.42	74.854
421.77	76.570
422.12	75.407
422.48	74.042
422.83	77.519
423.19	74.696
423.54	76.204
423.90	75.768
424.25	75.209
424.61	75.417
424.96	76.210
425.31	75.028
425.67	73.933
426.02	75.771
426.38	76.801
426.73	75.483
427.09	75.745
427.44	75.503
427.79	75.388
428.15	75.774
428.50	74.898
428.85	76.758
429.21	75.207
429.56	75.065
429.92	75.994
430.27	75.223
430.62	73.784
430.98	74.364
431.33	74.536
431.68	75.445
432.04	74.281
432.39	75.957
432.74	76.601
433.10	77.363
433.45	75.860
433.80	74.612
434.16	75.321
434.51	74.526
434.86	75.314
435.22	76.209
435.57	76.778
435.92	75.658
436.28	76.750
436.63	75.773
436.98	76.188
437.34	76.983
437.69	76.429
438.04	77.459
438.39	76.239
438.75	77.455
439.10	75.531
439.45	76.210
439.81	77.704
440.16	74.591
440.51	77.153
440.86	77.186
441.22	76.307
441.57	75.053
441.92	76.663
442.27	76.642
442.63	77.620
442.98	77.183
443.33	76.793
443.68	75.684
444.03	75.939
444.39	76.241
444.74	78.355
445.09	75.687
445.44	75.396
445.79	76.101
446.15	76.072
446.50	76.414
446.85	77.184
447.20	77.257
447.55	78.280
447.91	77.606
448.26	77.629
448.61	77.219
448.96	79.070
449.31	77.672
449.66	76.252
450.02	76.992
450.37	76.644
450.72	76.593
451.07	76.661
451.42	76.109
451.77	78.215
452.12	75.751
452.47	75.995
452.83	76.981
453.18	76.467
453.53	78.293
453.88	75.960
454.23	78.004
454.58	76.984
454.93	77.940
455.28	77.182
455.63	78.216
455.98	79.226
456.34	77.450
456.69	78.021
457.04	77.833
457.39	76.447
457.74	76.436
458.09	76.193
458.44	76.625
458.79	74.946
459.14	78.104
459.49	76.941
459.84	76.565
460.19	77.136
460.54	75.116
460.89	77.016
461.24	77.535
461.59	76.874
461.94	76.202
462.29	76.617
462.64	75.750
462.99	75.862
463.34	76.333
463.69	76.360
464.04	75.594
464.39	73.913
464.74	75.758
465.09	75.211
465.44	74.404
465.79	75.000
466.14	72.852
466.49	73.749
466.84	75.540
467.19	73.868
467.54	75.500
467.89	75.450
468.24	76.265
468.59	76.313
468.94	73.916
469.29	76.350
469.64	75.100
469.99	76.049
470.34	75.760
470.68	78.017
471.03	75.102
471.38	77.206
471.73	75.683
472.08	75.132
472.43	73.995
472.78	73.733
473.13	73.941
473.48	73.658
473.83	73.902
474.17	72.931
474.52	75.558
474.87	75.015
475.22	74.637
475.57	72.112
475.92	72.862
476.27	73.506
476.61	72.863
476.96	74.491
477.31	73.208
477.66	73.851
478.01	71.145
478.36	72.396
478.70	72.430
479.05	73.695
479.40	73.183
479.75	73.055
480.10	72.515
480.45	72.156
480.79	72.623
481.14	72.798
481.49	72.330
481.84	72.474
482.19	71.695
482.53	71.972
482.88	72.034
483.23	72.804
483.58	72.566
483.92	72.259
484.27	71.198
484.62	70.776
484.97	69.294
485.31	71.062
485.66	68.092
486.01	66.157
486.36	64.438
486.70	64.513
487.05	65.922
487.40	67.875
487.75	68.428
488.09	70.822
488.44	70.414
488.79	71.682
489.13	71.658
489.48	71.044
489.83	70.436
490.17	70.890
490.52	70.283
490.87	70.963
491.22	70.487
491.56	68.838
491.91	69.567
492.26	69.499
492.60	70.092
492.95	69.411
493.30	69.720
493.64	71.629
493.99	68.942
494.34	70.167
494.68	69.963
495.03	70.536
495.37	68.962
495.72	69.883
496.07	69.745
496.41	67.876
496.76	68.382
497.11	68.122
497.45	69.306
497.80	69.722
498.14	69.179
498.49	69.902
498.84	69.223
499.18	69.333
499.53	69.183
499.87	68.593
500.22	68.111
500.56	70.437
500.91	68.510
501.26	68.374
501.60	69.008
501.95	67.094
502.29	68.276
502.64	67.831
502.98	68.396
503.33	67.779
503.67	67.889
504.02	67.353
504.36	67.431
504.71	69.126
505.06	67.759
505.40	67.380
505.75	66.924
506.09	68.367
506.44	67.933
506.78	68.826
507.13	67.693
507.47	68.283
507.82	68.237
508.16	68.592
508.51	68.899
508.85	67.925
509.19	68.316
509.54	66.684
509.88	68.521
510.23	66.941
510.57	68.937
510.92	67.115
511.26	66.804
511.61	67.531
511.95	66.441
512.30	66.649
512.64	67.383
512.98	67.899
513.33	68.576
513.67	66.382
514.02	67.370
514.36	68.815
514.70	68.124
515.05	68.154
515.39	68.031
515.74	68.018
516.08	67.691
516.42	67.037
516.77	67.057
517.11	66.648
517.46	67.325
517.80	68.235
518.14	67.516
518.49	67.853
518.83	66.420
519.17	67.841
519.52	66.271
519.86	65.602
520.20	67.457
520.55	68.103
520.89	67.944
521.23	68.154
521.58	67.527
521.92	68.647
522.26	66.870
522.61	68.349
522.95	66.605
523.29	66.281
523.64	67.866
523.98	67.591
524.32	65.682
524.66	66.987
525.01	66.238
525.35	65.489
525.69	64.039
526.04	65.794
526.38	65.650
526.72	65.460
527.06	68.048
527.41	63.861
527.75	66.752
528.09	68.080
528.43	67.177
528.78	66.134
529.12	65.697
529.46	65.401
529.80	65.408
530.15	64.611
530.49	62.831
530.83	66.076
531.17	67.363
531.51	67.575
531.86	65.226
532.20	66.558
532.54	65.279
532.88	64.955
533.22	63.898
533.57	64.506
533.91	63.275
534.25	63.487
534.59	63.697
534.93	63.891
535.27	63.730
535.62	64.469
535.96	64.407
536.30	64.081
536.64	64.649
536.98	64.632
537.32	64.977
537.66	66.267
538.01	65.767
538.35	64.577
538.69	64.901
539.03	62.638
539.37	63.323
539.71	63.253
540.05	65.817
540.39	63.056
540.73	62.419
541.07	63.790
541.42	63.536
541.76	64.129
542.10	62.937
542.44	64.636
542.78	65.086
543.12	62.700
543.46	64.459
543.80	63.891
544.14	62.580
544.48	63.175
544.82	63.053
545.16	64.281
545.50	62.853
545.84	62.903
546.18	63.232
546.52	64.350
546.86	64.261
547.20	62.508
547.54	63.059
547.88	62.436
548.22	61.706
548.56	61.635
548.90	61.716
549.24	62.559
549.58	62.960
549.92	63.049
550.26	64.134
550.60	63.624
550.94	62.324
551.28	63.350
551.62	64.486
551.96	63.158
552.30	62.321
552.64	61.799
552.98	62.441
553.32	62.171
553.66	61.963
554.00	64.791
554.34	62.388
554.68	64.020
555.02	62.906
555.36	62.213
555.69	61.299
556.03	61.777
556.37	61.937
556.71	60.778
557.05	62.955
557.39	62.141
557.73	61.680
558.07	62.654
558.41	62.301
558.75	63.189
559.08	62.267
559.42	63.341
559.76	63.015
560.10	61.742
560.44	62.334
560.78	60.812
561.12	60.818
561.45	59.778
561.79	59.987
562.13	60.295
562.47	62.158
562.81	61.994
563.15	60.000
563.48	60.013
563.82	60.535
564.16	61.020
564.50	60.026
564.84	60.809
565.17	59.266
565.51	61.470
565.85	59.327
566.19	60.488
566.52	60.418
566.86	59.494
567.20	59.493
567.54	59.703
567.88	57.251
568.21	57.884
568.55	57.533
568.89	57.685
569.23	56.818
569.56	55.061
569.90	54.415
570.24	54.862
570.57	54.505
570.91	52.941
571.25	53.860
571.59	53.726
571.92	53.370
572.26	53.784
572.60	53.664
572.93	54.003
573.27	53.889
573.61	54.243
573.95	53.463
574.28	52.814
574.62	52.891
574.96	52.019
575.29	51.916
575.63	52.718
575.97	52.148
576.30	52.841
576.64	52.413
576.98	53.038
577.31	52.518
577.65	52.790
577.98	51.468
578.32	50.774
578.66	51.782
578.99	52.180
579.33	52.505
579.67	51.691
580.00	52.673
580.34	53.204
580.67	52.423
581.01	51.990
581.35	51.156
581.68	51.218
582.02	51.583
582.35	51.392
582.69	51.412
583.02	52.249
583.36	53.009
583.70	53.047
584.03	53.605
584.37	53.860
584.70	54.075
585.04	52.250
585.37	51.258
585.71	51.715
586.04	51.727
586.38	52.586
586.72	53.162
587.05	52.187
587.39	52.190
587.72	52.693
588.06	52.882
588.39	52.785
588.73	53.124
589.06	52.945
589.40	54.882
589.73	53.502
590.07	54.377
590.40	52.905
590.73	54.801
591.07	55.026
591.40	54.197
591.74	55.152
592.07	54.668
592.41	54.155
592.74	52.172
593.08	51.899
593.41	52.610
593.75	50.812
594.08	52.296
594.41	52.633
594.75	53.124
595.08	52.577
595.42	53.415
595.75	54.095
596.09	55.276
596.42	54.303
596.75	55.551
597.09	53.853
597.42	53.120
597.75	54.248
598.09	53.261
598.42	53.222
598.76	52.777
599.09	52.033
599.42	51.674
599.76	52.489
600.09	51.694
600.42	50.986
600.76	52.107
601.09	52.277
601.42	53.082
601.76	52.751
602.09	52.411
602.42	53.662
602.76	54.252
603.09	52.675
603.42	53.924
603.76	52.363
604.09	52.927
604.42	53.649
604.76	52.763
605.09	52.993
605.42	53.399
605.75	53.560
606.09	52.135
606.42	53.126
606.75	52.219
607.09	52.449
607.42	52.760
607.75	52.447
608.08	53.495
608.42	54.146
608.75	52.931
609.08	52.729
609.41	52.070
609.75	53.645
610.08	53.440
610.41	52.980
610.74	54.163
611.07	53.854
611.41	53.189
611.74	54.098
612.07	54.555
612.40	55.247
612.73	54.105
613.07	54.418
613.40	55.240
613.73	53.749
614.06	54.140
614.39	53.225
614.72	53.053
615.06	53.676
615.39	54.087
615.72	53.323
616.05	54.120
616.38	55.253
616.71	55.463
617.05	55.183
617.38	54.841
617.71	55.375
618.04	55.469
618.37	54.051
618.70	55.383
619.03	56.842
619.36	56.144
619.69	55.986
620.03	56.387
620.36	56.016
620.69	55.274
621.02	56.637
621.35	58.262
621.68	55.607
622.01	57.817
622.34	58.548
622.67	56.274
623.00	55.466
623.33	54.968
623.66	56.112
623.99	56.333
624.32	54.636
624.65	56.073
624.99	54.958
625.32	55.467
625.65	56.950
625.98	58.032
626.31	56.376
626.64	57.143
626.97	57.024
627.30	56.941
627.63	57.342
627.96	58.032
628.29	57.305
628.62	58.463
628.95	58.868
629.28	58.212
629.61	56.737
629.94	60.667
630.26	57.293
630.59	58.723
630.92	57.375
631.25	57.453
631.58	59.660
631.91	57.911
632.24	59.072
632.57	59.916
632.90	59.978
633.23	60.850
633.56	60.678
633.89	61.835
634.22	61.067
634.55	62.012
634.88	60.719
635.20	59.259
635.53	60.482
635.86	61.510
636.19	60.706
636.52	60.323
636.85	60.023
637.18	58.065
637.51	58.511
637.83	59.309
638.16	62.916
638.49	60.076
638.82	62.073
639.15	60.750
639.48	60.973
639.81	64.745
640.13	61.068
640.46	63.356
640.79	59.049
641.12	60.110
641.45	62.570
641.77	63.328
642.10	63.743
642.43	63.213
642.76	64.706
643.09	66.258
643.41	62.974
643.74	62.809
644.07	66.311
644.40	65.491
644.73	65.039
645.05	62.599
645.38	63.981
645.71	63.768
646.04	64.120
646.36	65.943
646.69	64.381
647.02	65.306
647.35	65.292
647.67	65.133
648.00	64.390
648.33	63.366
648.66	62.121
648.98	61.469
649.31	61.136
649.64	60.987
649.96	60.656
650.29	63.507
650.62	63.916
650.94	63.371
651.27	64.358
651.60	64.559
651.92	63.259
652.25	61.401
652.58	61.059
652.90	63.823
653.23	58.552
653.56	61.417
653.88	61.490
654.21	64.139
654.54	62.706
654.86	62.461
655.19	59.595
655.52	43.276
655.84	38.311
656.17	50.055
656.49	67.798
656.82	69.700
657.15	53.604
657.47	40.419
657.80	31.377
658.13	32.895
658.45	49.867
658.78	50.121
659.10	51.665
659.43	55.752
659.75	57.838
660.08	60.316
660.41	63.408
660.73	65.693
661.06	64.490
661.38	66.545
661.71	67.115
662.03	67.850
662.36	62.624
662.68	67.269
663.01	62.424
663.33	66.030
663.66	65.966
663.98	65.011
664.31	68.277
664.63	63.360
664.96	61.771
665.28	65.779
665.61	63.353
665.93	63.581
666.26	66.329
666.58	66.527
666.91	65.328
667.23	68.539
667.56	63.931
667.88	63.248
668.21	66.311
668.53	66.594
668.86	65.152
669.18	65.672
669.50	65.870
669.83	67.538
670.15	66.889
670.48	63.834
670.80	66.379
671.13	64.331
671.45	63.191
671.77	65.580
672.10	61.553
672.42	60.601
672.75	60.033
673.07	59.683
673.39	61.302
673.72	62.695
674.04	61.961
674.37	62.330
674.69	63.599
675.01	62.971
675.34	65.503
675.66	66.526
675.98	63.951
676.31	63.655
676.63	65.817
676.95	62.893
677.28	65.421
677.60	62.637
677.92	65.190
678.25	63.244
678.57	62.550
678.89	62.124
679.22	62.279
679.54	62.595
679.86	60.367
680.18	58.318
680.51	61.525
680.83	61.032
681.15	61.132
681.48	63.894
681.80	62.089
682.12	58.238
682.44	57.060
682.77	63.544
683.09	67.811
683.41	64.523
683.73	64.901
684.06	59.298
684.38	60.861
684.70	59.109
685.02	60.788
685.34	62.454
685.67	55.594
685.99	58.247
686.31	59.044
686.63	55.477
686.96	56.964
687.28	58.484
687.60	58.333
687.92	59.598
688.24	59.316
688.56	62.048
688.89	64.315
689.21	64.410
689.53	61.378
689.85	63.636
690.17	58.385
690.49	64.119
690.82	65.187
691.14	60.937
691.46	58.228
691.78	60.040
692.10	64.256
692.42	61.277
692.74	58.299
693.06	62.766
693.39	60.575
693.71	63.319
694.03	61.895
694.35	60.823
694.67	60.412
694.99	63.171
695.31	65.196
695.63	62.919
695.95	63.814
696.27	60.660
696.59	65.026
696.91	65.803
697.23	56.338
697.56	60.128
697.88	54.601
698.20	59.375
698.52	60.215
698.84	64.143
699.16	60.369
699.48	63.420
699.80	62.560
700.12	68.312
700.44	65.252
700.76	68.785
701.08	67.241
701.40	62.849
701.72	67.055
702.04	70.170
702.36	62.606
702.68	64.023
703.00	64.820
703.32	65.426
703.64	63.539
703.96	66.017
704.28	65.988
704.60	65.982
704.91	66.766
705.23	65.103
705.55	73.090
705.87	70.100
706.19	70.671
706.51	65.421
706.83	66.970
707.15	63.866
707.47	60.606
707.79	62.162
708.11	56.393
708.43	56.905
708.74	61.735
709.06	64.416
709.38	61.942
709.70	63.953
710.02	67.656
710.34	63.030
710.66	65.075
710.98	70.170
711.29	65.698
711.61	64.012
711.93	66.987
712.25	66.238
712.57	76.103
712.89	72.318
713.20	64.438
713.52	65.461
713.84	61.392
714.16	65.244
714.48	56.609
714.80	70.213
715.11	62.248
715.43	66.172
715.75	66.087
716.07	62.300
716.39	66.458
716.70	67.110
717.02	71.583
717.34	67.845
717.66	68.657
717.97	72.112
718.29	65.926
718.61	68.248
718.93	69.485
719.24	70.588
719.56	66.441
719.88	69.492
720.20	63.176
720.51	70.035
720.83	64.684
721.15	65.299
721.46	63.830
721.78	69.892
722.10	69.434
722.42	69.173
722.73	71.536
723.05	69.672
723.37	62.753
723.68	71.042
724.00	69.106
724.32	72.581
724.63	67.886
724.95	69.874
725.27	69.231
725.58	73.438
725.90	66.423
726.22	64.906
726.53	64.583
726.85	65.188
727.16	66.192
727.48	66.667
727.80	67.803
728.11	65.217
728.43	62.692
728.74	63.441
729.06	68.248
729.38	71.691
729.69	64.769
730.01	59.044
730.32	64.931
730.64	64.214
730.96	59.406
731.27	65.563
731.59	59.327
731.90	63.557
732.22	65.528
732.53	57.276
732.85	62.821
733.16	62.701
733.48	63.455
733.80	63.312
734.11	63.376
734.43	57.396
734.74	56.857
735.06	59.599
735.37	63.584
735.69	61.146
736.00	66.993
736.32	63.551
736.63	63.898
736.95	62.620
737.26	58.503
737.58	59.355
737.89	63.211
738.21	64.505
738.52	62.500
738.83	59.623
739.15	63.846
739.46	65.328
739.78	63.194
740.09	61.538
740.41	58.387
740.72	60.976
741.04	65.185
741.35	66.667
741.66	75.556
741.98	71.226
742.29	70.335
742.61	70.690
742.92	69.231
743.23	72.222
743.55	62.400
743.86	67.105
744.18	70.796
744.49	74.163
744.80	72.300
745.12	72.727
745.43	68.722
745.74	76.577
746.06	69.725
746.37	76.233
746.68	69.683
747.00	72.222
747.31	73.333
747.62	64.159
747.94	71.366
748.25	66.383
748.56	67.401
748.88	74.257
749.19	72.500
749.50	73.023
749.82	65.447
750.13	66.531
750.44	64.599
750.75	64.912
751.07	64.952
751.38	62.369
751.69	61.733
752.01	63.534
752.32	63.177
752.63	64.894
752.94	68.443
753.26	69.200
753.57	65.447
753.88	63.672
754.19	60.714
754.51	64.583
754.82	66.065
755.13	66.792
755.44	62.782
755.75	62.409
756.07	63.475
756.38	59.854
756.69	61.745
757.00	56.287
757.31	57.864
757.63	59.649
757.94	53.083
758.25	51.716
758.56	54.568
758.87	51.344
759.18	57.879
759.50	56.740
759.81	57.009
760.12	57.812
760.43	53.868
760.74	56.250
761.05	58.475
761.36	52.674
761.67	60.511
761.99	58.075
762.30	57.639
762.61	63.359
762.92	58.984
763.23	65.966
763.54	69.600
763.85	58.203
764.16	65.000
764.47	66.920
764.78	61.131
765.10	52.532
765.41	59.882
765.72	58.084
766.03	56.426
766.34	57.333
766.65	68.511
766.96	67.949
767.27	77.665
767.58	71.354
767.89	74.737
768.20	70.690
768.51	67.513
768.82	70.642
769.13	63.415
769.44	60.324
769.75	63.948
770.06	60.550
770.37	66.063
770.68	63.426
770.99	65.333
771.30	58.197
771.61	67.713
771.92	64.344
772.23	68.908
772.54	67.179
772.85	73.298
773.16	69.681
773.47	69.565
773.78	69.543
774.09	75.595
774.39	76.608
774.70	80.864
775.01	78.261
775.32	79.739
775.63	81.579
775.94	80.576
776.25	90.551
776.56	84.328
776.87	82.787
777.18	81.250
777.48	97.710
777.79	87.121
778.10	87.407
778.41	96.429
778.72	78.832
779.03	83.893
779.34	86.577
779.65	77.027
779.95	70.552
780.26	79.739
780.57	79.310
780.88	80.469
781.19	89.474
781.50	81.757
781.80	76.101
782.11	74.011
782.42	76.582
782.73	67.485
783.04	79.730
783.34	85.915
783.65	83.562
783.96	85.821
784.27	76.923
784.57	79.137
784.88	81.481
785.19	89.683
785.50	85.849
785.81	70.896
786.11	95.902
786.42	82.946
786.73	93.805
787.04	100.000
787.34	75.893
787.65	94.000
787.96	89.189
788.26	81.818
788.57	95.763
788.88	82.645
789.19	77.083
789.49	82.576
789.80	75.573
790.11	98.095
790.41	106.931
790.72	89.157
791.03	107.609
791.33	112.791
791.64	92.784
791.95	88.119
792.25	115.556
792.56	112.987
792.87	121.795
793.17	127.848
793.48	105.747
793.79	95.402
794.09	98.864
794.40	84.034
794.70	82.353
795.01	81.481
795.32	74.820
795.62	82.677
795.93	88.793
796.23	93.805
796.54	101.176
796.85	116.216
797.15	132.394
797.46	119.697
797.76	100.000
798.07	92.405
798.37	110.769
798.68	100.000
798.99	90.141
799.29	109.091
799.60	96.591
799.90	131.507
800.21	123.881
800.51	136.207
800.82	131.579
801.12	131.148
801.43	122.727
801.73	117.568
802.04	136.508
802.34	104.938
802.65	109.375
802.95	138.983
803.26	131.250
803.56	108.571
803.87	118.462
804.17	98.529
804.48	175.926
804.78	136.207
805.09	104.412
805.39	151.923
805.70	119.643
806.00	132.787
806.30	103.030
806.61	109.756
806.91	94.937
807.22	93.421
807.52	101.493
807.83	133.803
808.13	128.125
808.43	141.667
808.74	101.316
809.04	121.739
809.35	122.388
809.65	119.737
809.95	148.387
810.26	133.898
810.56	130.159
810.86	170.455
811.17	192.857
811.47	150.000
811.77	124.074
812.08	134.545
812.38	150.000
812.69	205.556
812.99	165.909
813.29	153.061
813.59	150.000
813.90	140.816
814.20	112.727
814.50	118.462
814.81	136.765
815.11	148.980
815.41	136.066
815.72	180.952
816.02	154.545
816.32	166.667
816.62	162.500
816.93	175.610
817.23	178.571
817.53	175.000
817.84	218.182
818.14	160.870
818.44	171.111
818.74	167.647
819.04	177.500
819.35	194.286
819.65	194.118
819.95	225.000
820.25	330.000
820.56	194.872
820.86	156.818
821.16	162.791
821.46	169.231
821.76	154.000
822.07	205.714
822.37	162.500
822.67	218.182
822.97	152.941
823.27	214.286
823.57	191.892
823.88	187.500
824.18	240.000
824.48	166.667
824.78	252.000
825.08	229.167
825.38	178.378
825.69	180.488
825.99	233.333
826.29	179.310
826.59	171.053
826.89	176.316
827.19	247.059
827.49	209.677
827.79	172.727
828.09	165.909
828.39	159.574
828.70	124.490
829.00	218.519
829.30	170.968
829.60	182.500
829.90	320.000
830.20	257.143
830.50	226.087
830.80	239.130
831.10	203.333
831.40	200.000
831.70	204.348
832.00	273.077
832.30	259.259
832.60	312.500
832.90	246.667
833.20	392.857
833.50	251.613
833.80	206.897
834.10	253.125
834.40	261.538
834.70	377.778
835.00	323.810
835.30	217.143
835.60	361.538
835.90	220.690
836.20	385.714
836.50	213.793
836.80	240.000
837.10	213.889
837.40	271.429
837.70	323.529
838.00	248.148
838.30	271.429
838.60	347.619
838.90	250.000
839.19	340.000
839.49	428.571
839.79	375.000
840.09	325.000
840.39	295.238
840.69	295.652
840.99	305.556
841.29	660.000
841.59	441.667
841.88	362.500
842.18	175.862
842.48	271.429
842.78	223.333
843.08	273.913
843.38	212.500
843.68	1050.000
843.97	215.385
844.27	244.828
844.57	352.381
844.87	368.750
845.17	248.148
845.47	1933.333
845.76	577.778
846.06	400.000
846.36	562.500
846.66	392.857
846.96	287.500
847.25	554.545
847.55	500.000
847.85	313.043
848.15	500.000
848.44	464.286
848.74	344.444
849.04	382.353
849.34	640.000
849.63	278.947
849.93	527.273
850.23	1320.000
850.53	507.143
850.82	2500.000
851.12	-4900.000
851.42	4500.000
851.71	310.000
852.01	-1800.000
852.31	262.500
852.61	2033.333
852.90	319.048
853.20	268.000
853.50	335.294
853.79	252.381
854.09	275.000
854.39	375.000
854.68	181.081
854.98	212.903
855.28	163.333
855.57	234.483
855.87	251.852
856.17	252.632
856.46	333.333
856.76	329.412
857.05	210.345
857.35	241.667
857.65	373.333
857.94	291.304
858.24	261.538
858.53	325.000
858.83	286.364
859.13	480.000
859.42	0.000
859.72	622.222
860.01	463.636
860.31	254.545
860.60	273.684
860.90	239.130
861.20	533.333
861.49	483.333
861.79	-5200.000
862.08	612.500
862.38	295.238
862.67	438.462
862.97	352.941
863.26	644.444
863.56	316.667
863.85	500.000
864.15	512.500
864.44	386.667
864.74	1050.000
865.03	675.000
865.33	326.316
865.62	490.909
865.92	500.000
866.21	333.333
866.51	0.000
866.80	518.182
867.10	1120.000
867.39	453.846
867.69	400.000
867.98	336.842
868.27	472.727
868.57	357.895
868.86	-4400.000
869.16	412.500
869.45	2350.000
869.75	-5000.000
870.04	425.000
870.33	800.000
870.63	1050.000
870.92	2800.000
871.22	842.857
871.51	364.706
871.80	280.952
872.10	435.714
>>>>>End Processed Spectral Data<<<<<
