SpectraSuite Data File
++++++++++++++++++++++++++++++++++++
Date: Wed May 13 19:23:20 PDT 2015
User: schluterlab
Dark Spectrum Present: Yes
Reference Spectrum Present: Yes
Number of Sampled Component Spectra: 1
Spectrometers: USB2E3373
Integration Time (usec): 3000 (USB2E3373)
Spectra Averaged: 3 (USB2E3373)
Boxcar Smoothing: 0 (USB2E3373)
Correct for Electrical Dark: No (USB2E3373)
Strobe/Lamp Enabled: No (USB2E3373)
Correct for Detector Non-linearity: No (USB2E3373)
Correct for Stray Light: No (USB2E3373)
Number of Pixels in Processed Spectrum: 2048
>>>>>Begin Processed Spectral Data<<<<<
178.53	0.000
178.91	-1425.000
179.29	-1450.000
179.67	-288.889
180.04	-1275.000
180.42	2750.000
180.80	1180.000
181.18	-1200.000
181.56	800.000
181.94	0.000
182.31	-585.714
182.69	1733.333
183.07	-625.000
183.45	-633.333
183.83	536.364
184.20	-530.000
184.58	2350.000
184.96	5500.000
185.34	-1000.000
185.72	-737.500
186.09	-2400.000
186.47	3100.000
186.85	2300.000
187.23	5500.000
187.61	-1566.667
187.98	1575.000
188.36	690.909
188.74	536.364
189.12	-1000.000
189.49	600.000
189.87	-5100.000
190.25	-1075.000
190.63	507.143
191.00	438.462
191.38	950.000
191.76	-1175.000
192.14	1725.000
192.51	662.500
192.89	1033.333
193.27	625.000
193.65	-1300.000
194.02	610.000
194.40	1120.000
194.78	640.000
195.15	516.667
195.53	670.000
195.91	-2400.000
196.29	368.750
196.66	326.316
197.04	-370.000
197.42	0.000
197.79	650.000
198.17	-4800.000
198.55	685.714
198.92	862.500
199.30	1080.000
199.68	0.000
200.05	338.889
200.43	842.857
200.81	5200.000
201.18	2333.333
201.56	-1700.000
201.94	633.333
202.31	600.000
202.69	500.000
203.07	610.000
203.44	0.000
203.82	1575.000
204.19	842.857
204.57	464.286
204.95	625.000
205.32	1633.333
205.70	545.455
206.08	321.429
206.45	2800.000
206.83	456.250
207.20	916.667
207.58	840.000
207.96	333.333
208.33	725.000
208.71	-966.667
209.08	785.714
209.46	666.667
209.84	545.455
210.21	-1333.333
210.59	1475.000
210.96	-537.500
211.34	3100.000
211.71	650.000
212.09	783.333
212.46	0.000
212.84	1800.000
213.22	1325.000
213.59	-4800.000
213.97	883.333
214.34	800.000
214.72	627.273
215.09	1180.000
215.47	-2750.000
215.84	-2850.000
216.22	1766.667
216.59	478.571
216.97	1525.000
217.34	581.818
217.72	-716.667
218.09	0.000
218.47	-5600.000
218.84	700.000
219.22	800.000
219.59	1800.000
219.97	-671.429
220.34	1020.000
220.72	-1766.667
221.09	392.857
221.47	1550.000
221.84	-916.667
222.22	0.000
222.59	1300.000
222.97	-2800.000
223.34	1440.000
223.72	484.615
224.09	1000.000
224.46	2600.000
224.84	-5300.000
225.21	-1040.000
225.59	-5100.000
225.96	700.000
226.34	335.000
226.71	3200.000
227.08	562.500
227.46	580.000
227.83	-1125.000
228.21	-2950.000
228.58	700.000
228.95	-2900.000
229.33	-2900.000
229.70	1633.333
230.08	857.143
230.45	-840.000
230.82	450.000
231.20	966.667
231.57	728.571
231.95	483.333
232.32	272.727
232.69	518.182
233.07	885.714
233.44	384.615
233.81	-1833.333
234.19	326.316
234.56	525.000
234.93	475.000
235.31	490.909
235.68	407.692
236.05	435.714
236.43	172.727
236.80	294.737
237.17	5900.000
237.55	304.762
237.92	214.286
238.29	271.429
238.67	183.871
239.04	213.793
239.41	180.556
239.79	128.261
240.16	157.143
240.53	159.091
240.91	105.882
241.28	134.000
241.65	130.000
242.02	113.043
242.40	114.516
242.77	128.333
243.14	97.849
243.51	102.247
243.89	85.882
244.26	85.556
244.63	82.796
245.00	84.043
245.38	74.257
245.75	75.701
246.12	73.394
246.49	78.832
246.87	90.400
247.24	76.154
247.61	72.857
247.98	66.013
248.36	64.865
248.73	59.873
249.10	75.796
249.47	61.017
249.84	65.775
250.22	55.615
250.59	56.805
250.96	59.596
251.33	54.976
251.70	63.861
252.08	58.571
252.45	55.605
252.82	50.000
253.19	57.447
253.56	52.941
253.94	58.506
254.31	53.516
254.68	51.923
255.05	51.292
255.42	52.439
255.79	53.309
256.16	52.708
256.54	46.996
256.91	50.890
257.28	46.043
257.65	44.224
258.02	50.932
258.39	45.110
258.76	46.823
259.14	45.536
259.51	45.289
259.88	45.031
260.25	49.245
260.62	45.954
260.99	49.068
261.36	48.348
261.73	45.272
262.10	44.186
262.47	48.732
262.85	44.847
263.22	44.729
263.59	43.590
263.96	46.429
264.33	45.170
264.70	45.263
265.07	43.990
265.44	44.444
265.81	42.579
266.18	43.970
266.55	43.902
266.92	44.717
267.29	44.907
267.66	40.138
268.03	41.591
268.40	42.757
268.77	43.675
269.14	43.468
269.51	39.955
269.88	42.424
270.25	40.858
270.62	43.371
270.99	45.161
271.36	42.704
271.73	41.121
272.10	40.870
272.47	43.656
272.84	41.558
273.21	39.832
273.58	41.703
273.95	38.574
274.32	39.876
274.69	39.829
275.06	37.008
275.43	38.298
275.80	42.485
276.17	42.159
276.54	41.164
276.91	38.538
277.28	38.477
277.65	38.298
278.02	41.822
278.39	40.234
278.76	38.545
279.13	40.000
279.50	38.547
279.87	38.048
280.23	40.519
280.60	38.104
280.97	39.372
281.34	38.230
281.71	38.182
282.08	39.731
282.45	40.727
282.82	41.563
283.19	37.968
283.56	38.947
283.92	39.425
284.29	37.213
284.66	37.931
285.03	38.879
285.40	37.324
285.77	38.552
286.14	36.442
286.51	37.667
286.87	35.214
287.24	37.134
287.61	35.795
287.98	37.500
288.35	32.805
288.72	35.358
289.08	36.776
289.45	37.562
289.82	33.821
290.19	32.025
290.56	34.456
290.93	33.082
291.29	34.049
291.66	32.448
292.03	33.721
292.40	35.683
292.77	32.544
293.13	32.537
293.50	32.216
293.87	32.148
294.24	30.963
294.60	31.732
294.97	30.233
295.34	31.171
295.71	30.682
296.08	30.057
296.44	31.224
296.81	29.458
297.18	31.978
297.55	28.760
297.91	29.288
298.28	32.530
298.65	31.723
299.02	29.381
299.38	29.482
299.75	28.571
300.12	27.714
300.48	28.500
300.85	30.333
301.22	29.554
301.59	28.535
301.95	28.463
302.32	29.012
302.69	28.674
303.05	29.939
303.42	28.642
303.79	27.520
304.15	26.807
304.52	25.956
304.89	26.365
305.25	27.378
305.62	28.199
305.99	27.509
306.35	28.300
306.72	27.578
307.09	26.859
307.45	28.153
307.82	26.897
308.19	27.263
308.55	29.126
308.92	25.779
309.29	26.927
309.65	26.511
310.02	27.590
310.38	26.559
310.75	28.828
311.12	26.919
311.48	27.586
311.85	27.883
312.22	28.408
312.58	26.819
312.95	27.561
313.31	28.155
313.68	28.690
314.05	29.290
314.41	29.146
314.78	28.298
315.14	29.394
315.51	30.175
315.87	29.604
316.24	29.891
316.61	30.214
316.97	30.333
317.34	29.843
317.70	31.453
318.07	31.184
318.43	32.192
318.80	31.396
319.16	31.356
319.53	31.614
319.89	32.762
320.26	33.900
320.62	34.226
320.99	33.535
321.35	34.242
321.72	35.832
322.08	35.735
322.45	37.413
322.81	38.372
323.18	39.306
323.54	39.889
323.91	38.679
324.27	40.440
324.64	39.329
325.00	38.593
325.37	40.855
325.73	42.819
326.10	42.983
326.46	43.996
326.83	43.227
327.19	44.833
327.56	45.296
327.92	45.669
328.29	46.051
328.65	47.698
329.01	46.931
329.38	49.306
329.74	48.384
330.11	49.764
330.47	50.413
330.84	50.735
331.20	50.546
331.56	50.000
331.93	51.667
332.29	48.891
332.66	51.504
333.02	50.548
333.38	53.297
333.75	50.535
334.11	50.979
334.48	53.150
334.84	52.298
335.20	52.636
335.57	52.312
335.93	51.429
336.29	53.571
336.66	53.742
337.02	50.769
337.38	52.778
337.75	51.248
338.11	53.805
338.47	54.972
338.84	54.537
339.20	52.936
339.56	54.745
339.93	55.000
340.29	53.442
340.65	52.941
341.02	54.450
341.38	54.626
341.74	53.158
342.11	54.760
342.47	53.480
342.83	53.938
343.20	54.545
343.56	53.412
343.92	54.912
344.28	55.102
344.65	55.718
345.01	53.872
345.37	53.345
345.73	53.553
346.10	54.987
346.46	54.068
346.82	53.789
347.19	54.553
347.55	51.478
347.91	55.259
348.27	54.560
348.63	55.017
349.00	53.074
349.36	56.076
349.72	54.290
350.08	54.052
350.45	55.248
350.81	54.427
351.17	55.186
351.53	55.610
351.89	54.125
352.26	56.748
352.62	54.771
352.98	54.295
353.34	54.643
353.70	55.401
354.07	54.677
354.43	53.968
354.79	55.109
355.15	55.307
355.51	55.556
355.87	57.224
356.24	56.515
356.60	55.012
356.96	55.672
357.32	54.783
357.68	56.142
358.04	55.265
358.40	55.582
358.77	56.103
359.13	54.775
359.49	53.804
359.85	55.000
360.21	55.343
360.57	55.097
360.93	55.385
361.29	55.026
361.66	54.489
362.02	54.851
362.38	56.730
362.74	55.729
363.10	53.590
363.46	55.246
363.82	55.253
364.18	54.552
364.54	56.166
364.90	56.020
365.26	54.265
365.62	55.296
365.98	55.588
366.35	54.728
366.71	55.387
367.07	55.062
367.43	57.547
367.79	56.674
368.15	56.537
368.51	54.797
368.87	55.746
369.23	55.816
369.59	56.698
369.95	55.882
370.31	54.772
370.67	55.072
371.03	56.404
371.39	56.997
371.75	56.397
372.11	54.196
372.47	56.891
372.83	57.205
373.19	55.925
373.55	57.132
373.91	58.174
374.27	55.670
374.63	56.655
374.99	56.427
375.35	55.967
375.71	55.312
376.07	56.516
376.42	57.084
376.78	55.997
377.14	56.038
377.50	56.358
377.86	56.117
378.22	56.953
378.58	55.326
378.94	56.065
379.30	55.725
379.66	57.170
380.02	55.958
380.38	54.888
380.74	55.402
381.09	56.540
381.45	56.361
381.81	56.020
382.17	56.815
382.53	56.478
382.89	57.037
383.25	56.848
383.61	56.691
383.97	57.348
384.32	56.269
384.68	55.143
385.04	56.054
385.40	55.913
385.76	55.283
386.12	56.671
386.48	55.821
386.83	57.152
387.19	57.576
387.55	56.030
387.91	56.227
388.27	55.181
388.62	56.484
388.98	55.590
389.34	56.696
389.70	57.082
390.06	55.387
390.42	57.069
390.77	56.107
391.13	56.733
391.49	56.282
391.85	55.697
392.20	55.331
392.56	56.187
392.92	56.210
393.28	55.385
393.64	56.475
393.99	55.223
394.35	55.025
394.71	55.709
395.07	56.262
395.42	56.242
395.78	55.471
396.14	55.556
396.50	55.702
396.85	54.736
397.21	54.932
397.57	55.673
397.92	55.228
398.28	53.812
398.64	54.839
399.00	54.449
399.35	53.976
399.71	54.919
400.07	54.820
400.42	55.215
400.78	55.609
401.14	54.756
401.49	54.507
401.85	54.144
402.21	53.892
402.57	55.028
402.92	54.729
403.28	54.591
403.63	55.384
403.99	53.885
404.35	53.939
404.70	54.736
405.06	52.650
405.42	54.710
405.77	53.143
406.13	52.596
406.49	53.755
406.84	54.046
407.20	53.723
407.55	53.606
407.91	52.667
408.27	54.371
408.62	53.040
408.98	53.554
409.34	54.367
409.69	53.935
410.05	53.284
410.40	53.639
410.76	54.241
411.11	53.257
411.47	52.652
411.83	52.841
412.18	53.680
412.54	53.674
412.89	54.096
413.25	53.188
413.60	53.428
413.96	52.216
414.31	53.159
414.67	53.422
415.03	52.781
415.38	53.673
415.74	52.605
416.09	55.650
416.45	52.744
416.80	53.206
417.16	53.820
417.51	53.086
417.87	52.987
418.22	53.628
418.58	53.583
418.93	53.931
419.29	53.278
419.64	54.282
420.00	53.659
420.35	53.797
420.71	53.138
421.06	51.790
421.42	51.988
421.77	53.475
422.12	52.106
422.48	52.455
422.83	52.999
423.19	52.818
423.54	53.279
423.90	53.623
424.25	52.708
424.61	51.429
424.96	52.711
425.31	52.602
425.67	50.955
426.02	51.714
426.38	54.151
426.73	52.253
427.09	53.252
427.44	52.559
427.79	52.041
428.15	53.214
428.50	52.311
428.85	52.503
429.21	52.623
429.56	51.737
429.92	52.743
430.27	52.532
430.62	51.613
430.98	52.517
431.33	52.010
431.68	52.670
432.04	51.757
432.39	52.484
432.74	53.381
433.10	53.254
433.45	54.344
433.80	52.273
434.16	51.549
434.51	51.632
434.86	53.421
435.22	53.029
435.57	53.313
435.92	53.657
436.28	52.847
436.63	53.974
436.98	53.349
437.34	54.383
437.69	54.492
438.04	53.120
438.39	53.134
438.75	53.748
439.10	53.575
439.45	52.597
439.81	54.018
440.16	52.851
440.51	54.013
440.86	54.198
441.22	53.226
441.57	52.919
441.92	54.708
442.27	53.175
442.63	53.239
442.98	53.859
443.33	52.880
443.68	53.020
444.03	53.148
444.39	52.093
444.74	54.167
445.09	53.208
445.44	52.542
445.79	53.538
446.15	52.197
446.50	53.312
446.85	53.751
447.20	52.983
447.55	53.769
447.91	53.668
448.26	52.922
448.61	53.703
448.96	53.599
449.31	54.499
449.66	53.067
450.02	53.983
450.37	53.685
450.72	53.582
451.07	53.016
451.42	53.374
451.77	53.083
452.12	53.406
452.47	53.420
452.83	53.322
453.18	52.689
453.53	54.113
453.88	53.574
454.23	53.198
454.58	53.180
454.93	55.118
455.28	53.242
455.63	54.551
455.98	54.524
456.34	53.580
456.69	54.602
457.04	53.375
457.39	53.653
457.74	52.641
458.09	53.191
458.44	52.737
458.79	51.898
459.14	53.330
459.49	53.415
459.84	52.244
460.19	52.622
460.54	50.752
460.89	53.264
461.24	54.220
461.59	52.876
461.94	52.158
462.29	53.709
462.64	53.031
462.99	53.025
463.34	54.133
463.69	53.096
464.04	53.217
464.39	52.406
464.74	52.050
465.09	52.774
465.44	52.133
465.79	52.349
466.14	51.724
466.49	51.057
466.84	52.072
467.19	51.961
467.54	53.062
467.89	51.741
468.24	52.065
468.59	52.076
468.94	51.863
469.29	52.314
469.64	53.614
469.99	53.451
470.34	53.236
470.68	54.526
471.03	52.381
471.38	53.231
471.73	52.965
472.08	52.961
472.43	51.382
472.78	51.745
473.13	52.888
473.48	51.248
473.83	52.317
474.17	50.840
474.52	52.233
474.87	52.831
475.22	51.712
475.57	51.263
475.92	51.195
476.27	52.029
476.61	51.848
476.96	51.842
477.31	50.602
477.66	50.930
478.01	50.183
478.36	51.137
478.70	50.571
479.05	49.947
479.40	50.768
479.75	50.941
480.10	50.000
480.45	49.833
480.79	49.355
481.14	49.609
481.49	50.403
481.84	50.251
482.19	50.341
482.53	49.358
482.88	49.651
483.23	50.093
483.58	50.091
483.92	50.375
484.27	47.233
484.62	49.397
484.97	48.680
485.31	48.801
485.66	47.468
486.01	45.394
486.36	44.248
486.70	43.594
487.05	44.429
487.40	45.914
487.75	47.317
488.09	47.012
488.44	47.698
488.79	49.078
489.13	49.389
489.48	48.491
489.83	48.209
490.17	48.444
490.52	48.051
490.87	48.213
491.22	48.204
491.56	47.973
491.91	48.395
492.26	48.415
492.60	48.387
492.95	47.708
493.30	48.131
493.64	47.877
493.99	47.493
494.34	48.011
494.68	48.168
495.03	48.590
495.37	48.720
495.72	48.392
496.07	48.863
496.41	47.522
496.76	47.537
497.11	47.321
497.45	47.555
497.80	48.560
498.14	47.633
498.49	48.537
498.84	48.035
499.18	47.333
499.53	47.341
499.87	48.043
500.22	46.632
500.56	48.252
500.91	47.692
501.26	47.416
501.60	48.268
501.95	46.242
502.29	46.907
502.64	47.672
502.98	46.985
503.33	46.161
503.67	46.636
504.02	46.773
504.36	45.905
504.71	47.631
505.06	46.458
505.40	47.788
505.75	46.239
506.09	47.376
506.44	47.854
506.78	46.517
507.13	47.400
507.47	47.222
507.82	46.758
508.16	47.720
508.51	47.793
508.85	45.631
509.19	46.837
509.54	46.378
509.88	45.698
510.23	46.787
510.57	47.575
510.92	47.799
511.26	46.197
511.61	46.784
511.95	47.077
512.30	46.341
512.64	47.233
512.98	47.267
513.33	47.377
513.67	45.091
514.02	46.483
514.36	47.351
514.70	46.984
515.05	46.458
515.39	45.373
515.74	46.340
516.08	46.283
516.42	46.837
516.77	46.767
517.11	45.616
517.46	46.614
517.80	46.458
518.14	46.381
518.49	47.608
518.83	45.455
519.17	47.691
519.52	46.123
519.86	47.176
520.20	46.127
520.55	47.457
520.89	47.384
521.23	47.165
521.58	46.519
521.92	47.214
522.26	46.370
522.61	46.293
522.95	46.225
523.29	45.831
523.64	48.049
523.98	47.936
524.32	45.838
524.66	46.001
525.01	45.711
525.35	46.778
525.69	44.150
526.04	45.545
526.38	46.126
526.72	45.828
527.06	46.453
527.41	44.616
527.75	46.688
528.09	45.793
528.43	45.507
528.78	44.991
529.12	44.606
529.46	44.948
529.80	44.926
530.15	45.607
530.49	43.569
530.83	45.949
531.17	46.345
531.51	46.952
531.86	46.065
532.20	45.958
532.54	45.612
532.88	45.315
533.22	44.222
533.57	44.938
533.91	43.829
534.25	44.228
534.59	45.088
534.93	43.308
535.27	44.357
535.62	43.651
535.96	44.947
536.30	44.565
536.64	44.559
536.98	44.857
537.32	43.845
537.66	44.733
538.01	44.437
538.35	44.732
538.69	43.969
539.03	43.470
539.37	42.236
539.71	42.644
540.05	43.987
540.39	43.987
540.73	42.885
541.07	44.841
541.42	44.423
541.76	44.839
542.10	44.114
542.44	44.636
542.78	44.730
543.12	42.802
543.46	43.803
543.80	42.615
544.14	43.068
544.48	43.619
544.82	44.387
545.16	43.982
545.50	43.702
545.84	43.548
546.18	44.983
546.52	44.597
546.86	43.162
547.20	43.763
547.54	43.220
547.88	44.069
548.22	42.902
548.56	42.264
548.90	40.845
549.24	42.155
549.58	42.701
549.92	42.582
550.26	44.247
550.60	43.845
550.94	42.324
551.28	43.307
551.62	43.997
551.96	42.877
552.30	43.754
552.64	43.205
552.98	43.729
553.32	42.549
553.66	42.127
554.00	42.210
554.34	41.477
554.68	43.205
555.02	42.807
555.36	42.728
555.69	41.137
556.03	41.790
556.37	42.906
556.71	40.450
557.05	42.227
557.39	42.197
557.73	42.061
558.07	44.670
558.41	42.909
558.75	42.616
559.08	41.984
559.42	44.067
559.76	43.162
560.10	42.184
560.44	41.999
560.78	40.652
561.12	41.425
561.45	41.199
561.79	40.343
562.13	41.583
562.47	42.760
562.81	42.748
563.15	41.204
563.48	41.446
563.82	40.965
564.16	40.746
564.50	41.927
564.84	40.265
565.17	40.991
565.51	41.981
565.85	41.307
566.19	39.887
566.52	41.039
566.86	40.506
567.20	40.507
567.54	40.068
567.88	38.783
568.21	40.106
568.55	39.535
568.89	39.543
569.23	37.210
569.56	37.206
569.90	37.245
570.24	37.460
570.57	37.198
570.91	35.844
571.25	35.732
571.59	35.670
571.92	35.887
572.26	36.251
572.60	36.216
572.93	35.292
573.27	36.025
573.61	35.762
573.95	35.323
574.28	35.678
574.62	35.544
574.96	34.576
575.29	34.893
575.63	35.544
575.97	35.043
576.30	35.104
576.64	35.052
576.98	34.857
577.31	34.311
577.65	34.701
577.98	34.600
578.32	33.856
578.66	34.528
578.99	34.718
579.33	35.004
579.67	34.493
580.00	34.812
580.34	34.528
580.67	34.578
581.01	34.945
581.35	34.486
581.68	34.499
582.02	33.409
582.35	34.087
582.69	33.997
583.02	34.149
583.36	34.517
583.70	35.015
584.03	35.266
584.37	35.099
584.70	35.449
585.04	34.638
585.37	34.483
585.71	34.727
586.04	34.308
586.38	35.319
586.72	35.405
587.05	34.800
587.39	34.195
587.72	34.991
588.06	34.472
588.39	34.897
588.73	34.321
589.06	35.993
589.40	36.397
589.73	36.290
590.07	35.765
590.40	36.281
590.73	36.612
591.07	36.915
591.40	36.145
591.74	37.316
592.07	36.736
592.41	36.131
592.74	34.906
593.08	34.777
593.41	34.704
593.75	33.948
594.08	34.965
594.41	35.313
594.75	35.490
595.08	35.004
595.42	35.026
595.75	34.865
596.09	35.449
596.42	35.756
596.75	36.176
597.09	36.364
597.42	35.835
597.75	36.309
598.09	35.609
598.42	36.125
598.76	35.225
599.09	34.702
599.42	34.389
599.76	35.029
600.09	33.698
600.42	34.733
600.76	34.250
601.09	34.973
601.42	34.285
601.76	35.294
602.09	35.138
602.42	35.032
602.76	34.825
603.09	34.618
603.42	36.080
603.76	35.099
604.09	34.703
604.42	35.263
604.76	35.555
605.09	35.649
605.42	35.100
605.75	34.603
606.09	35.502
606.42	34.900
606.75	35.711
607.09	34.910
607.42	35.216
607.75	34.726
608.08	34.781
608.42	35.365
608.75	35.122
609.08	34.968
609.41	34.888
609.75	35.303
610.08	35.344
610.41	35.661
610.74	35.762
611.07	35.721
611.41	35.967
611.74	36.601
612.07	36.439
612.40	35.677
612.73	35.579
613.07	36.746
613.40	35.861
613.73	35.448
614.06	35.968
614.39	34.714
614.72	35.895
615.06	35.609
615.39	35.563
615.72	35.378
616.05	35.141
616.38	37.298
616.71	36.580
617.05	36.042
617.38	37.162
617.71	36.757
618.04	36.058
618.37	36.014
618.70	36.777
619.03	37.105
619.36	37.814
619.69	37.254
620.03	37.843
620.36	36.364
620.69	37.123
621.02	38.201
621.35	37.118
621.68	36.994
622.01	37.848
622.34	37.746
622.67	37.262
623.00	36.977
623.33	37.384
623.66	37.384
623.99	38.071
624.32	37.375
624.65	37.288
624.99	37.040
625.32	36.930
625.65	37.716
625.98	39.277
626.31	37.714
626.64	37.061
626.97	38.570
627.30	37.988
627.63	38.310
627.96	36.922
628.29	39.195
628.62	39.067
628.95	39.811
629.28	38.139
629.61	38.497
629.94	37.905
630.26	39.180
630.59	38.132
630.92	37.452
631.25	39.882
631.58	39.740
631.91	40.669
632.24	38.819
632.57	40.818
632.90	40.241
633.23	40.604
633.56	41.243
633.89	42.582
634.22	39.728
634.55	41.420
634.88	40.000
635.20	41.816
635.53	40.723
635.86	40.347
636.19	40.588
636.52	42.099
636.85	39.863
637.18	39.977
637.51	40.662
637.83	37.608
638.16	41.944
638.49	40.176
638.82	41.340
639.15	40.750
639.48	40.274
639.81	40.617
640.13	41.927
640.46	42.148
640.79	42.404
641.12	39.752
641.45	41.620
641.77	42.563
642.10	42.251
642.43	39.039
642.76	43.498
643.09	42.485
643.41	41.275
643.74	44.907
644.07	42.073
644.40	44.479
644.73	43.465
645.05	45.325
645.38	40.916
645.71	41.868
646.04	43.522
646.36	44.574
646.69	43.980
647.02	43.537
647.35	42.955
647.67	44.956
648.00	44.065
648.33	42.244
648.66	42.576
648.98	42.429
649.31	39.462
649.64	43.049
649.96	42.325
650.29	42.496
650.62	40.777
650.94	44.895
651.27	44.595
651.60	44.426
651.92	42.013
652.25	42.997
652.58	42.368
652.90	42.654
653.23	40.678
653.56	40.315
653.88	41.204
654.21	42.180
654.54	42.244
654.86	42.679
655.19	39.054
655.52	28.392
655.84	25.506
656.17	33.268
656.49	44.769
656.82	45.985
657.15	34.778
657.47	26.171
657.80	20.171
658.13	21.007
658.45	30.984
658.78	31.276
659.10	32.796
659.43	34.377
659.75	36.311
660.08	38.418
660.41	41.155
660.73	43.583
661.06	42.516
661.38	46.545
661.71	45.000
662.03	48.718
662.36	40.755
662.68	43.976
663.01	44.040
663.33	48.408
663.66	44.748
663.98	44.708
664.31	43.697
664.63	43.320
664.96	41.650
665.28	43.852
665.61	43.665
665.93	43.662
666.26	45.639
666.58	43.933
666.91	45.032
667.23	41.573
667.56	45.788
667.88	47.863
668.21	47.761
668.53	45.770
668.86	44.372
669.18	45.203
669.50	45.870
669.83	48.366
670.15	47.333
670.48	42.919
670.80	45.474
671.13	48.195
671.45	42.766
671.77	44.807
672.10	41.405
672.42	42.580
672.75	37.479
673.07	41.901
673.39	40.506
673.72	42.383
674.04	44.314
674.37	42.524
674.69	41.718
675.01	43.724
675.34	46.201
675.66	44.000
675.98	43.585
676.31	43.487
676.63	43.312
676.95	45.493
677.28	44.626
677.60	45.055
677.92	45.570
678.25	42.300
678.57	46.813
678.89	42.485
679.22	43.222
679.54	42.939
679.86	42.569
680.18	40.787
680.51	42.376
680.83	40.391
681.15	43.208
681.48	43.289
681.80	41.006
682.12	42.720
682.44	40.232
682.77	42.770
683.09	46.996
683.41	44.124
683.73	45.475
684.06	45.041
684.38	41.683
684.70	40.891
685.02	42.964
685.34	40.842
685.67	38.287
685.99	37.457
686.31	42.321
686.63	39.753
686.96	39.107
687.28	39.170
687.60	38.225
687.92	42.413
688.24	39.544
688.56	42.169
688.89	43.776
689.21	44.978
689.53	41.962
689.85	44.346
690.17	43.685
690.49	45.435
690.82	44.860
691.14	40.848
691.46	41.772
691.78	43.574
692.10	43.182
692.42	41.916
692.74	40.249
693.06	44.043
693.39	42.094
693.71	45.415
694.03	43.368
694.35	42.424
694.67	44.165
694.99	46.341
695.31	43.627
695.63	44.498
695.95	43.521
696.27	47.716
696.59	45.337
696.91	45.596
697.23	41.080
697.56	42.857
697.88	40.082
698.20	41.667
698.52	41.075
698.84	43.430
699.16	41.244
699.48	41.093
699.80	42.271
700.12	47.013
700.44	46.154
700.76	45.856
701.08	45.977
701.40	45.251
701.72	46.939
702.04	48.580
702.36	43.343
702.68	43.909
703.00	47.368
703.32	45.213
703.64	45.308
703.96	46.518
704.28	46.512
704.60	46.921
704.91	48.665
705.23	44.575
705.55	47.176
705.87	48.837
706.19	49.823
706.51	48.598
706.83	49.394
707.15	45.938
707.47	41.162
707.79	43.735
708.11	43.151
708.43	45.238
708.74	41.071
709.06	46.234
709.38	45.144
709.70	49.419
710.02	49.555
710.34	44.848
710.66	45.672
710.98	43.750
711.29	49.419
711.61	44.838
711.93	47.436
712.25	49.196
712.57	52.574
712.89	51.903
713.20	45.593
713.52	48.684
713.84	44.937
714.16	45.122
714.48	45.115
714.80	47.720
715.11	47.262
715.43	42.730
715.75	45.217
716.07	44.409
716.39	44.201
716.70	47.176
717.02	52.518
717.34	48.763
717.66	56.343
717.97	54.582
718.29	46.296
718.61	51.825
718.93	49.265
719.24	43.599
719.56	46.780
719.88	45.085
720.20	52.027
720.51	49.477
720.83	50.929
721.15	47.761
721.46	46.099
721.78	47.670
722.10	47.547
722.42	54.135
722.73	55.056
723.05	59.016
723.37	54.656
723.68	52.896
724.00	51.220
724.32	50.000
724.63	51.626
724.95	51.046
725.27	47.368
725.58	48.828
725.90	52.190
726.22	47.170
726.53	47.222
726.85	48.123
727.16	47.687
727.48	48.227
727.80	50.758
728.11	47.101
728.43	51.154
728.74	48.029
729.06	52.555
729.38	48.897
729.69	49.466
730.01	46.075
730.32	45.833
730.64	51.171
730.96	46.205
731.27	47.020
731.59	44.037
731.90	42.274
732.22	48.137
732.53	44.892
732.85	48.077
733.16	45.981
733.48	42.857
733.80	44.481
734.11	47.452
734.43	42.308
734.74	43.429
735.06	44.699
735.37	45.376
735.69	46.497
736.00	48.366
736.32	53.583
736.63	42.492
736.95	46.326
737.26	44.558
737.58	43.871
737.89	48.829
738.21	45.051
738.52	46.071
738.83	45.660
739.15	50.385
739.46	47.810
739.78	46.181
740.09	43.692
740.41	45.806
740.72	42.160
741.04	49.630
741.35	49.583
741.66	57.333
741.98	54.717
742.29	55.502
742.61	54.310
742.92	52.489
743.23	52.991
743.55	50.400
743.86	52.193
744.18	56.195
744.49	54.067
744.80	52.582
745.12	56.364
745.43	50.661
745.74	54.505
746.06	53.211
746.37	52.018
746.68	53.394
747.00	54.167
747.31	54.286
747.62	47.345
747.94	53.744
748.25	44.681
748.56	54.185
748.88	55.446
749.19	58.500
749.50	47.907
749.82	46.341
750.13	46.531
750.44	46.715
750.75	43.158
751.07	48.232
751.38	47.387
751.69	46.570
752.01	46.617
752.32	44.043
752.63	48.582
752.94	45.902
753.26	50.000
753.57	45.528
753.88	52.734
754.19	42.857
754.51	51.042
754.82	45.126
755.13	46.792
755.44	48.120
755.75	46.350
756.07	48.582
756.38	42.701
756.69	48.993
757.00	44.311
757.31	39.466
757.63	39.766
757.94	43.164
758.25	41.912
758.56	38.765
758.87	40.591
759.18	43.333
759.50	42.006
759.81	47.040
760.12	41.250
760.43	43.840
760.74	41.304
761.05	42.655
761.36	40.374
761.67	44.602
761.99	43.168
762.30	45.139
762.61	46.183
762.92	47.266
763.23	45.798
763.54	48.400
763.85	48.437
764.16	47.692
764.47	47.148
764.78	41.696
765.10	37.658
765.41	43.068
765.72	44.012
766.03	44.828
766.34	42.333
766.65	50.638
766.96	52.564
767.27	59.898
767.58	53.125
767.89	63.684
768.20	58.621
768.51	56.345
768.82	53.211
769.13	47.561
769.44	46.964
769.75	48.069
770.06	44.037
770.37	48.416
770.68	54.167
770.99	50.667
771.30	46.311
771.61	46.637
771.92	50.820
772.23	50.000
772.54	54.359
772.85	56.545
773.16	53.723
773.47	53.261
773.78	51.777
774.09	57.738
774.39	60.819
774.70	62.963
775.01	73.188
775.32	69.935
775.63	66.447
775.94	60.432
776.25	71.654
776.56	61.940
776.87	66.393
777.18	68.750
777.48	70.992
777.79	70.455
778.10	63.704
778.41	75.000
778.72	64.234
779.03	64.430
779.34	65.101
779.65	61.486
779.95	60.123
780.26	63.399
780.57	68.966
780.88	75.000
781.19	67.669
781.50	68.243
781.80	65.409
782.11	55.367
782.42	62.025
782.73	52.147
783.04	67.568
783.34	67.606
783.65	65.753
783.96	78.358
784.27	59.441
784.57	61.151
784.88	65.741
785.19	72.222
785.50	72.642
785.81	70.149
786.11	76.230
786.42	72.093
786.73	69.027
787.04	67.925
787.34	76.786
787.65	81.000
787.96	78.378
788.26	78.512
788.57	79.661
788.88	77.686
789.19	63.889
789.49	81.061
789.80	68.702
790.11	81.905
790.41	84.158
790.72	97.590
791.03	80.435
791.33	88.372
791.64	84.536
791.95	88.119
792.25	77.778
792.56	94.805
792.87	111.538
793.17	91.139
793.48	90.805
793.79	90.805
794.09	89.773
794.40	78.151
794.70	73.529
795.01	66.667
795.32	53.957
795.62	71.654
795.93	75.862
796.23	76.991
796.54	84.706
796.85	102.703
797.15	119.718
797.46	113.636
797.76	106.024
798.07	100.000
798.37	101.538
798.68	93.939
798.99	87.324
799.29	90.909
799.60	92.045
799.90	127.397
800.21	104.478
800.51	122.414
800.82	124.561
801.12	119.672
801.43	113.636
801.73	104.054
802.04	111.111
802.34	100.000
802.65	110.938
802.95	115.254
803.26	112.500
803.56	90.000
803.87	87.692
804.17	104.412
804.48	153.704
804.78	105.172
805.09	108.824
805.39	130.769
805.70	130.357
806.00	118.033
806.30	100.000
806.61	98.780
806.91	82.278
807.22	106.579
807.52	88.060
807.83	102.817
808.13	107.812
808.43	123.333
808.74	96.053
809.04	102.899
809.35	101.493
809.65	89.474
809.95	122.581
810.26	108.475
810.56	111.111
810.86	179.545
811.17	147.619
811.47	136.667
811.77	150.000
812.08	110.909
812.38	150.000
812.69	175.000
812.99	163.636
813.29	148.980
813.59	121.429
813.90	148.980
814.20	130.909
814.50	98.462
814.81	125.000
815.11	142.857
815.41	114.754
815.72	178.571
816.02	154.545
816.32	150.000
816.62	152.500
816.93	160.976
817.23	161.905
817.53	150.000
817.84	218.182
818.14	136.957
818.44	155.556
818.74	164.706
819.04	142.500
819.35	162.857
819.65	191.176
819.95	203.571
820.25	250.000
820.56	156.410
820.86	152.273
821.16	167.442
821.46	189.744
821.76	142.000
822.07	191.429
822.37	180.000
822.67	187.879
822.97	119.608
823.27	225.000
823.57	170.270
823.88	180.000
824.18	216.667
824.48	183.333
824.78	260.000
825.08	187.500
825.38	156.757
825.69	151.220
825.99	233.333
826.29	196.552
826.59	184.211
826.89	186.842
827.19	185.294
827.49	190.323
827.79	154.545
828.09	156.818
828.39	136.170
828.70	144.898
829.00	181.481
829.30	164.516
829.60	172.500
829.90	373.333
830.20	225.000
830.50	247.826
830.80	278.261
831.10	223.333
831.40	236.667
831.70	260.870
832.00	273.077
832.30	211.111
832.60	387.500
832.90	230.000
833.20	428.571
833.50	219.355
833.80	241.379
834.10	221.875
834.40	250.000
834.70	333.333
835.00	280.952
835.30	211.429
835.60	392.308
835.90	234.483
836.20	428.571
836.50	224.138
836.80	224.000
837.10	177.778
837.40	314.286
837.70	323.529
838.00	229.630
838.30	238.095
838.60	314.286
838.90	292.308
839.19	300.000
839.49	421.429
839.79	330.000
840.09	310.000
840.39	280.952
840.69	273.913
840.99	294.444
841.29	540.000
841.59	491.667
841.88	343.750
842.18	224.138
842.48	261.905
842.78	226.667
843.08	265.217
843.38	206.250
843.68	966.667
843.97	242.308
844.27	200.000
844.57	300.000
844.87	331.250
845.17	251.852
845.47	1900.000
845.76	500.000
846.06	382.353
846.36	737.500
846.66	421.429
846.96	381.250
847.25	409.091
847.55	554.545
847.85	273.913
848.15	610.000
848.44	464.286
848.74	283.333
849.04	323.529
849.34	630.000
849.63	242.105
849.93	600.000
850.23	1200.000
850.53	500.000
850.82	2350.000
851.12	-5000.000
851.42	5600.000
851.71	300.000
852.01	-1366.667
852.31	258.333
852.61	1733.333
852.90	276.190
853.20	228.000
853.50	388.235
853.79	304.762
854.09	266.667
854.39	350.000
854.68	194.595
854.98	183.871
855.28	203.333
855.57	244.828
855.87	207.407
856.17	278.947
856.46	280.000
856.76	423.529
857.05	234.483
857.35	237.500
857.65	366.667
857.94	256.522
858.24	273.077
858.53	295.000
858.83	304.545
859.13	333.333
859.42	0.000
859.72	600.000
860.01	418.182
860.31	318.182
860.60	284.211
860.90	273.913
861.20	600.000
861.49	466.667
861.79	-5500.000
862.08	775.000
862.38	247.619
862.67	423.077
862.97	329.412
863.26	588.889
863.56	305.556
863.85	408.333
864.15	712.500
864.44	393.333
864.74	1016.667
865.03	712.500
865.33	336.842
865.62	436.364
865.92	484.615
866.21	425.000
866.51	0.000
866.80	518.182
867.10	1220.000
867.39	492.308
867.69	500.000
867.98	315.789
868.27	500.000
868.57	310.526
868.86	-4300.000
869.16	418.750
869.45	2450.000
869.75	-4900.000
870.04	433.333
870.33	728.571
870.63	1325.000
870.92	2650.000
871.22	757.143
871.51	394.118
871.80	276.190
872.10	421.429
>>>>>End Processed Spectral Data<<<<<
