SpectraSuite Data File
++++++++++++++++++++++++++++++++++++
Date: Wed May 13 19:57:12 PDT 2015
User: schluterlab
Dark Spectrum Present: Yes
Reference Spectrum Present: Yes
Number of Sampled Component Spectra: 1
Spectrometers: USB2E3373
Integration Time (usec): 3000 (USB2E3373)
Spectra Averaged: 3 (USB2E3373)
Boxcar Smoothing: 0 (USB2E3373)
Correct for Electrical Dark: No (USB2E3373)
Strobe/Lamp Enabled: No (USB2E3373)
Correct for Detector Non-linearity: No (USB2E3373)
Correct for Stray Light: No (USB2E3373)
Number of Pixels in Processed Spectrum: 2048
>>>>>Begin Processed Spectral Data<<<<<
178.53	0.000
178.91	-1475.000
179.29	-1325.000
179.67	-233.333
180.04	-1425.000
180.42	2500.000
180.80	1060.000
181.18	-1125.000
181.56	685.714
181.94	0.000
182.31	-600.000
182.69	1833.333
183.07	-650.000
183.45	-622.222
183.83	581.818
184.20	-380.000
184.58	2100.000
184.96	4900.000
185.34	-740.000
185.72	-587.500
186.09	-1700.000
186.47	2950.000
186.85	2400.000
187.23	5400.000
187.61	-1833.333
187.98	1250.000
188.36	572.727
188.74	454.545
189.12	-1000.000
189.49	650.000
189.87	-3800.000
190.25	-1325.000
190.63	478.571
191.00	453.846
191.38	883.333
191.76	-1225.000
192.14	1200.000
192.51	725.000
192.89	850.000
193.27	587.500
193.65	-1075.000
194.02	530.000
194.40	900.000
194.78	540.000
195.15	541.667
195.53	650.000
195.91	-2150.000
196.29	393.750
196.66	342.105
197.04	-350.000
197.42	0.000
197.79	620.000
198.17	-5200.000
198.55	600.000
198.92	725.000
199.30	760.000
199.68	0.000
200.05	377.778
200.43	800.000
200.81	4400.000
201.18	1666.667
201.56	-1466.667
201.94	677.778
202.31	555.556
202.69	433.333
203.07	570.000
203.44	0.000
203.82	1175.000
204.19	800.000
204.57	435.714
204.95	612.500
205.32	1600.000
205.70	463.636
206.08	371.429
206.45	2450.000
206.83	343.750
207.20	883.333
207.58	700.000
207.96	355.556
208.33	637.500
208.71	-833.333
209.08	714.286
209.46	577.778
209.84	418.182
210.21	-1300.000
210.59	1475.000
210.96	-487.500
211.34	2100.000
211.71	540.000
212.09	850.000
212.46	0.000
212.84	1666.667
213.22	1625.000
213.59	-3600.000
213.97	850.000
214.34	800.000
214.72	527.273
215.09	1160.000
215.47	-1650.000
215.84	-2150.000
216.22	1700.000
216.59	392.857
216.97	1325.000
217.34	481.818
217.72	-833.333
218.09	0.000
218.47	-5300.000
218.84	700.000
219.22	857.143
219.59	1433.333
219.97	-571.429
220.34	860.000
220.72	-1833.333
221.09	407.143
221.47	1375.000
221.84	-983.333
222.22	0.000
222.59	1400.000
222.97	-2600.000
223.34	1280.000
223.72	400.000
224.09	1160.000
224.46	2100.000
224.84	-5000.000
225.21	-1020.000
225.59	-4500.000
225.96	580.000
226.34	290.000
226.71	2650.000
227.08	600.000
227.46	660.000
227.83	-1000.000
228.21	-2300.000
228.58	577.778
228.95	-2400.000
229.33	-2350.000
229.70	2033.333
230.08	771.429
230.45	-980.000
230.82	433.333
231.20	683.333
231.57	700.000
231.95	533.333
232.32	250.000
232.69	400.000
233.07	700.000
233.44	361.538
233.81	-1533.333
234.19	352.632
234.56	433.333
234.93	400.000
235.31	509.091
235.68	376.923
236.05	342.857
236.43	154.545
236.80	242.105
237.17	4000.000
237.55	276.190
237.92	217.857
238.29	242.857
238.67	190.323
239.04	186.207
239.41	130.556
239.79	132.609
240.16	145.238
240.53	140.909
240.91	98.039
241.28	100.000
241.65	112.000
242.02	101.449
242.40	72.581
242.77	96.667
243.14	70.968
243.51	80.899
243.89	71.765
244.26	76.667
244.63	70.968
245.00	59.574
245.38	66.337
245.75	64.486
246.12	53.211
246.49	68.613
246.87	72.000
247.24	53.846
247.61	55.714
247.98	56.209
248.36	54.054
248.73	51.592
249.10	55.414
249.47	49.718
249.84	51.337
250.22	42.246
250.59	46.154
250.96	46.465
251.33	45.024
251.70	48.020
252.08	38.571
252.45	43.946
252.82	37.826
253.19	45.106
253.56	40.784
253.94	39.834
254.31	36.719
254.68	41.154
255.05	36.900
255.42	40.244
255.79	37.500
256.16	36.101
256.54	33.922
256.91	35.231
257.28	33.094
257.65	38.284
258.02	34.783
258.39	31.861
258.76	34.783
259.14	31.548
259.51	33.131
259.88	27.329
260.25	34.441
260.62	35.260
260.99	32.919
261.36	32.432
261.73	34.097
262.10	34.012
262.47	34.085
262.85	31.198
263.22	29.345
263.59	28.775
263.96	31.044
264.33	32.376
264.70	29.737
265.07	28.389
265.44	32.323
265.81	26.521
266.18	30.151
266.55	28.780
266.92	30.221
267.29	28.241
267.66	30.505
268.03	29.545
268.40	29.439
268.77	28.401
269.14	27.027
269.51	30.248
269.88	32.401
270.25	29.120
270.62	28.539
270.99	30.753
271.36	29.185
271.73	28.972
272.10	26.522
272.47	26.237
272.84	29.654
273.21	28.931
273.58	27.511
273.95	24.109
274.32	26.240
274.69	27.409
275.06	24.409
275.43	28.723
275.80	27.054
276.17	26.477
276.54	27.235
276.91	26.087
277.28	25.586
277.65	27.660
278.02	25.466
278.39	27.539
278.76	26.909
279.13	27.358
279.50	27.747
279.87	27.092
280.23	28.144
280.60	24.758
280.97	26.248
281.34	23.894
281.71	26.727
282.08	29.175
282.45	26.727
282.82	26.821
283.19	22.638
283.56	25.439
283.92	27.750
284.29	25.044
284.66	22.868
285.03	23.689
285.40	25.352
285.77	25.253
286.14	24.525
286.51	26.000
286.87	26.667
287.24	25.896
287.61	24.559
287.98	22.078
288.35	22.187
288.72	24.766
289.08	23.318
289.45	23.888
289.82	22.439
290.19	22.920
290.56	21.899
290.93	20.544
291.29	22.853
291.66	22.271
292.03	24.273
292.40	23.495
292.77	19.822
293.13	21.791
293.50	21.137
293.87	20.444
294.24	21.333
294.60	20.961
294.97	20.494
295.34	22.285
295.71	20.028
296.08	23.077
296.44	19.670
296.81	20.476
297.18	21.409
297.55	18.997
297.91	18.602
298.28	20.884
298.65	20.235
299.02	19.895
299.38	18.592
299.75	17.790
300.12	17.880
300.48	19.250
300.85	20.099
301.22	19.363
301.59	19.318
301.95	18.262
302.32	20.411
302.69	18.519
303.05	19.030
303.42	18.519
303.79	18.573
304.15	17.949
304.52	18.772
304.89	18.815
305.25	18.794
305.62	18.913
305.99	18.890
306.35	19.575
306.72	18.274
307.09	19.312
307.45	19.482
307.82	18.080
308.19	20.199
308.55	18.662
308.92	18.582
309.29	18.163
309.65	18.982
310.02	18.499
310.38	19.785
310.75	19.747
311.12	20.164
311.48	19.122
311.85	21.384
312.22	20.604
312.58	20.478
312.95	21.331
313.31	20.097
313.68	20.894
314.05	24.458
314.41	21.608
314.78	22.759
315.14	21.450
315.51	23.687
315.87	24.653
316.24	24.131
316.61	24.269
316.97	23.288
317.34	24.560
317.70	25.908
318.07	25.602
318.43	27.691
318.80	27.648
319.16	29.096
319.53	29.268
319.89	29.619
320.26	31.400
320.62	30.655
320.99	31.919
321.35	32.626
321.72	34.805
322.08	34.650
322.45	36.517
322.81	36.725
323.18	38.054
323.54	38.312
323.91	39.623
324.27	40.344
324.64	39.981
325.00	40.036
325.37	42.948
325.73	44.973
326.10	45.366
326.46	45.430
326.83	47.023
327.19	47.481
327.56	49.042
327.92	49.344
328.29	51.020
328.65	52.118
329.01	52.256
329.38	52.451
329.74	52.539
330.11	54.100
330.47	55.005
330.84	55.147
331.20	54.554
331.56	55.688
331.93	56.574
332.29	56.167
332.66	55.841
333.02	56.764
333.38	56.640
333.75	56.774
334.11	58.452
334.48	58.119
334.84	58.088
335.20	58.091
335.57	57.752
335.93	57.857
336.29	59.615
336.66	58.882
337.02	60.452
337.38	59.722
337.75	58.556
338.11	59.087
338.47	60.221
338.84	60.587
339.20	59.908
339.56	61.040
339.93	60.000
340.29	59.149
340.65	61.230
341.02	61.082
341.38	61.210
341.74	60.789
342.11	60.786
342.47	61.498
342.83	60.959
343.20	60.693
343.56	59.225
343.92	60.877
344.28	60.119
344.65	61.307
345.01	59.680
345.37	58.834
345.73	60.745
346.10	60.358
346.46	60.932
346.82	60.544
347.19	58.647
347.55	60.016
347.91	62.379
348.27	61.956
348.63	61.288
349.00	59.466
349.36	59.852
349.72	59.342
350.08	58.833
350.45	59.561
350.81	59.870
351.17	59.887
351.53	58.231
351.89	59.241
352.26	58.564
352.62	60.385
352.98	59.562
353.34	60.477
353.70	59.002
354.07	59.919
354.43	58.651
354.79	59.694
355.15	59.298
355.51	58.913
355.87	61.306
356.24	59.528
356.60	58.460
356.96	59.775
357.32	59.280
357.68	58.346
358.04	58.670
358.40	59.620
358.77	58.294
359.13	59.195
359.49	57.412
359.85	59.048
360.21	58.214
360.57	59.377
360.93	58.692
361.29	58.730
361.66	58.050
362.02	57.910
362.38	58.631
362.74	58.557
363.10	56.699
363.46	57.960
363.82	58.503
364.18	58.443
364.54	58.470
364.90	58.640
365.26	58.456
365.62	58.948
365.98	57.779
366.35	56.805
366.71	57.195
367.07	56.737
367.43	59.289
367.79	57.602
368.15	58.764
368.51	57.267
368.87	57.959
369.23	57.864
369.59	57.784
369.95	56.912
370.31	57.835
370.67	56.014
371.03	57.678
371.39	57.070
371.75	57.353
372.11	54.979
372.47	57.771
372.83	59.510
373.19	56.575
373.55	57.945
373.91	58.837
374.27	55.739
374.63	56.509
374.99	56.780
375.35	56.385
375.71	56.546
376.07	56.859
376.42	57.497
376.78	57.256
377.14	57.259
377.50	56.821
377.86	56.649
378.22	55.942
378.58	54.950
378.94	55.437
379.30	56.616
379.66	56.599
380.02	56.020
380.38	55.495
380.74	55.762
381.09	55.134
381.45	56.238
381.81	55.713
382.17	56.051
382.53	56.038
382.89	55.494
383.25	55.097
383.61	55.204
383.97	54.722
384.32	55.396
384.68	55.328
385.04	54.702
385.40	55.728
385.76	55.651
386.12	56.023
386.48	56.828
386.83	56.511
387.19	56.030
387.55	55.659
387.91	55.381
388.27	54.813
388.62	55.931
388.98	54.607
389.34	55.006
389.70	54.568
390.06	54.689
390.42	55.577
390.77	54.644
391.13	56.541
391.49	54.061
391.85	54.042
392.20	54.574
392.56	53.157
392.92	54.208
393.28	53.964
393.64	53.957
393.99	52.841
394.35	53.474
394.71	54.203
395.07	53.271
395.42	53.832
395.78	53.753
396.14	52.886
396.50	54.511
396.85	53.719
397.21	51.973
397.57	53.627
397.92	52.103
398.28	52.130
398.64	52.270
399.00	52.434
399.35	52.059
399.71	51.852
400.07	50.976
400.42	52.331
400.78	53.378
401.14	52.622
401.49	52.000
401.85	51.785
402.21	51.796
402.57	51.265
402.92	52.270
403.28	51.218
403.63	50.371
403.99	51.656
404.35	49.939
404.70	50.240
405.06	49.913
405.42	50.530
405.77	49.086
406.13	49.492
406.49	50.621
406.84	49.675
407.20	48.936
407.55	49.713
407.91	50.400
408.27	50.351
408.62	48.224
408.98	48.223
409.34	49.016
409.69	49.419
410.05	49.009
410.40	48.746
410.76	47.730
411.11	47.467
411.47	47.923
411.83	47.770
412.18	47.495
412.54	48.132
412.89	46.807
413.25	47.285
413.60	49.166
413.96	46.023
414.31	47.691
414.67	47.782
415.03	46.623
415.38	47.874
415.74	46.881
416.09	46.767
416.45	45.984
416.80	47.588
417.16	47.587
417.51	46.516
417.87	45.857
418.22	46.877
418.58	45.513
418.93	47.052
419.29	45.831
419.64	45.718
420.00	45.427
420.35	45.739
420.71	45.666
421.06	44.332
421.42	44.912
421.77	45.067
422.12	44.469
422.48	44.360
422.83	44.205
423.19	43.702
423.54	44.457
423.90	44.174
424.25	43.551
424.61	44.405
424.96	43.848
425.31	44.075
425.67	42.472
426.02	42.514
426.38	44.994
426.73	42.539
427.09	42.553
427.44	43.301
427.79	42.783
428.15	43.631
428.50	43.417
428.85	43.206
429.21	42.242
429.56	41.265
429.92	40.966
430.27	41.063
430.62	40.655
430.98	42.086
431.33	40.361
431.68	41.937
432.04	40.948
432.39	40.891
432.74	41.532
433.10	41.766
433.45	41.050
433.80	40.632
434.16	40.919
434.51	40.158
434.86	40.536
435.22	40.467
435.57	41.094
435.92	40.433
436.28	40.569
436.63	39.349
436.98	38.809
437.34	40.012
437.69	40.898
438.04	39.910
438.39	39.881
438.75	39.686
439.10	40.335
439.45	38.607
439.81	39.698
440.16	37.493
440.51	39.484
440.86	38.680
441.22	38.265
441.57	38.057
441.92	38.997
442.27	38.644
442.63	37.757
442.98	39.437
443.33	38.261
443.68	38.771
444.03	36.701
444.39	37.244
444.74	39.177
445.09	38.976
445.44	37.015
445.79	37.358
446.15	37.057
446.50	37.049
446.85	36.845
447.20	37.073
447.55	36.516
447.91	36.349
448.26	36.728
448.61	35.670
448.96	37.320
449.31	36.670
449.66	36.804
450.02	35.432
450.37	36.224
450.72	35.702
451.07	36.076
451.42	35.623
451.77	36.876
452.12	35.450
452.47	35.075
452.83	36.131
453.18	36.064
453.53	35.622
453.88	36.149
454.23	35.804
454.58	35.918
454.93	35.982
455.28	35.474
455.63	35.194
455.98	36.012
456.34	35.050
456.69	35.316
457.04	35.975
457.39	34.366
457.74	35.287
458.09	34.100
458.44	35.063
458.79	34.273
459.14	34.424
459.49	34.442
459.84	33.795
460.19	33.883
460.54	33.854
460.89	33.077
461.24	34.608
461.59	34.515
461.94	34.032
462.29	33.531
462.64	33.504
462.99	33.507
463.34	34.533
463.69	32.645
464.04	34.087
464.39	33.333
464.74	32.799
465.09	33.293
465.44	32.687
465.79	33.277
466.14	33.771
466.49	33.037
466.84	32.399
467.19	32.287
467.54	33.500
467.89	32.653
468.24	32.344
468.59	32.540
468.94	31.765
469.29	32.262
469.64	34.337
469.99	32.612
470.34	32.166
470.68	32.830
471.03	32.041
471.38	32.940
471.73	32.179
472.08	32.368
472.43	32.538
472.78	31.863
473.13	32.542
473.48	32.022
473.83	31.768
474.17	31.425
474.52	31.514
474.87	31.757
475.22	32.037
475.57	30.629
475.92	30.324
476.27	31.060
476.61	31.219
476.96	30.511
477.31	30.717
477.66	30.908
478.01	30.214
478.36	30.830
478.70	30.945
479.05	30.884
479.40	30.757
479.75	30.859
480.10	30.268
480.45	30.509
480.79	30.244
481.14	30.235
481.49	30.043
481.84	30.041
482.19	29.714
482.53	29.817
482.88	30.572
483.23	29.346
483.58	29.982
483.92	29.428
484.27	28.584
484.62	28.362
484.97	27.907
485.31	28.664
485.66	27.286
486.01	26.308
486.36	26.104
486.70	26.318
487.05	26.184
487.40	26.609
487.75	27.163
488.09	27.571
488.44	27.585
488.79	27.450
489.13	27.731
489.48	27.977
489.83	28.615
490.17	28.189
490.52	27.236
490.87	27.770
491.22	28.149
491.56	28.064
491.91	28.385
492.26	28.434
492.60	28.341
492.95	27.128
493.30	28.271
493.64	27.485
493.99	28.134
494.34	28.168
494.68	27.839
495.03	27.726
495.37	27.920
495.72	28.216
496.07	28.724
496.41	27.080
496.76	28.012
497.11	27.915
497.45	27.806
497.80	27.591
498.14	27.150
498.49	27.854
498.84	28.380
499.18	27.048
499.53	27.398
499.87	27.120
500.22	27.414
500.56	27.670
500.91	27.308
501.26	27.264
501.60	27.527
501.95	26.673
502.29	27.976
502.64	27.188
502.98	26.741
503.33	26.920
503.67	27.703
504.02	26.660
504.36	26.392
504.71	27.113
505.06	27.036
505.40	27.175
505.75	26.374
506.09	27.162
506.44	26.591
506.78	26.985
507.13	27.562
507.47	26.717
507.82	27.964
508.16	27.102
508.51	28.006
508.85	26.961
509.19	26.633
509.54	26.531
509.88	26.172
510.23	26.324
510.57	27.864
510.92	26.463
511.26	26.310
511.61	26.245
511.95	26.305
512.30	26.352
512.64	26.384
512.98	25.884
513.33	27.677
513.67	26.628
514.02	26.623
514.36	27.144
514.70	26.729
515.05	26.436
515.39	26.697
515.74	27.196
516.08	27.166
516.42	26.526
516.77	26.589
517.11	26.304
517.46	26.806
517.80	26.539
518.14	25.999
518.49	26.254
518.83	26.364
519.17	26.039
519.52	26.938
519.86	27.096
520.20	26.994
520.55	27.588
520.89	26.460
521.23	26.478
521.58	25.750
521.92	26.516
522.26	26.297
522.61	26.854
522.95	25.660
523.29	26.659
523.64	26.707
523.98	26.494
524.32	26.719
524.66	27.721
525.01	27.083
525.35	26.766
525.69	25.800
526.04	25.670
526.38	26.907
526.72	27.178
527.06	26.303
527.41	24.876
527.75	26.752
528.09	26.590
528.43	26.386
528.78	27.167
529.12	25.152
529.46	26.516
529.80	25.990
530.15	26.542
530.49	25.908
530.83	26.013
531.17	26.828
531.51	26.589
531.86	25.935
532.20	26.728
532.54	25.945
532.88	26.252
533.22	26.109
533.57	26.358
533.91	25.707
534.25	25.091
534.59	25.991
534.93	24.866
535.27	24.925
535.62	25.702
535.96	25.675
536.30	25.048
536.64	25.370
536.98	26.476
537.32	25.938
537.66	25.600
538.01	26.004
538.35	25.404
538.69	26.356
539.03	25.731
539.37	25.559
539.71	23.461
540.05	26.078
540.39	25.382
540.73	25.809
541.07	25.762
541.42	27.071
541.76	26.323
542.10	25.679
542.44	24.901
542.78	25.889
543.12	23.672
543.46	25.311
543.80	26.610
544.14	25.481
544.48	25.651
544.82	25.465
545.16	25.439
545.50	24.614
545.84	25.336
546.18	25.657
546.52	25.740
546.86	25.704
547.20	25.489
547.54	25.317
547.88	25.829
548.22	25.405
548.56	25.283
548.90	24.072
549.24	24.916
549.58	25.989
549.92	25.755
550.26	26.136
550.60	25.173
550.94	24.718
551.28	23.921
551.62	24.802
551.96	24.351
552.30	25.051
552.64	24.679
552.98	24.949
553.32	25.893
553.66	25.699
554.00	25.120
554.34	24.086
554.68	26.395
555.02	24.471
555.36	24.495
555.69	23.275
556.03	25.303
556.37	24.966
556.71	24.557
557.05	24.580
557.39	24.143
557.73	25.406
558.07	25.453
558.41	24.023
558.75	25.349
559.08	25.652
559.42	24.339
559.76	24.853
560.10	24.483
560.44	25.017
560.78	24.152
561.12	24.274
561.45	24.837
561.79	24.588
562.13	24.816
562.47	25.137
562.81	24.407
563.15	24.147
563.48	24.867
563.82	24.331
564.16	24.853
564.50	23.828
564.84	24.463
565.17	24.067
565.51	24.217
565.85	23.921
566.19	24.170
566.52	24.066
566.86	22.966
567.20	23.703
567.54	23.002
567.88	22.651
568.21	24.286
568.55	22.295
568.89	22.033
569.23	22.415
569.56	21.619
569.90	21.925
570.24	21.995
570.57	21.149
570.91	20.394
571.25	21.032
571.59	20.795
571.92	20.651
572.26	20.191
572.60	21.171
572.93	20.750
573.27	21.088
573.61	20.463
573.95	20.801
574.28	20.327
574.62	20.360
574.96	19.785
575.29	20.441
575.63	19.512
575.97	20.203
576.30	19.835
576.64	20.243
576.98	19.956
577.31	19.709
577.65	19.739
577.98	19.481
578.32	19.102
578.66	19.539
578.99	19.493
579.33	20.261
579.67	19.655
580.00	19.252
580.34	19.934
580.67	19.452
581.01	20.126
581.35	19.329
581.68	19.249
582.02	19.171
582.35	19.132
582.69	19.045
583.02	19.188
583.36	19.875
583.70	19.730
584.03	19.619
584.37	19.974
584.70	20.193
585.04	19.472
585.37	19.548
585.71	20.089
586.04	19.425
586.38	19.984
586.72	19.994
587.05	19.125
587.39	19.815
587.72	20.124
588.06	19.824
588.39	19.396
588.73	19.889
589.06	20.100
589.40	20.135
589.73	20.345
590.07	20.712
590.40	19.949
590.73	20.570
591.07	21.490
591.40	21.299
591.74	21.602
592.07	20.768
592.41	20.835
592.74	20.487
593.08	20.187
593.41	20.215
593.75	20.206
594.08	20.717
594.41	20.643
594.75	20.333
595.08	20.651
595.42	20.771
595.75	20.940
596.09	20.804
596.42	20.550
596.75	21.444
597.09	20.779
597.42	19.688
597.75	20.612
598.09	20.609
598.42	20.189
598.76	20.430
599.09	19.954
599.42	19.614
599.76	19.985
600.09	19.745
600.42	19.905
600.76	19.679
601.09	20.255
601.42	19.559
601.76	19.924
602.09	20.158
602.42	20.263
602.76	21.080
603.09	20.496
603.42	20.539
603.76	20.503
604.09	19.698
604.42	20.261
604.76	20.793
605.09	20.402
605.42	19.581
605.75	20.281
606.09	20.130
606.42	20.025
606.75	20.324
607.09	20.469
607.42	19.213
607.75	19.873
608.08	19.323
608.42	20.887
608.75	20.739
609.08	19.750
609.41	20.752
609.75	20.724
610.08	20.170
610.41	20.484
610.74	20.624
611.07	20.553
611.41	20.363
611.74	22.122
612.07	21.636
612.40	20.829
612.73	21.158
613.07	21.767
613.40	21.801
613.73	20.451
614.06	20.806
614.39	21.238
614.72	21.474
615.06	21.008
615.39	20.382
615.72	20.961
616.05	20.521
616.38	20.623
616.71	21.081
617.05	21.437
617.38	21.407
617.71	21.682
618.04	21.995
618.37	21.644
618.70	21.780
619.03	21.842
619.36	21.792
619.69	23.099
620.03	22.459
620.36	21.925
620.69	23.425
621.02	23.156
621.35	22.944
621.68	21.885
622.01	23.220
622.34	23.222
622.67	21.977
623.00	21.277
623.33	22.230
623.66	21.801
623.99	22.091
624.32	22.611
624.65	22.458
624.99	21.671
625.32	20.782
625.65	23.216
625.98	24.058
626.31	22.862
626.64	24.245
626.97	22.693
627.30	22.195
627.63	23.052
627.96	24.054
628.29	22.572
628.62	23.788
628.95	24.528
629.28	23.631
629.61	24.840
629.94	24.762
630.26	22.879
630.59	24.404
630.92	24.138
631.25	22.902
631.58	24.825
631.91	22.718
632.24	23.312
632.57	25.393
632.90	24.561
633.23	25.056
633.56	25.311
633.89	25.028
634.22	24.972
634.55	26.036
634.88	24.431
635.20	26.404
635.53	26.386
635.86	24.752
636.19	25.412
636.52	25.490
636.85	25.544
637.18	25.576
637.51	27.305
637.83	24.661
638.16	26.087
638.49	25.567
638.82	26.549
639.15	26.375
639.48	28.055
639.81	27.212
640.13	27.344
640.46	27.785
640.79	26.024
641.12	23.521
641.45	27.095
641.77	26.215
642.10	27.485
642.43	26.727
642.76	27.864
643.09	28.528
643.41	27.162
643.74	29.475
644.07	27.896
644.40	28.374
644.73	28.976
645.05	29.477
645.38	28.120
645.71	26.087
646.04	27.243
646.36	29.716
646.69	31.773
647.02	28.401
647.35	28.694
647.67	28.319
648.00	29.431
648.33	28.548
648.66	26.818
648.98	28.936
649.31	26.158
649.64	28.102
649.96	29.061
650.29	27.488
650.62	27.023
650.94	28.039
651.27	29.730
651.60	30.616
651.92	27.476
652.25	26.059
652.58	28.349
652.90	28.278
653.23	27.273
653.56	29.291
653.88	28.685
654.21	28.436
654.54	28.218
654.86	25.389
655.19	24.595
655.52	17.513
655.84	14.726
656.17	19.300
656.49	26.092
656.82	26.320
657.15	19.683
657.47	14.520
657.80	11.180
658.13	11.328
658.45	17.173
658.78	17.066
659.10	16.913
659.43	17.971
659.75	18.803
660.08	19.177
660.41	22.812
660.73	24.396
661.06	27.866
661.38	29.091
661.71	28.462
662.03	31.558
662.36	28.628
662.68	29.518
663.01	30.303
663.33	31.210
663.66	30.042
663.98	32.181
664.31	29.412
664.63	30.567
664.96	29.376
665.28	33.811
665.61	30.409
665.93	29.577
666.26	27.789
666.58	31.381
666.91	32.558
667.23	31.910
667.56	28.294
667.88	32.265
668.21	31.343
668.53	31.670
668.86	30.303
669.18	31.343
669.50	31.087
669.83	34.205
670.15	32.222
670.48	30.937
670.80	31.250
671.13	30.149
671.45	31.915
671.77	31.772
672.10	27.726
672.42	28.622
672.75	27.529
673.07	28.521
673.39	26.221
673.72	26.758
674.04	30.000
674.37	30.485
674.69	28.425
675.01	27.197
675.34	30.185
675.66	33.053
675.98	29.939
676.31	31.933
676.63	30.573
676.95	30.398
677.28	31.308
677.60	28.571
677.92	31.435
678.25	27.926
678.57	31.275
678.89	29.459
679.22	26.719
679.54	29.008
679.86	29.541
680.18	26.118
680.51	27.482
680.83	28.114
681.15	28.679
681.48	30.057
681.80	27.660
682.12	26.820
682.44	28.820
682.77	29.532
683.09	33.476
683.41	30.377
683.73	32.009
684.06	29.959
684.38	29.941
684.70	29.070
685.02	27.392
685.34	28.755
685.67	25.524
685.99	25.601
686.31	26.280
686.63	26.855
686.96	25.179
687.28	28.159
687.60	27.355
687.92	29.068
688.24	27.186
688.56	29.920
688.89	28.631
689.21	31.441
689.53	27.975
689.85	29.933
690.17	26.708
690.49	29.299
690.82	30.140
691.14	29.464
691.46	29.747
691.78	30.723
692.10	29.545
692.42	26.946
692.74	27.178
693.06	28.723
693.39	31.828
693.71	28.603
694.03	29.684
694.35	27.922
694.67	29.519
694.99	33.415
695.31	29.412
695.63	27.033
695.95	33.007
696.27	28.680
696.59	30.570
696.91	32.124
697.23	29.343
697.56	29.211
697.88	26.789
698.20	27.917
698.52	26.667
698.84	30.290
699.16	29.263
699.48	29.454
699.80	33.333
700.12	32.468
700.44	31.300
700.76	32.597
701.08	34.483
701.40	32.123
701.72	32.945
702.04	35.795
702.36	33.144
702.68	32.295
703.00	32.133
703.32	29.521
703.64	30.563
703.96	32.869
704.28	32.558
704.60	37.537
704.91	31.454
705.23	34.897
705.55	33.223
705.87	37.542
706.19	37.809
706.51	32.399
706.83	37.273
707.15	36.975
707.47	32.071
707.79	32.187
708.11	32.420
708.43	26.429
708.74	28.827
709.06	34.286
709.38	29.921
709.70	33.140
710.02	35.905
710.34	33.636
710.66	35.224
710.98	32.955
711.29	31.977
711.61	35.988
711.93	38.141
712.25	36.656
712.57	39.338
712.89	35.294
713.20	36.170
713.52	33.553
713.84	31.329
714.16	33.537
714.48	33.908
714.80	35.866
715.11	30.836
715.43	31.454
715.75	31.884
716.07	33.866
716.39	33.229
716.70	36.877
717.02	36.331
717.34	36.396
717.66	37.687
717.97	37.849
718.29	34.074
718.61	35.766
718.93	38.235
719.24	33.218
719.56	30.169
719.88	35.932
720.20	40.203
720.51	37.631
720.83	40.520
721.15	33.582
721.46	36.170
721.78	38.710
722.10	36.981
722.42	36.466
722.73	38.951
723.05	36.885
723.37	38.866
723.68	35.907
724.00	42.683
724.32	37.097
724.63	38.211
724.95	36.402
725.27	37.247
725.58	40.625
725.90	36.861
726.22	40.377
726.53	34.375
726.85	41.980
727.16	39.502
727.48	35.461
727.80	38.258
728.11	38.406
728.43	35.000
728.74	37.634
729.06	36.861
729.38	38.971
729.69	37.722
730.01	34.812
730.32	35.069
730.64	35.452
730.96	32.673
731.27	33.775
731.59	33.945
731.90	30.612
732.22	31.677
732.53	29.102
732.85	30.769
733.16	32.154
733.48	32.890
733.80	34.416
734.11	35.669
734.43	33.728
734.74	30.571
735.06	28.080
735.37	35.260
735.69	30.573
736.00	33.987
736.32	33.956
736.63	32.268
736.95	35.144
737.26	29.592
737.58	32.581
737.89	35.786
738.21	34.130
738.52	33.571
738.83	36.226
739.15	33.846
739.46	35.766
739.78	34.722
740.09	31.077
740.41	36.452
740.72	35.889
741.04	36.667
741.35	38.333
741.66	39.556
741.98	39.151
742.29	47.368
742.61	40.086
742.92	37.104
743.23	39.744
743.55	38.800
743.86	36.842
744.18	44.248
744.49	41.627
744.80	45.540
745.12	44.545
745.43	37.004
745.74	43.694
746.06	38.073
746.37	39.462
746.68	37.557
747.00	44.444
747.31	40.000
747.62	37.611
747.94	39.648
748.25	34.468
748.56	43.172
748.88	43.564
749.19	51.000
749.50	39.535
749.82	33.333
750.13	34.694
750.44	36.496
750.75	35.439
751.07	33.119
751.38	36.237
751.69	34.296
752.01	32.707
752.32	34.296
752.63	35.106
752.94	30.738
753.26	40.000
753.57	32.927
753.88	39.844
754.19	31.071
754.51	37.847
754.82	31.047
755.13	41.509
755.44	35.338
755.75	34.672
756.07	34.397
756.38	32.847
756.69	33.893
757.00	31.437
757.31	32.047
757.63	29.240
757.94	29.491
758.25	27.696
758.56	29.877
758.87	27.419
759.18	30.303
759.50	32.602
759.81	33.333
760.12	30.313
760.43	30.372
760.74	33.696
761.05	31.921
761.36	28.877
761.67	31.818
761.99	31.366
762.30	31.597
762.61	35.115
762.92	37.500
763.23	36.975
763.54	42.400
763.85	33.203
764.16	36.154
764.47	35.361
764.78	30.035
765.10	30.063
765.41	31.268
765.72	30.838
766.03	34.796
766.34	32.333
766.65	40.000
766.96	35.897
767.27	47.208
767.58	45.312
767.89	47.368
768.20	48.851
768.51	37.056
768.82	37.615
769.13	31.301
769.44	32.794
769.75	40.343
770.06	32.110
770.37	38.462
770.68	32.870
770.99	36.444
771.30	31.967
771.61	40.359
771.92	34.836
772.23	42.857
772.54	42.051
772.85	40.314
773.16	50.000
773.47	48.913
773.78	42.132
774.09	45.238
774.39	52.632
774.70	41.975
775.01	52.899
775.32	53.595
775.63	45.395
775.94	45.324
776.25	56.693
776.56	60.448
776.87	63.934
777.18	57.812
777.48	55.725
777.79	59.848
778.10	60.741
778.41	52.679
778.72	47.445
779.03	51.007
779.34	52.349
779.65	47.973
779.95	48.466
780.26	49.673
780.57	55.172
780.88	67.969
781.19	51.880
781.50	58.784
781.80	49.686
782.11	43.503
782.42	44.937
782.73	47.853
783.04	56.081
783.34	51.408
783.65	58.904
783.96	51.493
784.27	46.853
784.57	49.640
784.88	50.926
785.19	59.524
785.50	67.925
785.81	59.701
786.11	59.836
786.42	59.690
786.73	58.407
787.04	59.434
787.34	61.607
787.65	61.000
787.96	54.955
788.26	61.157
788.57	62.712
788.88	61.983
789.19	52.778
789.49	56.818
789.80	64.885
790.11	72.381
790.41	74.257
790.72	86.747
791.03	71.739
791.33	70.930
791.64	74.227
791.95	78.218
792.25	80.000
792.56	85.714
792.87	89.744
793.17	88.608
793.48	77.011
793.79	79.310
794.09	79.545
794.40	68.908
794.70	63.971
795.01	57.037
795.32	51.079
795.62	54.331
795.93	60.345
796.23	69.027
796.54	78.824
796.85	74.324
797.15	98.592
797.46	83.333
797.76	86.747
798.07	88.608
798.37	84.615
798.68	78.788
798.99	80.282
799.29	92.208
799.60	73.864
799.90	105.479
800.21	82.090
800.51	108.621
800.82	92.982
801.12	93.443
801.43	84.848
801.73	82.432
802.04	100.000
802.34	88.889
802.65	87.500
802.95	122.034
803.26	104.688
803.56	82.857
803.87	81.538
804.17	80.882
804.48	111.111
804.78	84.483
805.09	73.529
805.39	101.923
805.70	110.714
806.00	103.279
806.30	89.394
806.61	80.488
806.91	74.684
807.22	68.421
807.52	83.582
807.83	85.915
808.13	95.312
808.43	86.667
808.74	77.632
809.04	107.246
809.35	107.463
809.65	89.474
809.95	106.452
810.26	84.746
810.56	96.825
810.86	136.364
811.17	157.143
811.47	105.000
811.77	105.556
812.08	109.091
812.38	132.000
812.69	125.000
812.99	152.273
813.29	134.694
813.59	109.524
813.90	130.612
814.20	96.364
814.50	90.769
814.81	101.471
815.11	130.612
815.41	108.197
815.72	152.381
816.02	121.818
816.32	150.000
816.62	120.000
816.93	121.951
817.23	157.143
817.53	127.273
817.84	196.970
818.14	130.435
818.44	128.889
818.74	197.059
819.04	130.000
819.35	137.143
819.65	182.353
819.95	157.143
820.25	230.000
820.56	148.718
820.86	120.455
821.16	146.512
821.46	146.154
821.76	148.000
822.07	168.571
822.37	145.000
822.67	157.576
822.97	121.569
823.27	185.714
823.57	167.568
823.88	175.000
824.18	186.667
824.48	147.619
824.78	240.000
825.08	229.167
825.38	164.865
825.69	121.951
825.99	200.000
826.29	200.000
826.59	139.474
826.89	160.526
827.19	167.647
827.49	174.194
827.79	156.818
828.09	131.818
828.39	123.404
828.70	130.612
829.00	185.185
829.30	158.065
829.60	117.500
829.90	286.667
830.20	200.000
830.50	182.609
830.80	239.130
831.10	203.333
831.40	160.000
831.70	178.261
832.00	176.923
832.30	188.889
832.60	325.000
832.90	193.333
833.20	428.571
833.50	200.000
833.80	196.552
834.10	212.500
834.40	200.000
834.70	311.111
835.00	319.048
835.30	171.429
835.60	315.385
835.90	227.586
836.20	328.571
836.50	203.448
836.80	172.000
837.10	186.111
837.40	285.714
837.70	282.353
838.00	244.444
838.30	257.143
838.60	285.714
838.90	223.077
839.19	270.000
839.49	392.857
839.79	325.000
840.09	280.000
840.39	290.476
840.69	291.304
840.99	294.444
841.29	400.000
841.59	358.333
841.88	343.750
842.18	162.069
842.48	247.619
842.78	196.667
843.08	252.174
843.38	187.500
843.68	750.000
843.97	238.462
844.27	210.345
844.57	300.000
844.87	375.000
845.17	211.111
845.47	1500.000
845.76	444.444
846.06	382.353
846.36	450.000
846.66	371.429
846.96	225.000
847.25	436.364
847.55	418.182
847.85	260.870
848.15	500.000
848.44	400.000
848.74	283.333
849.04	335.294
849.34	580.000
849.63	278.947
849.93	409.091
850.23	920.000
850.53	414.286
850.82	2050.000
851.12	-3400.000
851.42	4800.000
851.71	265.000
852.01	-1400.000
852.31	266.667
852.61	1800.000
852.90	295.238
853.20	216.000
853.50	352.941
853.79	309.524
854.09	233.333
854.39	337.500
854.68	172.973
854.98	183.871
855.28	163.333
855.57	220.690
855.87	233.333
856.17	263.158
856.46	220.000
856.76	264.706
857.05	200.000
857.35	200.000
857.65	346.667
857.94	234.783
858.24	246.154
858.53	275.000
858.83	240.909
859.13	340.000
859.42	0.000
859.72	533.333
860.01	463.636
860.31	331.818
860.60	278.947
860.90	243.478
861.20	622.222
861.49	483.333
861.79	-3700.000
862.08	575.000
862.38	290.476
862.67	346.154
862.97	370.588
863.26	700.000
863.56	294.444
863.85	325.000
864.15	575.000
864.44	393.333
864.74	750.000
865.03	662.500
865.33	331.579
865.62	427.273
865.92	446.154
866.21	458.333
866.51	0.000
866.80	372.727
867.10	960.000
867.39	446.154
867.69	454.545
867.98	347.368
868.27	509.091
868.57	294.737
868.86	-4500.000
869.16	312.500
869.45	2150.000
869.75	-5100.000
870.04	425.000
870.33	671.429
870.63	1350.000
870.92	2800.000
871.22	857.143
871.51	341.176
871.80	242.857
872.10	421.429
>>>>>End Processed Spectral Data<<<<<
