SpectraSuite Data File
++++++++++++++++++++++++++++++++++++
Date: Wed May 13 19:43:12 PDT 2015
User: schluterlab
Dark Spectrum Present: Yes
Reference Spectrum Present: Yes
Number of Sampled Component Spectra: 1
Spectrometers: USB2E3373
Integration Time (usec): 3000 (USB2E3373)
Spectra Averaged: 3 (USB2E3373)
Boxcar Smoothing: 0 (USB2E3373)
Correct for Electrical Dark: No (USB2E3373)
Strobe/Lamp Enabled: No (USB2E3373)
Correct for Detector Non-linearity: No (USB2E3373)
Correct for Stray Light: No (USB2E3373)
Number of Pixels in Processed Spectrum: 2048
>>>>>Begin Processed Spectral Data<<<<<
178.53	0.000
178.91	-1275.000
179.29	-1275.000
179.67	-238.889
180.04	-1450.000
180.42	2850.000
180.80	1120.000
181.18	-1125.000
181.56	785.714
181.94	0.000
182.31	-685.714
182.69	1866.667
183.07	-600.000
183.45	-577.778
183.83	590.909
184.20	-400.000
184.58	2200.000
184.96	5200.000
185.34	-740.000
185.72	-600.000
186.09	-1950.000
186.47	2150.000
186.85	2600.000
187.23	5200.000
187.61	-1400.000
187.98	1300.000
188.36	581.818
188.74	481.818
189.12	-860.000
189.49	520.000
189.87	-5000.000
190.25	-1275.000
190.63	428.571
191.00	430.769
191.38	883.333
191.76	-1100.000
192.14	1325.000
192.51	625.000
192.89	916.667
193.27	612.500
193.65	-1175.000
194.02	520.000
194.40	1000.000
194.78	540.000
195.15	508.333
195.53	670.000
195.91	-2100.000
196.29	306.250
196.66	310.526
197.04	-270.000
197.42	0.000
197.79	610.000
198.17	-5700.000
198.55	714.286
198.92	662.500
199.30	980.000
199.68	0.000
200.05	322.222
200.43	814.286
200.81	4300.000
201.18	1566.667
201.56	-1266.667
201.94	544.444
202.31	577.778
202.69	466.667
203.07	590.000
203.44	0.000
203.82	1325.000
204.19	828.571
204.57	435.714
204.95	650.000
205.32	1233.333
205.70	572.727
206.08	278.571
206.45	2500.000
206.83	418.750
207.20	850.000
207.58	760.000
207.96	305.556
208.33	650.000
208.71	-750.000
209.08	800.000
209.46	622.222
209.84	390.909
210.21	-1266.667
210.59	1325.000
210.96	-550.000
211.34	2800.000
211.71	670.000
212.09	1000.000
212.46	0.000
212.84	1800.000
213.22	1325.000
213.59	-5600.000
213.97	900.000
214.34	657.143
214.72	545.455
215.09	1200.000
215.47	-2550.000
215.84	-2000.000
216.22	1700.000
216.59	307.143
216.97	1300.000
217.34	527.273
217.72	-650.000
218.09	0.000
218.47	-4600.000
218.84	577.778
219.22	585.714
219.59	1500.000
219.97	-571.429
220.34	880.000
220.72	-1766.667
221.09	428.571
221.47	1300.000
221.84	-1016.667
222.22	0.000
222.59	1350.000
222.97	-2300.000
223.34	1140.000
223.72	446.154
224.09	1220.000
224.46	2250.000
224.84	-4400.000
225.21	-1020.000
225.59	-4000.000
225.96	600.000
226.34	290.000
226.71	2750.000
227.08	637.500
227.46	460.000
227.83	-950.000
228.21	-2050.000
228.58	711.111
228.95	-2500.000
229.33	-2450.000
229.70	1600.000
230.08	800.000
230.45	-940.000
230.82	466.667
231.20	866.667
231.57	528.571
231.95	425.000
232.32	250.000
232.69	400.000
233.07	771.429
233.44	323.077
233.81	-1433.333
234.19	231.579
234.56	366.667
234.93	383.333
235.31	363.636
235.68	276.923
236.05	400.000
236.43	145.455
236.80	273.684
237.17	3400.000
237.55	185.714
237.92	164.286
238.29	219.048
238.67	138.710
239.04	206.897
239.41	119.444
239.79	108.696
240.16	126.190
240.53	127.273
240.91	72.549
241.28	84.000
241.65	84.000
242.02	78.261
242.40	83.871
242.77	70.000
243.14	55.914
243.51	60.674
243.89	49.412
244.26	51.111
244.63	56.989
245.00	43.617
245.38	48.515
245.75	46.729
246.12	40.367
246.49	45.985
246.87	39.200
247.24	40.000
247.61	40.000
247.98	37.255
248.36	24.324
248.73	28.662
249.10	26.115
249.47	33.898
249.84	32.086
250.22	27.273
250.59	24.260
250.96	29.293
251.33	23.697
251.70	24.752
252.08	26.667
252.45	21.973
252.82	18.696
253.19	24.255
253.56	21.961
253.94	19.502
254.31	21.484
254.68	25.000
255.05	19.188
255.42	21.951
255.79	19.853
256.16	21.300
256.54	15.901
256.91	22.064
257.28	13.669
257.65	20.792
258.02	17.702
258.39	20.505
258.76	18.395
259.14	21.131
259.51	17.021
259.88	14.286
260.25	16.314
260.62	14.162
260.99	15.217
261.36	17.117
261.73	16.619
262.10	15.116
262.47	16.056
262.85	15.877
263.22	12.821
263.59	17.664
263.96	14.835
264.33	14.621
264.70	15.526
265.07	14.322
265.44	14.394
265.81	11.679
266.18	14.322
266.55	13.902
266.92	14.742
267.29	14.352
267.66	13.073
268.03	12.273
268.40	14.953
268.77	13.842
269.14	12.838
269.51	15.801
269.88	12.821
270.25	13.995
270.62	12.360
270.99	14.409
271.36	14.378
271.73	10.981
272.10	11.739
272.47	12.903
272.84	11.255
273.21	14.256
273.58	12.882
273.95	11.321
274.32	11.157
274.69	11.563
275.06	10.827
275.43	11.702
275.80	9.419
276.17	10.998
276.54	12.058
276.91	11.067
277.28	10.156
277.65	12.766
278.02	9.938
278.39	13.281
278.76	10.000
279.13	10.566
279.50	11.918
279.87	11.952
280.23	11.377
280.60	10.638
280.97	9.612
281.34	11.681
281.71	14.727
282.08	11.132
282.45	9.818
282.82	9.414
283.19	8.913
283.56	10.351
283.92	11.506
284.29	8.642
284.66	9.800
285.03	9.584
285.40	9.683
285.77	8.586
286.14	8.290
286.51	10.333
286.87	10.256
287.24	10.586
287.61	10.594
287.98	10.390
288.35	8.875
288.72	8.567
289.08	8.764
289.45	9.720
289.82	9.106
290.19	8.163
290.56	8.576
290.93	8.006
291.29	7.975
291.66	9.145
292.03	11.192
292.40	9.692
292.77	8.580
293.13	8.358
293.50	7.580
293.87	8.000
294.24	8.296
294.60	6.405
294.97	7.994
295.34	8.886
295.71	9.801
296.08	6.268
296.44	7.428
296.81	6.209
297.18	9.485
297.55	5.145
297.91	8.179
298.28	7.497
298.65	10.052
299.02	7.642
299.38	5.976
299.75	6.065
300.12	6.258
300.48	7.000
300.85	7.522
301.22	7.134
301.59	7.576
301.95	6.549
302.32	5.905
302.69	7.527
303.05	6.424
303.42	6.420
303.79	6.342
304.15	5.944
304.52	6.141
304.89	5.691
305.25	6.032
305.62	7.022
305.99	6.139
306.35	6.823
306.72	7.287
307.09	6.548
307.45	6.757
307.82	6.138
308.19	6.512
308.55	6.257
308.92	7.089
309.29	6.230
309.65	5.832
310.02	6.554
310.38	5.161
310.75	6.441
311.12	6.755
311.48	5.852
311.85	7.442
312.22	6.764
312.58	5.613
312.95	6.653
313.31	6.505
313.68	6.029
314.05	8.185
314.41	5.829
314.78	6.949
315.14	6.256
315.51	6.591
315.87	6.634
316.24	6.356
316.61	6.335
316.97	5.577
317.34	5.675
317.70	6.501
318.07	5.582
318.43	7.339
318.80	6.279
319.16	6.026
319.53	5.816
319.89	7.238
320.26	7.400
320.62	6.151
320.99	5.455
321.35	5.859
321.72	6.982
322.08	6.219
322.45	7.363
322.81	6.977
323.18	7.225
323.54	6.865
323.91	6.887
324.27	6.692
324.64	5.965
325.00	6.312
325.37	7.188
325.73	7.989
326.10	6.531
326.46	5.914
326.83	7.420
327.19	6.063
327.56	5.923
327.92	5.862
328.29	7.010
328.65	7.827
329.01	6.769
329.38	6.753
329.74	6.556
330.11	6.692
330.47	6.979
330.84	8.824
331.20	6.102
331.56	7.248
331.93	5.648
332.29	6.832
332.66	7.876
333.02	5.667
333.38	6.956
333.75	7.308
334.11	7.206
334.48	6.566
334.84	7.904
335.20	6.455
335.57	7.072
335.93	6.161
336.29	6.868
336.66	7.304
337.02	6.154
337.38	8.056
337.75	6.417
338.11	6.625
338.47	6.906
338.84	8.158
339.20	6.330
339.56	7.755
339.93	6.000
340.29	5.707
340.65	7.308
341.02	6.894
341.38	7.028
341.74	6.228
342.11	6.550
342.47	7.048
342.83	7.192
343.20	7.359
343.56	6.234
343.92	5.439
344.28	6.378
344.65	6.965
345.01	5.135
345.37	5.146
345.73	7.191
346.10	7.332
346.46	6.271
346.82	6.590
347.19	5.430
347.55	6.486
347.91	6.230
348.27	6.984
348.63	7.107
349.00	6.553
349.36	5.911
349.72	6.897
350.08	6.888
350.45	6.591
350.81	6.336
351.17	5.835
351.53	6.962
351.89	5.776
352.26	7.024
352.62	6.255
352.98	5.835
353.34	6.574
353.70	4.992
354.07	6.048
354.43	6.270
354.79	4.988
355.15	5.347
355.51	7.114
355.87	5.469
356.24	6.433
356.60	6.095
356.96	6.114
357.32	5.151
357.68	7.087
358.04	6.888
358.40	6.097
358.77	5.477
359.13	5.367
359.49	5.412
359.85	4.603
360.21	5.104
360.57	6.693
360.93	5.385
361.29	6.274
361.66	5.418
362.02	5.672
362.38	5.627
362.74	5.060
363.10	5.107
363.46	5.576
363.82	5.896
364.18	6.094
364.54	5.423
364.90	6.516
365.26	5.662
365.62	5.771
365.98	5.478
366.35	5.372
366.71	6.218
367.07	4.953
367.43	5.878
367.79	5.924
368.15	7.256
368.51	4.578
368.87	5.782
369.23	4.755
369.59	5.358
369.95	4.926
370.31	6.125
370.67	5.870
371.03	6.442
371.39	5.466
371.75	5.000
372.11	4.339
372.47	5.938
372.83	5.187
373.19	4.841
373.55	5.765
373.91	6.038
374.27	4.880
374.63	4.364
374.99	4.944
375.35	4.606
375.71	5.141
376.07	5.418
376.42	4.470
376.78	5.103
377.14	4.613
377.50	5.960
377.86	4.787
378.22	5.057
378.58	4.699
378.94	4.965
379.30	4.008
379.66	5.140
380.02	4.853
380.38	4.007
380.74	4.622
381.09	5.196
381.45	5.532
381.81	5.835
382.17	4.522
382.53	4.465
382.89	4.506
383.25	4.690
383.61	4.957
383.97	5.066
384.32	5.178
384.68	5.081
385.04	5.101
385.40	4.520
385.76	5.283
386.12	4.858
386.48	5.349
386.83	4.875
387.19	5.813
387.55	4.515
387.91	4.232
388.27	4.476
388.62	5.101
388.98	4.115
389.34	5.507
389.70	5.150
390.06	5.387
390.42	4.604
390.77	5.407
391.13	4.978
391.49	5.457
391.85	4.456
392.20	3.533
392.56	5.051
392.92	4.885
393.28	3.846
393.64	5.516
393.99	5.437
394.35	4.963
394.71	4.893
395.07	5.732
395.42	4.944
395.78	4.962
396.14	5.400
396.50	5.263
396.85	5.149
397.21	4.871
397.57	5.084
397.92	4.627
398.28	4.260
398.64	5.078
399.00	4.477
399.35	4.061
399.71	4.630
400.07	4.967
400.42	5.092
400.78	5.006
401.14	4.146
401.49	4.657
401.85	4.537
402.21	4.671
402.57	4.688
402.92	4.918
403.28	4.247
403.63	4.517
403.99	4.140
404.35	4.667
404.70	4.436
405.06	5.067
405.42	4.429
405.77	3.829
406.13	4.740
406.49	5.263
406.84	4.548
407.20	4.551
407.55	5.233
407.91	4.533
408.27	4.659
408.62	4.937
408.98	4.902
409.34	4.613
409.69	4.258
410.05	4.771
410.40	4.893
410.76	5.376
411.11	4.524
411.47	4.792
411.83	5.681
412.18	4.391
412.54	5.044
412.89	4.578
413.25	5.372
413.60	4.571
413.96	4.189
414.31	4.860
414.67	4.626
415.03	4.503
415.38	5.090
415.74	4.566
416.09	5.552
416.45	4.618
416.80	4.693
417.16	5.697
417.51	5.839
417.87	5.074
418.22	4.543
418.58	5.875
418.93	5.590
419.29	5.283
419.64	5.542
420.00	5.549
420.35	5.623
420.71	5.798
421.06	4.236
421.42	4.854
421.77	5.325
422.12	4.436
422.48	3.940
422.83	4.892
423.19	4.917
423.54	5.107
423.90	4.986
424.25	5.248
424.61	4.702
424.96	4.431
425.31	5.482
425.67	4.382
426.02	4.629
426.38	5.739
426.73	5.208
427.09	5.228
427.44	4.945
427.79	4.370
428.15	5.536
428.50	4.740
428.85	5.364
429.21	4.141
429.56	4.717
429.92	4.429
430.27	4.320
430.62	4.455
430.98	5.034
431.33	5.052
431.68	4.607
432.04	4.899
432.39	4.226
432.74	5.206
433.10	4.810
433.45	5.656
433.80	4.490
434.16	5.288
434.51	4.684
434.86	5.017
435.22	4.447
435.57	4.681
435.92	4.740
436.28	5.160
436.63	5.795
436.98	4.637
437.34	5.367
437.69	5.309
438.04	4.666
438.39	5.313
438.75	4.823
439.10	5.140
439.45	4.900
439.81	4.653
440.16	4.461
440.51	4.979
440.86	4.806
441.22	4.950
441.57	4.936
441.92	5.118
442.27	4.629
442.63	4.055
442.98	5.465
443.33	5.000
443.68	4.801
444.03	5.222
444.39	3.700
444.74	4.870
445.09	5.337
445.44	4.975
445.79	4.255
446.15	5.664
446.50	4.416
446.85	4.882
447.20	4.386
447.55	5.360
447.91	5.074
448.26	5.231
448.61	4.975
448.96	5.150
449.31	5.006
449.66	5.065
450.02	4.624
450.37	4.705
450.72	4.907
451.07	4.875
451.42	4.985
451.77	5.050
452.12	6.005
452.47	5.100
452.83	5.070
453.18	5.440
453.53	4.824
453.88	4.962
454.23	5.380
454.58	5.209
454.93	5.976
455.28	4.613
455.63	5.704
455.98	5.655
456.34	4.460
456.69	5.761
457.04	5.820
457.39	4.793
457.74	5.049
458.09	5.635
458.44	5.245
458.79	4.989
459.14	5.305
459.49	5.371
459.84	4.598
460.19	5.303
460.54	5.440
460.89	5.047
461.24	4.918
461.59	6.101
461.94	4.932
462.29	5.816
462.64	5.041
462.99	5.465
463.34	5.533
463.69	5.191
464.04	5.333
464.39	5.159
464.74	5.407
465.09	4.765
465.44	4.765
465.79	4.530
466.14	5.090
466.49	5.006
466.84	5.487
467.19	5.613
467.54	5.625
467.89	5.282
468.24	5.294
468.59	5.861
468.94	5.192
469.29	4.692
469.64	6.627
469.99	6.089
470.34	5.548
470.68	5.244
471.03	5.510
471.38	6.671
471.73	6.462
472.08	5.658
472.43	5.276
472.78	5.464
473.13	5.392
473.48	5.243
473.83	5.244
474.17	5.414
474.52	5.645
474.87	5.779
475.22	5.165
475.57	5.159
475.92	4.939
476.27	5.186
476.61	4.964
476.96	5.113
477.31	4.605
477.66	5.088
478.01	4.757
478.36	5.500
478.70	4.881
479.05	4.473
479.40	5.220
479.75	4.931
480.10	5.467
480.45	5.283
480.79	4.109
481.14	4.990
481.49	4.651
481.84	4.481
482.19	4.225
482.53	4.266
482.88	4.514
483.23	4.860
483.58	4.914
483.92	4.780
484.27	4.532
484.62	4.267
484.97	4.572
485.31	4.178
485.66	3.343
486.01	2.911
486.36	2.981
486.70	3.020
487.05	3.293
487.40	3.269
487.75	3.286
488.09	3.852
488.44	3.669
488.79	4.412
489.13	4.507
489.48	4.241
489.83	5.050
490.17	4.822
490.52	4.650
490.87	4.975
491.22	4.548
491.56	4.282
491.91	4.467
492.26	4.272
492.60	4.654
492.95	4.537
493.30	4.533
493.64	4.620
493.99	4.271
494.34	5.088
494.68	5.449
495.03	4.699
495.37	4.607
495.72	4.727
496.07	4.826
496.41	4.292
496.76	4.398
497.11	4.773
497.45	4.099
497.80	4.079
498.14	4.058
498.49	4.098
498.84	4.986
499.18	4.190
499.53	5.081
499.87	4.240
500.22	5.228
500.56	5.000
500.91	4.519
501.26	4.599
501.60	4.841
501.95	4.858
502.29	5.389
502.64	4.516
502.98	4.254
503.33	4.388
503.67	4.269
504.02	4.350
504.36	4.913
504.71	4.446
505.06	5.060
505.40	4.570
505.75	4.870
506.09	4.519
506.44	4.539
506.78	4.433
507.13	4.796
507.47	5.152
507.82	5.167
508.16	4.762
508.51	5.074
508.85	4.518
509.19	4.745
509.54	4.592
509.88	4.482
510.23	4.936
510.57	5.728
510.92	5.023
511.26	4.779
511.61	5.498
511.95	4.854
512.30	4.772
512.64	5.159
512.98	5.681
513.33	5.246
513.67	5.176
514.02	4.600
514.36	4.806
514.70	5.257
515.05	4.406
515.39	5.609
515.74	4.730
516.08	5.143
516.42	5.549
516.77	5.407
517.11	4.883
517.46	5.756
517.80	5.052
518.14	4.517
518.49	5.718
518.83	5.682
519.17	5.196
519.52	5.207
519.86	5.020
520.20	5.549
520.55	5.147
520.89	5.596
521.23	5.850
521.58	5.942
521.92	5.818
522.26	5.552
522.61	5.545
522.95	5.341
523.29	5.782
523.64	5.366
523.98	5.915
524.32	5.790
524.66	6.374
525.01	5.576
525.35	5.700
525.69	5.727
526.04	5.047
526.38	5.735
526.72	5.215
527.06	5.712
527.41	5.446
527.75	5.723
528.09	5.973
528.43	5.927
528.78	6.331
529.12	5.333
529.46	6.185
529.80	5.260
530.15	5.919
530.49	5.538
530.83	6.139
531.17	5.548
531.51	6.615
531.86	5.613
532.20	6.454
532.54	7.111
532.88	6.226
533.22	5.934
533.57	5.988
533.91	5.840
534.25	5.346
534.59	5.674
534.93	6.008
535.27	6.457
535.62	6.593
535.96	5.964
536.30	4.895
536.64	5.860
536.98	6.238
537.32	6.122
537.66	6.200
538.01	6.452
538.35	6.464
538.69	6.765
539.03	6.108
539.37	5.687
539.71	4.990
540.05	5.948
540.39	6.578
540.73	5.433
541.07	6.424
541.42	6.327
541.76	7.161
542.10	6.662
542.44	6.291
542.78	6.917
543.12	5.822
543.46	5.770
543.80	6.376
544.14	5.327
544.48	6.286
544.82	5.581
545.16	6.181
545.50	5.463
545.84	6.586
546.18	5.993
546.52	6.676
546.86	5.704
547.20	7.080
547.54	7.014
547.88	7.270
548.22	6.102
548.56	6.918
548.90	5.570
549.24	5.455
549.58	6.548
549.92	6.456
550.26	6.605
550.60	6.570
550.94	5.845
551.28	5.706
551.62	6.686
551.96	6.386
552.30	6.689
552.64	6.085
552.98	6.644
553.32	6.608
553.66	6.817
554.00	6.589
554.34	6.073
554.68	6.223
555.02	5.924
555.36	6.820
555.69	5.886
556.03	6.931
556.37	7.299
556.71	6.480
557.05	6.653
557.39	6.158
557.73	6.634
558.07	6.454
558.41	6.295
558.75	6.686
559.08	7.084
559.42	6.198
559.76	6.324
560.10	6.424
560.44	6.778
560.78	6.121
561.12	6.530
561.45	7.106
561.79	6.526
562.13	6.304
562.47	6.489
562.81	6.346
563.15	6.823
563.48	6.034
563.82	6.327
564.16	6.148
564.50	5.273
564.84	5.942
565.17	5.534
565.51	5.942
565.85	5.964
566.19	5.385
566.52	6.713
566.86	4.882
567.20	5.955
567.54	5.537
567.88	5.106
568.21	5.767
568.55	5.612
568.89	4.767
569.23	5.036
569.56	5.142
569.90	4.830
570.24	4.772
570.57	4.216
570.91	4.493
571.25	4.169
571.59	4.330
571.92	4.407
572.26	4.102
572.60	4.234
572.93	4.498
573.27	4.466
573.61	4.243
573.95	4.703
574.28	4.095
574.62	4.057
574.96	4.062
575.29	4.049
575.63	4.192
575.97	3.775
576.30	4.302
576.64	3.867
576.98	3.913
577.31	3.789
577.65	3.996
577.98	3.579
578.32	3.554
578.66	3.962
578.99	4.177
579.33	3.801
579.67	3.843
580.00	3.908
580.34	3.868
580.67	4.018
581.01	4.160
581.35	3.457
581.68	3.924
582.02	3.551
582.35	3.599
582.69	3.828
583.02	3.871
583.36	3.897
583.70	4.071
584.03	3.971
584.37	4.453
584.70	3.892
585.04	4.232
585.37	4.287
585.71	4.229
586.04	3.962
586.38	3.840
586.72	4.170
587.05	4.401
587.39	3.694
587.72	4.097
588.06	4.216
588.39	4.115
588.73	4.224
589.06	4.612
589.40	4.310
589.73	4.365
590.07	4.875
590.40	4.457
590.73	4.450
591.07	4.762
591.40	4.935
591.74	5.108
592.07	4.887
592.41	4.837
592.74	4.682
593.08	4.364
593.41	4.429
593.75	4.591
594.08	4.626
594.41	4.843
594.75	4.325
595.08	4.903
595.42	4.588
595.75	4.523
596.09	4.844
596.42	5.383
596.75	5.234
597.09	5.411
597.42	5.185
597.75	4.614
598.09	5.043
598.42	5.369
598.76	4.378
599.09	4.865
599.42	4.512
599.76	4.905
600.09	4.481
600.42	4.821
600.76	4.429
601.09	4.408
601.42	4.756
601.76	4.934
602.09	4.862
602.42	5.056
602.76	5.441
603.09	4.485
603.42	5.271
603.76	4.726
604.09	4.420
604.42	4.933
604.76	5.272
605.09	4.587
605.42	5.173
605.75	4.719
606.09	4.677
606.42	4.332
606.75	4.770
607.09	5.776
607.42	4.450
607.75	4.641
608.08	4.820
608.42	5.648
608.75	5.410
609.08	5.180
609.41	5.474
609.75	4.955
610.08	4.995
610.41	4.935
610.74	4.730
611.07	5.138
611.41	5.201
611.74	5.933
612.07	5.797
612.40	5.981
612.73	5.158
613.07	5.819
613.40	6.266
613.73	5.087
614.06	5.914
614.39	5.821
614.72	6.053
615.06	5.830
615.39	5.202
615.72	5.368
616.05	5.582
616.38	5.614
616.71	5.048
617.05	5.771
617.38	5.652
617.71	6.066
618.04	5.649
618.37	5.736
618.70	6.472
619.03	7.171
619.36	6.653
619.69	6.972
620.03	6.525
620.36	6.283
620.69	6.712
621.02	6.490
621.35	6.186
621.68	6.620
622.01	6.192
622.34	7.186
622.67	6.616
623.00	6.016
623.33	5.861
623.66	6.147
623.99	6.333
624.32	5.563
624.65	6.497
624.99	5.595
625.32	5.358
625.65	6.161
625.98	7.610
626.31	7.309
626.64	7.102
626.97	6.983
627.30	6.899
627.63	8.203
627.96	6.897
628.29	7.874
628.62	7.777
628.95	8.396
629.28	6.843
629.61	8.524
629.94	8.286
630.26	6.768
630.59	7.436
630.92	7.088
631.25	7.206
631.58	7.207
631.91	7.708
632.24	7.173
632.57	8.290
632.90	8.114
633.23	8.725
633.56	9.040
633.89	8.267
634.22	9.421
634.55	8.521
634.88	8.024
635.20	9.080
635.53	9.759
635.86	8.168
636.19	8.000
636.52	8.420
636.85	7.446
637.18	6.567
637.51	10.047
637.83	6.782
638.16	8.696
638.49	8.060
638.82	10.999
639.15	9.875
639.48	9.476
639.81	9.920
640.13	9.896
640.46	10.604
640.79	9.775
641.12	9.216
641.45	10.196
641.77	10.015
642.10	10.526
642.43	8.709
642.76	9.907
643.09	9.816
643.41	10.167
643.74	10.957
644.07	8.689
644.40	12.577
644.73	10.866
645.05	12.044
645.38	10.269
645.71	9.662
646.04	9.967
646.36	11.185
646.69	12.876
647.02	12.245
647.35	10.653
647.67	10.619
648.00	13.821
648.33	10.231
648.66	11.061
648.98	11.544
649.31	9.118
649.64	9.716
649.96	10.134
650.29	10.111
650.62	10.518
650.94	12.642
651.27	10.473
651.60	11.647
651.92	11.502
652.25	10.586
652.58	11.526
652.90	10.742
653.23	9.861
653.56	7.874
653.88	10.777
654.21	11.690
654.54	9.736
654.86	9.813
655.19	9.595
655.52	4.722
655.84	2.682
656.17	3.057
656.49	3.971
656.82	4.244
657.15	3.367
657.47	2.622
657.80	2.095
658.13	2.307
658.45	3.495
658.78	3.602
659.10	4.360
659.43	4.391
659.75	4.734
660.08	5.633
660.41	7.914
660.73	10.165
661.06	8.917
661.38	12.727
661.71	10.769
662.03	11.637
662.36	8.549
662.68	11.044
663.01	12.727
663.33	12.527
663.66	12.605
663.98	12.311
664.31	9.874
664.63	11.134
664.96	9.256
665.28	13.320
665.61	13.255
665.93	11.268
666.26	13.387
666.58	12.971
666.91	15.222
667.23	13.708
667.56	15.119
667.88	13.675
668.21	17.271
668.53	14.317
668.86	13.420
669.18	13.646
669.50	12.826
669.83	15.468
670.15	12.667
670.48	11.983
670.80	13.578
671.13	14.437
671.45	12.766
671.77	14.053
672.10	13.124
672.42	11.837
672.75	11.940
673.07	10.211
673.39	9.946
673.72	10.937
674.04	12.549
674.37	13.204
674.69	11.656
675.01	10.042
675.34	15.606
675.66	14.947
675.98	11.813
676.31	12.605
676.63	13.800
676.95	10.901
677.28	12.617
677.60	11.209
677.92	15.823
678.25	14.579
678.57	11.155
678.89	13.026
679.22	11.788
679.54	11.832
679.86	12.844
680.18	12.701
680.51	12.234
680.83	11.210
681.15	13.208
681.48	12.287
681.80	11.605
682.12	10.153
682.44	10.445
682.77	12.627
683.09	15.665
683.41	15.521
683.73	13.907
684.06	14.463
684.38	11.155
684.70	11.822
685.02	12.946
685.34	12.271
685.67	9.091
685.99	9.450
686.31	10.410
686.63	8.834
686.96	11.964
687.28	12.094
687.60	11.594
687.92	12.431
688.24	11.027
688.56	15.261
688.89	12.241
689.21	14.629
689.53	13.779
689.85	12.195
690.17	12.629
690.49	16.136
690.82	13.318
691.14	13.170
691.46	12.025
691.78	12.851
692.10	12.397
692.42	14.970
692.74	12.033
693.06	12.340
693.39	12.526
693.71	11.572
694.03	15.158
694.35	14.069
694.67	14.416
694.99	14.390
695.31	14.461
695.63	13.397
695.95	12.714
696.27	13.706
696.59	13.212
696.91	17.358
697.23	12.676
697.56	15.778
697.88	10.225
698.20	13.958
698.52	13.763
698.84	11.136
699.16	12.442
699.48	13.539
699.80	12.560
700.12	16.104
700.44	17.507
700.76	16.298
701.08	17.241
701.40	16.201
701.72	17.493
702.04	21.023
702.36	15.297
702.68	15.864
703.00	13.296
703.32	12.766
703.64	16.354
703.96	17.270
704.28	13.953
704.60	15.836
704.91	16.320
705.23	19.355
705.55	18.605
705.87	21.927
706.19	17.668
706.51	18.069
706.83	16.364
707.15	18.768
707.47	14.646
707.79	15.479
708.11	15.753
708.43	11.429
708.74	14.541
709.06	16.883
709.38	16.010
709.70	17.151
710.02	18.991
710.34	14.545
710.66	18.209
710.98	17.045
711.29	21.221
711.61	19.174
711.93	16.026
712.25	20.579
712.57	20.588
712.89	17.301
713.20	18.845
713.52	16.776
713.84	17.405
714.16	14.634
714.48	15.230
714.80	21.581
715.11	19.020
715.43	14.837
715.75	19.710
716.07	19.169
716.39	15.674
716.70	22.259
717.02	20.504
717.34	21.201
717.66	20.149
717.97	25.896
718.29	21.852
718.61	16.788
718.93	21.691
719.24	21.453
719.56	17.966
719.88	20.000
720.20	19.595
720.51	18.467
720.83	23.048
721.15	22.388
721.46	20.213
721.78	20.430
722.10	23.396
722.42	22.556
722.73	23.970
723.05	19.262
723.37	19.028
723.68	21.622
724.00	19.512
724.32	22.581
724.63	22.764
724.95	19.665
725.27	24.696
725.58	24.609
725.90	23.723
726.22	18.113
726.53	19.097
726.85	19.795
727.16	19.929
727.48	20.567
727.80	23.106
728.11	18.841
728.43	16.923
728.74	18.996
729.06	22.263
729.38	21.691
729.69	22.776
730.01	23.891
730.32	19.097
730.64	18.060
730.96	17.492
731.27	19.205
731.59	18.960
731.90	18.367
732.22	16.149
732.53	13.932
732.85	18.269
733.16	19.293
733.48	16.944
733.80	15.260
734.11	20.701
734.43	18.935
734.74	16.000
735.06	14.613
735.37	20.520
735.69	15.924
736.00	17.974
736.32	19.938
736.63	15.974
736.95	16.613
737.26	14.286
737.58	17.097
737.89	19.732
738.21	19.795
738.52	22.857
738.83	18.868
739.15	20.769
739.46	22.263
739.78	17.014
740.09	20.308
740.41	19.032
740.72	16.028
741.04	20.370
741.35	22.083
741.66	28.444
741.98	22.642
742.29	25.837
742.61	28.448
742.92	23.982
743.23	24.786
743.55	20.400
743.86	25.439
744.18	26.549
744.49	26.794
744.80	30.047
745.12	28.636
745.43	22.026
745.74	26.126
746.06	23.394
746.37	20.179
746.68	23.077
747.00	25.463
747.31	27.143
747.62	19.469
747.94	23.348
748.25	24.255
748.56	28.634
748.88	24.752
749.19	35.000
749.50	26.512
749.82	21.138
750.13	18.367
750.44	16.788
750.75	23.509
751.07	20.579
751.38	20.906
751.69	20.939
752.01	22.180
752.32	17.329
752.63	19.504
752.94	19.672
753.26	27.600
753.57	16.667
753.88	24.219
754.19	21.786
754.51	21.528
754.82	15.162
755.13	21.132
755.44	18.421
755.75	17.153
756.07	17.021
756.38	13.869
756.69	20.470
757.00	18.862
757.31	20.772
757.63	15.205
757.94	14.209
758.25	14.951
758.56	14.568
758.87	14.785
759.18	17.576
759.50	17.555
759.81	17.757
760.12	16.250
760.43	16.046
760.74	17.120
761.05	15.819
761.36	15.508
761.67	14.489
761.99	18.012
762.30	24.306
762.61	20.611
762.92	22.266
763.23	23.109
763.54	22.400
763.85	20.703
764.16	22.308
764.47	23.574
764.78	15.901
765.10	17.722
765.41	15.339
765.72	17.964
766.03	20.063
766.34	19.000
766.65	26.383
766.96	21.368
767.27	26.396
767.58	29.688
767.89	31.579
768.20	28.161
768.51	24.365
768.82	27.982
769.13	21.138
769.44	18.219
769.75	25.322
770.06	17.890
770.37	28.054
770.68	26.389
770.99	22.667
771.30	16.393
771.61	21.973
771.92	27.869
772.23	28.571
772.54	25.128
772.85	27.225
773.16	31.383
773.47	38.587
773.78	36.041
774.09	28.571
774.39	32.749
774.70	29.630
775.01	35.507
775.32	39.216
775.63	42.763
775.94	35.971
776.25	43.307
776.56	44.776
776.87	45.082
777.18	47.656
777.48	48.092
777.79	40.909
778.10	35.556
778.41	44.643
778.72	35.036
779.03	36.913
779.34	36.913
779.65	37.838
779.95	33.742
780.26	35.948
780.57	40.690
780.88	45.312
781.19	42.105
781.50	42.568
781.80	38.994
782.11	35.028
782.42	29.114
782.73	31.288
783.04	37.838
783.34	40.845
783.65	45.890
783.96	42.537
784.27	33.566
784.57	30.216
784.88	28.704
785.19	48.413
785.50	35.849
785.81	35.821
786.11	45.902
786.42	44.186
786.73	37.168
787.04	44.340
787.34	51.786
787.65	55.000
787.96	44.144
788.26	42.975
788.57	54.237
788.88	47.934
789.19	46.528
789.49	43.182
789.80	40.458
790.11	56.190
790.41	52.475
790.72	51.807
791.03	61.957
791.33	53.488
791.64	56.701
791.95	49.505
792.25	61.111
792.56	53.247
792.87	74.359
793.17	74.684
793.48	68.966
793.79	60.920
794.09	71.591
794.40	48.739
794.70	50.000
795.01	38.519
795.32	40.288
795.62	39.370
795.93	44.828
796.23	46.018
796.54	44.706
796.85	79.730
797.15	84.507
797.46	60.606
797.76	75.904
798.07	73.418
798.37	58.462
798.68	71.212
798.99	63.380
799.29	40.260
799.60	62.500
799.90	72.603
800.21	71.642
800.51	75.862
800.82	94.737
801.12	80.328
801.43	81.818
801.73	62.162
802.04	88.889
802.34	74.074
802.65	90.625
802.95	91.525
803.26	93.750
803.56	65.714
803.87	80.000
804.17	86.765
804.48	87.037
804.78	63.793
805.09	85.294
805.39	109.615
805.70	69.643
806.00	77.049
806.30	66.667
806.61	63.415
806.91	62.025
807.22	65.789
807.52	58.209
807.83	80.282
808.13	84.375
808.43	90.000
808.74	60.526
809.04	76.812
809.35	79.104
809.65	75.000
809.95	108.065
810.26	74.576
810.56	73.016
810.86	134.091
811.17	126.190
811.47	85.000
811.77	101.852
812.08	96.364
812.38	96.000
812.69	125.000
812.99	150.000
813.29	128.571
813.59	107.143
813.90	116.327
814.20	78.182
814.50	81.538
814.81	94.118
815.11	118.367
815.41	103.279
815.72	126.190
816.02	112.727
816.32	111.905
816.62	122.500
816.93	117.073
817.23	119.048
817.53	125.000
817.84	172.727
818.14	123.913
818.44	133.333
818.74	114.706
819.04	120.000
819.35	122.857
819.65	170.588
819.95	139.286
820.25	140.000
820.56	138.462
820.86	134.091
821.16	127.907
821.46	130.769
821.76	112.000
822.07	125.714
822.37	120.000
822.67	121.212
822.97	105.882
823.27	175.000
823.57	129.730
823.88	142.500
824.18	183.333
824.48	152.381
824.78	180.000
825.08	158.333
825.38	162.162
825.69	134.146
825.99	216.667
826.29	151.724
826.59	152.632
826.89	142.105
827.19	135.294
827.49	148.387
827.79	138.636
828.09	111.364
828.39	108.511
828.70	116.327
829.00	137.037
829.30	129.032
829.60	125.000
829.90	293.333
830.20	182.143
830.50	186.957
830.80	226.087
831.10	193.333
831.40	170.000
831.70	169.565
832.00	192.308
832.30	192.593
832.60	293.750
832.90	150.000
833.20	350.000
833.50	164.516
833.80	186.207
834.10	181.250
834.40	188.462
834.70	261.111
835.00	295.238
835.30	162.857
835.60	353.846
835.90	182.759
836.20	314.286
836.50	186.207
836.80	176.000
837.10	161.111
837.40	223.810
837.70	305.882
838.00	225.926
838.30	223.810
838.60	276.190
838.90	223.077
839.19	225.000
839.49	300.000
839.79	280.000
840.09	265.000
840.39	257.143
840.69	195.652
840.99	283.333
841.29	510.000
841.59	308.333
841.88	362.500
842.18	196.552
842.48	209.524
842.78	193.333
843.08	208.696
843.38	175.000
843.68	950.000
843.97	215.385
844.27	175.862
844.57	233.333
844.87	368.750
845.17	222.222
845.47	1600.000
845.76	433.333
846.06	294.118
846.36	512.500
846.66	342.857
846.96	275.000
847.25	472.727
847.55	390.909
847.85	252.174
848.15	550.000
848.44	385.714
848.74	250.000
849.04	294.118
849.34	470.000
849.63	263.158
849.93	436.364
850.23	1120.000
850.53	392.857
850.82	2300.000
851.12	-3800.000
851.42	4000.000
851.71	260.000
852.01	-1633.333
852.31	233.333
852.61	1466.667
852.90	252.381
853.20	240.000
853.50	305.882
853.79	266.667
854.09	225.000
854.39	275.000
854.68	175.676
854.98	180.645
855.28	156.667
855.57	210.345
855.87	203.704
856.17	226.316
856.46	226.667
856.76	264.706
857.05	196.552
857.35	225.000
857.65	273.333
857.94	243.478
858.24	223.077
858.53	295.000
858.83	240.909
859.13	320.000
859.42	0.000
859.72	488.889
860.01	445.455
860.31	209.091
860.60	247.368
860.90	239.130
861.20	522.222
861.49	450.000
861.79	-4500.000
862.08	562.500
862.38	280.952
862.67	238.462
862.97	305.882
863.26	588.889
863.56	300.000
863.85	441.667
864.15	537.500
864.44	460.000
864.74	766.667
865.03	687.500
865.33	294.737
865.62	454.545
865.92	430.769
866.21	316.667
866.51	0.000
866.80	436.364
867.10	1120.000
867.39	415.385
867.69	454.545
867.98	263.158
868.27	445.455
868.57	294.737
868.86	-4300.000
869.16	300.000
869.45	1900.000
869.75	-4400.000
870.04	400.000
870.33	728.571
870.63	1000.000
870.92	2350.000
871.22	671.429
871.51	335.294
871.80	266.667
872.10	400.000
>>>>>End Processed Spectral Data<<<<<
