SpectraSuite Data File
++++++++++++++++++++++++++++++++++++
Date: Tue May 12 19:58:24 PDT 2015
User: schluterlab
Dark Spectrum Present: Yes
Reference Spectrum Present: Yes
Number of Sampled Component Spectra: 1
Spectrometers: USB2E3373
Integration Time (usec): 3000 (USB2E3373)
Spectra Averaged: 3 (USB2E3373)
Boxcar Smoothing: 0 (USB2E3373)
Correct for Electrical Dark: No (USB2E3373)
Strobe/Lamp Enabled: No (USB2E3373)
Correct for Detector Non-linearity: No (USB2E3373)
Correct for Stray Light: No (USB2E3373)
Number of Pixels in Processed Spectrum: 2048
>>>>>Begin Processed Spectral Data<<<<<
178.53	0.000
178.91	-190.000
179.29	-300.000
179.67	766.667
180.04	0.000
180.42	-220.000
180.80	-200.000
181.18	1250.000
181.56	-700.000
181.94	383.333
182.31	1700.000
182.69	-157.143
183.07	0.000
183.45	283.333
183.83	380.000
184.20	366.667
184.58	950.000
184.96	516.667
185.34	-600.000
185.72	-150.000
186.09	-216.667
186.47	-2700.000
186.85	-240.000
187.23	325.000
187.61	-257.143
187.98	-520.000
188.36	850.000
188.74	-300.000
189.12	-122.222
189.49	-130.000
189.87	500.000
190.25	166.667
190.63	766.667
191.00	560.000
191.38	-333.333
191.76	340.000
192.14	-71.429
192.51	-160.000
192.89	-200.000
193.27	-200.000
193.65	-300.000
194.02	-333.333
194.40	2100.000
194.78	-162.500
195.15	-285.714
195.53	333.333
195.91	260.000
196.29	-650.000
196.66	-600.000
197.04	-342.857
197.42	220.000
197.79	-250.000
198.17	-166.667
198.55	-800.000
198.92	-233.333
199.30	1350.000
199.68	-475.000
200.05	-1100.000
200.43	-22.222
200.81	-125.000
201.18	433.333
201.56	-800.000
201.94	-2100.000
202.31	-141.667
202.69	-133.333
203.07	-100.000
203.44	-575.000
203.82	0.000
204.19	400.000
204.57	-400.000
204.95	236.364
205.32	420.000
205.70	925.000
206.08	-500.000
206.45	-300.000
206.83	2400.000
207.20	-200.000
207.58	-123.077
207.96	566.667
208.33	1166.667
208.71	833.333
209.08	1250.000
209.46	-77.778
209.84	633.333
210.21	-833.333
210.59	300.000
210.96	255.556
211.34	-475.000
211.71	1200.000
212.09	-80.000
212.46	-250.000
212.84	-187.500
213.22	300.000
213.59	-112.500
213.97	0.000
214.34	-550.000
214.72	-1900.000
215.09	1050.000
215.47	-100.000
215.84	-187.500
216.22	-2000.000
216.59	2100.000
216.97	-91.667
217.34	-350.000
217.72	-27.778
218.09	450.000
218.47	-73.684
218.84	-175.000
219.22	-114.286
219.59	-190.000
219.97	-170.000
220.34	416.667
220.72	200.000
221.09	-700.000
221.47	0.000
221.84	750.000
222.22	-425.000
222.59	-775.000
222.97	-65.217
223.34	220.000
223.72	514.286
224.09	-416.667
224.46	192.308
224.84	-140.000
225.21	-1000.000
225.59	-300.000
225.96	-20.000
226.34	300.000
226.71	290.000
227.08	-92.308
227.46	-185.714
227.83	-150.000
228.21	-1750.000
228.58	450.000
228.95	-73.684
229.33	-31.250
229.70	-266.667
230.08	-188.889
230.45	-833.333
230.82	-2500.000
231.20	-80.952
231.57	-680.000
231.95	-866.667
232.32	322.222
232.69	-900.000
233.07	0.000
233.44	-150.000
233.81	-9.677
234.19	-420.000
234.56	-105.556
234.93	-216.667
235.31	-29.630
235.68	-51.852
236.05	-84.615
236.43	-131.579
236.80	-68.182
237.17	-164.286
237.55	-155.000
237.92	-6.977
238.29	-51.613
238.67	-17.857
239.04	-25.714
239.41	-39.216
239.79	-16.000
240.16	-25.000
240.53	-29.310
240.91	-6.849
241.28	-16.901
241.65	-12.500
242.02	-24.561
242.40	-25.333
242.77	-17.895
243.14	3.529
243.51	-10.753
243.89	-20.000
244.26	-8.333
244.63	-11.224
245.00	-19.643
245.38	-26.050
245.75	-7.627
246.12	-10.156
246.49	-23.200
246.87	-9.836
247.24	-15.493
247.61	-9.934
247.98	-3.371
248.36	-9.434
248.73	-5.114
249.10	-7.778
249.47	-3.125
249.84	-6.091
250.22	-10.938
250.59	-2.809
250.96	-7.727
251.33	-2.358
251.70	-4.128
252.08	-0.433
252.45	-2.041
252.82	-7.595
253.19	-4.280
253.56	-3.529
253.94	-3.659
254.31	4.676
254.68	-1.736
255.05	0.662
255.42	-4.727
255.79	0.662
256.16	-2.778
256.54	0.909
256.91	3.526
257.28	-0.649
257.65	-5.902
258.02	0.601
258.39	1.208
258.76	1.835
259.14	-3.824
259.51	3.099
259.88	2.017
260.25	-2.273
260.62	-3.371
260.99	-1.393
261.36	-1.149
261.73	-0.267
262.10	-1.362
262.47	1.102
262.85	5.398
263.22	-2.688
263.59	-1.877
263.96	-2.089
264.33	-2.426
264.70	2.457
265.07	-2.217
265.44	2.810
265.81	1.928
266.18	0.234
266.55	0.952
266.92	1.563
267.29	-0.667
267.66	-1.364
268.03	0.860
268.40	0.686
268.77	-0.223
269.14	0.630
269.51	0.000
269.88	1.282
270.25	0.633
270.62	0.630
270.99	0.211
271.36	-0.662
271.73	0.000
272.10	2.490
272.47	0.600
272.84	-4.034
273.21	-2.088
273.58	-1.020
273.95	-0.199
274.32	3.288
274.69	2.348
275.06	0.563
275.43	0.200
275.80	2.677
276.17	-0.593
276.54	2.662
276.91	0.384
277.28	2.515
277.65	-0.567
278.02	2.652
278.39	2.722
278.76	0.186
279.13	1.252
279.50	2.166
279.87	1.698
280.23	0.546
280.60	-1.767
280.97	0.879
281.34	-0.169
281.71	0.178
282.08	2.326
282.45	-1.940
282.82	1.347
283.19	0.505
283.56	1.536
283.92	1.106
284.29	1.692
284.66	-0.177
285.03	-1.715
285.40	1.000
285.77	0.985
286.14	2.377
286.51	-0.482
286.87	0.810
287.24	-0.962
287.61	-0.463
287.98	1.095
288.35	2.016
288.72	1.529
289.08	0.629
289.45	1.248
289.82	-0.466
290.19	0.909
290.56	2.171
290.93	1.182
291.29	1.135
291.66	2.388
292.03	4.017
292.40	2.014
292.77	1.458
293.13	1.615
293.50	2.893
293.87	1.526
294.24	0.983
294.60	3.415
294.97	1.662
295.34	1.507
295.71	1.387
296.08	1.366
296.44	2.108
296.81	0.647
297.18	2.717
297.55	1.005
297.91	1.396
298.28	0.639
298.65	2.070
299.02	1.850
299.38	1.148
299.75	2.574
300.12	2.158
300.48	2.113
300.85	0.489
301.22	1.923
301.59	0.730
301.95	2.439
302.32	1.458
302.69	-0.119
303.05	1.063
303.42	1.087
303.79	1.348
304.15	2.152
304.52	1.676
304.89	2.029
305.25	1.147
305.62	2.386
305.99	1.120
306.35	1.902
306.72	1.852
307.09	2.067
307.45	1.294
307.82	2.241
308.19	2.970
308.55	2.743
308.92	2.648
309.29	2.929
309.65	2.477
310.02	3.040
310.38	2.239
310.75	2.971
311.12	1.933
311.48	2.980
311.85	2.736
312.22	2.893
312.58	3.122
312.95	3.080
313.31	3.048
313.68	3.774
314.05	3.575
314.41	3.831
314.78	3.819
315.14	4.505
315.51	3.178
315.87	4.980
316.24	4.352
316.61	4.466
316.97	3.725
317.34	4.115
317.70	4.575
318.07	4.629
318.43	5.482
318.80	5.556
319.16	4.194
319.53	5.849
319.89	6.061
320.26	6.588
320.62	6.589
320.99	7.041
321.35	7.510
321.72	8.182
322.08	7.921
322.45	7.791
322.81	8.867
323.18	7.958
323.54	9.384
323.91	8.444
324.27	8.968
324.64	8.435
325.00	8.735
325.37	10.881
325.73	9.489
326.10	11.559
326.46	10.335
326.83	11.434
327.19	12.314
327.56	12.378
327.92	12.066
328.29	12.903
328.65	12.712
329.01	11.835
329.38	13.499
329.74	13.278
330.11	12.582
330.47	12.849
330.84	13.722
331.20	13.494
331.56	13.679
331.93	14.181
332.29	14.616
332.66	14.738
333.02	15.042
333.38	14.430
333.75	15.188
334.11	14.828
334.48	14.937
334.84	14.178
335.20	15.398
335.57	15.350
335.93	14.698
336.29	15.265
336.66	15.483
337.02	14.597
337.38	16.509
337.75	16.636
338.11	16.955
338.47	17.084
338.84	15.101
339.20	16.590
339.56	16.496
339.93	15.766
340.29	16.682
340.65	17.352
341.02	15.855
341.38	16.858
341.74	15.747
342.11	16.269
342.47	15.297
342.83	16.132
343.20	15.915
343.56	15.997
343.92	17.323
344.28	15.180
344.65	16.096
345.01	16.202
345.37	17.094
345.73	15.762
346.10	15.557
346.46	15.099
346.82	15.888
347.19	15.896
347.55	16.667
347.91	15.807
348.27	16.512
348.63	16.422
349.00	17.529
349.36	15.746
349.72	16.502
350.08	16.530
350.45	16.517
350.81	16.185
351.17	17.216
351.53	16.264
351.89	16.753
352.26	16.585
352.62	16.680
352.98	16.904
353.34	16.124
353.70	14.815
354.07	16.969
354.43	15.776
354.79	15.738
355.15	15.981
355.51	17.033
355.87	16.903
356.24	17.647
356.60	16.861
356.96	16.667
357.32	17.366
357.68	16.786
358.04	17.342
358.40	17.594
358.77	17.108
359.13	16.948
359.49	15.600
359.85	17.346
360.21	16.653
360.57	16.029
360.93	17.181
361.29	17.601
361.66	17.035
362.02	17.190
362.38	18.415
362.74	17.448
363.10	16.893
363.46	17.156
363.82	17.152
364.18	17.638
364.54	17.634
364.90	17.704
365.26	17.213
365.62	16.427
365.98	17.316
366.35	17.474
366.71	17.550
367.07	19.631
367.43	16.895
367.79	16.570
368.15	17.272
368.51	17.828
368.87	18.429
369.23	17.714
369.59	17.794
369.95	17.809
370.31	17.424
370.67	17.895
371.03	18.111
371.39	17.296
371.75	17.088
372.11	16.889
372.47	17.075
372.83	17.677
373.19	18.373
373.55	17.665
373.91	18.409
374.27	18.690
374.63	17.894
374.99	16.471
375.35	15.965
375.71	17.288
376.07	17.809
376.42	17.289
376.78	16.725
377.14	16.899
377.50	17.100
377.86	18.106
378.22	17.900
378.58	18.487
378.94	18.009
379.30	17.761
379.66	17.414
380.02	17.101
380.38	17.366
380.74	17.775
381.09	16.518
381.45	17.968
381.81	17.730
382.17	17.720
382.53	17.094
382.89	17.896
383.25	16.677
383.61	16.020
383.97	17.609
384.32	16.387
384.68	17.561
385.04	16.550
385.40	16.933
385.76	17.710
386.12	16.964
386.48	16.634
386.83	15.734
387.19	16.156
387.55	16.192
387.91	16.137
388.27	16.187
388.62	17.034
388.98	17.048
389.34	15.615
389.70	15.641
390.06	16.040
390.42	17.174
390.77	16.633
391.13	16.916
391.49	17.251
391.85	16.900
392.20	15.512
392.56	15.062
392.92	15.213
393.28	15.679
393.64	15.516
393.99	15.195
394.35	15.704
394.71	15.497
395.07	15.119
395.42	14.413
395.78	14.247
396.14	15.123
396.50	15.201
396.85	14.937
397.21	14.295
397.57	14.549
397.92	15.204
398.28	14.329
398.64	13.587
399.00	14.393
399.35	14.654
399.71	14.431
400.07	14.824
400.42	15.513
400.78	13.948
401.14	14.457
401.49	13.367
401.85	13.651
402.21	14.721
402.57	13.136
402.92	14.276
403.28	14.369
403.63	13.526
403.99	12.946
404.35	13.376
404.70	12.730
405.06	12.957
405.42	13.533
405.77	12.842
406.13	12.784
406.49	12.492
406.84	14.882
407.20	12.701
407.55	14.028
407.91	11.958
408.27	13.364
408.62	12.862
408.98	13.835
409.34	12.612
409.69	12.174
410.05	12.306
410.40	11.946
410.76	13.138
411.11	12.734
411.47	12.313
411.83	12.106
412.18	12.631
412.54	12.484
412.89	12.176
413.25	12.853
413.60	13.265
413.96	11.974
414.31	11.663
414.67	12.559
415.03	11.964
415.38	13.092
415.74	11.619
416.09	12.130
416.45	12.668
416.80	11.892
417.16	12.906
417.51	13.393
417.87	12.038
418.22	11.965
418.58	11.818
418.93	12.508
419.29	12.415
419.64	13.187
420.00	12.836
420.35	13.120
420.71	12.292
421.06	13.238
421.42	12.171
421.77	13.337
422.12	12.758
422.48	12.736
422.83	12.827
423.19	13.000
423.54	11.607
423.90	13.226
424.25	14.018
424.61	12.323
424.96	13.145
425.31	13.527
425.67	12.121
426.02	12.360
426.38	12.484
426.73	13.832
427.09	12.935
427.44	13.580
427.79	14.233
428.15	12.873
428.50	13.693
428.85	13.278
429.21	13.449
429.56	13.481
429.92	13.359
430.27	13.333
430.62	13.359
430.98	14.132
431.33	14.016
431.68	14.442
432.04	14.039
432.39	13.131
432.74	13.156
433.10	13.645
433.45	13.046
433.80	13.274
434.16	13.982
434.51	13.991
434.86	13.837
435.22	13.679
435.57	14.908
435.92	13.560
436.28	13.574
436.63	13.715
436.98	15.000
437.34	14.843
437.69	14.136
438.04	14.303
438.39	15.078
438.75	13.969
439.10	15.119
439.45	15.404
439.81	14.349
440.16	15.461
440.51	14.560
440.86	15.467
441.22	15.366
441.57	15.385
441.92	15.240
442.27	15.771
442.63	15.745
442.98	15.587
443.33	17.098
443.68	16.140
444.03	16.392
444.39	15.825
444.74	17.115
445.09	15.525
445.44	16.501
445.79	16.235
446.15	16.093
446.50	17.062
446.85	16.557
447.20	15.536
447.55	16.405
447.91	17.460
448.26	17.033
448.61	15.952
448.96	17.090
449.31	17.541
449.66	17.433
450.02	17.160
450.37	16.829
450.72	16.577
451.07	17.271
451.42	18.050
451.77	16.898
452.12	17.732
452.47	17.751
452.83	18.431
453.18	18.366
453.53	18.093
453.88	17.932
454.23	18.466
454.58	18.473
454.93	17.711
455.28	18.126
455.63	17.869
455.98	19.226
456.34	18.620
456.69	17.129
457.04	18.176
457.39	18.414
457.74	18.015
458.09	17.175
458.44	18.148
458.79	18.021
459.14	17.829
459.49	18.726
459.84	18.074
460.19	18.136
460.54	16.982
460.89	17.882
461.24	17.922
461.59	19.432
461.94	18.672
462.29	18.797
462.64	18.593
462.99	18.782
463.34	18.168
463.69	18.793
464.04	18.281
464.39	18.071
464.74	19.273
465.09	18.585
465.44	18.056
465.79	17.750
466.14	18.019
466.49	17.906
466.84	18.182
467.19	18.454
467.54	17.507
467.89	18.223
468.24	18.182
468.59	18.586
468.94	18.225
469.29	18.824
469.64	19.402
469.99	18.601
470.34	18.246
470.68	18.692
471.03	18.759
471.38	18.624
471.73	18.823
472.08	18.577
472.43	17.842
472.78	18.419
473.13	17.965
473.48	18.465
473.83	18.296
474.17	17.879
474.52	18.285
474.87	18.371
475.22	18.170
475.57	17.685
475.92	17.737
476.27	18.264
476.61	17.967
476.96	17.546
477.31	18.493
477.66	18.536
478.01	17.422
478.36	18.052
478.70	19.155
479.05	18.398
479.40	18.353
479.75	17.779
480.10	17.803
480.45	18.272
480.79	17.592
481.14	17.712
481.49	18.303
481.84	18.030
482.19	18.195
482.53	18.186
482.88	17.285
483.23	18.191
483.58	17.772
483.92	17.538
484.27	17.957
484.62	17.963
484.97	17.926
485.31	17.827
485.66	17.308
486.01	16.344
486.36	16.449
486.70	16.867
487.05	17.257
487.40	16.693
487.75	16.662
488.09	16.165
488.44	16.655
488.79	16.934
489.13	17.207
489.48	17.756
489.83	17.707
490.17	17.534
490.52	16.969
490.87	17.705
491.22	17.850
491.56	17.885
491.91	17.018
492.26	18.868
492.60	17.857
492.95	18.070
493.30	17.407
493.64	17.292
493.99	17.556
494.34	17.993
494.68	17.393
495.03	17.191
495.37	17.233
495.72	17.722
496.07	17.495
496.41	16.255
496.76	16.667
497.11	17.578
497.45	17.830
497.80	17.082
498.14	17.001
498.49	17.886
498.84	16.929
499.18	17.073
499.53	16.822
499.87	17.614
500.22	16.831
500.56	18.106
500.91	18.039
501.26	16.955
501.60	17.380
501.95	17.195
502.29	17.804
502.64	16.824
502.98	16.456
503.33	17.024
503.67	17.254
504.02	16.803
504.36	16.795
504.71	17.819
505.06	17.729
505.40	17.426
505.75	17.220
506.09	16.089
506.44	16.953
506.78	16.167
507.13	17.101
507.47	17.673
507.82	17.132
508.16	16.759
508.51	17.615
508.85	16.538
509.19	16.786
509.54	17.110
509.88	16.743
510.23	17.135
510.57	17.093
510.92	16.497
511.26	17.002
511.61	16.610
511.95	17.120
512.30	17.275
512.64	16.540
512.98	16.893
513.33	16.002
513.67	15.449
514.02	16.046
514.36	17.082
514.70	17.001
515.05	16.646
515.39	16.750
515.74	16.917
516.08	15.568
516.42	17.402
516.77	17.143
517.11	16.758
517.46	17.864
517.80	16.720
518.14	17.268
518.49	18.176
518.83	16.796
519.17	17.031
519.52	16.989
519.86	17.099
520.20	16.051
520.55	17.102
520.89	17.476
521.23	16.633
521.58	16.534
521.92	16.822
522.26	17.320
522.61	16.928
522.95	17.055
523.29	16.869
523.64	16.350
523.98	16.532
524.32	17.239
524.66	16.655
525.01	16.564
525.35	15.663
525.69	15.692
526.04	17.336
526.38	16.450
526.72	17.014
527.06	15.752
527.41	16.726
527.75	15.219
528.09	15.629
528.43	16.442
528.78	15.094
529.12	15.411
529.46	15.548
529.80	14.908
530.15	15.636
530.49	16.806
530.83	14.389
531.17	14.831
531.51	14.989
531.86	16.317
532.20	15.152
532.54	15.971
532.88	15.418
533.22	15.302
533.57	14.138
533.91	15.485
534.25	14.868
534.59	14.924
534.93	14.909
535.27	14.882
535.62	15.125
535.96	14.096
536.30	14.405
536.64	15.880
536.98	15.634
537.32	15.997
537.66	14.443
538.01	14.948
538.35	14.982
538.69	14.225
539.03	14.059
539.37	14.214
539.71	14.348
540.05	14.978
540.39	14.597
540.73	14.579
541.07	14.118
541.42	14.398
541.76	15.180
542.10	14.060
542.44	14.451
542.78	14.296
543.12	13.574
543.46	14.232
543.80	13.796
544.14	14.624
544.48	14.246
544.82	13.485
545.16	15.435
545.50	14.192
545.84	15.655
546.18	14.232
546.52	14.604
546.86	14.155
547.20	15.379
547.54	12.889
547.88	13.818
548.22	13.221
548.56	14.658
548.90	13.965
549.24	14.620
549.58	14.382
549.92	14.211
550.26	15.444
550.60	14.592
550.94	14.048
551.28	14.228
551.62	14.906
551.96	14.377
552.30	14.264
552.64	14.425
552.98	14.190
553.32	14.318
553.66	15.175
554.00	13.359
554.34	14.609
554.68	14.115
555.02	13.810
555.36	14.138
555.69	13.759
556.03	14.265
556.37	14.479
556.71	13.725
557.05	14.219
557.39	14.137
557.73	14.465
558.07	14.397
558.41	13.488
558.75	14.357
559.08	14.809
559.42	14.130
559.76	13.901
560.10	15.077
560.44	13.777
560.78	14.350
561.12	13.749
561.45	14.360
561.79	13.730
562.13	13.195
562.47	14.067
562.81	14.253
563.15	12.243
563.48	12.659
563.82	14.192
564.16	12.772
564.50	13.181
564.84	13.749
565.17	13.519
565.51	13.723
565.85	13.310
566.19	13.500
566.52	12.473
566.86	13.456
567.20	12.908
567.54	13.082
567.88	11.650
568.21	13.013
568.55	12.450
568.89	12.253
569.23	11.998
569.56	12.644
569.90	12.334
570.24	12.608
570.57	12.039
570.91	11.608
571.25	12.121
571.59	11.574
571.92	11.287
572.26	11.817
572.60	11.033
572.93	11.428
573.27	11.518
573.61	11.049
573.95	11.429
574.28	10.979
574.62	10.642
574.96	11.056
575.29	10.893
575.63	10.969
575.97	10.749
576.30	11.105
576.64	10.943
576.98	10.696
577.31	10.998
577.65	10.855
577.98	10.299
578.32	10.835
578.66	10.871
578.99	11.228
579.33	11.020
579.67	11.059
580.00	10.592
580.34	10.803
580.67	10.605
581.01	10.511
581.35	10.570
581.68	10.782
582.02	11.042
582.35	10.809
582.69	11.087
583.02	10.898
583.36	10.792
583.70	10.826
584.03	11.324
584.37	11.476
584.70	11.177
585.04	10.498
585.37	11.117
585.71	11.153
586.04	11.186
586.38	11.496
586.72	11.481
587.05	11.594
587.39	11.771
587.72	11.420
588.06	11.662
588.39	11.423
588.73	11.305
589.06	11.532
589.40	12.003
589.73	11.668
590.07	11.498
590.40	11.981
590.73	11.995
591.07	11.905
591.40	12.106
591.74	12.593
592.07	12.321
592.41	12.043
592.74	12.271
593.08	11.645
593.41	11.930
593.75	12.437
594.08	11.727
594.41	12.020
594.75	11.825
595.08	11.959
595.42	11.979
595.75	12.348
596.09	11.689
596.42	11.586
596.75	11.909
597.09	12.127
597.42	11.403
597.75	12.430
598.09	12.079
598.42	12.352
598.76	11.885
599.09	12.311
599.42	11.841
599.76	12.044
600.09	11.625
600.42	12.031
600.76	11.663
601.09	11.922
601.42	12.118
601.76	11.648
602.09	12.065
602.42	11.811
602.76	12.216
603.09	11.967
603.42	11.925
603.76	11.750
604.09	12.239
604.42	11.894
604.76	11.821
605.09	11.384
605.42	12.085
605.75	11.284
606.09	11.956
606.42	11.811
606.75	11.545
607.09	11.660
607.42	11.886
607.75	12.167
608.08	12.442
608.42	11.882
608.75	11.306
609.08	11.459
609.41	12.805
609.75	12.006
610.08	11.525
610.41	12.010
610.74	11.830
611.07	12.427
611.41	11.456
611.74	12.514
612.07	12.612
612.40	12.145
612.73	11.863
613.07	11.685
613.40	12.248
613.73	12.543
614.06	11.710
614.39	12.537
614.72	11.924
615.06	12.227
615.39	12.240
615.72	12.094
616.05	11.420
616.38	11.625
616.71	12.624
617.05	11.935
617.38	12.000
617.71	12.476
618.04	11.958
618.37	12.361
618.70	12.160
619.03	12.545
619.36	12.518
619.69	11.975
620.03	12.204
620.36	12.320
620.69	12.417
621.02	12.114
621.35	12.596
621.68	12.691
622.01	12.567
622.34	13.065
622.67	13.069
623.00	12.449
623.33	13.622
623.66	12.908
623.99	12.520
624.32	12.550
624.65	11.797
624.99	11.719
625.32	12.085
625.65	11.930
625.98	12.917
626.31	11.515
626.64	11.982
626.97	13.511
627.30	13.519
627.63	13.488
627.96	12.104
628.29	13.002
628.62	11.959
628.95	12.672
629.28	13.223
629.61	13.062
629.94	13.382
630.26	12.657
630.59	14.660
630.92	11.591
631.25	12.849
631.58	11.744
631.91	11.731
632.24	13.373
632.57	13.199
632.90	13.161
633.23	14.323
633.56	13.459
633.89	13.456
634.22	12.949
634.55	12.484
634.88	12.450
635.20	13.973
635.53	14.106
635.86	15.489
636.19	13.370
636.52	13.612
636.85	10.821
637.18	13.601
637.51	13.550
637.83	13.408
638.16	14.083
638.49	13.545
638.82	11.814
639.15	13.143
639.48	13.392
639.81	12.072
640.13	11.026
640.46	13.858
640.79	14.419
641.12	14.574
641.45	13.530
641.77	11.146
642.10	13.844
642.43	13.636
642.76	14.337
643.09	14.014
643.41	12.545
643.74	14.757
644.07	11.111
644.40	11.913
644.73	15.654
645.05	12.023
645.38	12.500
645.71	14.313
646.04	14.126
646.36	12.121
646.69	16.054
647.02	15.625
647.35	13.400
647.67	15.030
648.00	14.951
648.33	12.717
648.66	13.358
648.98	13.390
649.31	15.318
649.64	11.876
649.96	12.162
650.29	12.389
650.62	13.173
650.94	14.603
651.27	14.066
651.60	13.384
651.92	12.595
652.25	12.620
652.58	11.311
652.90	10.498
653.23	10.603
653.56	12.847
653.88	13.139
654.21	12.854
654.54	9.756
654.86	12.950
655.19	11.452
655.52	13.586
655.84	10.222
656.17	9.824
656.49	13.460
656.82	15.402
657.15	12.315
657.47	9.280
657.80	6.856
658.13	5.573
658.45	9.411
658.78	9.276
659.10	8.782
659.43	9.216
659.75	8.318
660.08	9.240
660.41	9.970
660.73	10.665
661.06	10.364
661.38	14.718
661.71	13.786
662.03	16.204
662.36	11.217
662.68	10.791
663.01	11.298
663.33	15.802
663.66	11.483
663.98	15.648
664.31	12.683
664.63	12.385
664.96	13.302
665.28	13.002
665.61	14.252
665.93	11.060
666.26	14.570
666.58	12.385
666.91	14.754
667.23	14.286
667.56	13.333
667.88	12.281
668.21	11.421
668.53	14.213
668.86	11.990
669.18	16.244
669.50	14.653
669.83	13.500
670.15	9.750
670.48	10.025
670.80	12.944
671.13	11.084
671.45	10.459
671.77	12.802
672.10	11.648
672.42	9.960
672.75	12.427
673.07	13.458
673.39	14.397
673.72	11.157
674.04	13.617
674.37	12.009
674.69	9.346
675.01	12.093
675.34	6.618
675.66	10.238
675.98	10.859
676.31	10.076
676.63	9.536
676.95	11.511
677.28	10.891
677.60	13.283
677.92	11.028
678.25	12.065
678.57	12.297
678.89	11.697
679.22	11.009
679.54	10.468
679.86	11.135
680.18	9.833
680.51	9.240
680.83	13.333
681.15	10.893
681.48	10.638
681.80	10.217
682.12	13.062
682.44	10.345
682.77	8.864
683.09	10.784
683.41	13.033
683.73	10.804
684.06	10.914
684.38	12.230
684.70	10.624
685.02	6.277
685.34	9.205
685.67	9.881
685.99	11.377
686.31	10.634
686.63	10.485
686.96	10.772
687.28	11.499
687.60	11.294
687.92	6.751
688.24	10.737
688.56	9.670
688.89	12.100
689.21	10.698
689.53	8.696
689.85	9.873
690.17	7.843
690.49	10.588
690.82	12.039
691.14	13.055
691.46	6.250
691.78	9.809
692.10	13.761
692.42	9.404
692.74	11.374
693.06	10.120
693.39	10.345
693.71	6.512
694.03	9.662
694.35	6.931
694.67	11.959
694.99	11.051
695.31	6.799
695.63	6.486
695.95	10.393
696.27	7.649
696.59	6.825
696.91	12.251
697.23	8.023
697.56	6.736
697.88	11.007
698.20	6.053
698.52	8.654
698.84	10.025
699.16	8.707
699.48	13.351
699.80	10.165
700.12	7.438
700.44	5.015
700.76	6.940
701.08	9.206
701.40	11.513
701.72	10.333
702.04	7.483
702.36	13.443
702.68	12.081
703.00	8.517
703.32	6.287
703.64	10.095
703.96	7.911
704.28	1.761
704.60	12.329
704.91	7.895
705.23	6.667
705.55	6.320
705.87	10.432
706.19	8.765
706.51	7.031
706.83	6.593
707.15	9.831
707.47	7.784
707.79	6.877
708.11	9.259
708.43	8.533
708.74	8.743
709.06	6.135
709.38	9.792
709.70	4.870
710.02	6.294
710.34	2.837
710.66	7.491
710.98	8.042
711.29	12.027
711.61	5.674
711.93	11.610
712.25	7.547
712.57	5.859
712.89	11.429
713.20	5.645
713.52	5.691
713.84	10.219
714.16	8.446
714.48	9.215
714.80	8.081
715.11	7.560
715.43	9.215
715.75	8.772
716.07	4.364
716.39	11.945
716.70	7.200
717.02	5.645
717.34	6.494
717.66	8.636
717.97	1.852
718.29	4.000
718.61	6.757
718.93	5.462
719.24	4.603
719.56	6.696
719.88	5.098
720.20	2.137
720.51	5.702
720.83	11.297
721.15	6.939
721.46	5.063
721.78	4.329
722.10	8.915
722.42	10.435
722.73	1.357
723.05	2.765
723.37	7.692
723.68	10.900
724.00	6.019
724.32	6.075
724.63	7.692
724.95	6.849
725.27	6.573
725.58	4.110
725.90	2.252
726.22	6.987
726.53	6.148
726.85	9.630
727.16	6.883
727.48	7.661
727.80	3.653
728.11	7.111
728.43	4.527
728.74	3.947
729.06	4.803
729.38	11.240
729.69	6.000
730.01	4.184
730.32	6.773
730.64	8.077
730.96	0.772
731.27	2.317
731.59	4.714
731.90	4.276
732.22	6.645
732.53	4.912
732.85	4.225
733.16	9.524
733.48	4.851
733.80	12.000
734.11	6.738
734.43	2.527
734.74	5.607
735.06	4.823
735.37	2.875
735.69	0.352
736.00	4.815
736.32	6.294
736.63	3.333
736.95	0.778
737.26	5.797
737.58	6.569
737.89	3.019
738.21	8.779
738.52	9.016
738.83	3.846
739.15	10.000
739.46	3.604
739.78	3.089
740.09	1.984
740.41	7.197
740.72	2.390
741.04	7.115
741.35	2.242
741.66	3.226
741.98	4.592
742.29	3.109
742.61	2.890
742.92	6.863
743.23	7.463
743.55	3.627
743.86	3.865
744.18	4.500
744.49	1.111
744.80	9.677
745.12	4.615
745.43	0.000
745.74	3.743
746.06	9.770
746.37	-4.444
746.68	5.946
747.00	-3.867
747.31	10.471
747.62	5.789
747.94	6.132
748.25	8.374
748.56	6.061
748.88	0.000
749.19	3.109
749.50	1.765
749.82	5.000
750.13	1.456
750.44	2.575
750.75	4.000
751.07	-1.255
751.38	5.859
751.69	5.556
752.01	2.101
752.32	5.372
752.63	0.000
752.94	9.600
753.26	1.826
753.57	3.791
753.88	-2.791
754.19	3.524
754.51	1.674
754.82	2.083
755.13	-0.442
755.44	6.061
755.75	6.024
756.07	3.004
756.38	6.276
756.69	3.774
757.00	4.610
757.31	2.768
757.63	5.229
757.94	1.818
758.25	7.440
758.56	5.405
758.87	2.976
759.18	10.592
759.50	6.762
759.81	1.931
760.12	3.203
760.43	6.977
760.74	7.186
761.05	3.526
761.36	7.418
761.67	6.383
761.99	5.351
762.30	2.182
762.61	6.098
762.92	3.111
763.23	5.581
763.54	8.629
763.85	5.882
764.16	-3.478
764.47	0.870
764.78	6.452
765.10	0.394
765.41	1.338
765.72	6.689
766.03	4.682
766.34	7.576
766.65	10.937
766.96	4.889
767.27	6.704
767.58	5.031
767.89	-1.948
768.20	-5.405
768.51	4.023
768.82	-3.750
769.13	9.722
769.44	1.415
769.75	2.451
770.06	-0.485
770.37	0.000
770.68	0.000
770.99	0.000
771.30	4.124
771.61	-0.897
771.92	0.943
772.23	-2.404
772.54	-1.765
772.85	-2.740
773.16	-0.645
773.47	2.548
773.78	3.593
774.09	-1.316
774.39	2.941
774.70	2.256
775.01	3.077
775.32	-4.762
775.63	-1.575
775.94	-9.434
776.25	0.741
776.56	0.000
776.87	0.855
777.18	-1.000
777.48	-1.923
777.79	-5.556
778.10	0.000
778.41	-3.922
778.72	1.887
779.03	-3.509
779.34	-12.605
779.65	-7.042
779.95	-1.439
780.26	-6.452
780.57	6.522
780.88	-9.174
781.19	-5.556
781.50	-4.918
781.80	-4.380
782.11	-8.974
782.42	-8.276
782.73	0.000
783.04	-11.200
783.34	-7.200
783.65	0.813
783.96	-7.377
784.27	-10.924
784.57	-0.935
784.88	-2.679
785.19	-7.216
785.50	-4.211
785.81	-5.000
786.11	-11.881
786.42	-41.176
786.73	-5.208
787.04	-20.408
787.34	-0.926
787.65	0.943
787.96	-7.216
788.26	-6.931
788.57	-1.739
788.88	-18.349
789.19	-7.438
789.49	-1.739
789.80	-3.448
790.11	-25.610
790.41	2.247
790.72	-12.791
791.03	-12.791
791.33	-23.377
791.64	-8.537
791.95	-2.439
792.25	-14.458
792.56	-2.469
792.87	-7.042
793.17	-3.614
793.48	-11.765
793.79	-3.750
794.09	-23.333
794.40	6.522
794.70	-13.043
795.01	-6.422
795.32	1.575
795.62	-13.725
795.93	-0.980
796.23	-2.020
796.54	-6.977
796.85	-13.043
797.15	-15.625
797.46	-18.644
797.76	-6.557
798.07	-15.789
798.37	-14.516
798.68	-29.687
798.99	3.077
799.29	-19.697
799.60	-30.435
799.90	-4.286
800.21	-12.281
800.51	-31.034
800.82	-32.075
801.12	-31.373
801.43	-11.290
801.73	-4.839
802.04	-10.000
802.34	-39.623
802.65	-55.263
802.95	-9.091
803.26	-15.094
803.56	-27.869
803.87	-20.000
804.17	-29.630
804.48	-17.308
804.78	-42.857
805.09	-19.149
805.39	6.780
805.70	-33.333
806.00	-25.000
806.30	-13.559
806.61	-21.538
806.91	-33.846
807.22	-15.789
807.52	-8.571
807.83	-34.483
808.13	10.127
808.43	-21.311
808.74	-16.393
809.04	2.703
809.35	-14.815
809.65	-33.929
809.95	-11.864
810.26	-24.490
810.56	-13.208
810.86	-19.608
811.17	-21.622
811.47	-103.704
811.77	-31.373
812.08	-11.364
812.38	-20.833
812.69	-20.513
812.99	-2.381
813.29	-10.870
813.59	-42.857
813.90	-47.619
814.20	-29.091
814.50	-30.612
814.81	-19.608
815.11	-22.917
815.41	-46.341
815.72	-73.077
816.02	6.383
816.32	-65.625
816.62	-45.455
816.93	-75.758
817.23	-21.622
817.53	-50.000
817.84	-15.000
818.14	-67.647
818.44	-31.250
818.74	-119.048
819.04	-40.000
819.35	-37.143
819.65	-9.091
819.95	-10.256
820.25	-100.000
820.56	-58.621
820.86	-60.714
821.16	-47.826
821.46	-40.476
821.76	-3.704
822.07	-21.739
822.37	-26.531
822.67	-48.837
822.97	-73.913
823.27	-69.231
823.57	-48.148
823.88	-85.714
824.18	-17.949
824.48	-53.571
824.78	-30.303
825.08	-193.333
825.38	-30.000
825.69	-172.222
825.99	-48.148
826.29	-11.111
826.59	-85.185
826.89	-59.259
827.19	-75.000
827.49	-104.545
827.79	-131.818
828.09	-59.091
828.39	-78.261
828.70	-66.667
829.00	-67.857
829.30	-30.952
829.60	-48.387
829.90	-61.538
830.20	-38.462
830.50	-50.000
830.80	-19.048
831.10	-88.889
831.40	-164.286
831.70	-29.630
832.00	-105.882
832.30	-17.391
832.60	-108.333
832.90	-136.364
833.20	-122.222
833.50	-15.625
833.80	-42.308
834.10	-36.000
834.40	-108.333
834.70	-45.455
835.00	-19.231
835.30	-65.000
835.60	-190.000
835.90	-35.000
836.20	-128.571
836.50	-73.913
836.80	-88.889
837.10	-120.000
837.40	-170.000
837.70	-91.304
838.00	-121.429
838.30	2500.000
838.60	0.000
838.90	-560.000
839.19	-211.111
839.49	-1000.000
839.79	-105.882
840.09	-144.444
840.39	-17.857
840.69	-133.333
840.99	-91.667
841.29	-48.276
841.59	-126.667
841.88	-100.000
842.18	-566.667
842.48	0.000
842.78	-76.923
843.08	-129.412
843.38	-75.000
843.68	-138.462
843.97	-111.765
844.27	-160.000
844.57	-54.167
844.87	-118.182
845.17	-115.789
845.47	-161.111
845.76	-22.222
846.06	-47.619
846.36	-100.000
846.66	-266.667
846.96	-85.000
847.25	-340.000
847.55	-275.000
847.85	-153.333
848.15	-475.000
848.44	-47.368
848.74	-140.000
849.04	-31.579
849.34	-500.000
849.63	-150.000
849.93	-76.471
850.23	-154.545
850.53	-533.333
850.82	-200.000
851.12	-211.111
851.42	-100.000
851.71	-260.000
852.01	-157.143
852.31	-766.667
852.61	-146.154
852.90	-380.000
853.20	-266.667
853.50	-244.444
853.79	-250.000
854.09	-125.000
854.39	-126.316
854.68	-80.000
854.98	-600.000
855.28	-61.111
855.57	-192.857
855.87	-115.789
856.17	-125.000
856.46	-53.846
856.76	-66.667
857.05	-106.250
857.35	-33.333
857.65	-55.556
857.94	-250.000
858.24	-91.304
858.53	-170.000
858.83	-666.667
859.13	-272.727
859.42	-310.000
859.72	166.667
860.01	-107.692
860.31	-190.000
860.60	-212.500
860.90	-675.000
861.20	-366.667
861.49	-425.000
861.79	1400.000
862.08	-16.129
862.38	0.000
862.67	-123.077
862.97	-120.000
863.26	-175.000
863.56	-43.478
863.85	-450.000
864.15	-28.571
864.44	-81.250
864.74	-150.000
865.03	-211.111
865.33	-600.000
865.62	-2300.000
865.92	-900.000
866.21	-400.000
866.51	-81.818
866.80	-733.333
867.10	-285.714
867.39	-166.667
867.69	-166.667
867.98	40.000
868.27	-350.000
868.57	725.000
868.86	-66.667
869.16	-138.462
869.45	1000.000
869.75	-300.000
870.04	-208.333
870.33	-76.471
870.63	-300.000
870.92	-13.043
871.22	-200.000
871.51	560.000
871.80	-25.000
872.10	-833.333
>>>>>End Processed Spectral Data<<<<<
