SpectraSuite Data File
++++++++++++++++++++++++++++++++++++
Date: Wed May 13 19:33:55 PDT 2015
User: schluterlab
Dark Spectrum Present: Yes
Reference Spectrum Present: Yes
Number of Sampled Component Spectra: 1
Spectrometers: USB2E3373
Integration Time (usec): 3000 (USB2E3373)
Spectra Averaged: 3 (USB2E3373)
Boxcar Smoothing: 0 (USB2E3373)
Correct for Electrical Dark: No (USB2E3373)
Strobe/Lamp Enabled: No (USB2E3373)
Correct for Detector Non-linearity: No (USB2E3373)
Correct for Stray Light: No (USB2E3373)
Number of Pixels in Processed Spectrum: 2048
>>>>>Begin Processed Spectral Data<<<<<
178.53	0.000
178.91	-1350.000
179.29	-1125.000
179.67	-277.778
180.04	-1700.000
180.42	3000.000
180.80	1020.000
181.18	-1200.000
181.56	842.857
181.94	0.000
182.31	-671.429
182.69	1766.667
183.07	-487.500
183.45	-544.444
183.83	636.364
184.20	-510.000
184.58	3050.000
184.96	5300.000
185.34	-800.000
185.72	-625.000
186.09	-2400.000
186.47	3200.000
186.85	2700.000
187.23	5400.000
187.61	-1666.667
187.98	1625.000
188.36	545.455
188.74	681.818
189.12	-1000.000
189.49	590.000
189.87	-5600.000
190.25	-1350.000
190.63	535.714
191.00	430.769
191.38	1000.000
191.76	-1375.000
192.14	1525.000
192.51	700.000
192.89	833.333
193.27	675.000
193.65	-1250.000
194.02	530.000
194.40	1080.000
194.78	610.000
195.15	516.667
195.53	630.000
195.91	-2200.000
196.29	443.750
196.66	289.474
197.04	-360.000
197.42	0.000
197.79	650.000
198.17	-5800.000
198.55	728.571
198.92	812.500
199.30	1000.000
199.68	0.000
200.05	355.556
200.43	900.000
200.81	4500.000
201.18	1466.667
201.56	-1533.333
201.94	577.778
202.31	633.333
202.69	425.000
203.07	580.000
203.44	0.000
203.82	1225.000
204.19	671.429
204.57	478.571
204.95	687.500
205.32	1966.667
205.70	536.364
206.08	485.714
206.45	3050.000
206.83	418.750
207.20	866.667
207.58	800.000
207.96	338.889
208.33	850.000
208.71	-900.000
209.08	828.571
209.46	633.333
209.84	490.909
210.21	-1600.000
210.59	1700.000
210.96	-650.000
211.34	2500.000
211.71	630.000
212.09	916.667
212.46	0.000
212.84	1933.333
213.22	1500.000
213.59	-4900.000
213.97	833.333
214.34	771.429
214.72	672.727
215.09	1100.000
215.47	-2350.000
215.84	-2600.000
216.22	2133.333
216.59	492.857
216.97	1450.000
217.34	572.727
217.72	-833.333
218.09	0.000
218.47	-6000.000
218.84	711.111
219.22	928.571
219.59	1700.000
219.97	-500.000
220.34	1080.000
220.72	-1766.667
221.09	428.571
221.47	1475.000
221.84	-1016.667
222.22	0.000
222.59	1525.000
222.97	-2900.000
223.34	1140.000
223.72	484.615
224.09	1200.000
224.46	2450.000
224.84	-5800.000
225.21	-920.000
225.59	-5500.000
225.96	590.000
226.34	325.000
226.71	2200.000
227.08	762.500
227.46	600.000
227.83	-1225.000
228.21	-2650.000
228.58	688.889
228.95	-2450.000
229.33	-2500.000
229.70	1800.000
230.08	914.286
230.45	-920.000
230.82	416.667
231.20	766.667
231.57	757.143
231.95	516.667
232.32	259.091
232.69	454.545
233.07	814.286
233.44	361.538
233.81	-1666.667
234.19	347.368
234.56	508.333
234.93	450.000
235.31	400.000
235.68	376.923
236.05	350.000
236.43	196.970
236.80	300.000
237.17	5400.000
237.55	228.571
237.92	250.000
238.29	290.476
238.67	212.903
239.04	196.552
239.41	180.556
239.79	110.870
240.16	140.476
240.53	129.545
240.91	94.118
241.28	102.000
241.65	118.000
242.02	107.246
242.40	103.226
242.77	106.667
243.14	82.796
243.51	96.629
243.89	81.176
244.26	67.778
244.63	77.419
245.00	62.766
245.38	55.446
245.75	64.486
246.12	64.220
246.49	62.044
246.87	64.800
247.24	58.462
247.61	61.429
247.98	57.516
248.36	51.351
248.73	52.229
249.10	59.236
249.47	52.542
249.84	48.128
250.22	48.128
250.59	50.888
250.96	51.010
251.33	48.815
251.70	45.545
252.08	37.619
252.45	39.462
252.82	41.739
253.19	40.426
253.56	42.745
253.94	40.249
254.31	36.719
254.68	40.000
255.05	38.376
255.42	38.618
255.79	34.559
256.16	38.628
256.54	35.689
256.91	37.011
257.28	34.892
257.65	34.323
258.02	36.335
258.39	34.069
258.76	34.783
259.14	33.333
259.51	32.523
259.88	32.609
260.25	35.650
260.62	32.659
260.99	29.814
261.36	32.432
261.73	32.378
262.10	31.686
262.47	32.676
262.85	30.641
263.22	26.211
263.59	31.054
263.96	27.473
264.33	29.765
264.70	29.737
265.07	31.714
265.44	30.051
265.81	28.954
266.18	30.151
266.55	28.049
266.92	30.221
267.29	30.093
267.66	28.899
268.03	29.318
268.40	26.168
268.77	25.060
269.14	27.703
269.51	29.120
269.88	27.506
270.25	27.314
270.62	30.112
270.99	30.753
271.36	29.185
271.73	27.103
272.10	27.826
272.47	28.387
272.84	26.407
273.21	28.512
273.58	26.201
273.95	26.834
274.32	27.479
274.69	26.124
275.06	26.575
275.43	29.149
275.80	25.451
276.17	26.273
276.54	28.898
276.91	27.075
277.28	23.438
277.65	27.079
278.02	25.259
278.39	26.953
278.76	25.273
279.13	27.736
279.50	26.443
279.87	24.303
280.23	27.944
280.60	24.565
280.97	25.878
281.34	26.549
281.71	27.273
282.08	29.367
282.45	25.455
282.82	24.867
283.19	25.668
283.56	25.263
283.92	25.550
284.29	23.633
284.66	24.864
285.03	24.593
285.40	23.592
285.77	25.421
286.14	23.834
286.51	25.167
286.87	24.615
287.24	25.244
287.61	24.559
287.98	24.188
288.35	24.247
288.72	23.209
289.08	22.692
289.45	26.030
289.82	23.252
290.19	22.449
290.56	20.061
290.93	21.752
291.29	21.319
291.66	21.976
292.03	24.128
292.40	22.467
292.77	22.189
293.13	21.642
293.50	20.554
293.87	20.296
294.24	20.741
294.60	19.360
294.97	20.930
295.34	21.439
295.71	19.460
296.08	18.803
296.44	20.083
296.81	19.022
297.18	19.783
297.55	17.282
297.91	19.129
298.28	19.411
298.65	20.888
299.02	20.685
299.38	17.264
299.75	17.116
300.12	18.391
300.48	18.750
300.85	19.359
301.22	17.580
301.59	17.424
301.95	18.514
302.32	18.742
302.69	18.519
303.05	18.182
303.42	17.407
303.79	17.667
304.15	17.249
304.52	17.729
304.89	16.492
305.25	16.589
305.62	19.479
305.99	18.300
306.35	17.897
306.72	18.049
307.09	18.424
307.45	17.793
307.82	16.629
308.19	18.433
308.55	17.907
308.92	16.112
309.29	16.156
309.65	17.285
310.02	16.913
310.38	16.344
310.75	16.262
311.12	16.479
311.48	17.241
311.85	17.191
312.22	15.609
312.58	16.528
312.95	16.895
313.31	15.825
313.68	17.672
314.05	17.456
314.41	16.482
314.78	16.616
315.14	17.080
315.51	16.993
315.87	18.218
316.24	17.974
316.61	17.544
316.97	16.536
317.34	16.634
317.70	18.069
318.07	17.517
318.43	17.613
318.80	17.807
319.16	18.738
319.53	17.730
319.89	18.190
320.26	19.100
320.62	19.444
320.99	18.788
321.35	19.899
321.72	19.918
322.08	21.027
322.45	19.900
322.81	21.705
323.18	21.098
323.54	21.243
323.91	21.132
324.27	20.746
324.64	21.062
325.00	20.830
325.37	22.839
325.73	21.993
326.10	22.418
326.46	21.953
326.83	23.037
327.19	23.570
327.56	21.777
327.92	24.409
328.29	23.602
328.65	24.309
329.01	24.729
329.38	24.514
329.74	22.622
330.11	24.317
330.47	24.426
330.84	25.184
331.20	23.588
331.56	25.046
331.93	26.389
332.29	25.288
332.66	25.398
333.02	25.229
333.38	26.739
333.75	25.936
334.11	26.335
334.48	25.466
334.84	26.287
335.20	25.636
335.57	25.657
335.93	25.446
336.29	24.267
336.66	26.060
337.02	26.063
337.38	27.037
337.75	25.134
338.11	26.410
338.47	25.875
338.84	26.856
339.20	25.138
339.56	27.099
339.93	25.455
340.29	26.087
340.65	26.471
341.02	26.353
341.38	26.335
341.74	25.965
342.11	26.463
342.47	26.960
342.83	27.055
343.20	26.234
343.56	25.442
343.92	27.368
344.28	27.041
344.65	27.687
345.01	26.684
345.37	26.072
345.73	27.157
346.10	26.428
346.46	26.017
346.82	25.947
347.19	25.982
347.55	26.355
347.91	26.133
348.27	27.198
348.63	26.421
349.00	26.052
349.36	25.862
349.72	26.303
350.08	26.742
350.45	26.526
350.81	26.158
351.17	26.175
351.53	26.863
351.89	27.145
352.26	27.230
352.62	25.902
352.98	26.661
353.34	25.637
353.70	26.268
354.07	26.290
354.43	25.556
354.79	27.192
355.15	26.097
355.51	27.898
355.87	26.857
356.24	27.524
356.60	26.464
356.96	27.192
357.32	27.228
357.68	28.268
358.04	27.791
358.40	27.474
358.77	26.995
359.13	25.967
359.49	27.608
359.85	26.508
360.21	27.512
360.57	27.237
360.93	27.769
361.29	27.438
361.66	26.703
362.02	27.537
362.38	28.289
362.74	28.199
363.10	27.535
363.46	27.146
363.82	27.438
364.18	28.488
364.54	28.306
364.90	28.541
365.26	27.353
365.62	28.853
365.98	27.173
366.35	28.009
366.71	28.127
367.07	27.822
367.43	27.576
367.79	28.551
368.15	29.526
368.51	28.416
368.87	28.837
369.23	28.895
369.59	29.399
369.95	28.603
370.31	29.345
370.67	27.899
371.03	30.412
371.39	29.956
371.75	30.074
372.11	29.161
372.47	30.059
372.83	29.899
373.19	28.974
373.55	29.933
373.91	31.738
374.27	29.141
374.63	29.673
374.99	30.791
375.35	29.798
375.71	30.089
376.07	30.933
376.42	30.536
376.78	30.484
377.14	30.529
377.50	29.868
377.86	29.122
378.22	30.784
378.58	29.825
378.94	29.918
379.30	30.598
379.66	30.901
380.02	30.835
380.38	30.480
380.74	30.492
381.09	31.968
381.45	32.207
381.81	32.064
382.17	32.038
382.53	31.887
382.89	32.037
383.25	31.332
383.61	32.094
383.97	31.332
384.32	31.316
384.68	30.731
385.04	31.592
385.40	32.693
385.76	32.494
386.12	33.355
386.48	33.228
386.83	33.162
387.19	33.704
387.55	32.715
387.91	32.467
388.27	32.066
388.62	33.251
388.98	32.555
389.34	32.353
389.70	32.005
390.06	33.840
390.42	33.398
390.77	33.842
391.13	34.014
391.49	33.693
391.85	33.736
392.20	33.754
392.56	33.712
392.92	33.490
393.28	32.781
393.64	33.034
393.99	33.781
394.35	33.251
394.71	34.003
395.07	34.019
395.42	33.622
395.78	34.351
396.14	34.078
396.50	34.837
396.85	34.711
397.21	35.080
397.57	34.594
397.92	34.315
398.28	33.184
398.64	34.349
399.00	34.135
399.35	34.292
399.71	34.896
400.07	35.127
400.42	35.828
400.78	35.223
401.14	34.512
401.49	35.104
401.85	34.241
402.21	34.251
402.57	35.225
402.92	35.309
403.28	35.540
403.63	35.644
403.99	35.605
404.35	35.576
404.70	35.252
405.06	34.304
405.42	35.371
405.77	34.514
406.13	35.102
406.49	35.541
406.84	35.617
407.20	34.515
407.55	36.248
407.91	36.000
408.27	36.375
408.62	35.822
408.98	35.539
409.34	35.793
409.69	35.548
410.05	36.431
410.40	34.924
410.76	35.723
411.11	35.404
411.47	36.230
411.83	36.958
412.18	36.549
412.54	36.115
412.89	35.783
413.25	36.128
413.60	36.998
413.96	35.337
414.31	36.695
414.67	36.122
415.03	36.887
415.38	36.147
415.74	36.977
416.09	36.773
416.45	36.011
416.80	36.748
417.16	38.472
417.51	37.823
417.87	36.095
418.22	38.107
418.58	36.798
418.93	37.592
419.29	36.983
419.64	37.154
420.00	38.171
420.35	37.391
420.71	37.657
421.06	36.814
421.42	37.251
421.77	38.173
422.12	37.956
422.48	37.291
422.83	37.798
423.19	38.122
423.54	37.435
423.90	37.855
424.25	38.303
424.61	37.619
424.96	37.959
425.31	37.652
425.67	36.798
426.02	38.114
426.38	38.278
426.73	37.975
427.09	38.116
427.44	38.413
427.79	38.758
428.15	38.393
428.50	38.385
428.85	38.856
429.21	39.039
429.56	37.947
429.92	38.198
430.27	37.488
430.62	37.993
430.98	37.987
431.33	38.660
431.68	39.476
432.04	38.339
432.39	39.577
432.74	38.480
433.10	39.842
433.45	40.058
433.80	38.858
434.16	39.904
434.51	38.947
434.86	40.422
435.22	39.578
435.57	39.696
435.92	40.609
436.28	40.688
436.63	39.790
436.98	39.611
437.34	39.893
437.69	40.782
438.04	40.472
438.39	41.672
438.75	40.442
439.10	40.056
439.45	40.732
439.81	40.302
440.16	39.469
440.51	40.187
440.86	41.807
441.22	40.934
441.57	40.658
441.92	40.225
442.27	39.935
442.63	40.811
442.98	40.789
443.33	39.565
443.68	40.940
444.03	40.508
444.39	39.630
444.74	40.693
445.09	39.299
445.44	39.803
445.79	40.920
446.15	40.498
446.50	40.118
446.85	40.904
447.20	40.031
447.55	41.150
447.91	40.761
448.26	40.122
448.61	40.871
448.96	41.196
449.31	41.901
449.66	41.306
450.02	40.613
450.37	39.739
450.72	40.214
451.07	40.585
451.42	39.818
451.77	40.341
452.12	40.473
452.47	41.169
452.83	41.841
453.18	40.037
453.53	41.620
453.88	41.465
454.23	41.781
454.58	41.308
454.93	42.339
455.28	41.895
455.63	40.959
455.98	42.798
456.34	40.452
456.69	41.828
457.04	42.353
457.39	41.496
457.74	41.149
458.09	40.713
458.44	40.365
458.79	39.913
459.14	41.479
459.49	41.039
459.84	40.332
460.19	40.778
460.54	40.509
460.89	40.428
461.24	41.226
461.59	41.894
461.94	39.704
462.29	40.772
462.64	40.779
462.99	41.054
463.34	42.133
463.69	41.338
464.04	40.058
464.39	39.884
464.74	40.285
465.09	41.013
465.44	40.000
465.79	38.702
466.14	40.066
466.49	39.043
466.84	40.222
467.19	40.374
467.54	40.312
467.89	40.456
468.24	41.129
468.59	41.331
468.94	39.524
469.29	40.810
469.64	40.763
469.99	41.881
470.34	39.432
470.68	41.739
471.03	41.224
471.38	41.835
471.73	40.506
472.08	41.645
472.43	40.075
472.78	40.619
473.13	39.474
473.48	40.137
473.83	40.610
474.17	39.639
474.52	40.819
474.87	41.798
475.22	40.337
475.57	39.710
475.92	39.352
476.27	39.910
476.61	39.603
476.96	39.472
477.31	39.874
477.66	39.934
478.01	38.996
478.36	40.137
478.70	38.733
479.05	40.202
479.40	40.328
479.75	39.603
480.10	39.165
480.45	38.220
480.79	38.318
481.14	39.628
481.49	39.250
481.84	38.409
482.19	39.982
482.53	38.853
482.88	39.041
483.23	38.738
483.58	38.399
483.92	38.988
484.27	38.039
484.62	38.017
484.97	37.367
485.31	37.979
485.66	35.128
486.01	33.714
486.36	32.871
486.70	32.449
487.05	34.010
487.40	34.755
487.75	35.597
488.09	36.275
488.44	37.191
488.79	37.722
489.13	38.350
489.48	37.847
489.83	38.153
490.17	39.149
490.52	37.865
490.87	38.128
491.22	37.744
491.56	37.585
491.91	37.925
492.26	36.977
492.60	37.880
492.95	37.138
493.30	37.336
493.64	37.564
493.99	37.419
494.34	37.928
494.68	37.179
495.03	37.970
495.37	37.413
495.72	38.255
496.07	37.541
496.41	36.814
496.76	36.631
497.11	37.371
497.45	37.587
497.80	37.428
498.14	37.150
498.49	38.293
498.84	37.632
499.18	37.286
499.53	37.274
499.87	37.325
500.22	37.447
500.56	36.408
500.91	36.731
501.26	36.605
501.60	36.877
501.95	36.389
502.29	36.973
502.64	37.011
502.98	36.699
503.33	36.060
503.67	36.473
504.02	36.717
504.36	36.219
504.71	36.492
505.06	36.000
505.40	36.947
505.75	36.403
506.09	36.006
506.44	35.816
506.78	36.240
507.13	36.648
507.47	36.313
507.82	37.335
508.16	37.183
508.51	37.240
508.85	36.643
509.19	36.888
509.54	36.276
509.88	36.837
510.23	37.069
510.57	37.564
510.92	36.924
511.26	36.331
511.61	36.255
511.95	35.438
512.30	35.843
512.64	36.432
512.98	36.066
513.33	35.974
513.67	35.699
514.02	35.498
514.36	37.957
514.70	36.857
515.05	36.252
515.39	37.016
515.74	37.444
516.08	37.675
516.42	37.292
516.77	37.514
517.11	36.626
517.46	37.359
517.80	36.760
518.14	36.595
518.49	37.165
518.83	36.705
519.17	36.490
519.52	36.276
519.86	37.022
520.20	37.572
520.55	37.044
520.89	37.470
521.23	37.937
521.58	38.055
521.92	37.906
522.26	36.486
522.61	38.442
522.95	37.017
523.29	37.614
523.64	36.829
523.98	37.523
524.32	37.153
524.66	36.380
525.01	36.275
525.35	37.546
525.69	35.961
526.04	36.760
526.38	37.096
526.72	35.521
527.06	36.472
527.41	35.087
527.75	35.884
528.09	37.636
528.43	36.584
528.78	35.833
529.12	36.364
529.46	36.375
529.80	37.129
530.15	36.137
530.49	34.954
530.83	35.949
531.17	37.794
531.51	38.262
531.86	36.000
532.20	36.636
532.54	36.643
532.88	35.751
533.22	35.290
533.57	35.988
533.91	35.160
534.25	35.298
534.59	35.326
534.93	34.503
535.27	34.400
535.62	34.676
535.96	35.907
536.30	35.410
536.64	34.965
536.98	35.634
537.32	35.352
537.66	36.133
538.01	35.155
538.35	36.070
538.69	35.482
539.03	34.308
539.37	34.249
539.71	34.478
540.05	35.098
540.39	35.681
540.73	34.605
541.07	36.275
541.42	34.899
541.76	35.097
542.10	34.670
542.44	34.967
542.78	35.310
543.12	33.781
543.46	34.689
543.80	34.938
544.14	33.761
544.48	34.413
544.82	33.932
545.16	34.548
545.50	34.126
545.84	35.215
546.18	34.411
546.52	34.480
546.86	34.158
547.20	34.120
547.54	34.202
547.88	34.503
548.22	33.375
548.56	32.893
548.90	33.483
549.24	33.131
549.58	33.629
549.92	33.791
550.26	35.014
550.60	33.264
550.94	34.155
551.28	34.674
551.62	35.298
551.96	33.825
552.30	33.515
552.64	34.348
552.98	33.966
553.32	32.502
553.66	34.424
554.00	33.699
554.34	33.402
554.68	33.333
555.02	33.921
555.36	33.542
555.69	33.153
556.03	33.513
556.37	33.356
556.71	32.742
557.05	34.314
557.39	33.800
557.73	33.380
558.07	34.228
558.41	32.923
558.75	34.460
559.08	33.482
559.42	34.543
559.76	32.941
560.10	32.691
560.44	33.613
560.78	32.402
561.12	31.860
561.45	33.377
561.79	32.696
562.13	32.529
562.47	32.923
562.81	33.194
563.15	32.642
563.48	32.493
563.82	31.963
564.16	31.851
564.50	32.031
564.84	31.479
565.17	32.304
565.51	32.077
565.85	32.043
566.19	30.557
566.52	31.222
566.86	30.741
567.20	30.307
567.54	29.966
567.88	29.984
568.21	30.106
568.55	30.030
568.89	28.988
569.23	28.565
569.56	27.530
569.90	27.019
570.24	26.875
570.57	26.828
570.91	25.630
571.25	25.818
571.59	25.596
571.92	25.202
572.26	25.563
572.60	26.186
572.93	25.547
573.27	25.614
573.61	24.902
573.95	24.858
574.28	24.497
574.62	24.393
574.96	24.492
575.29	24.321
575.63	24.822
575.97	25.332
576.30	24.934
576.64	24.185
576.98	24.380
577.31	23.660
577.65	23.735
577.98	23.462
578.32	23.133
578.66	23.899
578.99	24.058
579.33	23.723
579.67	24.374
580.00	24.191
580.34	24.490
580.67	23.777
581.01	24.061
581.35	23.440
581.68	23.247
582.02	22.774
582.35	23.183
582.69	23.195
583.02	23.394
583.36	23.496
583.70	24.550
584.03	24.190
584.37	24.848
584.70	24.033
585.04	24.119
585.37	23.719
585.71	23.473
586.04	23.774
586.38	24.190
586.72	23.944
587.05	23.662
587.39	23.720
587.72	23.937
588.06	23.826
588.39	23.868
588.73	24.083
589.06	24.961
589.40	24.949
589.73	24.921
590.07	25.338
590.40	25.100
590.73	25.527
591.07	25.722
591.40	26.571
591.74	26.407
592.07	25.524
592.41	25.341
592.74	24.906
593.08	24.384
593.41	24.011
593.75	24.110
594.08	24.304
594.41	24.214
594.75	24.362
595.08	24.696
595.42	25.149
595.75	24.644
596.09	25.235
596.42	25.619
596.75	25.201
597.09	25.887
597.42	25.422
597.75	24.968
598.09	25.391
598.42	25.558
598.76	24.605
599.09	24.325
599.42	23.399
599.76	24.707
600.09	24.117
600.42	23.630
600.76	23.714
601.09	24.372
601.42	24.734
601.76	24.668
602.09	24.032
602.42	24.721
602.76	24.587
603.09	24.351
603.42	24.639
603.76	23.971
604.09	24.234
604.42	24.623
604.76	24.420
605.09	24.640
605.42	24.369
605.75	24.421
606.09	24.685
606.42	23.784
606.75	24.305
607.09	24.529
607.42	24.048
607.75	24.177
608.08	24.924
608.42	24.204
608.75	24.842
609.08	24.468
609.41	25.369
609.75	24.535
610.08	24.976
610.41	24.348
610.74	24.929
611.07	25.494
611.41	24.779
611.74	25.390
612.07	25.569
612.40	26.180
612.73	25.158
613.07	25.970
613.40	26.224
613.73	24.961
614.06	25.484
614.39	24.279
614.72	25.316
615.06	25.315
615.39	24.416
615.72	24.540
616.05	24.721
616.38	25.737
616.71	25.891
617.05	25.913
617.38	25.436
617.71	25.526
618.04	26.022
618.37	25.902
618.70	26.509
619.03	27.697
619.36	27.020
619.69	27.183
620.03	26.717
620.36	27.139
620.69	27.397
621.02	28.614
621.35	27.878
621.68	27.960
622.01	28.793
622.34	27.988
622.67	27.985
623.00	27.146
623.33	27.377
623.66	26.376
623.99	27.688
624.32	26.890
624.65	26.412
624.99	25.779
625.32	26.575
625.65	27.122
625.98	26.902
626.31	28.227
626.64	28.490
626.97	28.761
627.30	29.011
627.63	29.861
627.96	28.343
628.29	29.746
628.62	30.101
628.95	31.887
629.28	28.832
629.61	30.247
629.94	31.238
630.26	30.696
630.59	30.315
630.92	30.364
631.25	30.207
631.58	30.330
631.91	29.513
632.24	28.903
632.57	31.060
632.90	32.237
633.23	31.879
633.56	31.412
633.89	30.691
634.22	31.669
634.55	31.361
634.88	30.659
635.20	33.572
635.53	32.048
635.86	31.312
636.19	31.294
636.52	29.758
636.85	31.042
637.18	30.876
637.51	31.324
637.83	29.593
638.16	31.074
638.49	33.249
638.82	32.111
639.15	32.375
639.48	32.170
639.81	33.780
640.13	31.901
640.46	31.946
640.79	32.232
641.12	31.774
641.45	32.961
641.77	35.788
642.10	35.526
642.43	33.634
642.76	35.449
643.09	33.742
643.41	34.750
643.74	34.877
644.07	34.146
644.40	36.656
644.73	34.173
645.05	33.597
645.38	33.017
645.71	34.944
646.04	36.711
646.36	35.893
646.69	35.619
647.02	35.374
647.35	36.082
647.67	37.345
648.00	35.447
648.33	34.653
648.66	34.394
648.98	34.333
649.31	33.632
649.64	32.735
649.96	31.446
650.29	32.859
650.62	33.495
650.94	36.143
651.27	36.824
651.60	34.609
651.92	34.984
652.25	33.062
652.58	35.981
652.90	32.859
653.23	30.663
653.56	32.598
653.88	33.281
654.21	32.859
654.54	32.838
654.86	33.333
655.19	30.135
655.52	19.486
655.84	14.481
656.17	18.731
656.49	25.473
656.82	26.634
657.15	20.607
657.47	15.614
657.80	12.147
658.13	12.589
658.45	19.320
658.78	20.272
659.10	21.062
659.43	22.328
659.75	24.475
660.08	26.329
660.41	30.912
660.73	32.020
661.06	32.962
661.38	36.364
661.71	37.115
662.03	37.278
662.36	34.592
662.68	35.944
663.01	36.364
663.33	37.580
663.66	36.765
663.98	38.013
664.31	35.924
664.63	36.235
664.96	35.614
665.28	37.500
665.61	35.478
665.93	32.394
666.26	37.728
666.58	36.192
666.91	35.095
667.23	37.303
667.56	34.989
667.88	39.957
668.21	38.593
668.53	37.093
668.86	40.693
669.18	38.593
669.50	36.739
669.83	37.473
670.15	35.556
670.48	35.076
670.80	36.853
671.13	39.490
671.45	37.447
671.77	35.845
672.10	34.011
672.42	32.332
672.75	32.836
673.07	33.451
673.39	34.539
673.72	34.180
674.04	33.922
674.37	34.951
674.69	35.583
675.01	34.728
675.34	36.345
675.66	38.737
675.98	35.642
676.31	36.345
676.63	36.518
676.95	36.059
677.28	37.150
677.60	35.385
677.92	35.865
678.25	37.372
678.57	35.060
678.89	34.870
679.22	32.613
679.54	34.160
679.86	34.679
680.18	31.485
680.51	32.624
680.83	33.808
681.15	36.415
681.48	34.405
681.80	33.075
682.12	33.525
682.44	31.528
682.77	34.012
683.09	35.408
683.41	38.359
683.73	33.333
684.06	35.744
684.38	32.877
684.70	34.302
685.02	33.208
685.34	31.136
685.67	28.671
685.99	28.694
686.31	33.447
686.63	30.389
686.96	31.250
687.28	33.394
687.60	31.341
687.92	33.638
688.24	32.319
688.56	33.534
688.89	35.685
689.21	38.210
689.53	35.491
689.85	36.142
690.17	34.369
690.49	35.032
690.82	35.514
691.14	33.036
691.46	33.544
691.78	33.936
692.10	31.405
692.42	31.936
692.74	32.780
693.06	35.106
693.39	35.524
693.71	31.659
694.03	35.158
694.35	35.931
694.67	36.384
694.99	38.293
695.31	34.314
695.63	35.407
695.95	37.653
696.27	36.802
696.59	37.565
696.91	36.528
697.23	33.803
697.56	34.328
697.88	30.470
698.20	32.083
698.52	34.194
698.84	32.517
699.16	32.258
699.48	35.629
699.80	34.541
700.12	39.740
700.44	40.053
700.76	37.569
701.08	39.368
701.40	37.151
701.72	39.359
702.04	41.193
702.36	40.793
702.68	39.377
703.00	36.842
703.32	34.043
703.64	38.070
703.96	36.769
704.28	40.116
704.60	41.056
704.91	39.763
705.23	38.416
705.55	47.176
705.87	43.522
706.19	41.696
706.51	39.564
706.83	39.091
707.15	37.535
707.47	34.848
707.79	35.627
708.11	34.475
708.43	35.714
708.74	34.439
709.06	37.403
709.38	33.858
709.70	40.116
710.02	39.763
710.34	39.091
710.66	39.104
710.98	42.614
711.29	34.302
711.61	42.478
711.93	36.538
712.25	40.514
712.57	45.221
712.89	38.062
713.20	34.347
713.52	42.434
713.84	38.291
714.16	37.805
714.48	37.644
714.80	39.818
715.11	37.176
715.43	37.092
715.75	38.551
716.07	38.658
716.39	40.439
716.70	43.854
717.02	43.885
717.34	42.403
717.66	45.149
717.97	47.012
718.29	42.593
718.61	44.526
718.93	42.647
719.24	39.100
719.56	40.339
719.88	40.339
720.20	41.554
720.51	41.812
720.83	43.123
721.15	40.672
721.46	38.652
721.78	41.935
722.10	44.528
722.42	48.496
722.73	41.948
723.05	40.574
723.37	42.510
723.68	44.015
724.00	40.650
724.32	46.371
724.63	45.122
724.95	43.515
725.27	46.559
725.58	41.406
725.90	45.255
726.22	41.132
726.53	40.972
726.85	44.027
727.16	43.060
727.48	41.844
727.80	44.697
728.11	40.217
728.43	40.385
728.74	40.143
729.06	42.701
729.38	41.544
729.69	40.214
730.01	39.590
730.32	38.542
730.64	38.462
730.96	39.604
731.27	42.053
731.59	39.755
731.90	37.318
732.22	36.957
732.53	38.700
732.85	35.256
733.16	36.977
733.48	42.525
733.80	36.364
734.11	39.809
734.43	36.095
734.74	36.286
735.06	33.238
735.37	37.283
735.69	37.898
736.00	40.523
736.32	39.564
736.63	37.061
736.95	37.380
737.26	32.993
737.58	35.484
737.89	41.472
738.21	42.662
738.52	36.071
738.83	38.113
739.15	42.308
739.46	42.336
739.78	37.153
740.09	37.231
740.41	40.323
740.72	34.146
741.04	43.333
741.35	40.000
741.66	46.222
741.98	43.396
742.29	47.847
742.61	49.569
742.92	41.629
743.23	45.299
743.55	42.000
743.86	42.105
744.18	46.460
744.49	47.847
744.80	47.418
745.12	49.545
745.43	44.934
745.74	51.351
746.06	49.083
746.37	51.570
746.68	40.724
747.00	50.926
747.31	47.143
747.62	46.018
747.94	44.053
748.25	43.404
748.56	48.899
748.88	46.040
749.19	53.500
749.50	48.372
749.82	41.057
750.13	45.714
750.44	39.416
750.75	40.702
751.07	43.730
751.38	39.373
751.69	41.877
752.01	39.098
752.32	39.350
752.63	41.844
752.94	38.934
753.26	42.000
753.57	37.398
753.88	41.016
754.19	37.143
754.51	38.889
754.82	35.018
755.13	41.509
755.44	36.466
755.75	40.511
756.07	40.780
756.38	36.496
756.69	36.577
757.00	32.036
757.31	34.125
757.63	31.871
757.94	33.244
758.25	32.108
758.56	31.358
758.87	29.570
759.18	36.667
759.50	36.050
759.81	34.268
760.12	31.250
760.43	34.384
760.74	32.880
761.05	31.356
761.36	31.283
761.67	35.511
761.99	34.472
762.30	37.500
762.61	38.550
762.92	42.578
763.23	43.697
763.54	45.200
763.85	34.766
764.16	42.692
764.47	42.586
764.78	32.509
765.10	33.228
765.41	37.168
765.72	34.731
766.03	33.856
766.34	35.667
766.65	43.830
766.96	42.308
767.27	49.239
767.58	50.521
767.89	52.105
768.20	45.977
768.51	51.269
768.82	46.330
769.13	37.805
769.44	41.296
769.75	42.489
770.06	41.743
770.37	48.416
770.68	49.537
770.99	38.222
771.30	34.426
771.61	49.776
771.92	41.393
772.23	46.639
772.54	46.154
772.85	42.932
773.16	51.596
773.47	48.370
773.78	52.284
774.09	49.405
774.39	55.556
774.70	50.000
775.01	57.246
775.32	60.131
775.63	63.816
775.94	57.554
776.25	66.142
776.56	69.403
776.87	59.836
777.18	60.156
777.48	68.702
777.79	52.273
778.10	62.963
778.41	65.179
778.72	60.584
779.03	54.362
779.34	49.664
779.65	49.324
779.95	55.215
780.26	56.863
780.57	47.586
780.88	69.531
781.19	57.143
781.50	62.162
781.80	55.346
782.11	49.153
782.42	47.468
782.73	53.374
783.04	58.108
783.34	57.042
783.65	58.219
783.96	61.940
784.27	50.350
784.57	53.957
784.88	58.333
785.19	62.698
785.50	72.642
785.81	63.433
786.11	77.049
786.42	62.016
786.73	65.487
787.04	79.245
787.34	62.500
787.65	73.000
787.96	65.766
788.26	63.636
788.57	67.797
788.88	60.331
789.19	65.972
789.49	70.455
789.80	61.832
790.11	74.286
790.41	77.228
790.72	80.723
791.03	76.087
791.33	75.581
791.64	72.165
791.95	82.178
792.25	71.111
792.56	83.117
792.87	105.128
793.17	89.873
793.48	87.356
793.79	73.563
794.09	95.455
794.40	66.387
794.70	62.500
795.01	54.074
795.32	53.957
795.62	60.630
795.93	62.069
796.23	67.257
796.54	78.824
796.85	85.135
797.15	112.676
797.46	95.455
797.76	100.000
798.07	88.608
798.37	84.615
798.68	93.939
798.99	81.690
799.29	89.610
799.60	87.500
799.90	95.890
800.21	107.463
800.51	112.069
800.82	105.263
801.12	111.475
801.43	104.545
801.73	97.297
802.04	103.175
802.34	111.111
802.65	96.875
802.95	116.949
803.26	104.688
803.56	88.571
803.87	80.000
804.17	91.176
804.48	140.741
804.78	106.897
805.09	105.882
805.39	128.846
805.70	114.286
806.00	116.393
806.30	83.333
806.61	96.341
806.91	98.734
807.22	93.421
807.52	88.060
807.83	83.099
808.13	121.875
808.43	110.000
808.74	84.211
809.04	100.000
809.35	105.970
809.65	80.263
809.95	127.419
810.26	106.780
810.56	98.413
810.86	172.727
811.17	154.762
811.47	128.333
811.77	125.926
812.08	118.182
812.38	124.000
812.69	130.556
812.99	159.091
813.29	153.061
813.59	142.857
813.90	159.184
814.20	121.818
814.50	93.846
814.81	111.765
815.11	136.735
815.41	109.836
815.72	147.619
816.02	143.636
816.32	159.524
816.62	125.000
816.93	148.780
817.23	180.952
817.53	145.455
817.84	203.030
818.14	160.870
818.44	140.000
818.74	208.824
819.04	132.500
819.35	165.714
819.65	185.294
819.95	214.286
820.25	225.000
820.56	169.231
820.86	143.182
821.16	165.116
821.46	156.410
821.76	160.000
822.07	160.000
822.37	162.500
822.67	178.788
822.97	135.294
823.27	217.857
823.57	181.081
823.88	165.000
824.18	206.667
824.48	147.619
824.78	240.000
825.08	170.833
825.38	186.486
825.69	148.780
825.99	279.167
826.29	189.655
826.59	160.526
826.89	139.474
827.19	179.412
827.49	209.677
827.79	154.545
828.09	145.455
828.39	144.681
828.70	126.531
829.00	188.889
829.30	174.194
829.60	152.500
829.90	346.667
830.20	221.429
830.50	204.348
830.80	226.087
831.10	210.000
831.40	190.000
831.70	217.391
832.00	226.923
832.30	203.704
832.60	331.250
832.90	223.333
833.20	471.429
833.50	219.355
833.80	224.138
834.10	212.500
834.40	265.385
834.70	288.889
835.00	314.286
835.30	162.857
835.60	415.385
835.90	217.241
836.20	392.857
836.50	206.897
836.80	204.000
837.10	166.667
837.40	319.048
837.70	347.059
838.00	218.519
838.30	238.095
838.60	276.190
838.90	234.615
839.19	340.000
839.49	350.000
839.79	315.000
840.09	280.000
840.39	309.524
840.69	269.565
840.99	311.111
841.29	560.000
841.59	325.000
841.88	387.500
842.18	200.000
842.48	295.238
842.78	210.000
843.08	252.174
843.38	206.250
843.68	800.000
843.97	265.385
844.27	210.345
844.57	323.810
844.87	356.250
845.17	203.704
845.47	1733.333
845.76	688.889
846.06	335.294
846.36	475.000
846.66	385.714
846.96	281.250
847.25	409.091
847.55	445.455
847.85	295.652
848.15	540.000
848.44	464.286
848.74	272.222
849.04	358.824
849.34	520.000
849.63	268.421
849.93	381.818
850.23	1080.000
850.53	414.286
850.82	2350.000
851.12	-4600.000
851.42	4800.000
851.71	265.000
852.01	-1800.000
852.31	254.167
852.61	1800.000
852.90	300.000
853.20	232.000
853.50	335.294
853.79	280.952
854.09	195.833
854.39	400.000
854.68	205.405
854.98	219.355
855.28	173.333
855.57	234.483
855.87	255.556
856.17	268.421
856.46	286.667
856.76	329.412
857.05	179.310
857.35	220.833
857.65	366.667
857.94	278.261
858.24	234.615
858.53	310.000
858.83	250.000
859.13	373.333
859.42	0.000
859.72	611.111
860.01	481.818
860.31	250.000
860.60	300.000
860.90	247.826
861.20	700.000
861.49	533.333
861.79	-4800.000
862.08	687.500
862.38	285.714
862.67	376.923
862.97	376.471
863.26	511.111
863.56	338.889
863.85	375.000
864.15	675.000
864.44	433.333
864.74	933.333
865.03	712.500
865.33	310.526
865.62	409.091
865.92	484.615
866.21	400.000
866.51	0.000
866.80	454.545
867.10	1100.000
867.39	523.077
867.69	563.636
867.98	247.368
868.27	572.727
868.57	347.368
868.86	-5300.000
869.16	387.500
869.45	3350.000
869.75	-4900.000
870.04	500.000
870.33	728.571
870.63	1350.000
870.92	3000.000
871.22	771.429
871.51	347.059
871.80	280.952
872.10	464.286
>>>>>End Processed Spectral Data<<<<<
