SpectraSuite Data File
++++++++++++++++++++++++++++++++++++
Date: Wed May 13 19:17:43 PDT 2015
User: schluterlab
Dark Spectrum Present: Yes
Reference Spectrum Present: Yes
Number of Sampled Component Spectra: 1
Spectrometers: USB2E3373
Integration Time (usec): 3000 (USB2E3373)
Spectra Averaged: 3 (USB2E3373)
Boxcar Smoothing: 0 (USB2E3373)
Correct for Electrical Dark: No (USB2E3373)
Strobe/Lamp Enabled: No (USB2E3373)
Correct for Detector Non-linearity: No (USB2E3373)
Correct for Stray Light: No (USB2E3373)
Number of Pixels in Processed Spectrum: 2048
>>>>>Begin Processed Spectral Data<<<<<
178.53	0.000
178.91	-1625.000
179.29	-1475.000
179.67	-272.222
180.04	-1525.000
180.42	2850.000
180.80	1100.000
181.18	-1100.000
181.56	757.143
181.94	0.000
182.31	-657.143
182.69	1900.000
183.07	-550.000
183.45	-611.111
183.83	618.182
184.20	-410.000
184.58	2500.000
184.96	6000.000
185.34	-920.000
185.72	-612.500
186.09	-3000.000
186.47	3200.000
186.85	2500.000
187.23	5100.000
187.61	-1866.667
187.98	1625.000
188.36	663.636
188.74	609.091
189.12	-1240.000
189.49	620.000
189.87	-4900.000
190.25	-1375.000
190.63	450.000
191.00	453.846
191.38	1066.667
191.76	-1300.000
192.14	1575.000
192.51	700.000
192.89	1033.333
193.27	737.500
193.65	-1300.000
194.02	600.000
194.40	1160.000
194.78	600.000
195.15	583.333
195.53	760.000
195.91	-2400.000
196.29	393.750
196.66	363.158
197.04	-500.000
197.42	0.000
197.79	740.000
198.17	-5600.000
198.55	914.286
198.92	787.500
199.30	1200.000
199.68	0.000
200.05	427.778
200.43	971.429
200.81	4900.000
201.18	1633.333
201.56	-1600.000
201.94	700.000
202.31	644.444
202.69	400.000
203.07	620.000
203.44	0.000
203.82	1325.000
204.19	885.714
204.57	442.857
204.95	700.000
205.32	2100.000
205.70	636.364
206.08	485.714
206.45	2750.000
206.83	437.500
207.20	950.000
207.58	1100.000
207.96	322.222
208.33	837.500
208.71	-883.333
209.08	914.286
209.46	844.444
209.84	554.545
210.21	-1866.667
210.59	1675.000
210.96	-700.000
211.34	3100.000
211.71	660.000
212.09	816.667
212.46	0.000
212.84	1800.000
213.22	1425.000
213.59	-5300.000
213.97	1133.333
214.34	871.429
214.72	663.636
215.09	1280.000
215.47	-2500.000
215.84	-2750.000
216.22	1833.333
216.59	414.286
216.97	1475.000
217.34	518.182
217.72	-766.667
218.09	0.000
218.47	-5000.000
218.84	655.556
219.22	814.286
219.59	1933.333
219.97	-671.429
220.34	1160.000
220.72	-1866.667
221.09	478.571
221.47	1600.000
221.84	-1116.667
222.22	0.000
222.59	1825.000
222.97	-3450.000
223.34	1380.000
223.72	453.846
224.09	1180.000
224.46	2900.000
224.84	-6200.000
225.21	-1180.000
225.59	-7300.000
225.96	640.000
226.34	375.000
226.71	2750.000
227.08	675.000
227.46	670.000
227.83	-1500.000
228.21	-2900.000
228.58	622.222
228.95	-2850.000
229.33	-2900.000
229.70	1833.333
230.08	871.429
230.45	-1060.000
230.82	508.333
231.20	933.333
231.57	971.429
231.95	516.667
232.32	286.364
232.69	554.545
233.07	800.000
233.44	484.615
233.81	-2066.667
234.19	363.158
234.56	458.333
234.93	483.333
235.31	627.273
235.68	361.538
236.05	478.571
236.43	221.212
236.80	336.842
237.17	5400.000
237.55	333.333
237.92	292.857
238.29	423.810
238.67	238.710
239.04	251.724
239.41	208.333
239.79	189.130
240.16	185.714
240.53	184.091
240.91	164.706
241.28	146.000
241.65	166.000
242.02	140.580
242.40	141.935
242.77	151.667
243.14	121.505
243.51	129.213
243.89	120.000
244.26	114.444
244.63	112.903
245.00	101.064
245.38	109.901
245.75	105.607
246.12	98.165
246.49	96.350
246.87	104.000
247.24	102.308
247.61	85.714
247.98	88.235
248.36	87.838
248.73	89.172
249.10	88.535
249.47	81.356
249.84	81.818
250.22	77.540
250.59	88.166
250.96	89.394
251.33	81.043
251.70	81.683
252.08	81.905
252.45	78.027
252.82	73.043
253.19	72.766
253.56	74.902
253.94	75.934
254.31	79.687
254.68	80.000
255.05	73.801
255.42	75.610
255.79	75.735
256.16	75.090
256.54	70.318
256.91	69.395
257.28	65.827
257.65	68.317
258.02	71.739
258.39	68.770
258.76	65.552
259.14	66.071
259.51	65.653
259.88	65.839
260.25	70.393
260.62	65.318
260.99	72.360
261.36	68.168
261.73	70.201
262.10	67.733
262.47	68.451
262.85	66.017
263.22	65.527
263.59	65.527
263.96	64.286
264.33	65.013
264.70	64.211
265.07	63.939
265.44	63.889
265.81	61.071
266.18	62.814
266.55	67.805
266.92	64.619
267.29	65.509
267.66	63.073
268.03	62.727
268.40	62.150
268.77	64.200
269.14	64.189
269.51	64.786
269.88	64.336
270.25	61.174
270.62	63.820
270.99	61.935
271.36	62.661
271.73	60.981
272.10	61.304
272.47	64.301
272.84	59.524
273.21	61.426
273.58	58.515
273.95	59.539
274.32	59.091
274.69	62.313
275.06	57.087
275.43	64.043
275.80	62.325
276.17	58.656
276.54	62.370
276.91	57.510
277.28	56.641
277.65	60.155
278.02	58.592
278.39	59.961
278.76	56.182
279.13	60.566
279.50	57.728
279.87	57.171
280.23	57.485
280.60	58.607
280.97	58.965
281.34	57.522
281.71	55.091
282.08	57.774
282.45	53.455
282.82	55.062
283.19	57.041
283.56	55.439
283.92	58.206
284.29	55.556
284.66	55.354
285.03	54.430
285.40	55.106
285.77	54.377
286.14	54.577
286.51	54.333
286.87	56.068
287.24	55.049
287.61	52.970
287.98	54.058
288.35	51.506
288.72	51.558
289.08	52.739
289.45	53.377
289.82	52.358
290.19	50.706
290.56	48.392
290.93	47.885
291.29	49.387
291.66	48.230
292.03	50.727
292.40	49.486
292.77	48.077
293.13	50.746
293.50	47.230
293.87	49.333
294.24	46.370
294.60	45.560
294.97	46.366
295.34	46.968
295.71	47.301
296.08	45.299
296.44	44.429
296.81	44.914
297.18	44.851
297.55	41.161
297.91	44.723
298.28	47.122
298.65	42.428
299.02	43.874
299.38	43.293
299.75	42.588
300.12	41.379
300.48	41.375
300.85	41.924
301.22	41.656
301.59	42.172
301.95	41.058
302.32	40.565
302.69	40.860
303.05	40.970
303.42	41.605
303.79	39.977
304.15	38.112
304.52	41.020
304.89	40.070
305.25	38.399
305.62	38.845
305.99	41.558
306.35	40.828
306.72	40.919
307.09	40.622
307.45	40.203
307.82	37.612
308.19	38.190
308.55	39.806
308.92	38.883
309.29	37.698
309.65	39.236
310.02	39.218
310.38	39.032
310.75	38.120
311.12	38.383
311.48	40.125
311.85	42.138
312.22	40.791
312.58	38.254
312.95	39.704
313.31	36.311
313.68	39.709
314.05	39.645
314.41	40.302
314.78	40.181
315.14	39.523
315.51	40.268
315.87	39.307
316.24	39.623
316.61	39.766
316.97	40.802
317.34	41.096
317.70	42.065
318.07	41.675
318.43	42.466
318.80	44.236
319.16	42.561
319.53	43.340
319.89	45.333
320.26	46.400
320.62	46.032
320.99	45.354
321.35	47.475
321.72	47.433
322.08	47.779
322.45	47.960
322.81	48.450
323.18	50.289
323.54	49.722
323.91	50.566
324.27	51.721
324.64	53.215
325.00	52.570
325.37	54.777
325.73	55.655
326.10	56.134
326.46	55.376
326.83	58.067
327.19	57.301
327.56	57.230
327.92	60.017
328.29	62.112
328.65	61.971
329.01	60.199
329.38	63.645
329.74	62.142
330.11	62.865
330.47	65.657
330.84	64.890
331.20	63.115
331.56	64.128
331.93	65.833
332.29	65.661
332.66	65.575
333.02	65.356
333.38	67.209
333.75	65.775
334.11	66.548
334.48	66.548
334.84	67.831
335.20	67.636
335.57	67.724
335.93	67.054
336.29	68.590
336.66	68.891
337.02	68.688
337.38	70.093
337.75	69.697
338.11	69.114
338.47	71.271
338.84	71.311
339.20	68.991
339.56	72.445
339.93	71.909
340.29	71.286
340.65	72.014
341.02	72.600
341.38	72.509
341.74	72.105
342.11	73.712
342.47	74.537
342.83	73.887
343.20	74.286
343.56	74.136
343.92	76.754
344.28	75.000
344.65	76.440
345.01	73.653
345.37	74.528
345.73	76.142
346.10	76.044
346.46	74.237
346.82	76.771
347.19	76.107
347.55	75.780
347.91	77.670
348.27	77.239
348.63	76.923
349.00	76.214
349.36	77.997
349.72	77.306
350.08	78.606
350.45	77.868
350.81	77.092
351.17	78.363
351.53	79.034
351.89	78.465
352.26	79.637
352.62	79.791
352.98	80.065
353.34	81.512
353.70	80.278
354.07	79.919
354.43	78.413
354.79	79.405
355.15	80.607
355.51	82.734
355.87	82.612
356.24	82.736
356.60	81.476
356.96	83.347
357.32	82.829
357.68	83.386
358.04	82.898
358.40	81.789
358.77	83.646
359.13	81.452
359.49	83.843
359.85	84.127
360.21	85.486
360.57	86.226
360.93	85.385
361.29	84.429
361.66	84.907
362.02	84.701
362.38	86.008
362.74	86.682
363.10	84.604
363.46	84.446
363.82	86.999
364.18	84.802
364.54	88.856
364.90	87.181
365.26	87.868
365.62	89.481
365.98	89.189
366.35	88.181
366.71	89.877
367.07	90.459
367.43	90.276
367.79	90.150
368.15	90.158
368.51	90.916
368.87	89.579
369.23	89.612
369.59	91.962
369.95	90.809
370.31	91.524
370.67	90.000
371.03	92.285
371.39	91.545
371.75	92.059
372.11	89.900
372.47	91.789
372.83	95.461
373.19	92.558
373.55	95.639
373.91	95.582
374.27	90.584
374.63	95.418
374.99	93.997
375.35	96.301
375.71	91.981
376.07	93.964
376.42	97.455
376.78	94.698
377.14	95.387
377.50	96.291
377.86	94.814
378.22	95.006
378.58	94.737
378.94	97.486
379.30	97.901
379.66	98.477
380.02	96.622
380.38	95.264
380.74	98.019
381.09	98.411
381.45	98.771
381.81	97.420
382.17	98.344
382.53	98.491
382.89	100.247
383.25	100.438
383.61	100.062
383.97	99.875
384.32	100.187
384.68	98.451
385.04	101.414
385.40	100.248
385.76	101.167
386.12	101.813
386.48	102.266
386.83	102.630
387.19	101.732
387.55	102.783
387.91	101.753
388.27	102.452
388.62	100.983
388.98	100.737
389.34	103.630
389.70	101.901
390.06	103.232
390.42	103.891
390.77	104.071
391.13	105.105
391.49	102.665
391.85	103.628
392.20	105.615
392.56	103.598
392.92	104.826
393.28	104.734
393.64	103.357
393.99	102.627
394.35	103.784
394.71	103.890
395.07	103.364
395.42	104.883
395.78	102.863
396.14	102.669
396.50	106.078
396.85	104.450
397.21	103.761
397.57	104.774
397.92	103.005
398.28	102.354
398.64	101.792
399.00	103.246
399.35	103.384
399.71	103.819
400.07	102.720
400.42	103.129
400.78	105.066
401.14	104.756
401.49	104.239
401.85	104.114
402.21	102.275
402.57	104.503
402.92	105.927
403.28	104.185
403.63	103.094
403.99	105.924
404.35	103.576
404.70	102.038
405.06	102.912
405.42	102.932
405.77	102.629
406.13	101.693
406.49	101.774
406.84	100.354
407.20	100.827
407.55	103.063
407.91	103.667
408.27	103.382
408.62	100.963
408.98	102.206
409.34	100.800
409.69	100.516
410.05	101.673
410.40	99.205
410.76	99.642
411.11	98.251
411.47	99.169
411.83	100.794
412.18	101.299
412.54	101.557
412.89	99.337
413.25	100.236
413.60	100.741
413.96	98.482
414.31	98.663
414.67	99.683
415.03	99.669
415.38	99.549
415.74	98.392
416.09	101.502
416.45	99.398
416.80	97.951
417.16	100.201
417.51	99.867
417.87	95.954
418.22	98.612
418.58	99.096
418.93	99.386
419.29	99.682
419.64	96.411
420.00	97.744
420.35	96.870
420.71	99.283
421.06	97.733
421.42	97.544
421.77	97.982
422.12	97.586
422.48	96.816
422.83	99.010
423.19	96.740
423.54	98.317
423.90	96.870
424.25	97.097
424.61	95.655
424.96	98.251
425.31	95.570
425.67	94.157
426.02	96.114
426.38	96.764
426.73	96.606
427.09	96.109
427.44	96.032
427.79	95.687
428.15	95.714
428.50	93.856
428.85	96.007
429.21	95.748
429.56	96.682
429.92	95.018
430.27	93.247
430.62	94.163
430.98	94.136
431.33	92.165
431.68	93.194
432.04	92.173
432.39	94.632
432.74	94.734
433.10	95.303
433.45	93.936
433.80	93.182
434.16	92.147
434.51	92.316
434.86	93.558
435.22	93.385
435.57	93.435
435.92	92.218
436.28	94.543
436.63	92.274
436.98	91.643
437.34	92.964
437.69	93.641
438.04	92.130
438.39	92.478
438.75	93.725
439.10	92.402
439.45	93.152
439.81	93.051
440.16	90.683
440.51	91.213
440.86	91.720
441.22	91.824
441.57	91.401
441.92	91.607
442.27	91.550
442.63	90.785
442.98	92.225
443.33	89.837
443.68	90.294
444.03	89.605
444.39	90.117
444.74	89.123
445.09	87.871
445.44	87.808
445.79	89.164
446.15	88.142
446.50	87.830
446.85	87.873
447.20	88.067
447.55	90.061
447.91	87.534
448.26	87.924
448.61	88.355
448.96	87.209
449.31	88.301
449.66	86.213
450.02	86.574
450.37	84.354
450.72	87.140
451.07	84.644
451.42	83.830
451.77	86.847
452.12	84.527
452.47	85.386
452.83	84.674
453.18	83.680
453.53	86.147
453.88	83.816
454.23	84.579
454.58	84.434
454.93	86.332
455.28	83.541
455.63	82.888
455.98	85.357
456.34	84.925
456.69	83.657
457.04	83.901
457.39	82.700
457.74	82.356
458.09	81.311
458.44	82.440
458.79	80.152
459.14	81.941
459.49	80.911
459.84	81.274
460.19	80.554
460.54	78.299
460.89	80.417
461.24	80.814
461.59	80.767
461.94	80.025
462.29	80.950
462.64	78.111
462.99	77.293
463.34	79.667
463.69	79.049
464.04	77.391
464.39	77.855
464.74	78.075
465.09	78.287
465.44	76.399
465.79	77.013
466.14	75.534
466.49	75.473
466.84	76.474
467.19	75.075
467.54	76.625
467.89	76.531
468.24	75.218
468.59	75.214
468.94	74.099
469.29	76.221
469.64	76.573
469.99	76.387
470.34	73.382
470.68	75.431
471.03	73.810
471.38	76.025
471.73	72.818
472.08	74.342
472.43	74.121
472.78	73.404
473.13	72.080
473.48	73.720
473.83	74.878
474.17	71.251
474.52	71.960
474.87	71.629
475.22	72.548
475.57	70.500
475.92	70.207
476.27	70.462
476.61	71.153
476.96	69.874
477.31	69.178
477.66	70.131
478.01	69.733
478.36	69.328
478.70	68.328
479.05	69.329
479.40	69.038
479.75	69.243
480.10	68.191
480.45	68.110
480.79	66.651
481.14	68.885
481.49	67.727
481.84	68.130
482.19	67.333
482.53	66.422
482.88	66.729
483.23	68.178
483.58	66.333
483.92	66.917
484.27	64.488
484.62	65.819
484.97	64.919
485.31	67.089
485.66	66.740
486.01	64.425
486.36	62.295
486.70	60.505
487.05	62.134
487.40	62.487
487.75	63.554
488.09	63.270
488.44	64.243
488.79	65.353
489.13	63.522
489.48	64.029
489.83	63.789
490.17	63.875
490.52	61.603
490.87	62.325
491.22	62.801
491.56	61.412
491.91	62.448
492.26	61.920
492.60	61.014
492.95	61.459
493.30	61.916
493.64	61.316
493.99	61.653
494.34	60.962
494.68	61.813
495.03	60.432
495.37	60.912
495.72	61.306
496.07	60.928
496.41	59.071
496.76	59.235
497.11	59.072
497.45	59.292
497.80	60.077
498.14	59.227
498.49	59.610
498.84	58.917
499.18	58.905
499.53	58.737
499.87	58.341
500.22	57.325
500.56	59.029
500.91	57.452
501.26	57.421
501.60	59.041
501.95	57.608
502.29	58.529
502.64	57.914
502.98	58.158
503.33	56.718
503.67	57.587
504.02	57.250
504.36	55.826
504.71	58.232
505.06	56.819
505.40	55.955
505.75	55.111
506.09	56.122
506.44	56.487
506.78	56.210
507.13	56.790
507.47	55.909
507.82	55.623
508.16	56.434
508.51	57.078
508.85	55.362
509.19	55.816
509.54	54.745
509.88	54.817
510.23	54.961
510.57	55.521
510.92	55.567
511.26	54.985
511.61	54.149
511.95	53.914
512.30	54.401
512.64	54.272
512.98	54.984
513.33	55.246
513.67	53.842
514.02	54.004
514.36	54.779
514.70	54.123
515.05	53.765
515.39	53.505
515.74	54.448
516.08	53.270
516.42	53.219
516.77	54.292
517.11	52.275
517.46	54.007
517.80	54.355
518.14	52.635
518.49	53.676
518.83	52.784
519.17	52.714
519.52	53.254
519.86	52.653
520.20	52.254
520.55	53.142
520.89	52.798
521.23	52.714
521.58	52.101
521.92	52.480
522.26	51.800
522.61	53.084
522.95	51.627
523.29	50.456
523.64	52.195
523.98	51.818
524.32	51.809
524.66	52.315
525.01	50.123
525.35	50.929
525.69	49.938
526.04	51.153
526.38	51.129
526.72	50.675
527.06	51.161
527.41	48.762
527.75	50.225
528.09	50.931
528.43	51.307
528.78	50.707
529.12	50.242
529.46	51.317
529.80	50.866
530.15	49.595
530.49	49.292
530.83	48.924
531.17	50.849
531.51	51.232
531.86	50.903
532.20	51.369
532.54	49.391
532.88	50.321
533.22	48.595
533.57	49.012
533.91	48.766
534.25	48.785
534.59	48.444
534.93	48.424
535.27	48.582
535.62	48.718
535.96	49.529
536.30	48.887
536.64	48.938
536.98	50.697
537.32	47.729
537.66	48.400
538.01	47.926
538.35	48.869
538.69	49.968
539.03	48.473
539.37	46.773
539.71	46.986
540.05	49.150
540.39	48.505
540.73	47.154
541.07	48.151
541.42	48.598
541.76	48.258
542.10	48.254
542.44	49.007
542.78	48.617
543.12	47.217
543.46	47.148
543.80	48.406
544.14	46.470
544.48	47.365
544.82	47.274
545.16	47.625
545.50	45.758
545.84	47.648
546.18	47.003
546.52	47.213
546.86	47.148
547.20	47.202
547.54	48.297
547.88	47.577
548.22	46.887
548.56	46.792
548.90	46.223
549.24	46.667
549.58	46.794
549.92	45.536
550.26	47.940
550.60	45.643
550.94	47.606
551.28	46.013
551.62	46.585
551.96	46.667
552.30	46.826
552.64	46.450
552.98	46.644
553.32	45.786
553.66	45.740
554.00	46.603
554.34	47.067
554.68	47.210
555.02	46.121
555.36	45.581
555.69	43.843
556.03	45.491
556.37	47.135
556.71	44.611
557.05	45.868
557.39	44.647
557.73	44.813
558.07	46.918
558.41	46.165
558.75	44.967
559.08	45.638
559.42	45.503
559.76	45.956
560.10	44.682
560.44	45.003
560.78	43.380
561.12	44.789
561.45	45.828
561.79	44.496
562.13	45.003
562.47	45.150
562.81	44.979
563.15	44.749
563.48	44.164
563.82	44.227
564.16	45.193
564.50	44.922
564.84	44.311
565.17	43.822
565.51	45.495
565.85	45.051
566.19	43.582
566.52	45.282
566.86	44.786
567.20	44.045
567.54	45.034
567.88	43.346
568.21	43.915
568.55	42.821
568.89	43.726
569.23	43.093
569.56	42.429
569.90	43.208
570.24	43.380
570.57	42.469
570.91	41.726
571.25	42.125
571.59	41.973
571.92	42.022
572.26	43.270
572.60	41.862
572.93	41.889
573.27	41.467
573.61	42.044
573.95	42.532
574.28	41.859
574.62	42.274
574.96	41.290
575.29	41.756
575.63	41.540
575.97	41.656
576.30	41.423
576.64	41.749
576.98	41.614
577.31	41.405
577.65	41.672
577.98	41.194
578.32	40.985
578.66	40.734
578.99	41.885
579.33	41.757
579.67	40.939
580.00	41.117
580.34	41.315
580.67	40.841
581.01	42.186
581.35	41.788
581.68	41.361
582.02	41.018
582.35	41.193
582.69	40.743
583.02	41.285
583.36	41.204
583.70	41.384
584.03	41.275
584.37	41.581
584.70	42.163
585.04	40.925
585.37	41.170
585.71	41.776
586.04	40.952
586.38	41.928
586.72	41.342
587.05	40.695
587.39	40.264
587.72	40.737
588.06	41.355
588.39	41.015
588.73	40.980
589.06	41.134
589.40	41.919
589.73	40.971
590.07	41.103
590.40	40.409
590.73	41.335
591.07	41.880
591.40	41.544
591.74	42.294
592.07	42.190
592.41	41.174
592.74	40.637
593.08	40.839
593.41	40.557
593.75	40.006
594.08	39.926
594.41	40.686
594.75	41.774
595.08	41.088
595.42	41.051
595.75	39.850
596.09	41.307
596.42	40.589
596.75	41.030
597.09	41.342
597.42	40.683
597.75	41.009
598.09	40.435
598.42	40.077
598.76	40.251
599.09	40.175
599.42	39.047
599.76	39.898
600.09	39.126
600.42	40.431
600.76	39.714
601.09	39.854
601.42	39.916
601.76	39.924
602.09	40.158
602.42	40.804
602.76	41.314
603.09	40.716
603.42	40.961
603.76	40.358
604.09	39.550
604.42	41.215
604.76	40.363
605.09	39.974
605.42	39.846
605.75	39.735
606.09	40.586
606.42	40.744
606.75	40.523
607.09	40.059
607.42	39.495
607.75	39.747
608.08	39.557
608.42	39.892
608.75	40.036
609.08	38.853
609.41	39.695
609.75	39.114
610.08	40.575
610.41	39.618
610.74	40.634
611.07	40.069
611.41	40.088
611.74	40.774
612.07	40.839
612.40	40.241
612.73	39.526
613.07	40.463
613.40	40.390
613.73	39.329
614.06	39.946
614.39	39.276
614.72	39.421
615.06	39.496
615.39	38.854
615.72	39.315
616.05	37.905
616.38	40.523
616.71	40.321
617.05	40.283
617.38	39.627
617.71	40.901
618.04	40.385
618.37	38.321
618.70	39.328
619.03	40.066
619.36	39.986
619.69	39.437
620.03	40.110
620.36	39.706
620.69	39.932
621.02	39.086
621.35	39.781
621.68	39.953
622.01	41.099
622.34	39.788
622.67	40.304
623.00	39.252
623.33	39.242
623.66	39.099
623.99	40.280
624.32	39.943
624.65	39.477
624.99	39.093
625.32	39.175
625.65	41.848
625.98	40.661
626.31	40.124
626.64	40.082
626.97	40.316
627.30	39.485
627.63	41.181
627.96	40.875
628.29	39.545
628.62	40.622
628.95	41.792
629.28	39.051
629.61	41.338
629.94	40.762
630.26	40.515
630.59	40.324
630.92	39.655
631.25	39.289
631.58	39.640
631.91	39.655
632.24	40.190
632.57	38.825
632.90	39.254
633.23	39.374
633.56	40.678
633.89	40.770
634.22	40.295
634.55	42.130
634.88	40.240
635.20	40.860
635.53	41.928
635.86	41.460
636.19	41.176
636.52	40.715
636.85	38.832
637.18	40.207
637.51	42.435
637.83	38.348
638.16	41.688
638.49	40.428
638.82	41.466
639.15	40.875
639.48	42.145
639.81	41.287
640.13	40.104
640.46	41.477
640.79	40.423
641.12	38.377
641.45	41.201
641.77	43.004
642.10	40.058
642.43	42.192
642.76	41.176
643.09	40.491
643.41	40.668
643.74	41.204
644.07	39.482
644.40	40.951
644.73	40.787
645.05	43.265
645.38	39.652
645.71	39.614
646.04	43.522
646.36	42.070
646.69	42.308
647.02	40.986
647.35	41.753
647.67	44.779
648.00	40.325
648.33	42.079
648.66	41.667
648.98	41.829
649.31	40.060
649.64	40.508
649.96	42.176
650.29	40.600
650.62	40.777
650.94	42.950
651.27	42.736
651.60	40.266
651.92	41.534
652.25	41.042
652.58	41.589
652.90	42.338
653.23	39.908
653.56	39.843
653.88	41.204
654.21	42.812
654.54	40.429
654.86	41.745
655.19	39.324
655.52	31.680
655.84	31.515
656.17	41.615
656.49	56.241
656.82	57.588
657.15	43.182
657.47	31.653
657.80	24.480
658.13	25.199
658.45	36.626
658.78	37.118
659.10	37.659
659.43	39.142
659.75	41.224
660.08	42.595
660.41	45.345
660.73	46.760
661.06	41.879
661.38	43.273
661.71	44.231
662.03	42.209
662.36	40.159
662.68	40.964
663.01	42.424
663.33	41.401
663.66	42.647
663.98	42.549
664.31	39.076
664.63	40.283
664.96	39.235
665.28	42.623
665.61	43.080
665.93	40.443
666.26	43.813
666.58	43.096
666.91	44.186
667.23	44.270
667.56	39.525
667.88	44.231
668.21	42.857
668.53	40.781
668.86	41.342
669.18	42.644
669.50	41.087
669.83	45.098
670.15	43.556
670.48	41.830
670.80	44.612
671.13	45.223
671.45	41.915
671.77	43.177
672.10	39.741
672.42	40.813
672.75	42.289
673.07	42.430
673.39	44.123
673.72	41.211
674.04	42.941
674.37	41.165
674.69	41.922
675.01	40.167
675.34	44.148
675.66	42.737
675.98	42.363
676.31	42.857
676.63	41.189
676.95	42.138
677.28	41.822
677.60	43.516
677.92	43.249
678.25	41.068
678.57	42.231
678.89	42.485
679.22	43.222
679.54	41.221
679.86	40.734
680.18	42.397
680.51	41.667
680.83	41.637
681.15	41.509
681.48	43.856
681.80	41.586
682.12	40.038
682.44	38.104
682.77	42.770
683.09	45.494
683.41	42.129
683.73	40.839
684.06	45.868
684.38	43.444
684.70	43.411
685.02	41.463
685.34	42.308
685.67	38.462
685.99	39.003
686.31	41.126
686.63	38.869
686.96	40.179
687.28	40.072
687.60	40.399
687.92	42.048
688.24	41.445
688.56	42.771
688.89	44.398
689.21	43.013
689.53	44.468
689.85	41.463
690.17	38.923
690.49	40.977
690.82	43.692
691.14	43.080
691.46	40.717
691.78	41.365
692.10	41.529
692.42	43.713
692.74	39.834
693.06	41.702
693.39	42.300
693.71	41.048
694.03	42.737
694.35	41.558
694.67	42.105
694.99	43.902
695.31	41.176
695.63	44.737
695.95	46.210
696.27	44.162
696.59	41.969
696.91	43.523
697.23	41.549
697.56	42.431
697.88	40.695
698.20	40.417
698.52	42.796
698.84	44.321
699.16	40.783
699.48	44.656
699.80	41.063
700.12	48.312
700.44	45.093
700.76	46.409
701.08	43.103
701.40	47.486
701.72	46.939
702.04	44.886
702.36	43.909
702.68	43.909
703.00	41.274
703.32	43.617
703.64	46.381
703.96	45.125
704.28	43.605
704.60	47.507
704.91	47.478
705.23	46.041
705.55	50.831
705.87	52.492
706.19	46.996
706.51	44.237
706.83	49.394
707.15	46.779
707.47	44.192
707.79	43.243
708.11	43.379
708.43	44.048
708.74	41.837
709.06	43.896
709.38	45.407
709.70	46.802
710.02	48.961
710.34	44.545
710.66	47.761
710.98	45.170
711.29	45.640
711.61	48.673
711.93	47.115
712.25	51.125
712.57	52.206
712.89	47.059
713.20	46.505
713.52	49.342
713.84	47.785
714.16	48.476
714.48	47.701
714.80	52.888
715.11	43.804
715.43	44.510
715.75	46.087
716.07	47.284
716.39	45.768
716.70	50.166
717.02	50.000
717.34	45.936
717.66	52.612
717.97	49.801
718.29	52.222
718.61	47.080
718.93	49.632
719.24	46.713
719.56	47.797
719.88	50.847
720.20	52.027
720.51	51.916
720.83	49.814
721.15	50.746
721.46	49.645
721.78	51.254
722.10	47.547
722.42	50.752
722.73	47.940
723.05	51.639
723.37	53.036
723.68	49.807
724.00	51.626
724.32	56.048
724.63	48.780
724.95	48.954
725.27	48.178
725.58	50.781
725.90	50.730
726.22	52.453
726.53	47.917
726.85	48.805
727.16	51.957
727.48	49.291
727.80	47.348
728.11	52.174
728.43	50.769
728.74	49.104
729.06	53.650
729.38	55.147
729.69	50.178
730.01	49.147
730.32	46.181
730.64	49.498
730.96	47.525
731.27	47.351
731.59	49.235
731.90	46.064
732.22	49.068
732.53	45.201
732.85	43.269
733.16	46.945
733.48	46.512
733.80	48.052
734.11	46.178
734.43	47.041
734.74	44.000
735.06	43.553
735.37	48.555
735.69	41.720
736.00	49.673
736.32	48.598
736.63	49.521
736.95	46.326
737.26	43.197
737.58	45.161
737.89	48.829
738.21	50.171
738.52	50.714
738.83	45.660
739.15	42.692
739.46	52.190
739.78	49.653
740.09	47.692
740.41	48.710
740.72	46.341
741.04	50.000
741.35	53.333
741.66	57.333
741.98	55.189
742.29	58.852
742.61	54.741
742.92	54.299
743.23	54.701
743.55	53.200
743.86	51.754
744.18	59.735
744.49	50.718
744.80	61.033
745.12	57.273
745.43	50.661
745.74	57.207
746.06	55.505
746.37	53.812
746.68	52.036
747.00	55.556
747.31	55.714
747.62	51.327
747.94	54.626
748.25	54.043
748.56	49.339
748.88	56.436
749.19	60.000
749.50	55.349
749.82	48.374
750.13	48.571
750.44	48.540
750.75	47.368
751.07	50.482
751.38	52.265
751.69	49.097
752.01	52.632
752.32	46.931
752.63	45.035
752.94	55.328
753.26	54.400
753.57	49.187
753.88	53.125
754.19	49.643
754.51	52.431
754.82	48.375
755.13	50.943
755.44	50.000
755.75	46.715
756.07	47.872
756.38	50.730
756.69	45.638
757.00	46.707
757.31	43.323
757.63	47.661
757.94	44.772
758.25	41.422
758.56	45.679
758.87	46.237
759.18	46.061
759.50	45.455
759.81	45.794
760.12	46.250
760.43	46.132
760.74	44.565
761.05	46.045
761.36	46.791
761.67	49.148
761.99	48.137
762.30	49.653
762.61	49.237
762.92	46.484
763.23	49.580
763.54	52.400
763.85	46.484
764.16	54.615
764.47	53.992
764.78	44.523
765.10	45.570
765.41	48.083
765.72	44.611
766.03	47.649
766.34	52.000
766.65	56.170
766.96	58.974
767.27	54.315
767.58	52.083
767.89	60.000
768.20	59.195
768.51	56.853
768.82	57.339
769.13	49.187
769.44	51.012
769.75	52.790
770.06	57.339
770.37	52.941
770.68	59.259
770.99	56.444
771.30	48.770
771.61	58.744
771.92	51.639
772.23	61.345
772.54	58.974
772.85	53.927
773.16	62.766
773.47	59.783
773.78	60.406
774.09	57.143
774.39	61.404
774.70	67.901
775.01	62.319
775.32	73.856
775.63	70.395
775.94	70.504
776.25	68.504
776.56	76.866
776.87	64.754
777.18	71.094
777.48	71.756
777.79	69.697
778.10	66.667
778.41	69.643
778.72	61.314
779.03	62.416
779.34	67.114
779.65	66.216
779.95	63.804
780.26	65.359
780.57	71.034
780.88	70.312
781.19	73.684
781.50	62.162
781.80	65.409
782.11	60.452
782.42	63.924
782.73	60.736
783.04	65.541
783.34	67.606
783.65	77.397
783.96	73.134
784.27	61.538
784.57	65.468
784.88	73.148
785.19	75.397
785.50	78.302
785.81	81.343
786.11	81.967
786.42	79.070
786.73	73.451
787.04	87.736
787.34	76.786
787.65	97.000
787.96	78.378
788.26	78.512
788.57	81.356
788.88	77.686
789.19	68.056
789.49	83.333
789.80	77.863
790.11	91.429
790.41	85.149
790.72	97.590
791.03	92.391
791.33	84.884
791.64	93.814
791.95	88.119
792.25	95.556
792.56	94.805
792.87	107.692
793.17	103.797
793.48	95.402
793.79	87.356
794.09	94.318
794.40	73.109
794.70	76.471
795.01	64.444
795.32	64.748
795.62	72.441
795.93	81.897
796.23	84.956
796.54	87.059
796.85	106.757
797.15	121.127
797.46	106.061
797.76	101.205
798.07	100.000
798.37	110.769
798.68	110.606
798.99	95.775
799.29	102.597
799.60	98.864
799.90	105.479
800.21	126.866
800.51	129.310
800.82	114.035
801.12	113.115
801.43	113.636
801.73	93.243
802.04	120.635
802.34	96.296
802.65	117.187
802.95	113.559
803.26	129.688
803.56	97.143
803.87	106.154
804.17	111.765
804.48	164.815
804.78	113.793
805.09	111.765
805.39	125.000
805.70	141.071
806.00	137.705
806.30	113.636
806.61	104.878
806.91	97.468
807.22	109.211
807.52	98.507
807.83	104.225
808.13	109.375
808.43	121.667
808.74	92.105
809.04	113.043
809.35	113.433
809.65	109.211
809.95	130.645
810.26	118.644
810.56	115.873
810.86	163.636
811.17	169.048
811.47	126.667
811.77	146.296
812.08	132.727
812.38	130.000
812.69	191.667
812.99	188.636
813.29	140.816
813.59	130.952
813.90	153.061
814.20	132.727
814.50	118.462
814.81	125.000
815.11	136.735
815.41	111.475
815.72	169.048
816.02	134.545
816.32	152.381
816.62	140.000
816.93	175.610
817.23	159.524
817.53	129.545
817.84	206.061
818.14	132.609
818.44	144.444
818.74	208.824
819.04	150.000
819.35	171.429
819.65	205.882
819.95	232.143
820.25	285.000
820.56	192.308
820.86	154.545
821.16	172.093
821.46	158.974
821.76	136.000
822.07	200.000
822.37	192.500
822.67	193.939
822.97	135.294
823.27	257.143
823.57	186.486
823.88	200.000
824.18	223.333
824.48	188.095
824.78	272.000
825.08	233.333
825.38	178.378
825.69	165.854
825.99	233.333
826.29	186.207
826.59	194.737
826.89	181.579
827.19	185.294
827.49	209.677
827.79	170.455
828.09	140.909
828.39	138.298
828.70	134.694
829.00	211.111
829.30	180.645
829.60	175.000
829.90	393.333
830.20	253.571
830.50	213.043
830.80	278.261
831.10	236.667
831.40	226.667
831.70	243.478
832.00	253.846
832.30	262.963
832.60	331.250
832.90	240.000
833.20	485.714
833.50	209.677
833.80	220.690
834.10	225.000
834.40	250.000
834.70	355.556
835.00	347.619
835.30	214.286
835.60	446.154
835.90	241.379
836.20	442.857
836.50	196.552
836.80	228.000
837.10	213.889
837.40	261.905
837.70	329.412
838.00	240.741
838.30	261.905
838.60	347.619
838.90	269.231
839.19	285.000
839.49	421.429
839.79	385.000
840.09	330.000
840.39	285.714
840.69	295.652
840.99	338.889
841.29	470.000
841.59	450.000
841.88	437.500
842.18	206.897
842.48	309.524
842.78	223.333
843.08	286.957
843.38	187.500
843.68	983.333
843.97	246.154
844.27	203.448
844.57	276.190
844.87	350.000
845.17	248.148
845.47	1933.333
845.76	433.333
846.06	388.235
846.36	737.500
846.66	407.143
846.96	312.500
847.25	463.636
847.55	454.545
847.85	295.652
848.15	470.000
848.44	457.143
848.74	361.111
849.04	376.471
849.34	590.000
849.63	268.421
849.93	463.636
850.23	1080.000
850.53	485.714
850.82	2650.000
851.12	-5900.000
851.42	5400.000
851.71	290.000
852.01	-1433.333
852.31	266.667
852.61	1900.000
852.90	295.238
853.20	260.000
853.50	394.118
853.79	323.810
854.09	262.500
854.39	437.500
854.68	205.405
854.98	196.774
855.28	203.333
855.57	258.621
855.87	237.037
856.17	300.000
856.46	333.333
856.76	364.706
857.05	237.931
857.35	220.833
857.65	366.667
857.94	247.826
858.24	265.385
858.53	390.000
858.83	268.182
859.13	406.667
859.42	0.000
859.72	633.333
860.01	481.818
860.31	290.909
860.60	305.263
860.90	247.826
861.20	533.333
861.49	591.667
861.79	-4300.000
862.08	687.500
862.38	342.857
862.67	407.692
862.97	358.824
863.26	666.667
863.56	350.000
863.85	458.333
864.15	750.000
864.44	446.667
864.74	950.000
865.03	812.500
865.33	357.895
865.62	527.273
865.92	484.615
866.21	475.000
866.51	0.000
866.80	572.727
867.10	1320.000
867.39	507.692
867.69	563.636
867.98	347.368
868.27	518.182
868.57	321.053
868.86	-4000.000
869.16	362.500
869.45	2100.000
869.75	-4800.000
870.04	425.000
870.33	814.286
870.63	1350.000
870.92	3350.000
871.22	871.429
871.51	400.000
871.80	285.714
872.10	478.571
>>>>>End Processed Spectral Data<<<<<
