SpectraSuite Data File
++++++++++++++++++++++++++++++++++++
Date: Wed May 13 19:52:52 PDT 2015
User: schluterlab
Dark Spectrum Present: Yes
Reference Spectrum Present: Yes
Number of Sampled Component Spectra: 1
Spectrometers: USB2E3373
Integration Time (usec): 3000 (USB2E3373)
Spectra Averaged: 3 (USB2E3373)
Boxcar Smoothing: 0 (USB2E3373)
Correct for Electrical Dark: No (USB2E3373)
Strobe/Lamp Enabled: No (USB2E3373)
Correct for Detector Non-linearity: No (USB2E3373)
Correct for Stray Light: No (USB2E3373)
Number of Pixels in Processed Spectrum: 2048
>>>>>Begin Processed Spectral Data<<<<<
178.53	0.000
178.91	-1275.000
179.29	-1350.000
179.67	-244.444
180.04	-1350.000
180.42	2500.000
180.80	1080.000
181.18	-950.000
181.56	728.571
181.94	0.000
182.31	-771.429
182.69	1833.333
183.07	-650.000
183.45	-633.333
183.83	672.727
184.20	-480.000
184.58	2750.000
184.96	5800.000
185.34	-1100.000
185.72	-650.000
186.09	-2150.000
186.47	2800.000
186.85	2600.000
187.23	5500.000
187.61	-1633.333
187.98	1475.000
188.36	527.273
188.74	536.364
189.12	-940.000
189.49	600.000
189.87	-4200.000
190.25	-1375.000
190.63	435.714
191.00	369.231
191.38	900.000
191.76	-1300.000
192.14	1375.000
192.51	762.500
192.89	1116.667
193.27	700.000
193.65	-1475.000
194.02	520.000
194.40	820.000
194.78	680.000
195.15	500.000
195.53	560.000
195.91	-2050.000
196.29	418.750
196.66	357.895
197.04	-450.000
197.42	0.000
197.79	640.000
198.17	-5200.000
198.55	757.143
198.92	750.000
199.30	980.000
199.68	0.000
200.05	333.333
200.43	785.714
200.81	4700.000
201.18	1466.667
201.56	-1833.333
201.94	566.667
202.31	622.222
202.69	541.667
203.07	630.000
203.44	0.000
203.82	1575.000
204.19	771.429
204.57	457.143
204.95	650.000
205.32	1766.667
205.70	554.545
206.08	442.857
206.45	3350.000
206.83	362.500
207.20	983.333
207.58	940.000
207.96	322.222
208.33	825.000
208.71	-883.333
209.08	785.714
209.46	500.000
209.84	481.818
210.21	-1500.000
210.59	1475.000
210.96	-600.000
211.34	2950.000
211.71	640.000
212.09	716.667
212.46	0.000
212.84	2000.000
213.22	1400.000
213.59	-5200.000
213.97	1033.333
214.34	742.857
214.72	672.727
215.09	1240.000
215.47	-2300.000
215.84	-3150.000
216.22	1733.333
216.59	407.143
216.97	1400.000
217.34	500.000
217.72	-850.000
218.09	0.000
218.47	-4600.000
218.84	655.556
219.22	828.571
219.59	1633.333
219.97	-671.429
220.34	1280.000
220.72	-1900.000
221.09	450.000
221.47	1650.000
221.84	-866.667
222.22	0.000
222.59	1350.000
222.97	-2050.000
223.34	1160.000
223.72	438.462
224.09	1140.000
224.46	2200.000
224.84	-5900.000
225.21	-1140.000
225.59	-4800.000
225.96	650.000
226.34	350.000
226.71	2900.000
227.08	675.000
227.46	580.000
227.83	-1375.000
228.21	-2400.000
228.58	588.889
228.95	-2600.000
229.33	-2400.000
229.70	1666.667
230.08	828.571
230.45	-960.000
230.82	450.000
231.20	900.000
231.57	557.143
231.95	475.000
232.32	259.091
232.69	372.727
233.07	742.857
233.44	369.231
233.81	-1833.333
234.19	373.684
234.56	333.333
234.93	433.333
235.31	509.091
235.68	376.923
236.05	342.857
236.43	230.303
236.80	284.211
237.17	4000.000
237.55	266.667
237.92	221.429
238.29	252.381
238.67	154.839
239.04	189.655
239.41	141.667
239.79	126.087
240.16	130.952
240.53	138.636
240.91	94.118
241.28	104.000
241.65	114.000
242.02	84.058
242.40	85.484
242.77	88.333
243.14	75.269
243.51	73.034
243.89	70.588
244.26	53.333
244.63	58.065
245.00	48.936
245.38	51.485
245.75	39.252
246.12	43.119
246.49	43.796
246.87	52.800
247.24	59.231
247.61	42.143
247.98	43.137
248.36	38.514
248.73	35.032
249.10	45.223
249.47	31.638
249.84	40.642
250.22	32.620
250.59	32.544
250.96	30.808
251.33	33.649
251.70	35.149
252.08	27.143
252.45	27.354
252.82	25.652
253.19	25.532
253.56	24.314
253.94	26.556
254.31	28.516
254.68	26.538
255.05	24.354
255.42	27.236
255.79	26.103
256.16	27.076
256.54	20.495
256.91	23.488
257.28	18.705
257.65	25.413
258.02	24.224
258.39	21.767
258.76	23.077
259.14	23.512
259.51	23.100
259.88	17.391
260.25	20.846
260.62	22.832
260.99	16.149
261.36	21.922
261.73	21.203
262.10	17.442
262.47	23.380
262.85	20.056
263.22	15.100
263.59	21.652
263.96	17.857
264.33	23.499
264.70	18.684
265.07	18.670
265.44	18.939
265.81	19.708
266.18	17.588
266.55	17.317
266.92	17.199
267.29	18.981
267.66	17.202
268.03	17.273
268.40	19.159
268.77	15.752
269.14	16.216
269.51	17.833
269.88	17.249
270.25	15.801
270.62	16.180
270.99	17.204
271.36	16.738
271.73	15.421
272.10	18.696
272.47	16.344
272.84	16.017
273.21	17.400
273.58	15.502
273.95	15.723
274.32	14.256
274.69	15.418
275.06	14.764
275.43	14.681
275.80	15.431
276.17	15.682
276.54	16.216
276.91	15.217
277.28	14.453
277.65	16.441
278.02	14.700
278.39	16.797
278.76	14.727
279.13	16.792
279.50	15.642
279.87	16.135
280.23	15.170
280.60	14.700
280.97	14.603
281.34	16.637
281.71	15.636
282.08	14.587
282.45	14.182
282.82	12.611
283.19	12.121
283.56	11.404
283.92	13.029
284.29	12.346
284.66	13.975
285.03	13.201
285.40	14.789
285.77	12.458
286.14	13.472
286.51	13.000
286.87	14.530
287.24	13.844
287.61	12.039
287.98	14.610
288.35	12.995
288.72	13.551
289.08	13.615
289.45	13.180
289.82	13.496
290.19	12.088
290.56	12.557
290.93	11.782
291.29	11.963
291.66	11.504
292.03	15.262
292.40	13.363
292.77	11.834
293.13	12.985
293.50	13.120
293.87	11.111
294.24	11.407
294.60	10.044
294.97	12.645
295.34	12.412
295.71	12.642
296.08	11.966
296.44	10.454
296.81	11.889
297.18	12.466
297.55	8.179
297.91	12.005
298.28	9.772
298.65	11.227
299.02	11.594
299.38	11.155
299.75	8.221
300.12	8.685
300.48	10.125
300.85	10.974
301.22	9.554
301.59	9.217
301.95	11.461
302.32	9.884
302.69	9.677
303.05	9.576
303.42	10.123
303.79	11.099
304.15	9.207
304.52	9.386
304.89	9.175
305.25	10.325
305.62	10.532
305.99	10.744
306.35	9.620
306.72	10.874
307.09	10.544
307.45	9.910
307.82	7.924
308.19	9.161
308.55	10.356
308.92	9.989
309.29	8.553
309.65	9.120
310.02	9.937
310.38	10.323
310.75	10.032
311.12	10.440
311.48	10.449
311.85	10.587
312.22	9.365
312.58	8.940
312.95	9.609
313.31	8.932
313.68	9.979
314.05	11.440
314.41	10.352
314.78	10.775
315.14	10.824
315.51	9.990
315.87	11.683
316.24	9.831
316.61	9.844
316.97	10.176
317.34	9.589
317.70	10.899
318.07	10.106
318.43	11.644
318.80	11.246
319.16	12.241
319.53	10.225
319.89	12.095
320.26	12.800
320.62	12.302
320.99	12.323
321.35	11.818
321.72	11.807
322.08	13.228
322.45	13.333
322.81	13.372
323.18	13.295
323.54	12.987
323.91	13.208
324.27	12.906
324.64	12.395
325.00	12.263
325.37	13.558
325.73	14.183
326.10	14.210
326.46	12.993
326.83	14.495
327.19	13.578
327.56	13.502
327.92	13.386
328.29	15.528
328.65	15.378
329.01	13.809
329.38	14.616
329.74	14.404
330.11	13.949
330.47	15.335
330.84	15.901
331.20	15.027
331.56	15.229
331.93	16.759
332.29	15.350
332.66	16.018
333.02	15.631
333.38	15.086
333.75	14.973
334.11	16.459
334.48	14.374
334.84	16.452
335.20	15.727
335.57	14.325
335.93	15.000
336.29	15.201
336.66	16.141
337.02	14.661
337.38	15.370
337.75	16.221
338.11	15.309
338.47	15.193
338.84	16.957
339.20	15.688
339.56	16.880
339.93	15.091
340.29	16.486
340.65	15.954
341.02	16.405
341.38	15.214
341.74	16.053
342.11	16.245
342.47	14.273
342.83	15.753
343.20	16.190
343.56	16.344
343.92	16.667
344.28	15.986
344.65	16.939
345.01	14.646
345.37	15.437
345.73	15.990
346.10	15.516
346.46	15.847
346.82	15.733
347.19	15.038
347.55	15.681
347.91	15.696
348.27	16.105
348.63	16.054
349.00	16.181
349.36	16.585
349.72	16.279
350.08	15.316
350.45	17.413
350.81	15.922
351.17	16.126
351.53	16.134
351.89	15.429
352.26	16.180
352.62	17.081
352.98	16.045
353.34	16.927
353.70	14.566
354.07	16.371
354.43	14.921
354.79	15.044
355.15	15.403
355.51	17.186
355.87	16.653
356.24	16.531
356.60	15.798
356.96	16.251
357.32	16.108
357.68	16.535
358.04	16.390
358.40	15.756
358.77	16.823
359.13	15.312
359.49	16.863
359.85	14.683
360.21	15.710
360.57	16.809
360.93	18.077
361.29	16.478
361.66	15.248
362.02	16.343
362.38	16.806
362.74	16.518
363.10	15.840
363.46	15.921
363.82	15.797
364.18	15.859
364.54	16.568
364.90	16.785
365.26	16.544
365.62	17.312
365.98	16.289
366.35	15.831
366.71	16.197
367.07	16.752
367.43	17.054
367.79	17.059
368.15	16.954
368.51	16.352
368.87	17.345
369.23	15.801
369.59	16.365
369.95	16.544
370.31	17.379
370.67	17.536
371.03	18.277
371.39	16.910
371.75	17.206
372.11	16.358
372.47	17.229
372.83	18.516
373.19	17.052
373.55	17.147
373.91	17.305
374.27	16.907
374.63	17.018
374.99	17.797
375.35	16.818
375.71	17.135
376.07	17.353
376.42	16.575
376.78	17.893
377.14	17.096
377.50	17.881
377.86	17.553
378.22	17.636
378.58	17.105
378.94	18.290
379.30	17.748
379.66	18.274
380.02	18.182
380.38	17.061
380.74	18.187
381.09	17.115
381.45	17.763
381.81	18.673
382.17	18.217
382.53	18.553
382.89	18.148
383.25	18.261
383.61	18.401
383.97	18.762
384.32	18.840
384.68	18.835
385.04	18.562
385.40	18.390
385.76	17.936
386.12	19.106
386.48	18.943
386.83	19.564
387.19	18.924
387.55	18.738
387.91	18.803
388.27	19.129
388.62	18.931
388.98	18.366
389.34	19.212
389.70	19.742
390.06	19.392
390.42	19.390
390.77	20.483
391.13	19.847
391.49	19.607
391.85	19.796
392.20	19.558
392.56	19.697
392.92	19.541
393.28	18.343
393.64	20.204
393.99	19.487
394.35	19.665
394.71	19.322
395.07	20.000
395.42	19.407
395.78	19.975
396.14	20.795
396.50	20.865
396.85	20.089
397.21	19.852
397.57	19.963
397.92	20.012
398.28	19.507
398.64	20.430
399.00	20.313
399.35	19.684
399.71	19.734
400.07	21.526
400.42	20.859
400.78	21.230
401.14	21.098
401.49	20.776
401.85	20.508
402.21	20.539
402.57	20.358
402.92	20.492
403.28	20.550
403.63	20.483
403.99	20.255
404.35	21.152
404.70	20.923
405.06	20.559
405.42	21.210
405.77	19.829
406.13	20.767
406.49	20.639
406.84	20.496
407.20	20.272
407.55	21.315
407.91	21.133
408.27	20.740
408.62	20.590
408.98	20.527
409.34	21.587
409.69	22.129
410.05	20.384
410.40	21.957
410.76	21.027
411.11	21.351
411.47	21.981
411.83	21.686
412.18	21.707
412.54	21.731
412.89	21.265
413.25	21.783
413.60	22.112
413.96	20.826
414.31	21.689
414.67	22.433
415.03	22.119
415.38	22.745
415.74	21.865
416.09	22.600
416.45	20.750
416.80	21.877
417.16	22.788
417.51	22.362
417.87	22.222
418.22	22.965
418.58	22.466
418.93	21.990
419.29	22.470
419.64	22.418
420.00	23.293
420.35	22.029
420.71	23.431
421.06	22.554
421.42	22.749
421.77	23.150
422.12	22.291
422.48	22.234
422.83	23.355
423.19	22.873
423.54	22.113
423.90	22.029
424.25	23.004
424.61	22.143
424.96	23.032
425.31	23.256
425.67	22.416
426.02	22.971
426.38	23.810
426.73	23.054
427.09	22.857
427.44	23.347
427.79	22.944
428.15	22.798
428.50	23.581
428.85	23.957
429.21	22.584
429.56	23.069
429.92	23.150
430.27	22.592
430.62	22.837
430.98	23.145
431.33	22.990
431.68	23.508
432.04	22.684
432.39	23.815
432.74	23.160
433.10	23.090
433.45	24.082
433.80	23.004
434.16	23.878
434.51	23.105
434.86	23.546
435.22	22.957
435.57	22.918
435.92	23.054
436.28	24.140
436.63	23.510
436.98	23.526
437.34	23.733
437.69	24.271
438.04	23.215
438.39	23.522
438.75	24.288
439.10	24.302
439.45	24.793
439.81	23.988
440.16	23.490
440.51	24.312
440.86	23.683
441.22	23.415
441.57	23.726
441.92	23.388
442.27	23.412
442.63	23.381
442.98	24.338
443.33	23.859
443.68	23.438
444.03	23.572
444.39	23.905
444.74	24.297
445.09	24.420
445.44	23.127
445.79	23.701
446.15	23.769
446.50	23.586
446.85	23.535
447.20	23.457
447.55	24.679
447.91	23.828
448.26	23.929
448.61	23.460
448.96	24.806
449.31	23.960
449.66	24.142
450.02	23.788
450.37	23.810
450.72	23.632
451.07	24.254
451.42	23.100
451.77	24.193
452.12	24.076
452.47	23.881
452.83	24.242
453.18	24.267
453.53	24.119
453.88	24.276
454.23	24.746
454.58	25.136
454.93	25.175
455.28	23.940
455.63	25.121
455.98	24.940
456.34	24.372
456.69	24.609
457.04	25.387
457.39	23.553
457.74	23.680
458.09	24.439
458.44	23.945
458.79	23.048
459.14	24.831
459.49	24.051
459.84	23.934
460.19	23.689
460.54	23.380
460.89	23.368
461.24	24.529
461.59	24.927
461.94	24.106
462.29	24.392
462.64	23.229
462.99	23.813
463.34	24.867
463.69	24.765
464.04	25.333
464.39	24.000
464.74	23.470
465.09	23.402
465.44	22.881
465.79	23.490
466.14	23.536
466.49	22.914
466.84	24.227
467.19	23.416
467.54	24.563
467.89	22.389
468.24	23.851
468.59	24.359
468.94	23.580
469.29	24.293
469.64	25.100
469.99	25.101
470.34	23.316
470.68	24.641
471.03	23.741
471.38	25.226
471.73	24.384
472.08	24.408
472.43	24.372
472.78	23.963
473.13	23.813
473.48	24.282
473.83	23.780
474.17	24.082
474.52	24.442
474.87	23.993
475.22	23.970
475.57	22.730
475.92	23.473
476.27	23.675
476.61	22.945
476.96	22.925
477.31	23.391
477.66	23.304
478.01	22.791
478.36	23.057
478.70	23.624
479.05	23.376
479.40	23.132
479.75	22.776
480.10	22.863
480.45	21.990
480.79	22.647
481.14	23.239
481.49	22.212
481.84	22.314
482.19	22.535
482.53	22.615
482.88	22.801
483.23	22.523
483.58	22.293
483.92	22.962
484.27	21.743
484.62	21.853
484.97	21.679
485.31	21.610
485.66	20.059
486.01	19.013
486.36	18.563
486.70	18.924
487.05	19.441
487.40	20.429
487.75	20.701
488.09	21.717
488.44	21.414
488.79	22.242
489.13	21.620
489.48	22.145
489.83	22.270
490.17	22.753
490.52	22.542
490.87	22.343
491.22	22.101
491.56	21.822
491.91	21.452
492.26	21.543
492.60	21.705
492.95	21.656
493.30	21.916
493.64	21.185
493.99	21.356
494.34	21.924
494.68	22.299
495.03	22.744
495.37	21.405
495.72	21.589
496.07	21.995
496.41	21.327
496.76	21.636
497.11	21.702
497.45	22.077
497.80	21.977
498.14	21.787
498.49	21.512
498.84	21.237
499.18	21.238
499.53	21.795
499.87	21.948
500.22	21.338
500.56	22.379
500.91	22.308
501.26	21.053
501.60	22.164
501.95	21.219
502.29	22.352
502.64	22.253
502.98	21.225
503.33	21.572
503.67	20.928
504.02	21.282
504.36	21.759
504.71	20.811
505.06	21.590
505.40	21.585
505.75	21.601
506.09	21.234
506.44	21.214
506.78	21.676
507.13	22.110
507.47	22.626
507.82	22.594
508.16	21.884
508.51	22.374
508.85	20.953
509.19	21.684
509.54	21.531
509.88	21.432
510.23	21.954
510.57	22.239
510.92	21.491
511.26	21.172
511.61	22.147
511.95	21.868
512.30	22.057
512.64	21.816
512.98	22.615
513.33	22.484
513.67	21.558
514.02	21.753
514.36	22.174
514.70	21.915
515.05	21.249
515.39	22.378
515.74	21.678
516.08	22.359
516.42	22.420
516.77	21.851
517.11	21.865
517.46	21.953
517.80	23.635
518.14	21.193
518.49	22.637
518.83	22.102
519.17	22.575
519.52	22.071
519.86	22.076
520.20	22.832
520.55	21.963
520.89	22.871
521.23	22.678
521.58	22.689
521.92	22.719
522.26	21.782
522.61	21.620
522.95	21.731
523.29	22.094
523.64	22.195
523.98	22.366
524.32	22.497
524.66	22.550
525.01	22.733
525.35	22.615
525.69	22.537
526.04	22.243
526.38	22.697
526.72	22.454
527.06	22.159
527.41	21.968
527.75	23.923
528.09	22.030
528.43	21.734
528.78	22.557
529.12	21.091
529.46	22.596
529.80	22.339
530.15	22.928
530.49	21.538
530.83	22.658
531.17	24.282
531.51	23.152
531.86	22.452
532.20	22.686
532.54	22.742
532.88	22.850
533.22	21.237
533.57	21.481
533.91	21.734
534.25	22.053
534.59	21.965
534.93	21.892
535.27	21.907
535.62	22.222
535.96	21.406
536.30	22.441
536.64	21.700
536.98	22.296
537.32	22.317
537.66	21.733
538.01	22.844
538.35	22.754
538.69	23.421
539.03	22.157
539.37	20.383
539.71	20.933
540.05	22.288
540.39	21.395
540.73	21.087
541.07	21.350
541.42	22.309
541.76	21.548
542.10	22.380
542.44	21.457
542.78	22.134
543.12	21.113
543.46	22.361
543.80	21.666
544.14	20.988
544.48	21.841
544.82	21.616
545.16	21.991
545.50	21.144
545.84	21.707
546.18	21.010
546.52	21.610
546.86	21.443
547.20	22.589
547.54	22.244
547.88	22.640
548.22	21.295
548.56	21.447
548.90	20.935
549.24	20.875
549.58	21.692
549.92	22.184
550.26	21.520
550.60	21.853
550.94	21.479
551.28	21.507
551.62	22.214
551.96	21.263
552.30	21.433
552.64	21.433
552.98	21.492
553.32	21.241
553.66	21.745
554.00	21.414
554.34	20.842
554.68	21.960
555.02	21.509
555.36	20.807
555.69	20.298
556.03	20.390
556.37	21.487
556.71	21.214
557.05	20.168
557.39	21.554
557.73	20.466
558.07	21.465
558.41	21.708
558.75	21.749
559.08	22.893
559.42	21.844
559.76	21.471
560.10	20.343
560.44	20.615
560.78	21.291
561.12	20.251
561.45	21.056
561.79	21.358
562.13	20.858
562.47	20.970
562.81	20.502
563.15	20.736
563.48	20.557
563.82	20.874
564.16	20.078
564.50	19.076
564.84	19.532
565.17	19.691
565.51	20.064
565.85	20.178
566.19	19.787
566.52	20.393
566.86	19.650
567.20	19.988
567.54	19.749
567.88	18.088
568.21	19.206
568.55	18.605
568.89	19.066
569.23	17.870
569.56	17.409
569.90	17.019
570.24	16.864
570.57	16.389
570.91	16.128
571.25	16.584
571.59	16.406
571.92	16.331
572.26	16.262
572.60	16.276
572.93	16.522
573.27	16.297
573.61	16.220
573.95	15.711
574.28	15.578
574.62	15.500
574.96	15.149
575.29	15.398
575.63	15.346
575.97	15.569
576.30	15.693
576.64	15.441
576.98	14.949
577.31	15.550
577.65	14.897
577.98	14.938
578.32	14.575
578.66	14.969
578.99	15.179
579.33	15.493
579.67	15.057
580.00	15.584
580.34	15.377
580.67	15.245
581.01	15.381
581.35	14.747
581.68	14.450
582.02	14.151
582.35	14.467
582.69	14.781
583.02	14.773
583.36	15.541
583.70	15.410
584.03	15.569
584.37	15.837
584.70	15.256
585.04	14.946
585.37	15.098
585.71	15.320
586.04	15.124
586.38	14.995
586.72	15.327
587.05	15.240
587.39	15.092
587.72	15.073
588.06	15.475
588.39	15.583
588.73	15.664
589.06	15.862
589.40	15.758
589.73	15.628
590.07	16.192
590.40	16.441
590.73	16.667
591.07	17.135
591.40	16.702
591.74	16.883
592.07	16.405
592.41	15.585
592.74	15.730
593.08	15.256
593.41	15.280
593.75	15.053
594.08	15.655
594.41	15.730
594.75	15.416
595.08	15.497
595.42	15.972
595.75	15.919
596.09	16.110
596.42	16.699
596.75	16.505
597.09	17.056
597.42	15.599
597.75	16.473
598.09	16.652
598.42	16.624
598.76	15.282
599.09	15.241
599.42	15.284
599.76	15.630
600.09	14.681
600.42	14.865
600.76	14.714
601.09	15.337
601.42	15.297
601.76	15.560
602.09	15.059
602.42	15.326
602.76	16.082
603.09	15.657
603.42	15.619
603.76	15.434
604.09	15.510
604.42	15.532
604.76	15.943
605.09	15.727
605.42	16.289
605.75	15.728
606.09	15.494
606.42	15.488
606.75	15.720
607.09	15.823
607.42	15.233
607.75	15.021
608.08	15.328
608.42	15.374
608.75	16.141
609.08	15.356
609.41	15.850
609.75	16.293
610.08	16.305
610.41	16.248
610.74	15.279
611.07	15.958
611.41	15.898
611.74	16.340
612.07	17.081
612.40	16.632
612.73	15.632
613.07	17.241
613.40	16.482
613.73	15.732
614.06	16.075
614.39	16.780
614.72	16.947
615.06	16.544
615.39	16.030
615.72	15.389
616.05	16.162
616.38	16.176
616.71	16.924
617.05	17.256
617.38	17.078
617.71	16.637
618.04	17.007
618.37	16.736
618.70	16.304
619.03	17.895
619.36	17.515
619.69	17.042
620.03	17.720
620.36	17.781
620.69	17.329
621.02	17.773
621.35	17.854
621.68	17.913
622.01	18.189
622.34	18.381
622.67	18.251
623.00	17.608
623.33	17.727
623.66	17.513
623.99	17.526
624.32	17.190
624.65	17.161
624.99	16.643
625.32	17.813
625.65	17.731
625.98	17.986
626.31	18.196
626.64	18.367
626.97	19.202
627.30	18.703
627.63	17.966
627.96	18.251
628.29	19.948
628.62	19.762
628.95	20.472
629.28	18.978
629.61	19.432
629.94	18.571
630.26	19.161
630.59	19.447
630.92	18.103
631.25	18.756
631.58	19.419
631.91	19.574
632.24	20.148
632.57	20.567
632.90	21.053
633.23	20.917
633.56	21.017
633.89	20.498
634.22	20.885
634.55	21.302
634.88	21.557
635.20	21.864
635.53	20.482
635.86	21.040
636.19	19.765
636.52	20.185
636.85	19.588
637.18	19.585
637.51	21.513
637.83	19.236
638.16	19.565
638.49	21.537
638.82	19.848
639.15	22.250
639.48	21.072
639.81	22.520
640.13	21.224
640.46	21.208
640.79	22.061
641.12	20.495
641.45	22.207
641.77	22.975
642.10	21.491
642.43	20.420
642.76	21.362
643.09	23.773
643.41	23.065
643.74	24.074
644.07	22.866
644.40	23.620
644.73	24.724
645.05	25.832
645.38	22.117
645.71	23.349
646.04	24.086
646.36	24.541
646.69	23.579
647.02	23.129
647.35	23.368
647.67	23.540
648.00	24.553
648.33	22.277
648.66	23.939
648.98	22.789
649.31	21.674
649.64	22.272
649.96	21.461
650.29	22.117
650.62	22.816
650.94	25.284
651.27	24.493
651.60	22.629
651.92	22.684
652.25	22.150
652.58	23.988
652.90	23.697
653.23	20.955
653.56	22.362
653.88	22.979
654.21	21.801
654.54	22.607
654.86	21.651
655.19	21.081
655.52	12.313
655.84	8.756
656.17	10.801
656.49	15.019
656.82	15.872
657.15	12.712
657.47	9.835
657.80	7.609
658.13	8.321
658.45	12.481
658.78	13.244
659.10	14.271
659.43	15.214
659.75	16.302
660.08	17.975
660.41	19.832
660.73	21.601
661.06	22.611
661.38	26.727
661.71	25.385
662.03	26.627
662.36	22.465
662.68	26.104
663.01	25.051
663.33	22.718
663.66	24.370
663.98	25.702
664.31	26.471
664.63	23.684
664.96	23.541
665.28	23.975
665.61	24.561
665.93	23.541
666.26	24.949
666.58	26.151
666.91	27.061
667.23	26.742
667.56	24.406
667.88	27.350
668.21	26.226
668.53	25.163
668.86	24.675
669.18	27.292
669.50	26.522
669.83	27.233
670.15	25.778
670.48	25.054
670.80	25.431
671.13	26.539
671.45	23.191
671.77	25.051
672.10	23.475
672.42	23.145
672.75	23.549
673.07	23.239
673.39	20.434
673.72	23.047
674.04	26.078
674.37	22.913
674.69	22.086
675.01	24.477
675.34	28.337
675.66	25.895
675.98	27.495
676.31	24.160
676.63	24.628
676.95	23.270
677.28	23.131
677.60	24.615
677.92	25.316
678.25	24.025
678.57	25.896
678.89	22.846
679.22	22.593
679.54	22.328
679.86	23.670
680.18	23.077
680.51	22.518
680.83	22.242
681.15	24.717
681.48	24.197
681.80	22.244
682.12	21.648
682.44	20.890
682.77	24.033
683.09	26.395
683.41	25.721
683.73	25.828
684.06	25.207
684.38	24.658
684.70	24.806
685.02	24.578
685.34	21.978
685.67	21.503
685.99	21.993
686.31	21.502
686.63	20.671
686.96	23.571
687.28	22.744
687.60	20.652
687.92	22.669
688.24	22.624
688.56	25.502
688.89	23.029
689.21	28.166
689.53	23.382
689.85	26.608
690.17	22.153
690.49	26.539
690.82	26.869
691.14	22.321
691.46	22.996
691.78	21.687
692.10	23.140
692.42	24.551
692.74	23.859
693.06	21.702
693.39	24.641
693.71	24.017
694.03	24.632
694.35	22.944
694.67	25.858
694.99	25.854
695.31	25.735
695.63	24.880
695.95	26.650
696.27	21.574
696.59	22.798
696.91	28.238
697.23	20.657
697.56	24.307
697.88	21.881
698.20	23.958
698.52	24.516
698.84	22.494
699.16	24.654
699.48	24.466
699.80	25.845
700.12	28.571
700.44	24.668
700.76	27.624
701.08	26.724
701.40	25.698
701.72	30.029
702.04	30.682
702.36	25.496
702.68	28.895
703.00	27.147
703.32	27.128
703.64	27.078
703.96	28.412
704.28	28.488
704.60	27.273
704.91	26.113
705.23	29.326
705.55	29.236
705.87	30.897
706.19	33.216
706.51	30.841
706.83	30.909
707.15	29.412
707.47	21.717
707.79	25.799
708.11	21.918
708.43	24.762
708.74	22.194
709.06	28.831
709.38	24.147
709.70	29.070
710.02	28.783
710.34	30.606
710.66	29.552
710.98	27.273
711.29	26.453
711.61	31.858
711.93	26.923
712.25	32.476
712.57	27.574
712.89	29.066
713.20	31.003
713.52	27.303
713.84	29.430
714.16	28.354
714.48	26.149
714.80	31.307
715.11	28.818
715.43	25.816
715.75	29.565
716.07	26.837
716.39	24.765
716.70	29.900
717.02	35.612
717.34	30.035
717.66	32.090
717.97	32.669
718.29	30.370
718.61	32.482
718.93	31.618
719.24	30.450
719.56	28.136
719.88	32.203
720.20	33.784
720.51	34.146
720.83	31.599
721.15	30.597
721.46	30.851
721.78	35.484
722.10	30.943
722.42	33.459
722.73	29.213
723.05	35.246
723.37	33.603
723.68	30.888
724.00	32.927
724.32	28.629
724.63	30.081
724.95	31.799
725.27	32.389
725.58	32.813
725.90	33.577
726.22	30.566
726.53	29.861
726.85	26.962
727.16	32.740
727.48	30.851
727.80	28.409
728.11	30.435
728.43	29.615
728.74	29.391
729.06	35.766
729.38	32.353
729.69	32.028
730.01	28.328
730.32	30.556
730.64	29.766
730.96	27.393
731.27	29.801
731.59	27.523
731.90	25.656
732.22	22.981
732.53	27.554
732.85	28.846
733.16	26.688
733.48	26.246
733.80	25.325
734.11	29.618
734.43	26.627
734.74	23.714
735.06	24.642
735.37	27.457
735.69	24.841
736.00	29.739
736.32	28.972
736.63	27.157
736.95	29.073
737.26	24.150
737.58	27.742
737.89	26.421
738.21	32.082
738.52	30.000
738.83	29.811
739.15	30.000
739.46	29.927
739.78	30.208
740.09	30.154
740.41	27.419
740.72	28.571
741.04	32.222
741.35	31.667
741.66	38.222
741.98	29.245
742.29	40.670
742.61	34.914
742.92	30.317
743.23	32.479
743.55	31.600
743.86	26.316
744.18	41.150
744.49	36.364
744.80	37.559
745.12	35.455
745.43	38.326
745.74	38.288
746.06	35.321
746.37	32.287
746.68	32.579
747.00	33.796
747.31	31.905
747.62	30.088
747.94	29.515
748.25	27.660
748.56	38.326
748.88	36.634
749.19	44.000
749.50	36.279
749.82	30.894
750.13	32.653
750.44	29.927
750.75	30.877
751.07	28.617
751.38	30.662
751.69	25.993
752.01	28.947
752.32	27.798
752.63	29.433
752.94	32.377
753.26	32.800
753.57	29.675
753.88	31.250
754.19	27.143
754.51	30.208
754.82	26.354
755.13	29.811
755.44	28.947
755.75	30.657
756.07	29.078
756.38	28.467
756.69	27.517
757.00	25.449
757.31	22.849
757.63	24.269
757.94	24.665
758.25	22.059
758.56	21.975
758.87	23.656
759.18	26.667
759.50	26.646
759.81	25.857
760.12	23.750
760.43	23.782
760.74	26.087
761.05	25.424
761.36	21.658
761.67	24.716
761.99	24.845
762.30	28.819
762.61	29.008
762.92	28.516
763.23	30.252
763.54	35.200
763.85	26.562
764.16	34.231
764.47	28.897
764.78	27.562
765.10	23.418
765.41	24.189
765.72	26.647
766.03	23.197
766.34	25.667
766.65	28.936
766.96	34.188
767.27	31.980
767.58	34.375
767.89	42.632
768.20	45.977
768.51	36.548
768.82	34.404
769.13	34.959
769.44	32.389
769.75	33.047
770.06	27.982
770.37	33.937
770.68	36.111
770.99	33.333
771.30	27.869
771.61	32.287
771.92	26.639
772.23	34.874
772.54	35.897
772.85	39.267
773.16	38.298
773.47	46.739
773.78	47.716
774.09	44.048
774.39	36.842
774.70	43.827
775.01	51.449
775.32	49.020
775.63	48.026
775.94	37.410
776.25	55.118
776.56	49.254
776.87	54.918
777.18	57.031
777.48	48.092
777.79	50.000
778.10	50.370
778.41	56.250
778.72	35.766
779.03	45.638
779.34	48.993
779.65	36.486
779.95	40.491
780.26	50.327
780.57	52.414
780.88	59.375
781.19	45.113
781.50	45.946
781.80	42.138
782.11	41.243
782.42	41.772
782.73	38.037
783.04	45.270
783.34	54.225
783.65	54.795
783.96	47.761
784.27	49.650
784.57	43.885
784.88	47.222
785.19	69.841
785.50	69.811
785.81	60.448
786.11	61.475
786.42	55.039
786.73	49.558
787.04	52.830
787.34	58.036
787.65	63.000
787.96	60.360
788.26	53.719
788.57	57.627
788.88	59.504
789.19	49.306
789.49	60.606
789.80	53.435
790.11	70.476
790.41	60.396
790.72	66.265
791.03	58.696
791.33	69.767
791.64	57.732
791.95	60.396
792.25	72.222
792.56	61.039
792.87	87.179
793.17	88.608
793.48	78.161
793.79	70.115
794.09	76.136
794.40	56.303
794.70	63.235
795.01	45.185
795.32	46.763
795.62	51.181
795.93	54.310
796.23	61.947
796.54	76.471
796.85	71.622
797.15	81.690
797.46	75.758
797.76	75.904
798.07	75.949
798.37	78.462
798.68	87.879
798.99	73.239
799.29	77.922
799.60	63.636
799.90	87.671
800.21	83.582
800.51	77.586
800.82	100.000
801.12	85.246
801.43	83.333
801.73	75.676
802.04	100.000
802.34	71.605
802.65	87.500
802.95	103.390
803.26	107.813
803.56	65.714
803.87	90.769
804.17	97.059
804.48	124.074
804.78	94.828
805.09	94.118
805.39	103.846
805.70	105.357
806.00	90.164
806.30	80.303
806.61	75.610
806.91	70.886
807.22	60.526
807.52	80.597
807.83	98.592
808.13	90.625
808.43	96.667
808.74	71.053
809.04	94.203
809.35	100.000
809.65	72.368
809.95	90.323
810.26	98.305
810.56	87.302
810.86	127.273
811.17	142.857
811.47	105.000
811.77	107.407
812.08	101.818
812.38	112.000
812.69	138.889
812.99	152.273
813.29	120.408
813.59	95.238
813.90	140.816
814.20	127.273
814.50	87.692
814.81	104.412
815.11	124.490
815.41	88.525
815.72	128.571
816.02	114.545
816.32	140.476
816.62	130.000
816.93	139.024
817.23	161.905
817.53	145.455
817.84	175.758
818.14	132.609
818.44	115.556
818.74	185.294
819.04	142.500
819.35	145.714
819.65	152.941
819.95	175.000
820.25	225.000
820.56	171.795
820.86	143.182
821.16	148.837
821.46	148.718
821.76	130.000
822.07	154.286
822.37	165.000
822.67	154.545
822.97	123.529
823.27	225.000
823.57	167.568
823.88	172.500
824.18	196.667
824.48	161.905
824.78	204.000
825.08	212.500
825.38	137.838
825.69	156.098
825.99	220.833
826.29	158.621
826.59	171.053
826.89	144.737
827.19	173.529
827.49	180.645
827.79	156.818
828.09	134.091
828.39	123.404
828.70	124.490
829.00	174.074
829.30	164.516
829.60	127.500
829.90	373.333
830.20	185.714
830.50	208.696
830.80	213.043
831.10	186.667
831.40	190.000
831.70	221.739
832.00	219.231
832.30	214.815
832.60	256.250
832.90	206.667
833.20	407.143
833.50	209.677
833.80	186.207
834.10	212.500
834.40	211.538
834.70	311.111
835.00	285.714
835.30	191.429
835.60	346.154
835.90	206.897
836.20	400.000
836.50	220.690
836.80	204.000
837.10	180.556
837.40	314.286
837.70	276.471
838.00	218.519
838.30	228.571
838.60	300.000
838.90	211.538
839.19	285.000
839.49	400.000
839.79	305.000
840.09	260.000
840.39	261.905
840.69	213.043
840.99	311.111
841.29	410.000
841.59	316.667
841.88	362.500
842.18	168.966
842.48	333.333
842.78	226.667
843.08	256.522
843.38	196.875
843.68	783.333
843.97	234.615
844.27	217.241
844.57	319.048
844.87	325.000
845.17	192.593
845.47	1733.333
845.76	422.222
846.06	294.118
846.36	537.500
846.66	428.571
846.96	375.000
847.25	472.727
847.55	427.273
847.85	295.652
848.15	440.000
848.44	392.857
848.74	255.556
849.04	335.294
849.34	530.000
849.63	278.947
849.93	563.636
850.23	1020.000
850.53	428.571
850.82	2400.000
851.12	-4600.000
851.42	4200.000
851.71	275.000
852.01	-966.667
852.31	262.500
852.61	1866.667
852.90	257.143
853.20	220.000
853.50	370.588
853.79	261.905
854.09	233.333
854.39	362.500
854.68	172.973
854.98	174.194
855.28	176.667
855.57	206.897
855.87	240.741
856.17	247.368
856.46	286.667
856.76	311.765
857.05	193.103
857.35	233.333
857.65	373.333
857.94	295.652
858.24	238.462
858.53	340.000
858.83	300.000
859.13	353.333
859.42	0.000
859.72	633.333
860.01	418.182
860.31	286.364
860.60	310.526
860.90	247.826
861.20	655.556
861.49	541.667
861.79	-4700.000
862.08	687.500
862.38	309.524
862.67	353.846
862.97	358.824
863.26	611.111
863.56	322.222
863.85	375.000
864.15	537.500
864.44	400.000
864.74	783.333
865.03	687.500
865.33	278.947
865.62	463.636
865.92	438.462
866.21	408.333
866.51	0.000
866.80	463.636
867.10	1020.000
867.39	438.462
867.69	418.182
867.98	252.632
868.27	518.182
868.57	331.579
868.86	-4700.000
869.16	312.500
869.45	2500.000
869.75	-4400.000
870.04	458.333
870.33	700.000
870.63	1225.000
870.92	3050.000
871.22	828.571
871.51	341.176
871.80	223.810
872.10	364.286
>>>>>End Processed Spectral Data<<<<<
