SpectraSuite Data File
++++++++++++++++++++++++++++++++++++
Date: Wed May 13 19:46:41 PDT 2015
User: schluterlab
Dark Spectrum Present: Yes
Reference Spectrum Present: Yes
Number of Sampled Component Spectra: 1
Spectrometers: USB2E3373
Integration Time (usec): 3000 (USB2E3373)
Spectra Averaged: 3 (USB2E3373)
Boxcar Smoothing: 0 (USB2E3373)
Correct for Electrical Dark: No (USB2E3373)
Strobe/Lamp Enabled: No (USB2E3373)
Correct for Detector Non-linearity: No (USB2E3373)
Correct for Stray Light: No (USB2E3373)
Number of Pixels in Processed Spectrum: 2048
>>>>>Begin Processed Spectral Data<<<<<
178.53	0.000
178.91	-1100.000
179.29	-1150.000
179.67	-233.333
180.04	-1325.000
180.42	2900.000
180.80	1040.000
181.18	-1000.000
181.56	628.571
181.94	0.000
182.31	-728.571
182.69	2166.667
183.07	-487.500
183.45	-566.667
183.83	563.636
184.20	-280.000
184.58	2500.000
184.96	5600.000
185.34	-920.000
185.72	-712.500
186.09	-2650.000
186.47	2900.000
186.85	2600.000
187.23	5500.000
187.61	-1600.000
187.98	1375.000
188.36	545.455
188.74	400.000
189.12	-940.000
189.49	630.000
189.87	-5200.000
190.25	-1150.000
190.63	442.857
191.00	500.000
191.38	983.333
191.76	-1075.000
192.14	1450.000
192.51	662.500
192.89	933.333
193.27	662.500
193.65	-1125.000
194.02	550.000
194.40	980.000
194.78	650.000
195.15	458.333
195.53	690.000
195.91	-2000.000
196.29	306.250
196.66	300.000
197.04	-350.000
197.42	0.000
197.79	650.000
198.17	-4400.000
198.55	542.857
198.92	675.000
199.30	900.000
199.68	0.000
200.05	311.111
200.43	942.857
200.81	4900.000
201.18	1333.333
201.56	-1600.000
201.94	500.000
202.31	700.000
202.69	391.667
203.07	540.000
203.44	0.000
203.82	1175.000
204.19	714.286
204.57	457.143
204.95	675.000
205.32	1633.333
205.70	581.818
206.08	442.857
206.45	2700.000
206.83	287.500
207.20	800.000
207.58	700.000
207.96	350.000
208.33	775.000
208.71	-866.667
209.08	771.429
209.46	633.333
209.84	518.182
210.21	-1666.667
210.59	1225.000
210.96	-525.000
211.34	2500.000
211.71	590.000
212.09	666.667
212.46	0.000
212.84	1900.000
213.22	1175.000
213.59	-4400.000
213.97	1050.000
214.34	671.429
214.72	581.818
215.09	1180.000
215.47	-2150.000
215.84	-2200.000
216.22	1766.667
216.59	400.000
216.97	1425.000
217.34	527.273
217.72	-816.667
218.09	0.000
218.47	-5300.000
218.84	711.111
219.22	857.143
219.59	1933.333
219.97	-628.571
220.34	920.000
220.72	-1333.333
221.09	464.286
221.47	1475.000
221.84	-883.333
222.22	0.000
222.59	1350.000
222.97	-2350.000
223.34	1100.000
223.72	392.308
224.09	1120.000
224.46	2150.000
224.84	-5500.000
225.21	-940.000
225.59	-4900.000
225.96	610.000
226.34	325.000
226.71	2800.000
227.08	537.500
227.46	510.000
227.83	-1125.000
228.21	-2650.000
228.58	644.444
228.95	-2050.000
229.33	-2550.000
229.70	1600.000
230.08	785.714
230.45	-760.000
230.82	400.000
231.20	966.667
231.57	671.429
231.95	475.000
232.32	222.727
232.69	481.818
233.07	742.857
233.44	353.846
233.81	-1633.333
234.19	273.684
234.56	408.333
234.93	441.667
235.31	445.455
235.68	269.231
236.05	371.429
236.43	181.818
236.80	315.789
237.17	4500.000
237.55	242.857
237.92	171.429
238.29	323.810
238.67	203.226
239.04	234.483
239.41	172.222
239.79	132.609
240.16	150.000
240.53	165.909
240.91	107.843
241.28	122.000
241.65	122.000
242.02	105.797
242.40	90.323
242.77	118.333
243.14	88.172
243.51	89.888
243.89	90.588
244.26	80.000
244.63	84.946
245.00	72.340
245.38	84.158
245.75	71.028
246.12	70.642
246.49	80.292
246.87	72.000
247.24	71.538
247.61	59.286
247.98	62.092
248.36	52.027
248.73	60.510
249.10	64.331
249.47	57.627
249.84	63.102
250.22	59.893
250.59	60.355
250.96	56.061
251.33	52.607
251.70	59.406
252.08	59.524
252.45	52.018
252.82	50.435
253.19	49.787
253.56	50.196
253.94	51.037
254.31	48.438
254.68	51.923
255.05	50.185
255.42	53.252
255.79	48.162
256.16	48.736
256.54	43.816
256.91	47.687
257.28	49.281
257.65	45.545
258.02	44.099
258.39	43.849
258.76	45.151
259.14	44.643
259.51	43.161
259.88	43.478
260.25	47.130
260.62	39.884
260.99	43.168
261.36	46.847
261.73	44.699
262.10	42.151
262.47	44.789
262.85	41.504
263.22	41.595
263.59	45.584
263.96	38.187
264.33	42.559
264.70	42.105
265.07	43.478
265.44	42.929
265.81	41.849
266.18	43.467
266.55	40.976
266.92	42.260
267.29	42.130
267.66	42.202
268.03	41.136
268.40	42.523
268.77	39.618
269.14	41.667
269.51	39.278
269.88	41.259
270.25	40.632
270.62	38.876
270.99	40.860
271.36	37.554
271.73	40.654
272.10	39.348
272.47	40.860
272.84	41.342
273.21	37.945
273.58	39.738
273.95	36.268
274.32	36.157
274.69	41.542
275.06	35.827
275.43	39.362
275.80	36.874
276.17	37.882
276.54	39.501
276.91	37.747
277.28	37.500
277.65	39.458
278.02	38.923
278.39	36.328
278.76	36.909
279.13	35.660
279.50	37.616
279.87	38.247
280.23	35.928
280.60	36.364
280.97	36.599
281.34	37.876
281.71	36.182
282.08	38.388
282.45	35.636
282.82	35.702
283.19	34.403
283.56	34.386
283.92	38.748
284.29	34.921
284.66	37.205
285.03	35.443
285.40	34.683
285.77	36.364
286.14	35.233
286.51	35.000
286.87	36.068
287.24	34.853
287.61	34.831
287.98	35.877
288.35	31.379
288.72	32.087
289.08	33.020
289.45	31.631
289.82	32.358
290.19	31.240
290.56	35.222
290.93	29.607
291.29	30.982
291.66	31.121
292.03	32.413
292.40	32.159
292.77	31.065
293.13	29.552
293.50	30.175
293.87	31.111
294.24	29.630
294.60	29.694
294.97	30.378
295.34	31.735
295.71	30.824
296.08	29.915
296.44	28.748
296.81	26.816
297.18	29.675
297.55	26.517
297.91	27.968
298.28	28.112
298.65	27.937
299.02	27.141
299.38	26.959
299.75	26.280
300.12	26.820
300.48	26.000
300.85	27.497
301.22	26.497
301.59	25.126
301.95	26.574
302.32	27.343
302.69	25.687
303.05	26.061
303.42	24.815
303.79	26.501
304.15	25.408
304.52	25.840
304.89	25.552
305.25	25.406
305.62	25.481
305.99	24.793
306.35	24.944
306.72	25.448
307.09	25.194
307.45	25.788
307.82	24.442
308.19	25.386
308.55	25.566
308.92	24.812
309.29	22.809
309.65	23.330
310.02	24.101
310.38	23.763
310.75	23.759
311.12	23.849
311.48	24.451
311.85	23.585
312.22	23.517
312.58	23.805
312.95	24.287
313.31	23.786
313.68	23.909
314.05	25.049
314.41	23.417
314.78	25.076
315.14	24.230
315.51	24.717
315.87	22.970
316.24	23.734
316.61	22.710
316.97	22.896
317.34	23.875
317.70	24.283
318.07	24.639
318.43	24.364
318.80	24.930
319.16	24.011
319.53	23.358
319.89	24.667
320.26	24.800
320.62	25.099
320.99	24.949
321.35	24.848
321.72	25.462
322.08	25.469
322.45	25.373
322.81	25.388
323.18	24.277
323.54	24.397
323.91	25.566
324.27	24.857
324.64	25.349
325.00	24.256
325.37	25.296
325.73	27.379
326.10	26.214
326.46	25.448
326.83	26.143
327.19	25.790
327.56	25.348
327.92	25.809
328.29	26.087
328.65	25.967
329.01	25.361
329.38	24.792
329.74	25.115
330.11	25.919
330.47	26.263
330.84	25.368
331.20	25.410
331.56	25.413
331.93	24.815
332.29	25.377
332.66	26.018
333.02	25.046
333.38	25.474
333.75	26.381
334.11	25.623
334.48	26.087
334.84	25.460
335.20	25.909
335.57	26.292
335.93	25.536
336.29	25.458
336.66	25.428
337.02	24.344
337.38	25.185
337.75	25.134
338.11	25.336
338.47	24.586
338.84	25.115
339.20	23.578
339.56	25.365
339.93	26.091
340.29	24.638
340.65	25.579
341.02	25.829
341.38	24.644
341.74	24.649
342.11	24.716
342.47	25.286
342.83	24.658
343.20	25.628
343.56	25.190
343.92	25.000
344.28	25.085
344.65	25.881
345.01	25.253
345.37	23.756
345.73	24.873
346.10	23.700
346.46	24.915
346.82	25.618
347.19	23.810
347.55	23.727
347.91	24.676
348.27	26.294
348.63	24.415
349.00	23.867
349.36	24.384
349.72	23.657
350.08	24.149
350.45	24.736
350.81	24.695
351.17	24.473
351.53	23.751
351.89	24.752
352.26	24.309
352.62	24.058
352.98	23.825
353.34	24.486
353.70	24.141
354.07	24.839
354.43	23.492
354.79	23.009
355.15	23.304
355.51	25.020
355.87	23.918
356.24	23.208
356.60	23.577
356.96	24.135
357.32	23.794
357.68	23.701
358.04	24.228
358.40	25.416
358.77	24.022
359.13	23.915
359.49	23.922
359.85	22.937
360.21	24.163
360.57	23.502
360.93	22.846
361.29	24.112
361.66	23.452
362.02	23.955
362.38	22.814
362.74	24.256
363.10	23.242
363.46	23.258
363.82	23.658
364.18	24.082
364.54	24.889
364.90	24.504
365.26	23.824
365.62	24.470
365.98	23.229
366.35	21.848
366.71	23.933
367.07	22.942
367.43	24.165
367.79	23.911
368.15	23.922
368.51	23.328
368.87	23.412
369.23	23.482
369.59	24.185
369.95	23.088
370.31	24.145
370.67	24.058
371.03	24.569
371.39	24.052
371.75	23.382
372.11	23.826
372.47	23.754
372.83	24.856
373.19	23.699
373.55	25.277
373.91	25.184
374.27	23.368
374.63	22.982
374.99	24.082
375.35	23.657
375.71	23.783
376.07	24.143
376.42	22.765
376.78	24.254
377.14	24.423
377.50	25.232
377.86	23.271
378.22	24.589
378.58	23.810
378.94	23.570
379.30	24.046
379.66	23.921
380.02	24.447
380.38	23.922
380.74	25.150
381.09	23.533
381.45	24.032
381.81	23.219
382.17	24.204
382.53	24.465
382.89	25.123
383.25	24.078
383.61	24.597
383.97	24.578
384.32	24.953
384.68	24.473
385.04	25.138
385.40	23.901
385.76	25.123
386.12	24.741
386.48	25.614
386.83	24.824
387.19	25.974
387.55	25.170
387.91	25.151
388.27	25.138
388.62	24.892
388.98	24.877
389.34	25.594
389.70	24.954
390.06	25.982
390.42	24.903
390.77	25.445
391.13	25.463
391.49	25.888
391.85	25.398
392.20	25.489
392.56	25.884
392.92	25.662
393.28	26.095
393.64	24.940
393.99	25.840
394.35	25.931
394.71	26.286
395.07	25.794
395.42	26.576
395.78	25.891
396.14	26.071
396.50	26.441
396.85	26.065
397.21	25.277
397.57	25.418
397.92	26.262
398.28	25.168
398.64	26.045
399.00	25.965
399.35	25.606
399.71	25.694
400.07	26.552
400.42	26.933
400.78	26.598
401.14	25.793
401.49	27.164
401.85	26.255
402.21	26.228
402.57	26.774
402.92	27.554
403.28	27.046
403.63	26.176
403.99	27.070
404.35	26.727
404.70	26.499
405.06	27.140
405.42	26.762
405.77	27.314
406.13	26.524
406.49	27.321
406.84	27.466
407.20	26.537
407.55	27.951
407.91	28.067
408.27	26.930
408.62	27.514
408.98	27.390
409.34	28.229
409.69	28.258
410.05	27.757
410.40	28.012
410.76	27.718
411.11	28.528
411.47	28.690
411.83	28.650
412.18	28.571
412.54	28.518
412.89	28.253
413.25	28.571
413.60	28.474
413.96	27.869
414.31	28.919
414.67	28.517
415.03	29.073
415.38	29.768
415.74	29.260
416.09	30.438
416.45	28.849
416.80	28.949
417.16	30.563
417.51	30.591
417.87	28.966
418.22	29.590
418.58	29.761
418.93	29.423
419.29	29.854
419.64	29.912
420.00	29.939
420.35	29.043
420.71	30.484
421.06	28.520
421.42	29.942
421.77	30.157
422.12	29.759
422.48	29.574
422.83	31.159
423.19	30.442
423.54	30.238
423.90	30.841
424.25	30.709
424.61	30.357
424.96	31.137
425.31	30.288
425.67	29.944
426.02	30.629
426.38	32.601
426.73	30.720
427.09	31.429
427.44	31.282
427.79	31.110
428.15	32.202
428.50	31.363
428.85	32.658
429.21	31.033
429.56	30.845
429.92	30.800
430.27	31.678
430.62	31.951
430.98	31.655
431.33	31.237
431.68	31.780
432.04	31.896
432.39	32.210
432.74	32.914
433.10	32.032
433.45	32.653
433.80	32.151
434.16	32.959
434.51	32.474
434.86	32.269
435.22	33.018
435.57	33.495
435.92	32.651
436.28	33.630
436.63	32.450
436.98	32.856
437.34	34.168
437.69	33.956
438.04	33.895
438.39	33.910
438.75	33.818
439.10	33.911
439.45	33.530
439.81	34.018
440.16	33.145
440.51	33.450
440.86	33.990
441.22	33.204
441.57	33.439
441.92	34.442
442.27	34.769
442.63	33.386
442.98	34.535
443.33	34.402
443.68	33.041
444.03	34.212
444.39	32.084
444.74	33.766
445.09	34.124
445.44	32.969
445.79	32.509
446.15	34.198
446.50	34.303
446.85	33.350
447.20	34.319
447.55	33.892
447.91	33.370
448.26	34.725
448.61	33.974
448.96	34.773
449.31	34.983
449.66	34.496
450.02	33.426
450.37	33.220
450.72	33.503
451.07	33.882
451.42	33.131
451.77	34.821
452.12	34.180
452.47	33.831
452.83	34.324
453.18	34.413
453.53	35.560
453.88	34.495
454.23	33.413
454.58	34.525
454.93	35.283
455.28	34.663
455.63	35.437
455.98	35.655
456.34	35.050
456.69	35.379
457.04	35.170
457.39	34.717
457.74	34.185
458.09	34.100
458.44	34.778
458.79	33.460
459.14	34.199
459.49	33.333
459.84	33.573
460.19	33.824
460.54	34.028
460.89	34.229
461.24	35.033
461.59	35.096
461.94	34.464
462.29	34.955
462.64	35.546
462.99	34.027
463.34	34.667
463.69	33.771
464.04	33.971
464.39	33.913
464.74	33.690
465.09	34.680
465.44	34.294
465.79	33.221
466.14	34.154
466.49	32.759
466.84	34.034
467.19	33.917
467.54	35.062
467.89	33.253
468.24	33.682
468.59	34.371
468.94	32.926
469.29	35.026
469.64	35.877
469.99	34.777
470.34	34.412
470.68	35.560
471.03	34.082
471.38	35.233
471.73	34.910
472.08	34.671
472.43	34.234
472.78	35.155
473.13	34.660
473.48	35.144
473.83	35.244
474.17	33.976
474.52	34.801
474.87	35.201
475.22	34.010
475.57	33.907
475.92	33.351
476.27	34.160
476.61	34.418
476.96	34.305
477.31	33.752
477.66	33.643
478.01	33.142
478.36	33.580
478.70	33.178
479.05	33.387
479.40	33.930
479.75	33.198
480.10	32.803
480.45	33.079
480.79	32.059
481.14	33.464
481.49	33.935
481.84	32.739
482.19	32.667
482.53	33.257
482.88	33.178
483.23	33.645
483.58	33.121
483.92	32.896
484.27	31.852
484.62	33.233
484.97	31.967
485.31	32.295
485.66	31.072
486.01	29.772
486.36	28.521
486.70	28.898
487.05	29.702
487.40	30.465
487.75	30.586
488.09	30.452
488.44	31.321
488.79	31.501
489.13	32.391
489.48	32.341
489.83	32.499
490.17	33.100
490.52	32.817
490.87	32.791
491.22	33.151
491.56	32.027
491.91	32.713
492.26	31.465
492.60	31.982
492.95	32.133
493.30	32.009
493.64	33.131
493.99	32.080
494.34	32.609
494.68	33.242
495.03	32.707
495.37	32.108
495.72	32.651
496.07	32.854
496.41	31.239
496.76	32.454
497.11	31.787
497.45	32.417
497.80	32.342
498.14	32.174
498.49	32.683
498.84	32.311
499.18	32.476
499.53	32.051
499.87	31.827
500.22	32.171
500.56	33.204
500.91	32.885
501.26	31.911
501.60	32.701
501.95	31.347
502.29	31.865
502.64	32.449
502.98	32.305
503.33	31.444
503.67	30.951
504.02	31.759
504.36	32.054
504.71	32.584
505.06	32.241
505.40	32.086
505.75	30.906
506.09	31.487
506.44	32.610
506.78	32.635
507.13	32.862
507.47	32.475
507.82	32.776
508.16	32.371
508.51	32.319
508.85	30.983
509.19	32.449
509.54	31.888
509.88	33.024
510.23	32.082
510.57	33.024
510.92	32.677
511.26	31.655
511.61	31.224
511.95	32.568
512.30	32.503
512.64	31.757
512.98	33.226
513.33	32.655
513.67	31.910
514.02	32.143
514.36	32.933
514.70	33.094
515.05	32.515
515.39	32.754
515.74	31.982
516.08	33.147
516.42	32.464
516.77	33.333
517.11	31.798
517.46	32.957
517.80	32.404
518.14	31.905
518.49	33.489
518.83	32.784
519.17	32.390
519.52	32.484
519.86	32.687
520.20	33.064
520.55	33.872
520.89	33.090
521.23	33.836
521.58	32.593
521.92	33.558
522.26	32.337
522.61	33.583
522.95	32.290
523.29	33.171
523.64	32.927
523.98	33.148
524.32	32.992
524.66	33.073
525.01	33.027
525.35	33.086
525.69	31.897
526.04	33.645
526.38	33.557
526.72	32.515
527.06	33.271
527.41	32.550
527.75	33.569
528.09	32.498
528.43	33.333
528.78	33.067
529.12	32.606
529.46	32.701
529.80	33.230
530.15	32.586
530.49	32.062
530.83	31.962
531.17	34.465
531.51	33.268
531.86	32.516
532.20	33.507
532.54	33.632
532.88	33.055
533.22	31.980
533.57	30.926
533.91	31.427
534.25	32.564
534.59	32.398
534.93	31.469
535.27	32.529
535.62	33.028
535.96	32.894
536.30	31.977
536.64	32.711
536.98	31.586
537.32	32.192
537.66	31.800
538.01	32.587
538.35	32.450
538.69	33.440
539.03	32.489
539.37	30.735
539.71	31.367
540.05	32.680
540.39	32.824
540.73	32.277
541.07	31.798
541.42	32.551
541.76	33.226
542.10	31.630
542.44	32.649
542.78	32.872
543.12	31.670
543.46	31.934
543.80	32.856
544.14	30.680
544.48	32.571
544.82	31.751
545.16	32.336
545.50	31.298
545.84	32.124
546.18	31.717
546.52	31.383
546.86	31.065
547.20	32.906
547.54	32.131
547.88	32.908
548.22	31.258
548.56	32.201
548.90	31.114
549.24	31.178
549.58	32.947
549.92	32.486
550.26	33.168
550.60	31.397
550.94	31.972
551.28	31.675
551.62	32.998
551.96	31.789
552.30	32.901
552.64	31.778
552.98	33.017
553.32	31.490
553.66	32.311
554.00	32.876
554.34	32.574
554.68	31.974
555.02	32.228
555.36	32.568
555.69	31.394
556.03	31.561
556.37	31.651
556.71	31.037
557.05	31.443
557.39	31.491
557.73	32.604
558.07	32.705
558.41	31.693
558.75	32.623
559.08	32.289
559.42	31.897
559.76	32.574
560.10	32.049
560.44	30.748
560.78	30.672
561.12	32.124
561.45	31.682
561.79	31.971
562.13	31.187
562.47	31.762
562.81	32.497
563.15	30.702
563.48	30.637
563.82	30.920
564.16	30.085
564.50	30.534
564.84	30.973
565.17	30.888
565.51	29.968
565.85	30.140
566.19	29.994
566.52	30.082
566.86	29.415
567.20	30.896
567.54	30.137
567.88	29.332
568.21	30.053
568.55	28.766
568.89	28.745
569.23	28.520
569.56	28.583
569.90	27.509
570.24	27.485
570.57	26.590
570.91	26.826
571.25	26.035
571.59	25.920
571.92	26.382
572.26	26.025
572.60	25.826
572.93	26.267
573.27	25.436
573.61	26.075
573.95	25.375
574.28	25.226
574.62	24.611
574.96	25.233
575.29	25.097
575.63	25.076
575.97	25.254
576.30	25.252
576.64	25.272
576.98	24.915
577.31	24.746
577.65	25.103
577.98	24.648
578.32	24.265
578.66	24.549
578.99	24.698
579.33	24.788
579.67	24.179
580.00	24.526
580.34	24.727
580.67	24.699
581.01	24.668
581.35	24.524
581.68	24.679
582.02	24.226
582.35	24.286
582.69	24.237
583.02	24.482
583.36	24.072
583.70	24.426
584.03	25.209
584.37	25.349
584.70	25.000
585.04	24.731
585.37	24.348
585.71	24.624
586.04	25.006
586.38	25.183
586.72	25.490
587.05	24.857
587.39	24.485
587.72	24.530
588.06	24.920
588.39	25.048
588.73	24.758
589.06	25.896
589.40	25.589
589.73	26.118
590.07	25.338
590.40	26.123
590.73	26.347
591.07	26.984
591.40	26.276
591.74	26.970
592.07	26.832
592.41	26.540
592.74	25.805
593.08	25.483
593.41	26.258
593.75	24.703
594.08	26.115
594.41	25.875
594.75	25.102
595.08	25.197
595.42	26.480
595.75	25.499
596.09	25.760
596.42	26.562
596.75	27.058
597.09	26.753
597.42	25.337
597.75	26.218
598.09	26.217
598.42	25.945
598.76	25.334
599.09	25.694
599.42	25.364
599.76	25.695
600.09	25.246
600.42	24.909
600.76	24.750
601.09	25.428
601.42	25.837
601.76	25.617
602.09	25.573
602.42	26.154
602.76	26.602
603.09	25.964
603.42	25.576
603.76	25.229
604.09	25.553
604.42	25.887
604.76	25.770
605.09	25.295
605.42	25.438
605.75	25.952
606.09	25.742
606.42	25.378
606.75	25.218
607.09	25.366
607.42	25.332
607.75	24.768
608.08	25.098
608.42	26.132
608.75	25.564
609.08	24.746
609.41	25.892
609.75	25.727
610.08	25.495
610.41	25.093
610.74	26.159
611.07	26.087
611.41	26.693
611.74	26.898
612.07	26.605
612.40	26.390
612.73	26.053
613.07	26.401
613.40	26.172
613.73	26.796
614.06	26.290
614.39	25.905
614.72	26.263
615.06	26.891
615.39	25.902
615.72	25.818
616.05	25.731
616.38	27.404
616.71	27.850
617.05	27.150
617.38	26.518
617.71	26.066
618.04	26.683
618.37	25.902
618.70	27.256
619.03	27.039
619.36	27.088
619.69	27.606
620.03	27.816
620.36	27.406
620.69	28.630
621.02	27.950
621.35	27.095
621.68	28.271
622.01	27.632
622.34	28.517
622.67	28.669
623.00	27.293
623.33	26.519
623.66	27.734
623.99	27.320
624.32	26.961
624.65	27.401
624.99	26.629
625.32	27.082
625.65	28.174
625.98	28.747
626.31	28.227
626.64	28.571
626.97	28.595
627.30	28.096
627.63	29.450
627.96	27.334
628.29	29.484
628.62	29.918
628.95	31.038
629.28	28.376
629.61	30.156
629.94	29.714
630.26	29.743
630.59	30.696
630.92	30.651
631.25	29.714
631.58	29.429
631.91	29.310
632.24	28.165
632.57	31.689
632.90	30.702
633.23	29.530
633.56	30.960
633.89	30.464
634.22	30.874
634.55	31.243
634.88	30.419
635.20	30.705
635.53	32.048
635.86	31.807
636.19	31.412
636.52	31.027
636.85	30.584
637.18	30.415
637.51	29.669
637.83	29.100
638.16	30.435
638.49	32.368
638.82	31.985
639.15	31.250
639.48	30.923
639.81	33.244
640.13	32.422
640.46	31.946
640.79	31.968
641.12	31.499
641.45	32.263
641.77	32.842
642.10	33.041
642.43	32.432
642.76	33.282
643.09	34.202
643.41	31.563
643.74	33.488
644.07	32.012
644.40	33.896
644.73	35.433
645.05	35.975
645.38	30.174
645.71	36.232
646.04	34.385
646.36	34.891
646.69	35.452
647.02	33.844
647.35	34.880
647.67	37.168
648.00	33.496
648.33	32.673
648.66	31.818
648.98	32.984
649.31	32.586
649.64	30.194
649.96	30.551
650.29	31.754
650.62	33.495
650.94	33.712
651.27	32.264
651.60	34.609
651.92	33.387
652.25	31.922
652.58	33.022
652.90	33.807
653.23	31.741
653.56	31.496
653.88	32.330
654.21	32.070
654.54	31.683
654.86	32.710
655.19	28.649
655.52	21.040
655.84	18.956
656.17	24.743
656.49	32.550
656.82	32.405
657.15	23.821
657.47	17.609
657.80	13.343
658.13	13.365
658.45	20.118
658.78	20.119
659.10	20.375
659.43	22.056
659.75	23.671
660.08	25.570
660.41	29.143
660.73	31.131
661.06	32.803
661.38	34.182
661.71	35.962
662.03	35.897
662.36	35.189
662.68	34.538
663.01	33.939
663.33	36.518
663.66	34.034
663.98	35.853
664.31	36.765
664.63	34.211
664.96	34.205
665.28	35.861
665.61	34.698
665.93	35.211
666.26	32.252
666.58	34.310
666.91	34.461
667.23	35.056
667.56	33.909
667.88	39.744
668.21	34.328
668.53	33.406
668.86	35.931
669.18	32.196
669.50	38.043
669.83	38.126
670.15	35.556
670.48	35.512
670.80	34.267
671.13	34.607
671.45	35.532
671.77	37.475
672.10	33.272
672.42	31.979
672.75	31.841
673.07	32.570
673.39	32.731
673.72	33.984
674.04	34.902
674.37	31.068
674.69	35.787
675.01	32.218
675.34	35.729
675.66	38.105
675.98	33.809
676.31	35.084
676.63	35.032
676.95	36.897
677.28	32.944
677.60	36.484
677.92	36.287
678.25	35.729
678.57	32.669
678.89	34.269
679.22	33.988
679.54	33.206
679.86	32.844
680.18	33.453
680.51	32.092
680.83	33.808
681.15	36.415
681.48	34.594
681.80	31.915
682.12	32.759
682.44	32.689
682.77	34.012
683.09	35.622
683.41	36.142
683.73	35.982
684.06	36.570
684.38	34.051
684.70	31.977
685.02	31.520
685.34	31.685
685.67	28.846
685.99	30.412
686.31	31.570
686.63	30.742
686.96	30.357
687.28	30.866
687.60	32.246
687.92	30.896
688.24	28.897
688.56	33.735
688.89	34.232
689.21	34.279
689.53	34.447
689.85	34.812
690.17	30.228
690.49	35.032
690.82	32.710
691.14	30.580
691.46	31.435
691.78	32.731
692.10	31.612
692.42	35.130
692.74	30.498
693.06	33.404
693.39	34.086
693.71	35.153
694.03	33.053
694.35	33.766
694.67	33.867
694.99	38.537
695.31	35.049
695.63	33.493
695.95	35.452
696.27	37.310
696.59	33.161
696.91	37.824
697.23	31.925
697.56	34.968
697.88	30.675
698.20	35.000
698.52	32.473
698.84	33.853
699.16	33.410
699.48	35.392
699.80	32.609
700.12	38.182
700.44	37.401
700.76	35.635
701.08	38.506
701.40	36.592
701.72	37.901
702.04	44.602
702.36	35.977
702.68	37.110
703.00	40.997
703.32	34.309
703.64	34.853
703.96	35.933
704.28	36.919
704.60	37.537
704.91	41.543
705.23	38.416
705.55	40.532
705.87	39.867
706.19	39.223
706.51	41.433
706.83	41.818
707.15	37.535
707.47	30.808
707.79	34.889
708.11	33.790
708.43	32.143
708.74	31.122
709.06	35.325
709.38	38.320
709.70	36.919
710.02	36.795
710.34	35.758
710.66	38.209
710.98	40.625
711.29	37.500
711.61	38.643
711.93	37.179
712.25	39.550
712.57	39.338
712.89	37.024
713.20	39.514
713.52	42.434
713.84	39.241
714.16	35.976
714.48	40.805
714.80	39.514
715.11	36.311
715.43	37.685
715.75	34.493
716.07	33.866
716.39	37.618
716.70	39.203
717.02	41.727
717.34	40.636
717.66	43.284
717.97	43.426
718.29	42.963
718.61	37.226
718.93	46.324
719.24	37.370
719.56	36.949
719.88	39.661
720.20	45.270
720.51	44.948
720.83	43.866
721.15	38.806
721.46	35.816
721.78	40.143
722.10	41.887
722.42	43.609
722.73	43.446
723.05	44.672
723.37	44.534
723.68	40.541
724.00	41.870
724.32	46.774
724.63	44.309
724.95	41.004
725.27	45.749
725.58	40.234
725.90	39.781
726.22	41.509
726.53	38.889
726.85	40.614
727.16	41.281
727.48	40.780
727.80	40.909
728.11	39.493
728.43	41.538
728.74	38.351
729.06	47.080
729.38	41.176
729.69	39.858
730.01	38.567
730.32	35.417
730.64	42.140
730.96	35.974
731.27	37.748
731.59	37.309
731.90	35.569
732.22	36.957
732.53	37.461
732.85	38.141
733.16	36.977
733.48	32.890
733.80	39.286
734.11	38.535
734.43	38.757
734.74	34.000
735.06	34.957
735.37	39.595
735.69	35.669
736.00	39.542
736.32	40.810
736.63	37.700
736.95	36.102
737.26	36.735
737.58	35.484
737.89	37.124
738.21	38.908
738.52	41.786
738.83	40.377
739.15	33.462
739.46	40.876
739.78	38.889
740.09	36.615
740.41	40.968
740.72	34.146
741.04	42.222
741.35	42.500
741.66	47.111
741.98	42.925
742.29	47.368
742.61	40.948
742.92	45.249
743.23	41.453
743.55	43.600
743.86	45.175
744.18	43.363
744.49	44.976
744.80	45.070
745.12	49.091
745.43	44.934
745.74	43.243
746.06	48.624
746.37	46.637
746.68	42.986
747.00	46.296
747.31	49.524
747.62	43.805
747.94	43.612
748.25	39.149
748.56	46.256
748.88	47.525
749.19	50.000
749.50	40.930
749.82	39.431
750.13	41.633
750.44	39.781
750.75	42.807
751.07	40.193
751.38	38.328
751.69	41.155
752.01	38.722
752.32	37.545
752.63	40.426
752.94	41.803
753.26	45.200
753.57	37.805
753.88	42.578
754.19	37.857
754.51	38.194
754.82	35.740
755.13	39.623
755.44	39.474
755.75	39.416
756.07	35.461
756.38	33.577
756.69	38.926
757.00	38.922
757.31	31.751
757.63	31.871
757.94	33.780
758.25	30.147
758.56	31.111
758.87	32.796
759.18	36.970
759.50	33.229
759.81	34.891
760.12	33.750
760.43	33.811
760.74	34.239
761.05	34.181
761.36	34.225
761.67	37.216
761.99	31.988
762.30	39.236
762.61	37.786
762.92	42.969
763.23	42.857
763.54	45.200
763.85	40.234
764.16	46.538
764.47	40.684
764.78	34.276
765.10	35.443
765.41	36.283
765.72	33.832
766.03	36.991
766.34	33.667
766.65	38.723
766.96	42.735
767.27	44.162
767.58	48.438
767.89	45.789
768.20	47.126
768.51	47.208
768.82	46.330
769.13	38.211
769.44	39.676
769.75	37.339
770.06	39.450
770.37	47.511
770.68	44.907
770.99	41.333
771.30	39.344
771.61	41.256
771.92	43.033
772.23	50.420
772.54	54.872
772.85	47.644
773.16	44.681
773.47	42.391
773.78	50.254
774.09	45.238
774.39	52.632
774.70	53.086
775.01	68.116
775.32	56.209
775.63	52.632
775.94	56.835
776.25	66.929
776.56	61.194
776.87	63.934
777.18	60.156
777.48	62.595
777.79	54.545
778.10	59.259
778.41	60.714
778.72	53.285
779.03	63.087
779.34	53.020
779.65	54.730
779.95	56.442
780.26	54.248
780.57	64.828
780.88	67.188
781.19	53.383
781.50	60.811
781.80	61.006
782.11	49.153
782.42	56.962
782.73	44.172
783.04	56.757
783.34	58.451
783.65	63.014
783.96	66.418
784.27	57.343
784.57	53.957
784.88	62.037
785.19	61.905
785.50	61.321
785.81	69.403
786.11	56.557
786.42	57.364
786.73	54.867
787.04	71.698
787.34	61.607
787.65	63.000
787.96	63.964
788.26	63.636
788.57	57.627
788.88	57.025
789.19	54.861
789.49	67.424
789.80	64.885
790.11	73.333
790.41	66.337
790.72	75.904
791.03	75.000
791.33	70.930
791.64	74.227
791.95	67.327
792.25	84.444
792.56	85.714
792.87	92.308
793.17	101.266
793.48	75.862
793.79	75.862
794.09	78.409
794.40	47.059
794.70	64.706
795.01	59.259
795.32	62.590
795.62	64.567
795.93	61.207
796.23	66.372
796.54	78.824
796.85	81.081
797.15	105.634
797.46	90.909
797.76	85.542
798.07	79.747
798.37	95.385
798.68	95.455
798.99	81.690
799.29	79.221
799.60	81.818
799.90	104.110
800.21	107.463
800.51	101.724
800.82	115.789
801.12	98.361
801.43	101.515
801.73	81.081
802.04	107.937
802.34	83.951
802.65	103.125
802.95	106.780
803.26	106.250
803.56	81.429
803.87	106.154
804.17	100.000
804.48	120.370
804.78	93.103
805.09	91.176
805.39	101.923
805.70	112.500
806.00	101.639
806.30	74.242
806.61	78.049
806.91	79.747
807.22	84.211
807.52	76.119
807.83	92.958
808.13	90.625
808.43	91.667
808.74	71.053
809.04	104.348
809.35	97.015
809.65	88.158
809.95	112.903
810.26	105.085
810.56	115.873
810.86	131.818
811.17	176.190
811.47	106.667
811.77	109.259
812.08	120.000
812.38	128.000
812.69	166.667
812.99	161.364
813.29	136.735
813.59	104.762
813.90	136.735
814.20	134.545
814.50	95.385
814.81	108.824
815.11	120.408
815.41	106.557
815.72	157.143
816.02	140.000
816.32	128.571
816.62	117.500
816.93	141.463
817.23	150.000
817.53	134.091
817.84	193.939
818.14	150.000
818.44	128.889
818.74	185.294
819.04	132.500
819.35	125.714
819.65	173.529
819.95	160.714
820.25	280.000
820.56	174.359
820.86	122.727
821.16	116.279
821.46	135.897
821.76	120.000
822.07	151.429
822.37	145.000
822.67	163.636
822.97	117.647
823.27	196.429
823.57	181.081
823.88	162.500
824.18	166.667
824.48	135.714
824.78	224.000
825.08	200.000
825.38	135.135
825.69	146.341
825.99	241.667
826.29	179.310
826.59	165.789
826.89	160.526
827.19	155.882
827.49	187.097
827.79	161.364
828.09	131.818
828.39	129.787
828.70	130.612
829.00	170.370
829.30	183.871
829.60	137.500
829.90	273.333
830.20	217.857
830.50	221.739
830.80	213.043
831.10	233.333
831.40	213.333
831.70	204.348
832.00	200.000
832.30	196.296
832.60	318.750
832.90	220.000
833.20	407.143
833.50	183.871
833.80	193.103
834.10	178.125
834.40	253.846
834.70	244.444
835.00	242.857
835.30	182.857
835.60	269.231
835.90	213.793
836.20	350.000
836.50	206.897
836.80	172.000
837.10	188.889
837.40	261.905
837.70	317.647
838.00	233.333
838.30	238.095
838.60	309.524
838.90	234.615
839.19	250.000
839.49	357.143
839.79	335.000
840.09	255.000
840.39	285.714
840.69	278.261
840.99	338.889
841.29	550.000
841.59	308.333
841.88	375.000
842.18	165.517
842.48	252.381
842.78	193.333
843.08	234.783
843.38	162.500
843.68	850.000
843.97	246.154
844.27	227.586
844.57	333.333
844.87	393.750
845.17	218.519
845.47	1466.667
845.76	433.333
846.06	235.294
846.36	612.500
846.66	435.714
846.96	306.250
847.25	400.000
847.55	427.273
847.85	239.130
848.15	450.000
848.44	378.571
848.74	244.444
849.04	288.235
849.34	570.000
849.63	247.368
849.93	409.091
850.23	840.000
850.53	442.857
850.82	2250.000
851.12	-3700.000
851.42	4900.000
851.71	285.000
852.01	-866.667
852.31	250.000
852.61	1566.667
852.90	295.238
853.20	212.000
853.50	311.765
853.79	271.429
854.09	266.667
854.39	312.500
854.68	178.378
854.98	193.548
855.28	193.333
855.57	182.759
855.87	218.519
856.17	252.632
856.46	313.333
856.76	288.235
857.05	213.793
857.35	258.333
857.65	320.000
857.94	234.783
858.24	257.692
858.53	305.000
858.83	240.909
859.13	386.667
859.42	0.000
859.72	655.556
860.01	463.636
860.31	263.636
860.60	289.474
860.90	226.087
861.20	500.000
861.49	475.000
861.79	-5100.000
862.08	575.000
862.38	280.952
862.67	384.615
862.97	335.294
863.26	633.333
863.56	294.444
863.85	408.333
864.15	600.000
864.44	440.000
864.74	950.000
865.03	575.000
865.33	257.895
865.62	363.636
865.92	469.231
866.21	416.667
866.51	0.000
866.80	427.273
867.10	1120.000
867.39	423.077
867.69	518.182
867.98	231.579
868.27	472.727
868.57	336.842
868.86	-4600.000
869.16	362.500
869.45	2600.000
869.75	-4000.000
870.04	416.667
870.33	728.571
870.63	1375.000
870.92	2750.000
871.22	700.000
871.51	341.176
871.80	242.857
872.10	371.429
>>>>>End Processed Spectral Data<<<<<
