SpectraSuite Data File
++++++++++++++++++++++++++++++++++++
Date: Tue May 12 19:52:58 PDT 2015
User: schluterlab
Dark Spectrum Present: Yes
Reference Spectrum Present: Yes
Number of Sampled Component Spectra: 1
Spectrometers: USB2E3373
Integration Time (usec): 3000 (USB2E3373)
Spectra Averaged: 3 (USB2E3373)
Boxcar Smoothing: 0 (USB2E3373)
Correct for Electrical Dark: No (USB2E3373)
Strobe/Lamp Enabled: No (USB2E3373)
Correct for Detector Non-linearity: No (USB2E3373)
Correct for Stray Light: No (USB2E3373)
Number of Pixels in Processed Spectrum: 2048
>>>>>Begin Processed Spectral Data<<<<<
178.53	0.000
178.91	-90.000
179.29	-266.667
179.67	733.333
180.04	0.000
180.42	-220.000
180.80	-733.333
181.18	1700.000
181.56	-550.000
181.94	533.333
182.31	2600.000
182.69	42.857
183.07	0.000
183.45	275.000
183.83	500.000
184.20	500.000
184.58	1250.000
184.96	350.000
185.34	-500.000
185.72	-92.857
186.09	-333.333
186.47	-2800.000
186.85	-160.000
187.23	191.667
187.61	-142.857
187.98	-280.000
188.36	500.000
188.74	-325.000
189.12	-188.889
189.49	-120.000
189.87	700.000
190.25	211.111
190.63	1000.000
191.00	480.000
191.38	-666.667
191.76	580.000
192.14	-85.714
192.51	-70.000
192.89	-260.000
193.27	-220.000
193.65	-800.000
194.02	-350.000
194.40	2200.000
194.78	-200.000
195.15	-385.714
195.53	466.667
195.91	440.000
196.29	-500.000
196.66	-266.667
197.04	-271.429
197.42	260.000
197.79	-187.500
198.17	-83.333
198.55	-1600.000
198.92	-211.111
199.30	950.000
199.68	-425.000
200.05	-1300.000
200.43	-72.222
200.81	-191.667
201.18	483.333
201.56	-1150.000
201.94	-2300.000
202.31	-125.000
202.69	-55.556
203.07	-216.667
203.44	-550.000
203.82	0.000
204.19	375.000
204.57	-700.000
204.95	327.273
205.32	420.000
205.70	375.000
206.08	-1600.000
206.45	-280.000
206.83	3500.000
207.20	-300.000
207.58	-7.692
207.96	933.333
208.33	833.333
208.71	800.000
209.08	650.000
209.46	-144.444
209.84	966.667
210.21	-700.000
210.59	900.000
210.96	244.444
211.34	-400.000
211.71	1800.000
212.09	-400.000
212.46	-262.500
212.84	-287.500
213.22	314.286
213.59	-212.500
213.97	0.000
214.34	-600.000
214.72	-2000.000
215.09	800.000
215.47	-100.000
215.84	-112.500
216.22	-2800.000
216.59	2800.000
216.97	-133.333
217.34	-100.000
217.72	-77.778
218.09	900.000
218.47	-89.474
218.84	-325.000
219.22	-85.714
219.59	-200.000
219.97	-190.000
220.34	466.667
220.72	236.364
221.09	-1400.000
221.47	0.000
221.84	750.000
222.22	-275.000
222.59	-425.000
222.97	-39.130
223.34	153.333
223.72	285.714
224.09	-400.000
224.46	215.385
224.84	-113.333
225.21	-1200.000
225.59	-550.000
225.96	10.000
226.34	416.667
226.71	280.000
227.08	-100.000
227.46	-242.857
227.83	-108.333
228.21	-1250.000
228.58	300.000
228.95	-89.474
229.33	-12.500
229.70	-216.667
230.08	-144.444
230.45	-966.667
230.82	-2700.000
231.20	-66.667
231.57	-520.000
231.95	-600.000
232.32	177.778
232.69	-750.000
233.07	-62.500
233.44	-287.500
233.81	-12.903
234.19	-380.000
234.56	-150.000
234.93	-350.000
235.31	-40.741
235.68	-77.778
236.05	-76.923
236.43	-136.842
236.80	-59.091
237.17	-164.286
237.55	-100.000
237.92	-4.651
238.29	-32.258
238.67	-10.714
239.04	-31.429
239.41	-19.608
239.79	-14.000
240.16	-12.500
240.53	-10.345
240.91	-13.699
241.28	-8.451
241.65	0.000
242.02	-28.070
242.40	-9.333
242.77	7.368
243.14	12.941
243.51	6.452
243.89	-2.857
244.26	4.630
244.63	7.143
245.00	-5.357
245.38	3.361
245.75	-2.542
246.12	6.250
246.49	1.600
246.87	2.459
247.24	0.000
247.61	2.649
247.98	7.303
248.36	9.434
248.73	7.955
249.10	5.000
249.47	9.896
249.84	7.107
250.22	7.292
250.59	9.551
250.96	11.364
251.33	11.321
251.70	12.844
252.08	12.554
252.45	8.980
252.82	7.173
253.19	10.117
253.56	10.588
253.94	8.943
254.31	15.108
254.68	11.111
255.05	13.907
255.42	9.455
255.79	14.238
256.16	14.236
256.54	14.848
256.91	15.385
257.28	11.364
257.65	11.148
258.02	13.514
258.39	12.387
258.76	13.761
259.14	12.353
259.51	16.338
259.88	13.545
260.25	10.227
260.62	10.112
260.99	13.649
261.36	12.356
261.73	17.867
262.10	17.984
262.47	14.601
262.85	18.252
263.22	11.828
263.59	13.137
263.96	14.621
264.33	11.051
264.70	13.514
265.07	16.256
265.44	14.286
265.81	14.940
266.18	14.754
266.55	12.619
266.92	18.750
267.29	11.111
267.66	12.727
268.03	13.333
268.40	16.934
268.77	13.808
269.14	13.445
269.51	13.801
269.88	13.675
270.25	11.392
270.62	14.706
270.99	14.105
271.36	13.024
271.73	12.708
272.10	13.900
272.47	13.800
272.84	10.191
273.21	10.856
273.58	14.286
273.95	15.139
274.32	15.667
274.69	15.264
275.06	13.508
275.43	11.200
275.80	15.296
276.17	12.451
276.54	16.350
276.91	13.436
277.28	13.346
277.65	12.665
278.02	15.530
278.39	15.426
278.76	12.849
279.13	13.953
279.50	13.718
279.87	14.906
280.23	15.118
280.60	11.661
280.97	13.708
281.34	14.407
281.71	12.789
282.08	15.027
282.45	12.875
282.82	13.300
283.19	16.330
283.56	14.846
283.92	14.060
284.29	15.228
284.66	12.743
285.03	11.492
285.40	13.333
285.77	14.943
286.14	13.788
286.51	10.611
286.87	14.587
287.24	12.821
287.61	13.426
287.98	15.493
288.35	14.884
288.72	11.927
289.08	10.377
289.45	11.700
289.82	12.733
290.19	11.667
290.56	14.182
290.93	12.999
291.29	12.766
291.66	12.921
292.03	13.917
292.40	14.532
292.77	10.350
293.13	11.894
293.50	11.708
293.87	13.315
294.24	13.202
294.60	13.251
294.97	10.942
295.34	11.644
295.71	9.847
296.08	11.066
296.44	12.912
296.81	10.220
297.18	10.091
297.55	12.186
297.91	11.168
298.28	10.870
298.65	9.573
299.02	10.974
299.38	10.842
299.75	11.326
300.12	9.712
300.48	11.854
300.85	9.169
301.22	10.938
301.59	11.314
301.95	11.463
302.32	8.748
302.69	10.345
303.05	11.570
303.42	9.903
303.79	9.775
304.15	11.212
304.52	10.168
304.89	10.147
305.25	11.124
305.62	10.000
305.99	8.063
306.35	11.745
306.72	10.784
307.09	10.881
307.45	9.709
307.82	10.139
308.19	10.121
308.55	10.021
308.92	9.958
309.29	9.623
309.65	10.733
310.02	10.273
310.38	9.808
310.75	8.811
311.12	9.461
311.48	9.969
311.85	9.321
312.22	11.157
312.58	9.265
312.95	9.959
313.31	9.636
313.68	9.633
314.05	10.824
314.41	9.725
314.78	10.251
315.14	10.186
315.51	11.321
315.87	10.840
316.24	9.792
316.61	10.583
316.97	10.392
317.34	9.761
317.70	9.711
318.07	9.354
318.43	10.870
318.80	10.109
319.16	8.947
319.53	10.000
319.89	10.133
320.26	10.128
320.62	10.562
320.99	10.612
321.35	10.474
321.72	10.303
322.08	11.881
322.45	10.552
322.81	10.640
323.18	10.451
323.54	11.469
323.91	11.006
324.27	10.318
324.64	10.309
325.00	10.555
325.37	11.511
325.73	9.580
326.10	10.333
326.46	10.607
326.83	11.170
327.19	11.790
327.56	11.317
327.92	10.156
328.29	11.380
328.65	10.734
329.01	11.743
329.38	11.938
329.74	13.463
330.11	11.463
330.47	10.894
330.84	9.868
331.20	11.738
331.56	10.943
331.93	10.704
332.29	10.268
332.66	11.302
333.02	11.421
333.38	12.592
333.75	10.430
334.11	10.488
334.48	11.717
334.84	9.390
335.20	10.922
335.57	11.081
335.93	10.605
336.29	10.878
336.66	9.836
337.02	11.786
337.38	10.755
337.75	11.727
338.11	11.304
338.47	10.956
338.84	10.129
339.20	11.366
339.56	10.904
339.93	11.441
340.29	10.245
340.65	10.594
341.02	10.717
341.38	10.062
341.74	10.854
342.11	11.229
342.47	11.626
342.83	10.581
343.20	10.080
343.56	10.315
343.92	11.811
344.28	9.777
344.65	10.445
345.01	10.540
345.37	11.282
345.73	10.594
346.10	11.236
346.46	10.440
346.82	9.431
347.19	11.102
347.55	11.224
347.91	9.582
348.27	10.615
348.63	10.977
349.00	11.102
349.36	9.316
349.72	11.741
350.08	11.047
350.45	9.520
350.81	9.827
351.17	10.379
351.53	9.259
351.89	9.326
352.26	10.163
352.62	10.303
352.98	10.377
353.34	9.607
353.70	9.547
354.07	10.297
354.43	9.933
354.79	9.508
355.15	10.008
355.51	10.839
355.87	10.241
356.24	11.275
356.60	9.599
356.96	10.427
357.32	11.111
357.68	10.660
358.04	10.049
358.40	10.966
358.77	9.880
359.13	11.165
359.49	10.480
359.85	10.392
360.21	9.992
360.57	10.367
360.93	10.530
361.29	9.579
361.66	9.858
362.02	9.733
362.38	10.878
362.74	10.377
363.10	10.030
363.46	10.233
363.82	9.877
364.18	9.765
364.54	9.695
364.90	8.815
365.26	9.985
365.62	9.690
365.98	10.195
366.35	9.909
366.71	10.904
367.07	9.668
367.43	9.531
367.79	8.648
368.15	9.785
368.51	10.562
368.87	10.499
369.23	10.295
369.59	10.000
369.95	9.985
370.31	8.864
370.67	9.624
371.03	10.449
371.39	9.668
371.75	9.510
372.11	9.111
372.47	9.503
372.83	9.496
373.19	10.467
373.55	10.180
373.91	8.788
374.27	10.155
374.63	9.352
374.99	9.663
375.35	8.999
375.71	10.330
376.07	10.813
376.42	10.304
376.78	9.547
377.14	10.056
377.50	9.918
377.86	9.262
378.22	9.643
378.58	10.461
378.94	9.561
379.30	9.331
379.66	9.539
380.02	9.536
380.38	8.842
380.74	10.068
381.09	8.386
381.45	10.095
381.81	10.587
382.17	9.837
382.53	9.467
382.89	8.595
383.25	10.082
383.61	9.282
383.97	9.877
384.32	9.419
384.68	9.259
385.04	8.530
385.40	9.585
385.76	9.741
386.12	9.175
386.48	9.589
386.83	8.756
387.19	9.579
387.55	8.744
387.91	9.470
388.27	8.637
388.62	9.456
388.98	9.542
389.34	8.979
389.70	8.846
390.06	9.175
390.42	9.669
390.77	9.524
391.13	9.564
391.49	9.164
391.85	9.448
392.20	9.703
392.56	8.644
392.92	10.142
393.28	9.396
393.64	8.866
393.99	8.117
394.35	9.150
394.71	8.543
395.07	9.615
395.42	8.444
395.78	8.468
396.14	9.594
396.50	9.767
396.85	9.451
397.21	9.767
397.57	9.282
397.92	9.733
398.28	9.293
398.64	9.079
399.00	9.634
399.35	9.261
399.71	8.922
400.07	8.956
400.42	9.679
400.78	9.469
401.14	8.586
401.49	9.619
401.85	10.159
402.21	9.074
402.57	7.663
402.92	9.230
403.28	9.558
403.63	9.744
403.99	8.587
404.35	9.045
404.70	9.753
405.06	8.927
405.42	9.304
405.77	8.442
406.13	9.020
406.49	8.833
406.84	9.153
407.20	8.736
407.55	8.684
407.91	8.252
408.27	9.176
408.62	8.039
408.98	9.266
409.34	9.091
409.69	8.829
410.05	8.549
410.40	8.992
410.76	8.842
411.11	9.179
411.47	9.320
411.83	9.272
412.18	9.031
412.54	9.508
412.89	8.679
413.25	9.655
413.60	9.184
413.96	8.932
414.31	9.114
414.67	9.588
415.03	9.474
415.38	9.749
415.74	9.335
416.09	7.581
416.45	9.342
416.80	8.206
417.16	8.815
417.51	9.368
417.87	9.644
418.22	8.690
418.58	9.122
418.93	9.091
419.29	8.955
419.64	8.997
420.00	9.037
420.35	9.605
420.71	9.155
421.06	9.474
421.42	9.285
421.77	9.501
422.12	9.037
422.48	9.480
422.83	8.693
423.19	9.647
423.54	8.858
423.90	9.271
424.25	9.547
424.61	8.774
424.96	9.767
425.31	8.696
425.67	9.273
426.02	9.193
426.38	8.366
426.73	9.470
427.09	8.798
427.44	8.827
427.79	10.396
428.15	9.385
428.50	8.794
428.85	8.467
429.21	10.460
429.56	8.785
429.92	9.086
430.27	8.213
430.62	9.681
430.98	9.780
431.33	9.344
431.68	9.354
432.04	9.379
432.39	8.616
432.74	9.171
433.10	8.672
433.45	8.740
433.80	10.060
434.16	9.321
434.51	9.810
434.86	8.822
435.22	9.721
435.57	8.773
435.92	8.978
436.28	8.468
436.63	9.899
436.98	9.691
437.34	10.813
437.69	8.642
438.04	8.834
438.39	9.465
438.75	8.554
439.10	8.988
439.45	8.922
439.81	9.143
440.16	9.338
440.51	9.542
440.86	9.596
441.22	9.887
441.57	9.573
441.92	8.945
442.27	9.886
442.63	10.214
442.98	10.024
443.33	9.753
443.68	8.874
444.03	9.588
444.39	9.058
444.74	9.616
445.09	9.091
445.44	9.213
445.79	9.655
446.15	8.805
446.50	9.601
446.85	9.626
447.20	9.190
447.55	9.191
447.91	9.935
448.26	9.970
448.61	9.668
448.96	9.462
449.31	9.464
449.66	9.504
450.02	9.172
450.37	9.721
450.72	9.994
451.07	8.372
451.42	10.474
451.77	9.016
452.12	9.085
452.47	9.214
452.83	9.527
453.18	9.453
453.53	10.059
453.88	9.700
454.23	10.543
454.58	10.248
454.93	8.787
455.28	9.437
455.63	9.877
455.98	9.581
456.34	9.377
456.69	9.411
457.04	9.318
457.39	9.238
457.74	8.976
458.09	9.085
458.44	10.178
458.79	9.894
459.14	9.123
459.49	9.682
459.84	10.404
460.19	10.256
460.54	9.280
460.89	9.647
461.24	10.000
461.59	10.032
461.94	9.665
462.29	11.404
462.64	10.167
462.99	9.862
463.34	10.183
463.69	9.534
464.04	9.557
464.39	9.325
464.74	10.253
465.09	10.740
465.44	9.598
465.79	10.409
466.14	9.427
466.49	10.113
466.84	10.074
467.19	10.721
467.54	9.748
467.89	9.863
468.24	9.912
468.59	9.948
468.94	9.953
469.29	9.827
469.64	10.868
469.99	10.094
470.34	9.760
470.68	9.231
471.03	10.292
471.38	10.097
471.73	10.683
472.08	10.391
472.43	10.858
472.78	8.049
473.13	10.596
473.48	10.858
473.83	10.436
474.17	9.406
474.52	10.382
474.87	10.417
475.22	10.610
475.57	10.341
475.92	10.745
476.27	10.910
476.61	10.165
476.96	10.966
477.31	9.304
477.66	10.750
478.01	9.417
478.36	10.029
478.70	10.254
479.05	10.331
479.40	9.674
479.75	10.881
480.10	11.201
480.45	10.681
480.79	10.690
481.14	10.174
481.49	10.900
481.84	10.253
482.19	10.439
482.53	10.735
482.88	9.964
483.23	10.553
483.58	10.347
483.92	10.905
484.27	11.036
484.62	11.928
484.97	10.281
485.31	10.363
485.66	10.030
486.01	10.231
486.36	10.026
486.70	10.020
487.05	10.286
487.40	10.095
487.75	10.478
488.09	10.150
488.44	10.325
488.79	10.703
489.13	10.640
489.48	10.733
489.83	11.142
490.17	11.064
490.52	11.090
490.87	11.919
491.22	11.095
491.56	11.215
491.91	11.446
492.26	11.321
492.60	11.224
492.95	11.499
493.30	10.873
493.64	10.700
493.99	11.910
494.34	11.303
494.68	11.249
495.03	10.852
495.37	11.607
495.72	10.601
496.07	10.953
496.41	10.178
496.76	10.984
497.11	10.783
497.45	12.104
497.80	11.475
498.14	11.457
498.49	11.532
498.84	11.635
499.18	10.794
499.53	11.059
499.87	11.111
500.22	11.221
500.56	12.036
500.91	11.641
501.26	11.076
501.60	12.742
501.95	10.901
502.29	11.083
502.64	11.249
502.98	11.358
503.33	11.283
503.67	11.536
504.02	11.645
504.36	11.197
504.71	11.170
505.06	11.516
505.40	11.903
505.75	11.585
506.09	11.918
506.44	12.071
506.78	11.456
507.13	10.803
507.47	10.914
507.82	11.384
508.16	10.690
508.51	11.926
508.85	10.989
509.19	11.519
509.54	12.181
509.88	11.680
510.23	11.966
510.57	11.868
510.92	12.075
511.26	11.545
511.61	12.329
511.95	11.336
512.30	11.710
512.64	11.496
512.98	11.341
513.33	11.313
513.67	11.018
514.02	12.200
514.36	11.566
514.70	12.022
515.05	12.439
515.39	11.920
515.74	11.779
516.08	12.492
516.42	12.244
516.77	12.112
517.11	12.355
517.46	12.555
517.80	12.380
518.14	12.903
518.49	12.354
518.83	12.322
519.17	12.404
519.52	12.867
519.86	12.730
520.20	12.739
520.55	13.446
520.89	13.158
521.23	13.828
521.58	12.103
521.92	12.951
522.26	12.921
522.61	12.491
522.95	12.534
523.29	12.888
523.64	13.433
523.98	12.567
524.32	13.266
524.66	12.848
525.01	12.921
525.35	13.064
525.69	12.595
526.04	13.037
526.38	12.680
526.72	13.403
527.06	12.588
527.41	13.040
527.75	12.491
528.09	12.801
528.43	13.324
528.78	12.089
529.12	12.671
529.46	13.355
529.80	12.253
530.15	13.621
530.49	14.017
530.83	13.160
531.17	13.065
531.51	12.777
531.86	13.936
532.20	12.554
532.54	12.518
532.88	12.291
533.22	13.003
533.57	12.276
533.91	13.696
534.25	12.899
534.59	12.586
534.93	12.089
535.27	12.795
535.62	13.099
535.96	12.840
536.30	13.292
536.64	12.518
536.98	13.643
537.32	13.542
537.66	11.730
538.01	12.371
538.35	13.091
538.69	12.880
539.03	12.257
539.37	14.142
539.71	13.551
540.05	12.518
540.39	13.290
540.73	13.553
541.07	12.426
541.42	13.970
541.76	12.878
542.10	14.347
542.44	13.006
542.78	12.463
543.12	11.697
543.46	13.189
543.80	13.152
544.14	12.903
544.48	12.632
544.82	12.775
545.16	12.681
545.50	12.518
545.84	13.826
546.18	13.184
546.52	13.144
546.86	13.313
547.20	13.030
547.54	12.358
547.88	12.393
548.22	11.885
548.56	13.249
548.90	13.544
549.24	13.012
549.58	13.487
549.92	13.609
550.26	13.822
550.60	13.006
550.94	13.333
551.28	13.252
551.62	13.514
551.96	12.540
552.30	12.946
552.64	12.847
552.98	13.447
553.32	12.500
553.66	12.898
554.00	14.131
554.34	13.594
554.68	13.397
555.02	12.698
555.36	12.867
555.69	13.374
556.03	13.452
556.37	12.228
556.71	12.293
557.05	13.359
557.39	13.333
557.73	13.679
558.07	14.710
558.41	13.408
558.75	13.029
559.08	15.234
559.42	11.371
559.76	13.227
560.10	14.181
560.44	13.381
560.78	13.449
561.12	12.923
561.45	13.467
561.79	12.482
562.13	13.936
562.47	13.226
562.81	13.040
563.15	11.863
563.48	12.584
563.82	13.683
564.16	12.990
564.50	13.252
564.84	13.111
565.17	12.876
565.51	12.878
565.85	12.606
566.19	12.804
566.52	13.405
566.86	13.320
567.20	12.309
567.54	12.508
567.88	11.954
568.21	12.544
568.55	12.281
568.89	11.374
569.23	12.349
569.56	12.230
569.90	11.563
570.24	11.939
570.57	11.061
570.91	11.827
571.25	11.398
571.59	11.803
571.92	11.070
572.26	11.169
572.60	11.129
572.93	11.264
573.27	10.870
573.61	11.266
573.95	11.202
574.28	10.455
574.62	10.929
574.96	10.874
575.29	10.712
575.63	10.835
575.97	10.859
576.30	10.844
576.64	10.860
576.98	10.616
577.31	10.795
577.65	10.352
577.98	10.670
578.32	10.320
578.66	10.099
578.99	10.797
579.33	10.534
579.67	10.955
580.00	10.514
580.34	10.676
580.67	10.529
581.01	11.009
581.35	10.772
581.68	10.144
582.02	10.473
582.35	10.336
582.69	10.534
583.02	10.596
583.36	10.674
583.70	10.669
584.03	10.684
584.37	11.390
584.70	10.525
585.04	10.498
585.37	10.529
585.71	10.347
586.04	10.513
586.38	10.842
586.72	10.627
587.05	10.884
587.39	10.824
587.72	10.975
588.06	10.737
588.39	11.189
588.73	10.587
589.06	10.478
589.40	11.193
589.73	11.070
590.07	11.034
590.40	11.072
590.73	11.454
591.07	11.299
591.40	12.380
591.74	11.334
592.07	11.318
592.41	11.340
592.74	11.760
593.08	10.819
593.41	11.279
593.75	11.560
594.08	11.226
594.41	12.095
594.75	11.316
595.08	11.492
595.42	11.829
595.75	11.364
596.09	11.289
596.42	11.416
596.75	11.364
597.09	10.634
597.42	11.356
597.75	11.538
598.09	11.891
598.42	11.737
598.76	11.840
599.09	11.471
599.42	10.779
599.76	11.338
600.09	11.151
600.42	10.742
600.76	10.855
601.09	11.176
601.42	11.151
601.76	11.161
602.09	11.144
602.42	11.854
602.76	11.649
603.09	11.314
603.42	11.329
603.76	11.204
604.09	11.612
604.42	11.507
604.76	10.634
605.09	11.762
605.42	11.611
605.75	11.558
606.09	11.200
606.42	11.417
606.75	11.723
607.09	11.521
607.42	11.427
607.75	11.754
608.08	11.553
608.42	11.688
608.75	11.006
609.08	11.055
609.41	11.612
609.75	11.638
610.08	11.111
610.41	11.603
610.74	12.437
611.07	11.634
611.41	11.563
611.74	11.861
612.07	11.272
612.40	12.312
612.73	12.326
613.07	11.098
613.40	12.076
613.73	11.512
614.06	10.890
614.39	12.947
614.72	11.511
615.06	12.687
615.39	11.836
615.72	12.094
616.05	11.768
616.38	11.862
616.71	11.194
617.05	11.809
617.38	11.871
617.71	12.541
618.04	12.812
618.37	12.165
618.70	11.753
619.03	13.198
619.36	12.666
619.69	11.509
620.03	13.120
620.36	11.111
620.69	12.121
621.02	11.639
621.35	13.106
621.68	12.421
622.01	11.408
622.34	12.479
622.67	11.889
623.00	13.022
623.33	12.441
623.66	13.227
623.99	12.201
624.32	11.835
624.65	12.266
624.99	12.109
625.32	11.611
625.65	12.890
625.98	13.250
626.31	13.333
626.64	12.883
626.97	13.235
627.30	13.426
627.63	12.837
627.96	12.663
628.29	13.671
628.62	14.536
628.95	13.094
629.28	12.913
629.61	14.002
629.94	13.278
630.26	14.749
630.59	14.450
630.92	13.593
631.25	12.514
631.58	13.953
631.91	12.642
632.24	15.266
632.57	14.507
632.90	16.359
633.23	14.581
633.56	12.956
633.89	13.588
634.22	14.744
634.55	15.506
634.88	14.190
635.20	13.562
635.53	15.223
635.86	17.120
636.19	13.097
636.52	15.903
636.85	11.604
637.18	16.192
637.51	14.363
637.83	14.385
638.16	16.216
638.49	14.121
638.82	14.065
639.15	15.571
639.48	13.828
639.81	14.158
640.13	13.017
640.46	16.378
640.79	14.419
641.12	14.729
641.45	14.619
641.77	12.420
642.10	16.612
642.43	17.003
642.76	13.620
643.09	14.533
643.41	14.875
643.74	12.500
644.07	14.815
644.40	14.260
644.73	16.759
645.05	13.550
645.38	15.769
645.71	15.267
646.04	17.658
646.36	14.962
646.69	15.474
647.02	18.164
647.35	18.400
647.67	18.437
648.00	18.447
648.33	14.451
648.66	13.173
648.98	15.424
649.31	16.867
649.64	14.802
649.96	14.865
650.29	11.681
650.62	15.955
650.94	17.560
651.27	15.029
651.60	14.914
651.92	14.885
652.25	12.811
652.58	15.440
652.90	15.302
653.23	14.260
653.56	15.104
653.88	14.781
654.21	11.909
654.54	12.383
654.86	16.007
655.19	14.355
655.52	13.029
655.84	10.519
656.17	10.151
656.49	13.767
656.82	15.623
657.15	12.179
657.47	9.331
657.80	7.035
658.13	5.939
658.45	9.765
658.78	9.710
659.10	9.462
659.43	9.418
659.75	8.912
660.08	9.502
660.41	10.365
660.73	12.742
661.06	10.727
661.38	14.315
661.71	15.098
662.03	13.426
662.36	12.172
662.68	10.791
663.01	16.346
663.33	13.679
663.66	15.789
663.98	17.115
664.31	14.878
664.63	15.138
664.96	15.202
665.28	17.258
665.61	17.523
665.93	14.516
666.26	15.673
666.58	15.138
666.91	19.672
667.23	13.547
667.56	15.802
667.88	14.536
668.21	14.467
668.53	14.467
668.86	12.500
669.18	15.736
669.50	15.167
669.83	15.000
670.15	15.000
670.48	13.283
670.80	17.005
671.13	17.108
671.45	14.286
671.77	16.425
672.10	12.308
672.42	14.343
672.75	12.816
673.07	13.458
673.39	15.953
673.72	11.157
674.04	13.191
674.37	12.933
674.69	12.850
675.01	15.581
675.34	13.971
675.66	13.810
675.98	12.626
676.31	13.602
676.63	10.567
676.95	13.429
677.28	11.139
677.60	15.539
677.92	13.784
678.25	10.673
678.57	13.457
678.89	11.697
679.22	16.972
679.54	10.022
679.86	14.989
680.18	10.042
680.51	11.910
680.83	12.917
681.15	15.904
681.48	13.404
681.80	14.130
682.12	16.060
682.44	11.422
682.77	14.545
683.09	12.745
683.41	14.035
683.73	12.814
684.06	12.944
684.38	10.791
684.70	13.857
685.02	12.554
685.34	10.251
685.67	12.648
685.99	12.774
686.31	12.873
686.63	10.291
686.96	12.195
687.28	14.784
687.60	12.936
687.92	11.181
688.24	15.368
688.56	12.308
688.89	15.525
689.21	8.605
689.53	12.788
689.85	12.405
690.17	11.275
690.49	11.059
690.82	12.285
691.14	15.144
691.46	13.000
691.78	14.354
692.10	14.679
692.42	13.303
692.74	13.507
693.06	12.771
693.39	11.330
693.71	10.465
694.03	10.628
694.35	9.158
694.67	14.504
694.99	12.399
695.31	11.331
695.63	13.243
695.95	14.888
696.27	13.881
696.59	10.386
696.91	11.396
697.23	12.894
697.56	10.622
697.88	12.646
698.20	11.138
698.52	11.779
698.84	13.534
699.16	9.235
699.48	12.042
699.80	10.989
700.12	11.846
700.44	8.555
700.76	14.196
701.08	8.571
701.40	13.158
701.72	16.667
702.04	14.626
702.36	13.115
702.68	16.107
703.00	11.987
703.32	8.383
703.64	12.303
703.96	11.076
704.28	5.986
704.60	12.671
704.91	9.539
705.23	10.877
705.55	12.639
705.87	10.432
706.19	6.375
706.51	7.812
706.83	13.919
707.15	14.576
707.47	14.371
707.79	8.596
708.11	12.434
708.43	11.467
708.74	10.383
709.06	9.816
709.38	12.166
709.70	10.714
710.02	10.490
710.34	6.738
710.66	13.483
710.98	11.888
711.29	13.058
711.61	13.475
711.93	11.610
712.25	8.679
712.57	10.156
712.89	7.347
713.20	11.290
713.52	6.504
713.84	10.584
714.16	11.824
714.48	12.969
714.80	10.438
715.11	11.340
715.43	12.287
715.75	9.825
716.07	10.182
716.39	12.969
716.70	9.600
717.02	9.677
717.34	12.121
717.66	6.818
717.97	6.019
718.29	7.556
718.61	7.658
718.93	6.303
719.24	11.297
719.56	6.250
719.88	6.667
720.20	7.265
720.51	10.526
720.83	10.460
721.15	11.020
721.46	11.814
721.78	7.792
722.10	14.341
722.42	13.043
722.73	4.525
723.05	10.138
723.37	12.670
723.68	10.900
724.00	6.019
724.32	12.617
724.63	11.765
724.95	10.502
725.27	10.329
725.58	6.849
725.90	6.306
726.22	5.677
726.53	6.967
726.85	8.889
727.16	9.717
727.48	13.306
727.80	11.416
728.11	11.111
728.43	15.226
728.74	12.281
729.06	9.607
729.38	13.566
729.69	10.400
730.01	8.787
730.32	7.968
730.64	10.000
730.96	9.653
731.27	9.266
731.59	9.764
731.90	6.250
732.22	9.302
732.53	9.825
732.85	6.338
733.16	13.919
733.48	4.478
733.80	10.909
734.11	8.865
734.43	11.191
734.74	8.411
735.06	8.682
735.37	7.348
735.69	3.169
736.00	7.037
736.32	9.441
736.63	10.741
736.95	7.782
737.26	5.797
737.58	4.745
737.89	6.415
738.21	7.634
738.52	13.934
738.83	9.402
739.15	10.000
739.46	2.252
739.78	5.792
740.09	5.952
740.41	6.439
740.72	4.781
741.04	7.905
741.35	10.314
741.66	12.903
741.98	1.020
742.29	8.808
742.61	-3.468
742.92	5.392
743.23	9.453
743.55	7.772
743.86	4.348
744.18	6.500
744.49	7.222
744.80	10.215
745.12	6.667
745.43	3.743
745.74	3.743
746.06	12.069
746.37	2.222
746.68	10.270
747.00	-1.657
747.31	11.518
747.62	6.316
747.94	9.906
748.25	11.823
748.56	10.606
748.88	10.929
749.19	7.254
749.50	10.000
749.82	7.000
750.13	8.738
750.44	6.438
750.75	7.600
751.07	0.418
751.38	5.859
751.69	9.921
752.01	5.462
752.32	11.570
752.63	4.367
752.94	8.800
753.26	3.196
753.57	10.427
753.88	2.326
754.19	9.692
754.51	9.623
754.82	2.500
755.13	7.522
755.44	6.926
755.75	6.024
756.07	8.155
756.38	6.695
756.69	10.189
757.00	10.993
757.31	11.765
757.63	10.784
757.94	5.455
758.25	11.607
758.56	7.027
758.87	8.929
759.18	12.773
759.50	7.117
759.81	10.425
760.12	7.473
760.43	11.296
760.74	5.389
761.05	8.333
761.36	11.276
761.67	9.422
761.99	5.351
762.30	7.636
762.61	8.537
762.92	4.889
763.23	10.698
763.54	9.137
763.85	7.692
764.16	4.348
764.47	6.087
764.78	7.258
765.10	6.299
765.41	7.023
765.72	9.699
766.03	6.689
766.34	4.167
766.65	10.547
766.96	6.667
767.27	4.469
767.58	15.723
767.89	5.844
768.20	1.351
768.51	8.046
768.82	1.875
769.13	10.648
769.44	4.717
769.75	0.980
770.06	2.427
770.37	3.191
770.68	2.051
770.99	5.076
771.30	6.701
771.61	0.000
771.92	3.302
772.23	5.769
772.54	-0.588
772.85	-2.740
773.16	1.290
773.47	5.732
773.78	9.581
774.09	-4.605
774.39	2.206
774.70	1.504
775.01	10.769
775.32	-7.143
775.63	10.236
775.94	-7.547
776.25	4.444
776.56	4.545
776.87	9.402
777.18	0.000
777.48	-7.692
777.79	2.778
778.10	-2.830
778.41	1.961
778.72	2.830
779.03	0.000
779.34	1.681
779.65	0.000
779.95	9.353
780.26	-3.226
780.57	1.449
780.88	-0.917
781.19	-4.630
781.50	-4.918
781.80	0.730
782.11	2.564
782.42	1.379
782.73	6.993
783.04	-0.800
783.34	1.600
783.65	3.252
783.96	-6.557
784.27	-5.882
784.57	-13.084
784.88	-14.286
785.19	3.093
785.50	-8.421
785.81	0.000
786.11	-3.960
786.42	-20.000
786.73	-1.042
787.04	-4.082
787.34	3.704
787.65	8.491
787.96	-6.186
788.26	-5.941
788.57	1.739
788.88	-24.771
789.19	0.000
789.49	0.000
789.80	1.724
790.11	-24.390
790.41	0.000
790.72	-9.302
791.03	1.163
791.33	-16.883
791.64	2.439
791.95	-14.634
792.25	-24.096
792.56	-12.346
792.87	-15.493
793.17	3.614
793.48	-10.588
793.79	-7.500
794.09	-28.333
794.40	6.522
794.70	-1.739
795.01	-7.339
795.32	-7.087
795.62	4.902
795.93	3.922
796.23	0.000
796.54	-11.628
796.85	-2.899
797.15	-20.312
797.46	-23.729
797.76	-3.279
798.07	-11.842
798.37	-16.129
798.68	-20.312
798.99	-3.077
799.29	-19.697
799.60	-24.638
799.90	-2.857
800.21	-17.544
800.51	-3.448
800.82	-13.208
801.12	-7.843
801.43	-24.194
801.73	-1.613
802.04	-8.000
802.34	-3.774
802.65	-36.842
802.95	-18.182
803.26	-7.547
803.56	-14.754
803.87	-16.000
804.17	-24.074
804.48	-15.385
804.78	-40.816
805.09	-23.404
805.39	-6.780
805.70	-41.667
806.00	-26.786
806.30	-8.475
806.61	-12.308
806.91	-6.154
807.22	-11.842
807.52	-15.714
807.83	-13.793
808.13	12.658
808.43	-22.951
808.74	3.279
809.04	-4.054
809.35	5.556
809.65	-23.214
809.95	8.475
810.26	-46.939
810.56	-16.981
810.86	-9.804
811.17	-27.027
811.47	-48.148
811.77	-15.686
812.08	-36.364
812.38	-54.167
812.69	-15.385
812.99	-9.524
813.29	23.913
813.59	-34.286
813.90	-26.190
814.20	-20.000
814.50	-10.204
814.81	-43.137
815.11	-43.750
815.41	-17.073
815.72	-61.538
816.02	-12.766
816.32	-3.125
816.62	-30.303
816.93	-54.545
817.23	-48.649
817.53	-55.882
817.84	0.000
818.14	-38.235
818.44	-46.875
818.74	-138.095
819.04	-34.286
819.35	-14.286
819.65	-9.091
819.95	-12.821
820.25	-66.667
820.56	-55.172
820.86	-46.429
821.16	-65.217
821.46	-9.524
821.76	-5.556
822.07	-73.913
822.37	-38.776
822.67	-27.907
822.97	-91.304
823.27	-73.077
823.57	-59.259
823.88	-67.857
824.18	-23.077
824.48	-35.714
824.78	-27.273
825.08	-120.000
825.38	-17.500
825.69	-77.778
825.99	-29.630
826.29	2.222
826.59	-44.444
826.89	-70.370
827.19	-92.857
827.49	-54.545
827.79	-63.636
828.09	-63.636
828.39	-143.478
828.70	-92.593
829.00	-71.429
829.30	-19.048
829.60	-41.935
829.90	-61.538
830.20	-15.385
830.50	-118.182
830.80	-71.429
831.10	-100.000
831.40	-200.000
831.70	-48.148
832.00	-100.000
832.30	-30.435
832.60	-62.500
832.90	-190.909
833.20	-111.111
833.50	-40.625
833.80	-42.308
834.10	20.000
834.40	-87.500
834.70	-59.091
835.00	-73.077
835.30	-95.000
835.60	-210.000
835.90	-45.000
836.20	-142.857
836.50	-91.304
836.80	-127.778
837.10	-126.667
837.40	-150.000
837.70	-39.130
838.00	-135.714
838.30	2000.000
838.60	-24.000
838.90	-360.000
839.19	-200.000
839.49	-950.000
839.79	-64.706
840.09	-155.556
840.39	-28.571
840.69	-111.111
840.99	-83.333
841.29	-44.828
841.59	-93.333
841.88	-190.909
842.18	-516.667
842.48	-12.500
842.78	-26.923
843.08	-135.294
843.38	-70.000
843.68	-146.154
843.97	-164.706
844.27	-130.000
844.57	-33.333
844.87	-154.545
845.17	-100.000
845.47	-100.000
845.76	-5.556
846.06	-76.190
846.36	-100.000
846.66	-366.667
846.96	-115.000
847.25	-360.000
847.55	-362.500
847.85	-126.667
848.15	-375.000
848.44	-73.684
848.74	-80.000
849.04	-94.737
849.34	-433.333
849.63	-283.333
849.93	-76.471
850.23	-227.273
850.53	-633.333
850.82	-60.000
851.12	-311.111
851.42	-285.714
851.71	-420.000
852.01	-114.286
852.31	-400.000
852.61	-115.385
852.90	-420.000
853.20	-311.111
853.50	-288.889
853.79	-110.000
854.09	-85.000
854.39	-142.105
854.68	-55.000
854.98	-575.000
855.28	-55.556
855.57	-185.714
855.87	-115.789
856.17	-112.500
856.46	-46.154
856.76	-106.667
857.05	-125.000
857.35	12.500
857.65	-72.222
857.94	-137.500
858.24	0.000
858.53	-280.000
858.83	-166.667
859.13	-263.636
859.42	-120.000
859.72	316.667
860.01	-100.000
860.31	-260.000
860.60	-275.000
860.90	-550.000
861.20	-333.333
861.49	-425.000
861.79	1350.000
862.08	0.000
862.38	-110.526
862.67	-169.231
862.97	-300.000
863.26	-125.000
863.56	-43.478
863.85	-316.667
864.15	-114.286
864.44	-68.750
864.74	-258.333
865.03	-266.667
865.33	-466.667
865.62	-2300.000
865.92	-1050.000
866.21	-333.333
866.51	-109.091
866.80	-666.667
867.10	-342.857
867.39	-122.222
867.69	-133.333
867.98	320.000
868.27	-550.000
868.57	875.000
868.86	-93.333
869.16	-84.615
869.45	1250.000
869.75	-366.667
870.04	-291.667
870.33	-88.235
870.63	-271.429
870.92	4.348
871.22	-225.000
871.51	700.000
871.80	-100.000
872.10	-433.333
>>>>>End Processed Spectral Data<<<<<
