SpectraSuite Data File
++++++++++++++++++++++++++++++++++++
Date: Wed May 13 19:10:31 PDT 2015
User: schluterlab
Dark Spectrum Present: Yes
Reference Spectrum Present: Yes
Number of Sampled Component Spectra: 1
Spectrometers: USB2E3373
Integration Time (usec): 3000 (USB2E3373)
Spectra Averaged: 3 (USB2E3373)
Boxcar Smoothing: 0 (USB2E3373)
Correct for Electrical Dark: No (USB2E3373)
Strobe/Lamp Enabled: No (USB2E3373)
Correct for Detector Non-linearity: No (USB2E3373)
Correct for Stray Light: No (USB2E3373)
Number of Pixels in Processed Spectrum: 2048
>>>>>Begin Processed Spectral Data<<<<<
178.53	0.000
178.91	-1725.000
179.29	-1550.000
179.67	-233.333
180.04	-1500.000
180.42	2800.000
180.80	1180.000
181.18	-1075.000
181.56	671.429
181.94	0.000
182.31	-771.429
182.69	2066.667
183.07	-637.500
183.45	-666.667
183.83	581.818
184.20	-530.000
184.58	2700.000
184.96	6000.000
185.34	-1020.000
185.72	-775.000
186.09	-2850.000
186.47	2850.000
186.85	3000.000
187.23	6600.000
187.61	-1866.667
187.98	1300.000
188.36	545.455
188.74	563.636
189.12	-1180.000
189.49	650.000
189.87	-6200.000
190.25	-1525.000
190.63	464.286
191.00	469.231
191.38	1100.000
191.76	-1225.000
192.14	1475.000
192.51	762.500
192.89	1016.667
193.27	750.000
193.65	-1450.000
194.02	630.000
194.40	1240.000
194.78	640.000
195.15	541.667
195.53	680.000
195.91	-2750.000
196.29	475.000
196.66	352.632
197.04	-500.000
197.42	0.000
197.79	760.000
198.17	-5700.000
198.55	785.714
198.92	825.000
199.30	1100.000
199.68	0.000
200.05	388.889
200.43	1000.000
200.81	5300.000
201.18	1833.333
201.56	-1833.333
201.94	744.444
202.31	733.333
202.69	541.667
203.07	590.000
203.44	0.000
203.82	1375.000
204.19	871.429
204.57	507.143
204.95	762.500
205.32	1466.667
205.70	536.364
206.08	371.429
206.45	2700.000
206.83	418.750
207.20	933.333
207.58	1020.000
207.96	377.778
208.33	850.000
208.71	-833.333
209.08	728.571
209.46	711.111
209.84	545.455
210.21	-1866.667
210.59	1650.000
210.96	-512.500
211.34	3000.000
211.71	720.000
212.09	983.333
212.46	0.000
212.84	2133.333
213.22	1375.000
213.59	-5700.000
213.97	1016.667
214.34	1014.286
214.72	745.455
215.09	1240.000
215.47	-2950.000
215.84	-2750.000
216.22	1766.667
216.59	450.000
216.97	1625.000
217.34	545.455
217.72	-950.000
218.09	0.000
218.47	-6200.000
218.84	688.889
219.22	842.857
219.59	2000.000
219.97	-642.857
220.34	1080.000
220.72	-2433.333
221.09	478.571
221.47	1500.000
221.84	-1200.000
222.22	0.000
222.59	1350.000
222.97	-3000.000
223.34	1400.000
223.72	500.000
224.09	1240.000
224.46	2600.000
224.84	-5600.000
225.21	-1300.000
225.59	-5700.000
225.96	600.000
226.34	385.000
226.71	3000.000
227.08	650.000
227.46	680.000
227.83	-1350.000
228.21	-2300.000
228.58	688.889
228.95	-3000.000
229.33	-2850.000
229.70	1933.333
230.08	885.714
230.45	-1200.000
230.82	508.333
231.20	933.333
231.57	742.857
231.95	500.000
232.32	272.727
232.69	454.545
233.07	885.714
233.44	384.615
233.81	-1933.333
234.19	368.421
234.56	500.000
234.93	416.667
235.31	500.000
235.68	476.923
236.05	428.571
236.43	209.091
236.80	331.579
237.17	5500.000
237.55	266.667
237.92	225.000
238.29	247.619
238.67	219.355
239.04	244.828
239.41	155.556
239.79	136.957
240.16	171.429
240.53	154.545
240.91	113.725
241.28	134.000
241.65	122.000
242.02	118.841
242.40	95.161
242.77	123.333
243.14	84.946
243.51	83.146
243.89	83.529
244.26	64.444
244.63	73.118
245.00	71.277
245.38	70.297
245.75	63.551
246.12	65.138
246.49	59.854
246.87	70.400
247.24	63.846
247.61	63.571
247.98	51.634
248.36	51.351
248.73	50.955
249.10	42.675
249.47	51.977
249.84	48.128
250.22	46.524
250.59	44.970
250.96	52.020
251.33	39.336
251.70	47.030
252.08	37.143
252.45	40.807
252.82	36.957
253.19	39.574
253.56	36.471
253.94	42.324
254.31	37.891
254.68	35.385
255.05	36.162
255.42	39.431
255.79	32.353
256.16	38.267
256.54	30.389
256.91	37.011
257.28	34.173
257.65	34.323
258.02	34.783
258.39	31.546
258.76	34.783
259.14	33.929
259.51	32.523
259.88	30.435
260.25	32.024
260.62	29.769
260.99	29.193
261.36	30.330
261.73	30.372
262.10	28.488
262.47	31.831
262.85	26.741
263.22	28.205
263.59	30.199
263.96	30.769
264.33	28.460
264.70	28.947
265.07	29.412
265.44	28.788
265.81	27.251
266.18	29.397
266.55	27.317
266.92	25.799
267.29	31.250
267.66	26.376
268.03	27.500
268.40	27.804
268.77	26.730
269.14	23.423
269.51	27.314
269.88	27.739
270.25	26.185
270.62	26.292
270.99	26.452
271.36	26.824
271.73	27.570
272.10	26.957
272.47	28.602
272.84	27.273
273.21	27.044
273.58	24.454
273.95	23.061
274.32	26.860
274.69	25.054
275.06	23.031
275.43	27.021
275.80	24.850
276.17	24.033
276.54	25.780
276.91	25.494
277.28	23.633
277.65	26.499
278.02	25.466
278.39	26.953
278.76	24.000
279.13	24.528
279.50	23.836
279.87	24.502
280.23	26.747
280.60	23.598
280.97	23.105
281.34	24.779
281.71	24.909
282.08	24.568
282.45	24.182
282.82	23.623
283.19	22.460
283.56	22.456
283.92	23.012
284.29	21.869
284.66	23.230
285.03	22.966
285.40	23.592
285.77	21.212
286.14	21.934
286.51	23.500
286.87	21.026
287.24	23.290
287.61	21.990
287.98	23.539
288.35	22.029
288.72	21.807
289.08	21.440
289.45	22.405
289.82	20.976
290.19	20.722
290.56	21.593
290.93	19.184
291.29	20.859
291.66	19.322
292.03	19.767
292.40	20.705
292.77	20.266
293.13	19.552
293.50	20.117
293.87	21.481
294.24	18.815
294.60	17.904
294.97	19.767
295.34	20.028
295.71	17.756
296.08	18.946
296.44	18.294
296.81	18.494
297.18	20.190
297.55	15.963
297.91	17.942
298.28	19.411
298.65	18.407
299.02	19.499
299.38	17.663
299.75	15.229
300.12	16.986
300.48	16.500
300.85	16.893
301.22	17.580
301.59	16.793
301.95	18.010
302.32	16.303
302.69	16.368
303.05	17.455
303.42	16.914
303.79	15.289
304.15	16.434
304.52	15.991
304.89	16.260
305.25	16.937
305.62	16.648
305.99	17.355
306.35	17.226
306.72	16.592
307.09	17.536
307.45	17.905
307.82	14.955
308.19	16.336
308.55	17.260
308.92	17.401
309.29	16.473
309.65	14.104
310.02	15.116
310.38	16.452
310.75	16.579
311.12	16.581
311.48	17.032
311.85	16.247
312.22	15.817
312.58	16.112
312.95	16.473
313.31	15.340
313.68	17.360
314.05	18.047
314.41	16.482
314.78	17.422
315.14	16.485
315.51	18.332
315.87	17.129
316.24	17.378
316.61	16.374
316.97	16.536
317.34	16.732
317.70	17.782
318.07	18.094
318.43	17.515
318.80	17.994
319.16	18.550
319.53	17.167
319.89	18.857
320.26	19.600
320.62	18.750
320.99	18.889
321.35	19.192
321.72	20.842
322.08	20.336
322.45	20.995
322.81	21.318
323.18	22.254
323.54	20.037
323.91	21.415
324.27	20.746
324.64	21.622
325.00	20.379
325.37	21.747
325.73	23.070
326.10	22.771
326.46	22.581
326.83	24.072
327.19	22.459
327.56	23.693
327.92	23.797
328.29	25.022
328.65	25.691
329.01	24.368
329.38	25.069
329.74	24.838
330.11	25.636
330.47	26.538
330.84	27.206
331.20	25.865
331.56	26.330
331.93	27.130
332.29	25.288
332.66	25.841
333.02	27.239
333.38	27.100
333.75	27.005
334.11	28.292
334.48	26.886
334.84	26.746
335.20	27.273
335.57	27.289
335.93	25.982
336.29	27.198
336.66	27.592
337.02	26.878
337.38	27.963
337.75	27.184
338.11	27.574
338.47	27.532
338.84	27.589
339.20	26.789
339.56	28.011
339.93	26.727
340.29	26.359
340.65	27.005
341.02	28.534
341.38	27.669
341.74	27.544
342.11	27.336
342.47	27.577
342.83	27.312
343.20	28.658
343.56	27.296
343.92	27.456
344.28	27.976
344.65	28.289
345.01	26.347
345.37	25.300
345.73	27.411
346.10	28.303
346.46	27.373
346.82	27.018
347.19	25.731
347.55	26.519
347.91	27.023
348.27	28.184
348.63	27.676
349.00	26.214
349.36	27.504
349.72	26.303
350.08	26.661
350.45	27.665
350.81	27.620
351.17	28.444
351.53	27.928
351.89	27.393
352.26	28.256
352.62	27.265
352.98	26.823
353.34	27.691
353.70	27.087
354.07	27.823
354.43	27.460
354.79	26.388
355.15	27.055
355.51	27.738
355.87	27.755
356.24	26.710
356.60	26.544
356.96	28.319
357.32	27.637
357.68	29.055
358.04	28.266
358.40	27.237
358.77	28.091
359.13	27.072
359.49	28.314
359.85	26.270
360.21	26.794
360.57	27.704
360.93	27.308
361.29	27.211
361.66	27.941
362.02	27.313
362.38	28.289
362.74	27.902
363.10	27.461
363.46	26.779
363.82	28.571
364.18	27.900
364.54	28.158
364.90	28.187
365.26	27.868
365.62	28.123
365.98	27.611
366.35	27.436
366.71	29.935
367.07	28.405
367.43	29.173
367.79	28.908
368.15	29.885
368.51	28.125
368.87	29.051
369.23	29.042
369.59	28.675
369.95	29.338
370.31	28.775
370.67	28.406
371.03	30.187
371.39	30.175
371.75	28.603
372.11	29.659
372.47	30.279
372.83	29.827
373.19	30.202
373.55	30.599
373.91	30.854
374.27	28.660
374.63	29.527
374.99	30.014
375.35	28.332
375.71	30.021
376.07	30.247
376.42	30.674
376.78	29.887
377.14	30.733
377.50	30.132
377.86	29.588
378.22	30.025
378.58	28.258
378.94	29.730
379.30	29.962
379.66	32.297
380.02	30.467
380.38	29.812
380.74	30.852
381.09	29.951
381.45	31.592
381.81	30.713
382.17	31.338
382.53	31.572
382.89	32.407
383.25	31.082
383.61	32.838
383.97	31.520
384.32	30.630
384.68	31.351
385.04	31.899
385.40	31.331
385.76	32.002
386.12	32.124
386.48	32.914
386.83	32.777
387.19	33.271
387.55	32.468
387.91	32.285
388.27	32.066
388.62	34.050
388.98	32.985
389.34	33.229
389.70	32.434
390.06	34.221
390.42	33.658
390.77	33.142
391.13	33.312
391.49	32.868
391.85	33.482
392.20	32.618
392.56	33.902
392.92	33.667
393.28	33.018
393.64	32.494
393.99	33.720
394.35	33.747
394.71	34.003
395.07	33.146
395.42	33.560
395.78	34.351
396.14	34.078
396.50	34.524
396.85	35.283
397.21	34.587
397.57	34.966
397.92	35.757
398.28	34.249
398.64	33.751
399.00	33.800
399.35	35.025
399.71	34.606
400.07	34.240
400.42	35.153
400.78	35.947
401.14	34.146
401.49	36.239
401.85	35.330
402.21	35.150
402.57	35.965
402.92	35.939
403.28	36.665
403.63	36.324
403.99	35.796
404.35	35.212
404.70	36.691
405.06	35.760
405.42	36.307
405.77	35.086
406.13	36.343
406.49	36.428
406.84	36.326
407.20	34.515
407.55	36.694
407.91	37.733
408.27	37.779
408.62	37.327
408.98	36.581
409.34	37.454
409.69	37.677
410.05	37.856
410.40	37.003
410.76	37.157
411.11	37.575
411.47	36.486
411.83	37.508
412.18	37.848
412.54	38.667
412.89	37.410
413.25	38.371
413.60	37.925
413.96	36.612
414.31	37.789
414.67	38.403
415.03	38.808
415.38	37.822
415.74	38.778
416.09	39.125
416.45	39.224
416.80	38.797
417.16	40.617
417.51	40.345
417.87	38.793
418.22	39.117
418.58	39.380
418.93	41.032
419.29	40.165
419.64	39.421
420.00	40.610
420.35	40.116
420.71	40.227
421.06	39.976
421.42	41.696
421.77	39.966
422.12	40.483
422.48	39.935
422.83	41.642
423.19	40.497
423.54	40.685
423.90	41.913
424.25	40.536
424.61	40.595
424.96	41.749
425.31	41.362
425.67	40.506
426.02	41.657
426.38	42.430
426.73	42.774
427.09	42.128
427.44	42.783
427.79	42.208
428.15	42.738
428.50	43.008
428.85	43.385
429.21	42.242
429.56	42.768
429.92	42.275
430.27	42.453
430.62	41.987
430.98	42.657
431.33	42.990
431.68	43.770
432.04	42.545
432.39	44.489
432.74	43.686
433.10	43.973
433.45	45.190
433.80	45.233
434.16	43.750
434.51	44.737
434.86	44.527
435.22	44.636
435.57	45.897
435.92	44.880
436.28	46.085
436.63	46.247
436.98	46.308
437.34	46.452
437.69	46.266
438.04	46.037
438.39	46.985
438.75	47.240
439.10	48.101
439.45	47.285
439.81	47.432
440.16	46.471
440.51	47.393
440.86	48.234
441.22	47.386
441.57	47.611
441.92	49.437
442.27	49.031
442.63	48.131
442.98	49.408
443.33	48.587
443.68	49.355
444.03	48.463
444.39	48.101
444.74	49.459
445.09	48.086
445.44	49.262
445.79	49.530
446.15	49.285
446.50	49.919
446.85	49.640
447.20	50.229
447.55	50.754
447.91	51.131
448.26	50.139
448.61	52.176
448.96	52.935
449.31	52.193
449.66	51.773
450.02	51.031
450.37	51.644
450.72	51.777
451.07	53.077
451.42	50.152
451.77	51.850
452.12	51.155
452.47	52.301
452.83	53.089
453.18	52.139
453.53	52.938
453.88	52.215
454.23	52.122
454.58	54.391
454.93	55.118
455.28	51.995
455.63	53.519
455.98	54.762
456.34	53.769
456.69	53.726
457.04	53.684
457.39	53.010
457.74	52.873
458.09	53.537
458.44	53.364
458.79	51.844
459.14	52.991
459.49	54.232
459.84	52.299
460.19	53.153
460.54	53.183
460.89	54.690
461.24	53.491
461.59	55.549
461.94	53.391
462.29	54.184
462.64	53.989
462.99	54.782
463.34	55.133
463.69	54.472
464.04	53.971
464.39	52.928
464.74	53.832
465.09	53.920
465.44	52.742
465.79	52.964
466.14	52.436
466.49	53.615
466.84	54.758
467.19	55.039
467.54	55.938
467.89	53.962
468.24	54.159
468.59	55.311
468.94	54.612
469.29	56.298
469.64	56.961
469.99	56.089
470.34	56.275
470.68	56.322
471.03	55.374
471.38	57.331
471.73	56.562
472.08	57.171
472.43	55.025
472.78	56.550
473.13	56.226
473.48	56.367
473.83	55.976
474.17	54.947
474.52	57.196
474.87	55.458
475.22	55.833
475.57	55.454
475.92	55.072
476.27	55.130
476.61	55.212
476.96	55.965
477.31	55.259
477.66	55.963
478.01	55.044
478.36	55.420
478.70	54.881
479.05	56.177
479.40	56.244
479.75	55.313
480.10	55.219
480.45	54.355
480.79	55.518
481.14	55.577
481.49	56.004
481.84	55.373
482.19	55.020
482.53	54.633
482.88	56.259
483.23	55.794
483.58	56.551
483.92	55.951
484.27	54.074
484.62	55.302
484.97	54.671
485.31	54.863
485.66	52.139
486.01	49.742
486.36	48.711
486.70	47.859
487.05	49.233
487.40	50.102
487.75	51.752
488.09	52.684
488.44	52.602
488.79	55.009
489.13	54.507
489.48	54.894
489.83	54.985
490.17	56.905
490.52	55.757
490.87	55.179
491.22	55.980
491.56	55.444
491.91	55.747
492.26	54.433
492.60	55.484
492.95	55.706
493.30	54.766
493.64	56.136
493.99	56.453
494.34	55.319
494.68	55.586
495.03	56.250
495.37	55.514
495.72	56.676
496.07	57.030
496.41	55.752
496.76	54.793
497.11	55.200
497.45	55.939
497.80	55.614
498.14	56.377
498.49	55.854
498.84	55.369
499.18	57.095
499.53	56.363
499.87	55.033
500.22	55.770
500.56	56.893
500.91	55.577
501.26	55.714
501.60	56.526
501.95	55.225
502.29	57.216
502.64	56.704
502.98	56.335
503.33	55.530
503.67	55.824
504.02	56.735
504.36	55.732
504.71	56.961
505.06	56.819
505.40	57.268
505.75	55.834
506.09	56.414
506.44	57.326
506.78	55.723
507.13	57.799
507.47	57.576
507.82	59.220
508.16	58.409
508.51	58.447
508.85	57.200
509.19	57.959
509.54	58.316
509.88	58.114
510.23	58.355
510.57	59.340
510.92	59.555
511.26	58.736
511.61	57.417
511.95	58.820
512.30	57.900
512.64	59.538
512.98	59.432
513.33	59.690
513.67	58.378
514.02	59.848
514.36	59.640
514.70	59.657
515.05	61.182
515.39	60.179
515.74	60.473
516.08	61.375
516.42	61.154
516.77	61.260
517.11	60.710
517.46	60.384
517.80	63.182
518.14	61.204
518.49	62.135
518.83	61.591
519.17	61.663
519.52	61.007
519.86	61.380
520.20	62.543
520.55	63.734
520.89	63.504
521.23	63.932
521.58	64.526
521.92	64.115
522.26	63.148
522.61	63.988
522.95	62.861
523.29	63.360
523.64	64.817
523.98	65.065
524.32	63.329
524.66	63.620
525.01	63.909
525.35	63.755
525.69	61.946
526.04	64.112
526.38	62.538
526.72	63.804
527.06	65.662
527.41	62.748
527.75	64.051
528.09	64.804
528.43	65.073
528.78	64.044
529.12	63.576
529.46	63.870
529.80	63.985
530.15	63.801
530.49	62.523
530.83	63.608
531.17	64.948
531.51	63.943
531.86	64.645
532.20	65.124
532.54	64.318
532.88	63.671
533.22	63.773
533.57	63.827
533.91	62.613
534.25	62.394
534.59	63.209
534.93	62.463
535.27	62.643
535.62	62.271
535.96	63.591
536.30	63.764
536.64	64.327
536.98	65.163
537.32	64.845
537.66	65.467
538.01	65.372
538.35	63.930
538.69	64.710
539.03	63.418
539.37	61.789
539.71	63.124
540.05	63.987
540.39	65.980
540.73	62.160
541.07	64.633
541.42	65.558
541.76	63.290
542.10	63.648
542.44	64.967
542.78	63.570
543.12	62.572
543.46	62.951
543.80	65.062
544.14	62.452
544.48	64.381
544.82	64.208
545.16	64.671
545.50	63.175
545.84	65.121
546.18	64.781
546.52	65.451
546.86	64.536
547.20	63.722
547.54	64.796
547.88	64.860
548.22	62.329
548.56	63.019
548.90	62.804
549.24	64.916
549.58	64.325
549.92	65.659
550.26	66.477
550.60	65.698
550.94	65.563
551.28	65.252
551.62	65.636
551.96	64.561
552.30	64.915
552.64	64.773
552.98	67.051
553.32	64.059
553.66	66.053
554.00	66.026
554.34	65.493
554.68	67.525
555.02	65.726
555.36	65.762
555.69	63.735
556.03	65.612
556.37	64.734
556.71	63.711
557.05	66.176
557.39	65.920
557.73	65.138
558.07	66.788
558.41	67.294
558.75	66.201
559.08	66.145
559.42	67.574
559.76	65.882
560.10	64.811
560.44	64.780
560.78	64.471
561.12	64.182
561.45	65.711
561.79	64.997
562.13	64.453
562.47	64.617
562.81	66.109
563.15	64.682
563.48	63.727
563.82	65.232
564.16	63.571
564.50	64.909
564.84	63.085
565.17	63.964
565.51	65.176
565.85	63.135
566.19	62.805
566.52	64.155
566.86	62.206
567.20	62.972
567.54	61.701
567.88	60.565
568.21	61.640
568.55	59.656
568.89	60.068
569.23	57.620
569.56	56.599
569.90	56.075
570.24	55.041
570.57	54.981
570.91	54.072
571.25	54.385
571.59	53.844
571.92	54.810
572.26	54.275
572.60	54.505
572.93	54.063
573.27	54.540
573.61	53.518
573.95	53.256
574.28	52.563
574.62	53.158
574.96	52.043
575.29	52.619
575.63	52.439
575.97	52.590
576.30	53.293
576.64	52.717
576.98	52.552
577.31	52.010
577.65	52.269
577.98	51.649
578.32	51.033
578.66	51.363
578.99	52.431
579.33	52.481
579.67	52.055
580.00	52.865
580.34	52.682
580.67	51.619
581.01	52.665
581.35	52.076
581.68	51.162
582.02	50.411
582.35	50.922
582.69	51.507
583.02	51.664
583.36	52.940
583.70	52.198
584.03	53.344
584.37	53.465
584.70	53.683
585.04	52.617
585.37	52.586
585.71	52.937
586.04	53.225
586.38	53.657
586.72	54.239
587.05	52.893
587.39	53.087
587.72	53.826
588.06	53.362
588.39	54.102
588.73	54.679
589.06	54.160
589.40	55.758
589.73	56.177
590.07	55.872
590.40	56.083
590.73	57.845
591.07	57.428
591.40	57.613
591.74	58.874
592.07	58.333
592.41	57.296
592.74	55.730
593.08	55.396
593.41	55.615
593.75	54.403
594.08	55.649
594.41	55.779
594.75	56.414
595.08	55.476
595.42	55.797
595.75	55.876
596.09	56.403
596.42	57.132
596.75	57.577
597.09	58.182
597.42	56.450
597.75	56.749
598.09	56.739
598.42	57.302
598.76	56.830
599.09	56.176
599.42	55.167
599.76	56.113
600.09	55.337
600.42	55.551
600.76	55.107
601.09	55.446
601.42	56.887
601.76	56.888
602.09	56.206
602.42	56.529
602.76	57.275
603.09	56.766
603.42	57.478
603.76	56.059
604.09	56.262
604.42	56.584
604.76	57.191
605.09	57.798
605.42	57.631
605.75	57.036
606.09	56.446
606.42	57.131
606.75	56.740
607.09	56.676
607.42	56.440
607.75	56.118
608.08	56.752
608.42	58.718
608.75	57.214
609.08	57.863
609.41	57.592
609.75	57.694
610.08	59.472
610.41	57.309
610.74	58.515
611.07	59.042
611.41	58.832
611.74	58.673
612.07	59.938
612.40	59.811
612.73	60.211
613.07	60.506
613.40	60.137
613.73	58.311
614.06	59.032
614.39	57.630
614.72	58.474
615.06	58.718
615.39	58.493
615.72	57.669
616.05	57.735
616.38	60.033
616.71	61.283
617.05	61.366
617.38	60.914
617.71	61.742
618.04	60.517
618.37	60.615
618.70	61.605
619.03	62.303
619.36	62.797
619.69	63.451
620.03	63.599
620.36	61.832
620.69	62.260
621.02	63.791
621.35	64.996
621.68	63.551
622.01	65.789
622.34	62.784
622.67	64.563
623.00	62.876
623.33	63.474
623.66	63.688
623.99	64.065
624.32	62.197
624.65	63.983
624.99	61.827
625.32	61.622
625.65	64.989
625.98	65.796
626.31	63.297
626.64	65.959
626.97	65.919
627.30	66.999
627.63	66.694
627.96	65.601
628.29	67.542
628.62	67.155
628.95	70.189
629.28	66.971
629.61	67.094
629.94	69.905
630.26	68.065
630.59	69.304
630.92	67.816
631.25	68.411
631.58	68.569
631.91	68.763
632.24	70.464
632.57	69.360
632.90	70.724
633.23	71.924
633.56	72.994
633.89	71.461
634.22	71.964
634.55	73.846
634.88	72.096
635.20	72.999
635.53	70.602
635.86	74.505
636.19	69.765
636.52	70.588
636.85	73.081
637.18	70.276
637.51	73.404
637.83	69.420
638.16	74.169
638.49	72.166
638.82	74.463
639.15	72.750
639.48	71.322
639.81	76.408
640.13	75.130
640.46	73.826
640.79	72.919
641.12	73.040
641.45	76.536
641.77	76.878
642.10	76.316
642.43	75.976
642.76	77.090
643.09	76.380
643.41	74.659
643.74	78.858
644.07	76.372
644.40	78.067
644.73	80.000
645.05	77.655
645.38	76.303
645.71	76.812
646.04	80.233
646.36	79.466
646.69	80.602
647.02	76.871
647.35	81.787
647.67	82.832
648.00	76.585
648.33	78.053
648.66	73.636
648.98	76.612
649.31	73.543
649.64	74.738
649.96	74.814
650.29	75.829
650.62	77.832
650.94	75.851
651.27	78.885
651.60	78.369
651.92	74.121
652.25	75.896
652.58	75.389
652.90	74.250
653.23	72.419
653.56	75.118
653.88	73.534
654.21	74.408
654.54	73.597
654.86	72.741
655.19	66.622
655.52	47.579
655.84	40.387
656.17	51.015
656.49	69.113
656.82	70.752
657.15	53.791
657.47	39.842
657.80	30.783
658.13	32.820
658.45	48.062
658.78	48.517
659.10	50.502
659.43	53.438
659.75	56.766
660.08	61.519
660.41	69.088
660.73	73.571
661.06	74.522
661.38	78.182
661.71	79.423
662.03	80.671
662.36	74.751
662.68	79.518
663.01	81.212
663.33	82.166
663.66	81.933
663.98	82.721
664.31	81.303
664.63	75.101
664.96	77.867
665.28	81.557
665.61	76.023
665.93	75.050
666.26	79.310
666.58	78.870
666.91	78.647
667.23	84.944
667.56	80.346
667.88	78.419
668.21	79.318
668.53	80.260
668.86	80.303
669.18	82.729
669.50	78.913
669.83	82.571
670.15	83.111
670.48	79.739
670.80	82.759
671.13	81.316
671.45	77.234
671.77	78.411
672.10	75.601
672.42	74.028
672.75	71.642
673.07	73.063
673.39	75.588
673.72	76.172
674.04	75.882
674.37	78.058
674.69	76.483
675.01	76.987
675.34	75.565
675.66	81.053
675.98	78.615
676.31	78.992
676.63	78.344
676.95	75.681
677.28	78.738
677.60	79.780
677.92	78.270
678.25	75.975
678.57	73.506
678.89	77.756
679.22	74.656
679.54	73.282
679.86	71.376
680.18	70.841
680.51	73.404
680.83	71.174
681.15	71.887
681.48	75.236
681.80	69.632
682.12	73.180
682.44	70.793
682.77	74.745
683.09	74.464
683.41	77.384
683.73	76.380
684.06	73.760
684.38	70.254
684.70	73.837
685.02	73.358
685.34	69.780
685.67	66.608
685.99	66.151
686.31	68.771
686.63	67.668
686.96	69.821
687.28	67.148
687.60	67.210
687.92	70.201
688.24	69.202
688.56	72.490
688.89	71.784
689.21	75.764
689.53	69.311
689.85	76.497
690.17	70.807
690.49	74.522
690.82	78.738
691.14	73.437
691.46	70.253
691.78	71.084
692.10	76.860
692.42	72.854
692.74	70.747
693.06	69.574
693.39	71.047
693.71	72.926
694.03	73.474
694.35	69.913
694.67	72.311
694.99	78.537
695.31	75.980
695.63	74.880
695.95	77.751
696.27	73.350
696.59	74.352
696.91	75.907
697.23	71.127
697.56	68.657
697.88	68.712
698.20	69.167
698.52	67.527
698.84	70.156
699.16	73.041
699.48	74.584
699.80	71.256
700.12	80.260
700.44	77.188
700.76	82.320
701.08	77.586
701.40	79.330
701.72	78.426
702.04	81.818
702.36	74.788
702.68	77.904
703.00	77.285
703.32	73.670
703.64	74.531
703.96	76.045
704.28	75.872
704.60	76.246
704.91	77.448
705.23	81.525
705.55	79.070
705.87	85.382
706.19	83.746
706.51	79.751
706.83	77.879
707.15	74.790
707.47	69.949
707.79	70.270
708.11	72.374
708.43	67.143
708.74	71.429
709.06	75.584
709.38	72.703
709.70	78.488
710.02	76.855
710.34	76.970
710.66	74.925
710.98	74.432
711.29	73.256
711.61	74.041
711.93	77.244
712.25	78.778
712.57	83.456
712.89	79.239
713.20	75.076
713.52	81.579
713.84	74.051
714.16	77.134
714.48	72.989
714.80	80.243
715.11	74.640
715.43	75.074
715.75	72.754
716.07	72.524
716.39	73.668
716.70	79.734
717.02	75.180
717.34	75.618
717.66	81.716
717.97	87.649
718.29	78.148
718.61	76.277
718.93	83.824
719.24	75.087
719.56	75.593
719.88	78.644
720.20	75.000
720.51	79.791
720.83	80.297
721.15	78.731
721.46	79.787
721.78	77.778
722.10	82.264
722.42	80.075
722.73	79.026
723.05	89.344
723.37	80.567
723.68	76.834
724.00	82.520
724.32	77.823
724.63	79.675
724.95	75.732
725.27	80.972
725.58	79.688
725.90	77.007
726.22	79.623
726.53	72.569
726.85	75.768
727.16	74.733
727.48	74.468
727.80	73.864
728.11	77.536
728.43	77.692
728.74	79.211
729.06	76.642
729.38	74.632
729.69	71.174
730.01	67.918
730.32	70.486
730.64	69.900
730.96	68.317
731.27	71.192
731.59	74.924
731.90	67.347
732.22	69.876
732.53	67.802
732.85	72.756
733.16	67.524
733.48	73.090
733.80	68.182
734.11	67.197
734.43	65.976
734.74	66.571
735.06	65.330
735.37	63.584
735.69	69.108
736.00	68.627
736.32	64.486
736.63	64.537
736.95	68.051
737.26	66.667
737.58	65.484
737.89	69.565
738.21	72.014
738.52	67.857
738.83	73.208
739.15	73.846
739.46	74.088
739.78	73.264
740.09	65.846
740.41	66.452
740.72	66.202
741.04	71.481
741.35	72.500
741.66	83.111
741.98	74.528
742.29	85.167
742.61	81.897
742.92	77.376
743.23	78.632
743.55	74.800
743.86	80.263
744.18	80.531
744.49	88.038
744.80	83.568
745.12	74.545
745.43	79.295
745.74	82.432
746.06	77.982
746.37	82.511
746.68	74.208
747.00	81.481
747.31	78.095
747.62	76.549
747.94	77.093
748.25	76.170
748.56	81.938
748.88	75.743
749.19	85.500
749.50	77.674
749.82	72.764
750.13	70.612
750.44	67.518
750.75	65.965
751.07	66.881
751.38	69.338
751.69	67.509
752.01	74.436
752.32	67.509
752.63	68.794
752.94	71.721
753.26	75.600
753.57	64.228
753.88	68.359
754.19	66.429
754.51	64.236
754.82	64.260
755.13	72.075
755.44	68.797
755.75	72.993
756.07	66.312
756.38	64.964
756.69	70.134
757.00	59.581
757.31	61.424
757.63	60.234
757.94	60.322
758.25	55.637
758.56	56.049
758.87	56.452
759.18	60.606
759.50	62.069
759.81	61.059
760.12	61.875
760.43	56.160
760.74	56.250
761.05	60.169
761.36	57.219
761.67	60.795
761.99	63.975
762.30	69.792
762.61	66.794
762.92	67.578
763.23	67.647
763.54	74.400
763.85	64.453
764.16	66.538
764.47	70.722
764.78	66.784
765.10	60.127
765.41	59.587
765.72	61.677
766.03	63.009
766.34	63.333
766.65	69.787
766.96	70.940
767.27	82.234
767.58	82.292
767.89	80.526
768.20	81.034
768.51	76.142
768.82	73.853
769.13	67.073
769.44	67.611
769.75	63.519
770.06	66.055
770.37	71.946
770.68	71.759
770.99	67.111
771.30	66.393
771.61	75.785
771.92	64.344
772.23	73.109
772.54	74.359
772.85	76.440
773.16	72.872
773.47	76.087
773.78	74.619
774.09	75.000
774.39	78.363
774.70	84.568
775.01	84.783
775.32	92.810
775.63	82.895
775.94	86.331
776.25	92.126
776.56	97.761
776.87	84.426
777.18	91.406
777.48	100.000
777.79	96.212
778.10	91.852
778.41	105.357
778.72	87.591
779.03	86.577
779.34	89.262
779.65	88.514
779.95	84.663
780.26	83.660
780.57	84.828
780.88	97.656
781.19	87.970
781.50	87.162
781.80	76.101
782.11	72.881
782.42	78.481
782.73	76.687
783.04	84.459
783.34	79.577
783.65	84.247
783.96	88.806
784.27	76.923
784.57	83.453
784.88	100.000
785.19	88.889
785.50	101.887
785.81	91.045
786.11	101.639
786.42	93.023
786.73	96.460
787.04	101.887
787.34	93.750
787.65	105.000
787.96	98.198
788.26	91.736
788.57	105.085
788.88	96.694
789.19	87.500
789.49	94.697
789.80	83.969
790.11	107.619
790.41	107.921
790.72	110.843
791.03	104.348
791.33	130.233
791.64	102.062
791.95	113.861
792.25	114.444
792.56	122.078
792.87	135.897
793.17	121.519
793.48	119.540
793.79	114.943
794.09	100.000
794.40	92.437
794.70	92.647
795.01	80.000
795.32	79.856
795.62	84.252
795.93	87.931
796.23	97.345
796.54	107.059
796.85	112.162
797.15	123.944
797.46	127.273
797.76	115.663
798.07	125.316
798.37	127.692
798.68	131.818
798.99	125.352
799.29	116.883
799.60	107.955
799.90	121.918
800.21	146.269
800.51	141.379
800.82	159.649
801.12	136.066
801.43	140.909
801.73	118.919
802.04	134.921
802.34	118.519
802.65	132.812
802.95	149.153
803.26	135.938
803.56	120.000
803.87	136.923
804.17	105.882
804.48	153.704
804.78	136.207
805.09	119.118
805.39	165.385
805.70	153.571
806.00	127.869
806.30	121.212
806.61	119.512
806.91	118.987
807.22	111.842
807.52	126.866
807.83	122.535
808.13	125.000
808.43	156.667
808.74	97.368
809.04	128.986
809.35	132.836
809.65	117.105
809.95	135.484
810.26	138.983
810.56	144.444
810.86	184.091
811.17	183.333
811.47	133.333
811.77	142.593
812.08	149.091
812.38	162.000
812.69	208.333
812.99	190.909
813.29	177.551
813.59	154.762
813.90	161.224
814.20	152.727
814.50	123.077
814.81	139.706
815.11	155.102
815.41	165.574
815.72	211.905
816.02	143.636
816.32	185.714
816.62	157.500
816.93	209.756
817.23	219.048
817.53	186.364
817.84	242.424
818.14	180.435
818.44	155.556
818.74	200.000
819.04	190.000
819.35	202.857
819.65	238.235
819.95	246.429
820.25	295.000
820.56	200.000
820.86	159.091
821.16	186.047
821.46	176.923
821.76	172.000
822.07	177.143
822.37	195.000
822.67	203.030
822.97	141.176
823.27	246.429
823.57	213.514
823.88	202.500
824.18	253.333
824.48	202.381
824.78	320.000
825.08	237.500
825.38	162.162
825.69	204.878
825.99	291.667
826.29	258.621
826.59	202.632
826.89	184.211
827.19	208.824
827.49	254.839
827.79	197.727
828.09	147.727
828.39	148.936
828.70	171.429
829.00	218.519
829.30	219.355
829.60	180.000
829.90	346.667
830.20	232.143
830.50	239.130
830.80	247.826
831.10	243.333
831.40	253.333
831.70	256.522
832.00	280.769
832.30	277.778
832.60	387.500
832.90	220.000
833.20	571.429
833.50	241.935
833.80	255.172
834.10	259.375
834.40	265.385
834.70	338.889
835.00	385.714
835.30	205.714
835.60	484.615
835.90	272.414
836.20	457.143
836.50	251.724
836.80	264.000
837.10	227.778
837.40	314.286
837.70	376.471
838.00	281.481
838.30	290.476
838.60	319.048
838.90	253.846
839.19	300.000
839.49	471.429
839.79	400.000
840.09	330.000
840.39	328.571
840.69	317.391
840.99	388.889
841.29	610.000
841.59	433.333
841.88	418.750
842.18	237.931
842.48	338.095
842.78	253.333
843.08	273.913
843.38	243.750
843.68	1100.000
843.97	276.923
844.27	255.172
844.57	352.381
844.87	500.000
845.17	259.259
845.47	1700.000
845.76	555.556
846.06	411.765
846.36	637.500
846.66	514.286
846.96	356.250
847.25	545.455
847.55	472.727
847.85	265.217
848.15	590.000
848.44	492.857
848.74	322.222
849.04	305.882
849.34	680.000
849.63	289.474
849.93	554.545
850.23	1260.000
850.53	450.000
850.82	3050.000
851.12	-5700.000
851.42	6300.000
851.71	345.000
852.01	-1566.667
852.31	329.167
852.61	1966.667
852.90	328.571
853.20	276.000
853.50	400.000
853.79	280.952
854.09	279.167
854.39	362.500
854.68	200.000
854.98	232.258
855.28	233.333
855.57	262.069
855.87	240.741
856.17	342.105
856.46	273.333
856.76	329.412
857.05	272.414
857.35	254.167
857.65	426.667
857.94	308.696
858.24	253.846
858.53	365.000
858.83	300.000
859.13	413.333
859.42	0.000
859.72	711.111
860.01	581.818
860.31	313.636
860.60	373.684
860.90	286.957
861.20	600.000
861.49	625.000
861.79	-6000.000
862.08	737.500
862.38	347.619
862.67	423.077
862.97	335.294
863.26	588.889
863.56	305.556
863.85	450.000
864.15	837.500
864.44	440.000
864.74	933.333
865.03	850.000
865.33	389.474
865.62	609.091
865.92	515.385
866.21	441.667
866.51	0.000
866.80	518.182
867.10	1540.000
867.39	500.000
867.69	527.273
867.98	368.421
868.27	490.909
868.57	342.105
868.86	-5500.000
869.16	368.750
869.45	2850.000
869.75	-5600.000
870.04	516.667
870.33	814.286
870.63	1350.000
870.92	3050.000
871.22	828.571
871.51	423.529
871.80	271.429
872.10	414.286
>>>>>End Processed Spectral Data<<<<<
