SpectraSuite Data File
++++++++++++++++++++++++++++++++++++
Date: Wed May 13 19:15:50 PDT 2015
User: schluterlab
Dark Spectrum Present: Yes
Reference Spectrum Present: Yes
Number of Sampled Component Spectra: 1
Spectrometers: USB2E3373
Integration Time (usec): 3000 (USB2E3373)
Spectra Averaged: 3 (USB2E3373)
Boxcar Smoothing: 0 (USB2E3373)
Correct for Electrical Dark: No (USB2E3373)
Strobe/Lamp Enabled: No (USB2E3373)
Correct for Detector Non-linearity: No (USB2E3373)
Correct for Stray Light: No (USB2E3373)
Number of Pixels in Processed Spectrum: 2048
>>>>>Begin Processed Spectral Data<<<<<
178.53	0.000
178.91	-1600.000
179.29	-1550.000
179.67	-277.778
180.04	-1375.000
180.42	2800.000
180.80	1080.000
181.18	-1050.000
181.56	671.429
181.94	0.000
182.31	-685.714
182.69	1900.000
183.07	-637.500
183.45	-522.222
183.83	527.273
184.20	-480.000
184.58	2600.000
184.96	6900.000
185.34	-940.000
185.72	-675.000
186.09	-2300.000
186.47	2950.000
186.85	3050.000
187.23	5500.000
187.61	-1566.667
187.98	1775.000
188.36	481.818
188.74	581.818
189.12	-1020.000
189.49	640.000
189.87	-6100.000
190.25	-1575.000
190.63	478.571
191.00	515.385
191.38	1000.000
191.76	-1250.000
192.14	1700.000
192.51	650.000
192.89	1016.667
193.27	800.000
193.65	-1250.000
194.02	640.000
194.40	980.000
194.78	520.000
195.15	533.333
195.53	740.000
195.91	-2350.000
196.29	456.250
196.66	389.474
197.04	-470.000
197.42	0.000
197.79	750.000
198.17	-5800.000
198.55	842.857
198.92	862.500
199.30	1040.000
199.68	0.000
200.05	355.556
200.43	914.286
200.81	6000.000
201.18	1866.667
201.56	-1866.667
201.94	633.333
202.31	733.333
202.69	500.000
203.07	640.000
203.44	0.000
203.82	1700.000
204.19	842.857
204.57	478.571
204.95	775.000
205.32	1733.333
205.70	590.909
206.08	457.143
206.45	2700.000
206.83	462.500
207.20	1050.000
207.58	1000.000
207.96	350.000
208.33	862.500
208.71	-933.333
209.08	942.857
209.46	633.333
209.84	618.182
210.21	-1633.333
210.59	1425.000
210.96	-662.500
211.34	2450.000
211.71	690.000
212.09	783.333
212.46	0.000
212.84	2166.667
213.22	1725.000
213.59	-4600.000
213.97	1000.000
214.34	971.429
214.72	618.182
215.09	980.000
215.47	-2750.000
215.84	-2650.000
216.22	1766.667
216.59	521.429
216.97	1525.000
217.34	490.909
217.72	-783.333
218.09	0.000
218.47	-5700.000
218.84	844.444
219.22	928.571
219.59	2133.333
219.97	-828.571
220.34	1220.000
220.72	-1966.667
221.09	550.000
221.47	1600.000
221.84	-933.333
222.22	0.000
222.59	1600.000
222.97	-2950.000
223.34	980.000
223.72	461.538
224.09	1160.000
224.46	2650.000
224.84	-5600.000
225.21	-1260.000
225.59	-5100.000
225.96	690.000
226.34	350.000
226.71	3050.000
227.08	812.500
227.46	650.000
227.83	-1450.000
228.21	-2550.000
228.58	722.222
228.95	-2950.000
229.33	-2800.000
229.70	2033.333
230.08	1042.857
230.45	-1280.000
230.82	483.333
231.20	1083.333
231.57	728.571
231.95	566.667
232.32	300.000
232.69	536.364
233.07	800.000
233.44	469.231
233.81	-2400.000
234.19	378.947
234.56	583.333
234.93	516.667
235.31	618.182
235.68	461.538
236.05	435.714
236.43	227.273
236.80	405.263
237.17	6200.000
237.55	342.857
237.92	285.714
238.29	357.143
238.67	219.355
239.04	296.552
239.41	238.889
239.79	186.957
240.16	204.762
240.53	204.545
240.91	168.627
241.28	192.000
241.65	176.000
242.02	150.725
242.40	154.839
242.77	165.000
243.14	126.882
243.51	129.213
243.89	131.765
244.26	132.222
244.63	122.581
245.00	127.660
245.38	132.673
245.75	119.626
246.12	110.092
246.49	110.949
246.87	127.200
247.24	120.000
247.61	107.143
247.98	100.000
248.36	111.486
248.73	101.911
249.10	107.006
249.47	104.520
249.84	100.535
250.22	96.791
250.59	102.959
250.96	100.000
251.33	96.682
251.70	93.069
252.08	97.619
252.45	93.274
252.82	92.174
253.19	93.191
253.56	90.980
253.94	92.531
254.31	84.375
254.68	92.308
255.05	91.513
255.42	90.244
255.79	92.279
256.16	91.697
256.54	86.572
256.91	90.391
257.28	83.094
257.65	87.129
258.02	85.714
258.39	82.965
258.76	91.973
259.14	84.226
259.51	82.675
259.88	88.509
260.25	87.613
260.62	83.526
260.99	86.335
261.36	88.589
261.73	82.521
262.10	84.302
262.47	84.225
262.85	82.173
263.22	83.761
263.59	88.319
263.96	85.440
264.33	79.373
264.70	85.000
265.07	85.934
265.44	81.061
265.81	80.535
266.18	83.920
266.55	83.171
266.92	84.767
267.29	79.630
267.66	81.651
268.03	80.455
268.40	82.710
268.77	78.520
269.14	79.279
269.51	78.781
269.88	85.082
270.25	82.393
270.62	81.348
270.99	76.989
271.36	77.682
271.73	81.776
272.10	78.478
272.47	82.151
272.84	79.870
273.21	76.939
273.58	77.729
273.95	75.472
274.32	75.413
274.69	81.370
275.06	76.181
275.43	79.574
275.80	78.156
276.17	77.597
276.54	78.378
276.91	78.261
277.28	75.781
277.65	73.308
278.02	79.503
278.39	78.125
278.76	74.727
279.13	74.340
279.50	73.184
279.87	75.100
280.23	76.248
280.60	76.789
280.97	76.525
281.34	76.637
281.71	73.818
282.08	80.230
282.45	74.545
282.82	77.442
283.19	71.480
283.56	74.211
283.92	73.604
284.29	74.603
284.66	73.140
285.03	74.864
285.40	73.239
285.77	73.569
286.14	72.021
286.51	69.833
286.87	72.137
287.24	72.476
287.61	69.181
287.98	69.156
288.35	68.146
288.72	68.069
289.08	68.545
289.45	69.522
289.82	69.756
290.19	67.975
290.56	67.075
290.93	64.804
291.29	67.025
291.66	65.339
292.03	66.279
292.40	65.786
292.77	64.053
293.13	64.478
293.50	65.015
293.87	62.074
294.24	61.333
294.60	61.426
294.97	62.064
295.34	61.213
295.71	62.784
296.08	59.829
296.44	60.385
296.81	58.917
297.18	60.569
297.55	56.992
297.91	58.443
298.28	61.178
298.65	58.094
299.02	59.684
299.38	60.425
299.75	57.412
300.12	57.216
300.48	56.000
300.85	56.597
301.22	56.943
301.59	55.303
301.95	57.053
302.32	57.381
302.69	54.122
303.05	56.121
303.42	56.914
303.79	53.794
304.15	55.594
304.52	54.577
304.89	54.820
305.25	54.524
305.62	53.114
305.99	55.372
306.35	53.915
306.72	53.363
307.09	55.605
307.45	55.180
307.82	53.683
308.19	54.636
308.55	55.340
308.92	55.747
309.29	54.277
309.65	53.765
310.02	53.488
310.38	55.269
310.75	55.121
311.12	54.759
311.48	54.650
311.85	56.499
312.22	55.463
312.58	55.094
312.95	54.171
313.31	53.786
313.68	55.925
314.05	57.791
314.41	56.683
314.78	55.992
315.14	56.504
315.51	58.290
315.87	59.010
316.24	57.895
316.61	57.700
316.97	57.730
317.34	57.828
317.70	58.700
318.07	59.095
318.43	61.057
318.80	60.450
319.16	60.546
319.53	60.319
319.89	60.952
320.26	60.900
320.62	62.103
320.99	61.818
321.35	60.707
321.72	62.834
322.08	64.561
322.45	65.871
322.81	65.019
323.18	64.258
323.54	64.100
323.91	65.000
324.27	65.870
324.64	64.585
325.00	65.194
325.37	66.424
325.73	65.978
326.10	66.902
326.46	67.652
326.83	68.076
327.19	67.805
327.56	69.077
327.92	70.954
328.29	70.896
328.65	71.639
329.01	70.668
329.38	71.600
329.74	72.484
330.11	73.044
330.47	72.544
330.84	72.243
331.20	72.131
331.56	74.128
331.93	73.704
332.29	71.961
332.66	73.363
333.02	72.486
333.38	74.526
333.75	75.045
334.11	72.954
334.48	75.333
334.84	75.092
335.20	75.364
335.57	74.071
335.93	73.482
336.29	74.267
336.66	76.465
337.02	73.846
337.38	75.741
337.75	74.153
338.11	76.007
338.47	75.138
338.84	75.435
339.20	75.046
339.56	76.004
339.93	74.545
340.29	76.359
340.65	74.153
341.02	74.956
341.38	75.712
341.74	75.263
342.11	73.624
342.47	74.890
342.83	73.716
343.20	75.152
343.56	70.682
343.92	74.561
344.28	74.490
344.65	74.463
345.01	72.138
345.37	74.185
345.73	73.519
346.10	73.146
346.46	73.729
346.82	72.241
347.19	73.183
347.55	71.921
347.91	71.845
348.27	72.062
348.63	73.244
349.00	70.550
349.36	72.578
349.72	70.890
350.08	70.502
350.45	71.603
350.81	71.405
351.17	71.880
351.53	69.861
351.89	69.719
352.26	70.324
352.62	69.848
352.98	70.016
353.34	69.762
353.70	70.458
354.07	68.629
354.43	67.619
354.79	68.544
355.15	67.199
355.51	70.983
355.87	69.878
356.24	70.440
356.60	69.928
356.96	69.429
357.32	69.501
357.68	67.480
358.04	66.983
358.40	68.725
358.77	68.388
359.13	66.930
359.49	68.549
359.85	67.143
360.21	68.660
360.57	70.428
360.93	67.308
361.29	67.876
361.66	66.563
362.02	67.015
362.38	67.300
362.74	66.220
363.10	66.691
363.46	66.618
363.82	65.760
364.18	67.107
364.54	67.756
364.90	65.227
365.26	66.691
365.62	66.837
365.98	65.668
366.35	66.046
366.71	66.667
367.07	66.570
367.43	67.199
367.79	66.238
368.15	65.733
368.51	64.535
368.87	65.953
369.23	66.642
369.59	65.387
369.95	64.779
370.31	65.313
370.67	63.768
371.03	65.468
371.39	65.452
371.75	65.000
372.11	62.660
372.47	64.370
372.83	64.986
373.19	64.090
373.55	65.041
373.91	66.200
374.27	63.574
374.63	64.218
374.99	63.983
375.35	63.712
375.71	62.440
376.07	64.198
376.42	64.099
376.78	61.962
377.14	63.161
377.50	63.377
377.86	61.436
378.22	62.642
378.58	63.283
378.94	63.168
379.30	62.850
379.66	63.579
380.02	62.715
380.38	61.688
380.74	62.065
381.09	62.836
381.45	63.553
381.81	62.715
382.17	61.592
382.53	61.006
382.89	61.728
383.25	60.538
383.61	62.701
383.97	61.476
384.32	61.073
384.68	61.090
385.04	60.910
385.40	61.238
385.76	60.135
386.12	61.593
386.48	61.611
386.83	62.861
387.19	61.410
387.55	61.163
387.91	60.641
388.27	60.515
388.62	60.049
388.98	60.565
389.34	60.075
389.70	60.025
390.06	61.470
390.42	61.025
390.77	59.606
391.13	61.455
391.49	60.914
391.85	60.535
392.20	60.505
392.56	60.290
392.92	60.447
393.28	58.639
393.64	58.513
393.99	58.583
394.35	59.926
394.71	58.344
395.07	58.193
395.42	60.630
395.78	57.379
396.14	59.590
396.50	59.837
396.85	58.360
397.21	59.125
397.57	58.153
397.92	57.873
398.28	57.623
398.64	58.065
399.00	58.366
399.35	57.304
399.71	57.581
400.07	57.954
400.42	57.730
400.78	58.082
401.14	58.476
401.49	58.030
401.85	56.685
402.21	56.048
402.57	56.940
402.92	58.386
403.28	58.838
403.63	56.559
403.99	56.815
404.35	56.485
404.70	56.775
405.06	55.504
405.42	57.767
405.77	56.914
406.13	55.079
406.49	55.588
406.84	55.168
407.20	54.905
407.55	57.179
407.91	57.933
408.27	56.860
408.62	55.148
408.98	55.944
409.34	55.658
409.69	57.355
410.05	55.824
410.40	55.963
410.76	55.436
411.11	52.774
411.47	53.866
411.83	54.856
412.18	54.917
412.54	55.978
412.89	54.940
413.25	54.545
413.60	55.405
413.96	55.434
414.31	54.617
414.67	55.387
415.03	55.430
415.38	55.090
415.74	54.984
416.09	56.042
416.45	54.685
416.80	55.651
417.16	56.367
417.51	55.607
417.87	54.014
418.22	55.457
418.58	55.584
418.93	53.808
419.29	55.442
419.64	54.786
420.00	54.146
420.35	54.145
420.71	54.931
421.06	54.475
421.42	54.444
421.77	53.083
422.12	53.509
422.48	53.103
422.83	54.048
423.19	53.481
423.54	54.324
423.90	54.957
424.25	54.104
424.61	54.048
424.96	55.452
425.31	54.042
425.67	52.640
426.02	53.371
426.38	55.189
426.73	55.237
427.09	54.164
427.44	54.227
427.79	54.687
428.15	54.821
428.50	54.827
428.85	54.052
429.21	53.948
429.56	54.069
429.92	53.699
430.27	54.022
430.62	53.200
430.98	53.710
431.33	54.175
431.68	54.555
432.04	52.609
432.39	54.083
432.74	54.698
433.10	54.329
433.45	55.743
433.80	54.213
434.16	55.182
434.51	53.158
434.86	54.162
435.22	54.530
435.57	55.198
435.92	55.471
436.28	56.168
436.63	54.857
436.98	55.695
437.34	54.681
437.69	55.543
438.04	55.537
438.39	54.925
438.75	55.723
439.10	55.978
439.45	55.785
439.81	55.891
440.16	56.296
440.51	55.126
440.86	55.704
441.22	56.007
441.57	55.467
441.92	55.578
442.27	55.974
442.63	55.450
442.98	56.563
443.33	55.163
443.68	55.911
444.03	56.076
444.39	54.625
444.74	56.494
445.09	56.550
445.44	56.260
445.79	56.556
446.15	56.485
446.50	56.381
446.85	55.087
447.20	55.278
447.55	58.291
447.91	57.805
448.26	57.206
448.61	56.981
448.96	56.368
449.31	57.593
449.66	57.513
450.02	57.660
450.37	57.370
450.72	58.601
451.07	57.587
451.42	58.359
451.77	58.661
452.12	57.390
452.47	58.333
452.83	59.091
453.18	57.946
453.53	58.565
453.88	57.885
454.23	58.757
454.58	59.661
454.93	59.186
455.28	58.229
455.63	59.951
455.98	59.583
456.34	58.417
456.69	59.987
457.04	59.319
457.39	57.686
457.74	58.967
458.09	59.229
458.44	58.666
458.79	57.809
459.14	59.481
459.49	59.778
459.84	59.723
460.19	58.456
460.54	57.870
460.89	58.749
461.24	59.806
461.59	60.081
461.94	59.988
462.29	61.484
462.64	60.051
462.99	59.466
463.34	60.933
463.69	60.663
464.04	60.232
464.39	58.087
464.74	59.596
465.09	59.952
465.44	59.446
465.79	59.564
466.14	59.715
466.49	59.956
466.84	60.654
467.19	59.867
467.54	61.562
467.89	59.844
468.24	60.209
468.59	62.088
468.94	59.438
469.29	60.668
469.64	60.843
469.99	62.179
470.34	62.483
470.68	63.147
471.03	61.701
471.38	62.335
471.73	61.626
472.08	61.513
472.43	60.804
472.78	60.829
473.13	61.232
473.48	61.049
473.83	62.012
474.17	61.357
474.52	61.352
474.87	62.055
475.22	62.101
475.57	61.096
475.92	61.604
476.27	61.669
476.61	61.224
476.96	60.968
477.31	60.806
477.66	62.363
478.01	61.160
478.36	62.295
478.70	61.682
479.05	62.939
479.40	62.385
479.75	62.023
480.10	62.177
480.45	61.590
480.79	60.583
481.14	62.231
481.49	62.126
481.84	61.545
482.19	63.471
482.53	61.881
482.88	63.285
483.23	63.178
483.58	62.966
483.92	64.011
484.27	61.307
484.62	62.457
484.97	61.253
485.31	63.664
485.66	62.217
486.01	61.496
486.36	58.637
486.70	58.730
487.05	59.044
487.40	61.491
487.75	62.760
488.09	62.754
488.44	63.242
488.79	65.280
489.13	65.050
489.48	63.499
489.83	63.876
490.17	64.840
490.52	63.862
490.87	63.275
491.22	64.029
491.56	62.916
491.91	63.983
492.26	63.941
492.60	62.673
492.95	64.079
493.30	63.224
493.64	64.116
493.99	63.881
494.34	64.200
494.68	64.469
495.03	64.568
495.37	62.727
495.72	65.302
496.07	65.893
496.41	62.478
496.76	64.644
497.11	63.260
497.45	64.462
497.80	65.163
498.14	65.266
498.49	64.829
498.84	64.813
499.18	65.571
499.53	65.337
499.87	65.144
500.22	65.002
500.56	65.534
500.91	66.250
501.26	64.817
501.60	66.777
501.95	65.078
502.29	65.886
502.64	65.782
502.98	65.545
503.33	65.676
503.67	65.244
504.02	65.903
504.36	65.700
504.71	66.634
505.06	65.687
505.40	66.018
505.75	66.683
506.09	65.889
506.44	67.094
506.78	66.683
507.13	66.784
507.47	68.384
507.82	67.477
508.16	67.882
508.51	67.681
508.85	66.485
509.19	69.184
509.54	67.398
509.88	66.873
510.23	68.123
510.57	69.453
510.92	68.980
511.26	67.780
511.61	67.012
511.95	68.319
512.30	69.459
512.64	68.780
512.98	69.185
513.33	68.415
513.67	67.182
514.02	68.506
514.36	68.323
514.70	69.175
515.05	68.600
515.39	69.434
515.74	69.820
516.08	68.921
516.42	68.812
516.77	70.569
517.11	68.535
517.46	69.413
517.80	70.499
518.14	69.427
518.49	71.295
518.83	69.432
519.17	69.630
519.52	69.666
519.86	70.280
520.20	70.867
520.55	70.975
520.89	71.350
521.23	71.110
521.58	71.549
521.92	71.525
522.26	69.128
522.61	70.592
522.95	70.534
523.29	71.516
523.64	70.793
523.98	71.842
524.32	71.351
524.66	71.918
525.01	71.140
525.35	71.066
525.69	71.798
526.04	71.153
526.38	70.287
526.72	69.202
527.06	73.070
527.41	69.740
527.75	73.698
528.09	73.154
528.43	72.976
528.78	73.264
529.12	71.697
529.46	71.770
529.80	72.896
530.15	71.776
530.49	71.323
530.83	71.456
531.17	75.131
531.51	75.746
531.86	73.226
532.20	72.686
532.54	72.005
532.88	72.850
533.22	71.330
533.57	71.605
533.91	72.125
534.25	71.871
534.59	72.788
534.93	72.338
535.27	72.722
535.62	72.466
535.96	73.509
536.30	75.016
536.64	73.471
536.98	73.855
537.32	73.864
537.66	74.467
538.01	75.181
538.35	74.596
538.69	74.282
539.03	72.840
539.37	73.738
539.71	72.975
540.05	74.314
540.39	74.950
540.73	73.609
541.07	74.757
541.42	75.082
541.76	75.613
542.10	75.744
542.44	76.755
542.78	76.416
543.12	74.792
543.46	75.869
543.80	75.342
544.14	75.096
544.48	75.873
544.82	75.433
545.16	77.489
545.50	75.257
545.84	76.210
546.18	76.027
546.52	77.495
546.86	78.694
547.20	76.669
547.54	78.290
547.88	76.594
548.22	76.961
548.56	75.157
548.90	75.672
549.24	75.623
549.58	77.217
549.92	77.610
550.26	78.196
550.60	76.556
550.94	77.254
551.28	76.372
551.62	77.570
551.96	76.982
552.30	77.884
552.64	77.214
552.98	78.034
553.32	77.073
553.66	78.119
554.00	79.135
554.34	77.916
554.68	78.898
555.02	78.138
555.36	77.801
555.69	77.605
556.03	79.206
556.37	78.445
556.71	77.490
557.05	79.062
557.39	78.027
557.73	80.099
558.07	80.856
558.41	78.365
558.75	79.574
559.08	78.896
559.42	81.784
559.76	79.632
560.10	77.873
560.44	78.896
560.78	79.508
561.12	78.562
561.45	79.726
561.79	77.983
562.13	78.605
562.47	80.055
562.81	81.102
563.15	79.064
563.48	79.310
563.82	80.561
564.16	80.118
564.50	79.167
564.84	79.077
565.17	80.373
565.51	81.597
565.85	79.949
566.19	79.775
566.52	81.317
566.86	79.204
567.20	80.130
567.54	80.822
567.88	79.413
568.21	80.952
568.55	80.131
568.89	81.274
569.23	79.590
569.56	78.340
569.90	78.566
570.24	80.301
570.57	79.973
570.91	77.893
571.25	78.351
571.59	78.262
571.92	78.399
572.26	79.636
572.60	79.910
572.93	79.850
573.27	79.562
573.61	79.369
573.95	79.690
574.28	79.347
574.62	78.766
574.96	79.403
575.29	79.292
575.63	79.548
575.97	80.318
576.30	80.775
576.64	79.934
576.98	81.089
577.31	79.598
577.65	80.304
577.98	80.639
578.32	79.508
578.66	80.419
578.99	80.142
579.33	81.070
579.67	80.102
580.00	80.580
580.34	82.155
580.67	81.068
581.01	81.403
581.35	81.694
581.68	81.272
582.02	80.427
582.35	81.573
582.69	81.277
583.02	81.984
583.36	82.984
583.70	82.817
584.03	83.438
584.37	84.664
584.70	84.666
585.04	83.415
585.37	82.199
585.71	82.683
586.04	83.064
586.38	83.568
586.72	84.479
587.05	83.021
587.39	83.219
587.72	83.922
588.06	83.591
588.39	84.444
588.73	84.218
589.06	85.416
589.40	86.397
589.73	85.005
590.07	85.587
590.40	85.532
590.73	86.846
591.07	87.098
591.40	86.082
591.74	87.186
592.07	85.602
592.41	86.234
592.74	85.730
593.08	84.843
593.41	85.574
593.75	82.448
594.08	85.250
594.41	85.790
594.75	85.915
595.08	84.395
595.42	86.165
595.75	86.574
596.09	86.669
596.42	86.130
596.75	86.999
597.09	87.706
597.42	86.003
597.75	86.632
598.09	87.174
598.42	87.242
598.76	86.137
599.09	85.215
599.42	85.080
599.76	86.201
600.09	85.355
600.42	85.208
600.76	85.893
601.09	86.995
601.42	85.959
601.76	86.717
602.09	87.905
602.42	87.619
602.76	87.142
603.09	87.530
603.42	88.442
603.76	86.738
604.09	87.786
604.42	87.933
604.76	88.402
605.09	88.816
605.42	87.388
605.75	88.369
606.09	88.776
606.42	89.211
606.75	88.884
607.09	87.442
607.42	88.532
607.75	88.397
608.08	88.276
608.42	88.749
608.75	88.729
609.08	87.512
609.41	88.624
609.75	89.042
610.08	90.434
610.41	89.898
610.74	91.958
611.07	90.810
611.41	89.598
611.74	90.246
612.07	91.408
612.40	91.973
612.73	89.684
613.07	90.679
613.40	91.311
613.73	89.145
614.06	92.258
614.39	90.771
614.72	90.211
615.06	90.179
615.39	90.764
615.72	89.417
616.05	92.079
616.38	92.440
616.71	92.102
617.05	93.640
617.38	92.664
617.71	93.033
618.04	93.750
618.37	91.484
618.70	92.159
619.03	94.013
619.36	92.532
619.69	92.958
620.03	95.124
620.36	92.313
620.69	94.384
621.02	94.174
621.35	94.205
621.68	94.704
622.01	93.498
622.34	94.781
622.67	95.513
623.00	91.709
623.33	93.352
623.66	94.925
623.99	95.582
624.32	94.437
624.65	93.856
624.99	94.263
625.32	94.280
625.65	95.492
625.98	95.849
626.31	94.790
626.64	95.020
626.97	97.423
627.30	96.758
627.63	97.293
627.96	97.645
628.29	98.688
628.62	95.059
628.95	99.528
629.28	97.172
629.61	96.059
629.94	97.619
630.26	96.854
630.59	95.520
630.92	95.307
631.25	96.347
631.58	97.598
631.91	99.189
632.24	96.097
632.57	99.056
632.90	97.478
633.23	96.197
633.56	100.452
633.89	97.395
634.22	99.773
634.55	101.893
634.88	96.527
635.20	98.327
635.53	100.602
635.86	102.847
636.19	99.412
636.52	97.232
636.85	99.427
637.18	95.737
637.51	101.064
637.83	97.287
638.16	101.151
638.49	99.118
638.82	101.011
639.15	99.125
639.48	100.249
639.81	104.021
640.13	99.479
640.46	100.805
640.79	100.000
641.12	99.450
641.45	99.441
641.77	107.806
642.10	104.094
642.43	101.051
642.76	102.167
643.09	103.834
643.41	102.124
643.74	104.321
644.07	102.134
644.40	102.454
644.73	102.677
645.05	104.596
645.38	103.949
645.71	104.348
646.04	103.654
646.36	108.013
646.69	104.515
647.02	103.912
647.35	105.670
647.67	105.841
648.00	101.626
648.33	102.145
648.66	100.000
648.98	101.799
649.31	101.943
649.64	102.691
649.96	103.875
650.29	105.213
650.62	103.883
650.94	101.135
651.27	107.432
651.60	103.161
651.92	104.153
652.25	103.746
652.58	104.517
652.90	105.687
653.23	99.538
653.56	101.732
653.88	104.120
654.21	103.160
654.54	109.076
654.86	104.829
655.19	100.541
655.52	79.857
655.84	81.380
656.17	100.000
656.49	100.000
656.82	100.000
657.15	100.000
657.47	100.000
657.80	100.000
658.13	92.628
658.45	101.140
658.78	103.053
659.10	105.920
659.43	111.232
659.75	113.667
660.08	119.304
660.41	124.395
660.73	121.093
661.06	115.127
661.38	113.636
661.71	110.385
662.03	109.073
662.36	106.958
662.68	108.233
663.01	108.687
663.33	110.616
663.66	109.244
663.98	112.311
664.31	110.084
664.63	105.870
664.96	103.421
665.28	107.992
665.61	104.288
665.93	108.451
666.26	109.533
666.58	108.368
666.91	110.782
667.23	115.281
667.56	106.911
667.88	107.479
668.21	108.316
668.53	108.243
668.86	108.225
669.18	107.463
669.50	103.043
669.83	109.804
670.15	110.667
670.48	110.893
670.80	109.052
671.13	111.677
671.45	107.447
671.77	111.405
672.10	105.915
672.42	106.184
672.75	102.488
673.07	106.690
673.39	110.850
673.72	111.719
674.04	112.549
674.37	108.738
674.69	108.998
675.01	105.858
675.34	110.472
675.66	111.158
675.98	109.572
676.31	108.193
676.63	107.643
676.95	108.386
677.28	115.654
677.60	110.989
677.92	110.127
678.25	109.856
678.57	111.753
678.89	114.429
679.22	112.377
679.54	108.779
679.86	104.771
680.18	106.440
680.51	106.028
680.83	106.940
681.15	109.434
681.48	108.885
681.80	107.544
682.12	106.705
682.44	106.383
682.77	112.424
683.09	114.807
683.41	111.308
683.73	115.894
684.06	110.744
684.38	105.675
684.70	109.884
685.02	112.008
685.34	110.256
685.67	107.867
685.99	104.983
686.31	109.215
686.63	107.420
686.96	105.357
687.28	108.123
687.60	111.594
687.92	109.141
688.24	109.316
688.56	113.253
688.89	113.693
689.21	113.100
689.53	110.438
689.85	117.960
690.17	109.731
690.49	111.465
690.82	117.056
691.14	111.384
691.46	107.595
691.78	108.032
692.10	116.322
692.42	112.375
692.74	109.336
693.06	118.085
693.39	110.883
693.71	112.009
694.03	110.947
694.35	112.987
694.67	112.815
694.99	113.902
695.31	111.275
695.63	113.158
695.95	116.626
696.27	118.020
696.59	116.321
696.91	111.658
697.23	105.869
697.56	108.316
697.88	107.362
698.20	109.792
698.52	108.817
698.84	110.690
699.16	109.447
699.48	115.677
699.80	115.942
700.12	121.299
700.44	117.772
700.76	117.403
701.08	118.966
701.40	114.804
701.72	118.659
702.04	114.773
702.36	114.164
702.68	118.130
703.00	112.465
703.32	115.160
703.64	110.724
703.96	113.092
704.28	119.186
704.60	116.716
704.91	117.211
705.23	115.836
705.55	123.920
705.87	124.917
706.19	127.915
706.51	113.084
706.83	116.970
707.15	112.605
707.47	113.384
707.79	113.268
708.11	109.589
708.43	111.429
708.74	106.888
709.06	114.026
709.38	110.499
709.70	119.477
710.02	120.475
710.34	120.606
710.66	123.582
710.98	108.807
711.29	117.151
711.61	116.224
711.93	118.910
712.25	119.293
712.57	127.206
712.89	118.685
713.20	106.991
713.52	118.092
713.84	116.139
714.16	114.329
714.48	113.218
714.80	124.316
715.11	115.562
715.43	118.101
715.75	114.493
716.07	120.767
716.39	115.987
716.70	120.930
717.02	118.705
717.34	120.848
717.66	122.761
717.97	121.116
718.29	119.630
718.61	117.153
718.93	122.059
719.24	119.723
719.56	114.576
719.88	114.915
720.20	120.608
720.51	119.164
720.83	122.677
721.15	120.522
721.46	117.730
721.78	123.297
722.10	125.283
722.42	123.308
722.73	119.476
723.05	132.377
723.37	128.340
723.68	120.077
724.00	125.203
724.32	118.952
724.63	123.984
724.95	127.615
725.27	124.291
725.58	125.781
725.90	122.628
726.22	124.528
726.53	117.708
726.85	117.065
727.16	120.641
727.48	119.149
727.80	116.288
728.11	117.754
728.43	123.077
728.74	114.695
729.06	125.182
729.38	125.368
729.69	120.641
730.01	115.017
730.32	118.750
730.64	115.050
730.96	119.142
731.27	119.205
731.59	119.266
731.90	117.784
732.22	119.876
732.53	118.576
732.85	116.667
733.16	117.685
733.48	123.588
733.80	122.078
734.11	114.331
734.43	113.314
734.74	117.143
735.06	118.625
735.37	118.208
735.69	120.064
736.00	124.183
736.32	121.807
736.63	120.447
736.95	118.211
737.26	119.728
737.58	119.032
737.89	122.074
738.21	122.184
738.52	118.929
738.83	118.868
739.15	119.615
739.46	121.898
739.78	122.222
740.09	112.000
740.41	119.355
740.72	116.725
741.04	126.296
741.35	125.833
741.66	132.000
741.98	126.887
742.29	128.708
742.61	117.241
742.92	124.434
743.23	129.915
743.55	117.600
743.86	125.877
744.18	126.991
744.49	125.359
744.80	128.638
745.12	127.727
745.43	122.026
745.74	128.378
746.06	130.275
746.37	126.906
746.68	126.697
747.00	127.778
747.31	133.810
747.62	127.876
747.94	122.467
748.25	125.532
748.56	125.551
748.88	135.149
749.19	137.000
749.50	121.860
749.82	120.732
750.13	123.673
750.44	120.803
750.75	125.965
751.07	115.756
751.38	120.209
751.69	122.744
752.01	128.195
752.32	121.661
752.63	121.277
752.94	134.836
753.26	131.600
753.57	121.951
753.88	121.094
754.19	117.143
754.51	122.222
754.82	117.329
755.13	124.151
755.44	121.429
755.75	120.803
756.07	119.504
756.38	122.993
756.69	117.785
757.00	107.784
757.31	115.134
757.63	117.251
757.94	116.890
758.25	108.824
758.56	114.321
758.87	114.247
759.18	119.091
759.50	114.734
759.81	114.953
760.12	120.625
760.43	118.052
760.74	113.859
761.05	120.339
761.36	116.043
761.67	123.011
761.99	121.429
762.30	128.125
762.61	120.611
762.92	121.875
763.23	126.471
763.54	122.800
763.85	122.266
764.16	129.231
764.47	125.095
764.78	120.141
765.10	114.873
765.41	117.404
765.72	121.557
766.03	121.317
766.34	116.000
766.65	135.319
766.96	126.496
767.27	135.533
767.58	128.125
767.89	128.421
768.20	133.333
768.51	128.934
768.82	124.771
769.13	123.984
769.44	123.482
769.75	131.760
770.06	123.853
770.37	125.339
770.68	128.704
770.99	123.556
771.30	118.443
771.61	129.596
771.92	128.279
772.23	125.210
772.54	126.154
772.85	128.796
773.16	130.851
773.47	133.696
773.78	131.472
774.09	138.690
774.39	133.918
774.70	137.037
775.01	150.000
775.32	134.641
775.63	127.632
775.94	144.604
776.25	158.268
776.56	138.060
776.87	150.000
777.18	149.219
777.48	145.802
777.79	131.818
778.10	138.519
778.41	155.357
778.72	124.818
779.03	136.242
779.34	138.926
779.65	143.919
779.95	133.742
780.26	148.366
780.57	145.517
780.88	154.687
781.19	145.113
781.50	141.892
781.80	136.478
782.11	129.944
782.42	134.810
782.73	134.969
783.04	143.919
783.34	145.775
783.65	144.521
783.96	150.746
784.27	133.566
784.57	144.604
784.88	154.630
785.19	139.683
785.50	148.113
785.81	148.507
786.11	156.557
786.42	144.186
786.73	146.018
787.04	155.660
787.34	164.286
787.65	180.000
787.96	163.063
788.26	159.504
788.57	164.407
788.88	158.678
789.19	132.639
789.49	153.788
789.80	129.771
790.11	172.381
790.41	166.337
790.72	181.928
791.03	168.478
791.33	173.256
791.64	152.577
791.95	150.495
792.25	164.444
792.56	177.922
792.87	187.179
793.17	173.418
793.48	174.713
793.79	154.023
794.09	157.955
794.40	146.218
794.70	146.324
795.01	141.481
795.32	135.971
795.62	144.094
795.93	148.276
796.23	147.788
796.54	177.647
796.85	156.757
797.15	187.324
797.46	174.242
797.76	168.675
798.07	178.481
798.37	200.000
798.68	186.364
798.99	166.197
799.29	181.818
799.60	145.455
799.90	172.603
800.21	198.507
800.51	210.345
800.82	217.544
801.12	190.164
801.43	189.394
801.73	160.811
802.04	179.365
802.34	146.914
802.65	193.750
802.95	201.695
803.26	187.500
803.56	154.286
803.87	196.923
804.17	188.235
804.48	214.815
804.78	200.000
805.09	180.882
805.39	211.538
805.70	207.143
806.00	211.475
806.30	189.394
806.61	160.976
806.91	164.557
807.22	173.684
807.52	186.567
807.83	195.775
808.13	193.750
808.43	205.000
808.74	155.263
809.04	173.913
809.35	182.090
809.65	161.842
809.95	198.387
810.26	188.136
810.56	179.365
810.86	243.182
811.17	264.286
811.47	180.000
811.77	211.111
812.08	203.636
812.38	200.000
812.69	261.111
812.99	259.091
813.29	204.082
813.59	209.524
813.90	244.898
814.20	205.455
814.50	175.385
814.81	170.588
815.11	228.571
815.41	181.967
815.72	257.143
816.02	196.364
816.32	228.571
816.62	215.000
816.93	221.951
817.23	221.429
817.53	250.000
817.84	309.091
818.14	226.087
818.44	226.667
818.74	279.412
819.04	237.500
819.35	251.429
819.65	288.235
819.95	321.429
820.25	385.000
820.56	274.359
820.86	209.091
821.16	230.233
821.46	253.846
821.76	236.000
822.07	282.857
822.37	260.000
822.67	275.758
822.97	198.039
823.27	289.286
823.57	259.459
823.88	267.500
824.18	293.333
824.48	202.381
824.78	340.000
825.08	362.500
825.38	237.838
825.69	226.829
825.99	400.000
826.29	265.517
826.59	244.737
826.89	231.579
827.19	285.294
827.49	316.129
827.79	202.273
828.09	231.818
828.39	204.255
828.70	197.959
829.00	307.407
829.30	274.194
829.60	210.000
829.90	526.667
830.20	325.000
830.50	356.522
830.80	378.261
831.10	263.333
831.40	256.667
831.70	300.000
832.00	326.923
832.30	296.296
832.60	450.000
832.90	273.333
833.20	507.143
833.50	293.548
833.80	282.759
834.10	293.750
834.40	326.923
834.70	388.889
835.00	395.238
835.30	234.286
835.60	553.846
835.90	289.655
836.20	607.143
836.50	279.310
836.80	260.000
837.10	272.222
837.40	376.190
837.70	447.059
838.00	296.296
838.30	366.667
838.60	357.143
838.90	342.308
839.19	370.000
839.49	507.143
839.79	405.000
840.09	420.000
840.39	404.762
840.69	304.348
840.99	422.222
841.29	660.000
841.59	475.000
841.88	425.000
842.18	248.276
842.48	371.429
842.78	270.000
843.08	330.435
843.38	225.000
843.68	1333.333
843.97	296.154
844.27	262.069
844.57	423.810
844.87	468.750
845.17	266.667
845.47	2566.667
845.76	588.889
846.06	417.647
846.36	700.000
846.66	557.143
846.96	400.000
847.25	636.364
847.55	536.364
847.85	286.957
848.15	690.000
848.44	500.000
848.74	383.333
849.04	458.824
849.34	720.000
849.63	368.421
849.93	545.455
850.23	1520.000
850.53	471.429
850.82	3350.000
851.12	-6600.000
851.42	6200.000
851.71	350.000
852.01	-1466.667
852.31	287.500
852.61	2500.000
852.90	376.190
853.20	316.000
853.50	382.353
853.79	366.667
854.09	329.167
854.39	562.500
854.68	275.676
854.98	251.613
855.28	290.000
855.57	296.552
855.87	311.111
856.17	347.368
856.46	426.667
856.76	423.529
857.05	275.862
857.35	316.667
857.65	513.333
857.94	308.696
858.24	280.769
858.53	365.000
858.83	327.273
859.13	466.667
859.42	0.000
859.72	844.444
860.01	590.909
860.31	340.909
860.60	357.895
860.90	313.043
861.20	744.444
861.49	575.000
861.79	-6300.000
862.08	887.500
862.38	300.000
862.67	438.462
862.97	358.824
863.26	711.111
863.56	366.667
863.85	525.000
864.15	725.000
864.44	480.000
864.74	1183.333
865.03	900.000
865.33	363.158
865.62	581.818
865.92	615.385
866.21	541.667
866.51	0.000
866.80	545.455
867.10	1280.000
867.39	530.769
867.69	527.273
867.98	410.526
868.27	554.545
868.57	368.421
868.86	-7000.000
869.16	425.000
869.45	3200.000
869.75	-5800.000
870.04	575.000
870.33	957.143
870.63	1525.000
870.92	2750.000
871.22	1042.857
871.51	435.294
871.80	304.762
872.10	421.429
>>>>>End Processed Spectral Data<<<<<
