SpectraSuite Data File
++++++++++++++++++++++++++++++++++++
Date: Wed May 13 19:41:58 PDT 2015
User: schluterlab
Dark Spectrum Present: Yes
Reference Spectrum Present: Yes
Number of Sampled Component Spectra: 1
Spectrometers: USB2E3373
Integration Time (usec): 3000 (USB2E3373)
Spectra Averaged: 3 (USB2E3373)
Boxcar Smoothing: 0 (USB2E3373)
Correct for Electrical Dark: No (USB2E3373)
Strobe/Lamp Enabled: No (USB2E3373)
Correct for Detector Non-linearity: No (USB2E3373)
Correct for Stray Light: No (USB2E3373)
Number of Pixels in Processed Spectrum: 2048
>>>>>Begin Processed Spectral Data<<<<<
178.53	0.000
178.91	-1075.000
179.29	-1225.000
179.67	-261.111
180.04	-1250.000
180.42	2350.000
180.80	1000.000
181.18	-1125.000
181.56	771.429
181.94	0.000
182.31	-657.143
182.69	1733.333
183.07	-512.500
183.45	-477.778
183.83	536.364
184.20	-460.000
184.58	2050.000
184.96	4500.000
185.34	-980.000
185.72	-525.000
186.09	-2550.000
186.47	3150.000
186.85	2400.000
187.23	5000.000
187.61	-1766.667
187.98	1450.000
188.36	618.182
188.74	536.364
189.12	-980.000
189.49	600.000
189.87	-5400.000
190.25	-1300.000
190.63	400.000
191.00	461.538
191.38	816.667
191.76	-975.000
192.14	1375.000
192.51	650.000
192.89	1000.000
193.27	575.000
193.65	-1350.000
194.02	570.000
194.40	920.000
194.78	570.000
195.15	433.333
195.53	620.000
195.91	-2100.000
196.29	393.750
196.66	336.842
197.04	-380.000
197.42	0.000
197.79	620.000
198.17	-5400.000
198.55	671.429
198.92	687.500
199.30	1000.000
199.68	0.000
200.05	338.889
200.43	771.429
200.81	5300.000
201.18	1400.000
201.56	-1733.333
201.94	622.222
202.31	633.333
202.69	441.667
203.07	490.000
203.44	0.000
203.82	1300.000
204.19	785.714
204.57	421.429
204.95	675.000
205.32	1666.667
205.70	609.091
206.08	442.857
206.45	2150.000
206.83	337.500
207.20	933.333
207.58	1020.000
207.96	316.667
208.33	725.000
208.71	-800.000
209.08	971.429
209.46	588.889
209.84	454.545
210.21	-1566.667
210.59	1350.000
210.96	-537.500
211.34	2750.000
211.71	580.000
212.09	766.667
212.46	0.000
212.84	1600.000
213.22	1375.000
213.59	-5300.000
213.97	983.333
214.34	771.429
214.72	527.273
215.09	980.000
215.47	-2050.000
215.84	-2300.000
216.22	1533.333
216.59	407.143
216.97	1225.000
217.34	509.091
217.72	-800.000
218.09	0.000
218.47	-4800.000
218.84	688.889
219.22	785.714
219.59	1733.333
219.97	-757.143
220.34	820.000
220.72	-1733.333
221.09	478.571
221.47	1325.000
221.84	-633.333
222.22	0.000
222.59	1300.000
222.97	-2450.000
223.34	960.000
223.72	492.308
224.09	960.000
224.46	2650.000
224.84	-5300.000
225.21	-1040.000
225.59	-5000.000
225.96	590.000
226.34	265.000
226.71	2400.000
227.08	625.000
227.46	520.000
227.83	-1050.000
228.21	-2900.000
228.58	666.667
228.95	-2200.000
229.33	-2450.000
229.70	1800.000
230.08	885.714
230.45	-860.000
230.82	441.667
231.20	900.000
231.57	642.857
231.95	400.000
232.32	236.364
232.69	390.909
233.07	585.714
233.44	346.154
233.81	-1900.000
234.19	310.526
234.56	458.333
234.93	341.667
235.31	427.273
235.68	300.000
236.05	300.000
236.43	218.182
236.80	294.737
237.17	4300.000
237.55	204.762
237.92	178.571
238.29	247.619
238.67	174.194
239.04	213.793
239.41	136.111
239.79	128.261
240.16	138.095
240.53	125.000
240.91	101.961
241.28	144.000
241.65	120.000
242.02	100.000
242.40	85.484
242.77	90.000
243.14	83.871
243.51	82.022
243.89	81.176
244.26	67.778
244.63	67.742
245.00	62.766
245.38	70.297
245.75	58.879
246.12	55.963
246.49	58.394
246.87	68.000
247.24	60.000
247.61	58.571
247.98	47.059
248.36	44.595
248.73	48.408
249.10	56.051
249.47	45.198
249.84	47.594
250.22	44.920
250.59	49.112
250.96	44.949
251.33	41.232
251.70	48.020
252.08	37.619
252.45	46.637
252.82	38.696
253.19	44.255
253.56	39.608
253.94	40.249
254.31	40.625
254.68	37.692
255.05	36.162
255.42	33.740
255.79	35.662
256.16	36.823
256.54	32.509
256.91	35.587
257.28	30.216
257.65	35.974
258.02	33.851
258.39	31.861
258.76	33.110
259.14	32.440
259.51	30.699
259.88	30.745
260.25	35.650
260.62	33.237
260.99	32.609
261.36	32.733
261.73	32.092
262.10	30.523
262.47	34.085
262.85	28.412
263.22	28.205
263.59	32.194
263.96	29.945
264.33	31.854
264.70	29.737
265.07	31.969
265.44	32.576
265.81	27.981
266.18	29.146
266.55	26.098
266.92	31.204
267.29	29.167
267.66	27.752
268.03	27.273
268.40	28.738
268.77	29.117
269.14	28.153
269.51	30.248
269.88	27.040
270.25	29.345
270.62	25.393
270.99	31.183
271.36	27.897
271.73	27.103
272.10	27.174
272.47	29.677
272.84	28.571
273.21	29.560
273.58	25.764
273.95	26.415
274.32	26.653
274.69	26.552
275.06	26.181
275.43	27.872
275.80	26.653
276.17	25.866
276.54	27.859
276.91	25.494
277.28	24.805
277.65	27.466
278.02	26.708
278.39	27.148
278.76	27.636
279.13	26.415
279.50	25.698
279.87	28.287
280.23	26.148
280.60	24.565
280.97	26.063
281.34	26.726
281.71	26.727
282.08	27.639
282.45	24.182
282.82	25.755
283.19	22.460
283.56	25.263
283.92	26.227
284.29	22.928
284.66	24.138
285.03	24.412
285.40	25.000
285.77	23.569
286.14	24.352
286.51	26.333
286.87	25.470
287.24	25.733
287.61	23.435
287.98	25.000
288.35	23.455
288.72	23.520
289.08	22.066
289.45	23.558
289.82	22.764
290.19	20.094
290.56	24.655
290.93	20.091
291.29	23.313
291.66	20.944
292.03	24.564
292.40	23.642
292.77	18.639
293.13	22.687
293.50	20.991
293.87	21.037
294.24	18.963
294.60	20.233
294.97	21.657
295.34	20.592
295.71	21.591
296.08	19.516
296.44	20.358
296.81	18.362
297.18	21.274
297.55	17.150
297.91	19.789
298.28	21.151
298.65	19.713
299.02	20.290
299.38	20.053
299.75	17.385
300.12	19.796
300.48	19.250
300.85	18.002
301.22	19.236
301.59	18.056
301.95	18.136
302.32	19.641
302.69	18.638
303.05	18.788
303.42	18.519
303.79	18.686
304.15	17.249
304.52	17.613
304.89	18.235
305.25	16.821
305.62	17.780
305.99	17.591
306.35	18.121
306.72	17.937
307.09	18.535
307.45	19.144
307.82	15.960
308.19	18.322
308.55	17.260
308.92	17.401
309.29	16.262
309.65	16.649
310.02	18.393
310.38	17.849
310.75	16.579
311.12	17.707
311.48	17.555
311.85	17.505
312.22	16.961
312.58	17.464
312.95	18.057
313.31	16.990
313.68	17.672
314.05	19.527
314.41	17.889
314.78	17.422
315.14	17.577
315.51	17.302
315.87	19.010
316.24	19.464
316.61	18.713
316.97	18.493
317.34	18.493
317.70	19.981
318.07	19.249
318.43	22.114
318.80	20.900
319.16	19.868
319.53	20.919
319.89	20.762
320.26	21.300
320.62	22.619
320.99	22.020
321.35	23.535
321.72	25.051
322.08	24.284
322.45	26.766
322.81	24.322
323.18	24.952
323.54	26.531
323.91	25.849
324.27	28.681
324.64	27.213
325.00	28.494
325.37	29.481
325.73	30.969
326.10	31.068
326.46	30.735
326.83	32.183
327.19	32.963
327.56	34.233
327.92	34.646
328.29	35.936
328.65	35.267
329.01	35.921
329.38	36.263
329.74	37.581
330.11	38.454
330.47	37.466
330.84	39.522
331.20	38.525
331.56	39.083
331.93	39.444
332.29	39.574
332.66	39.735
333.02	40.402
333.38	40.289
333.75	40.553
334.11	40.925
334.48	41.171
334.84	41.268
335.20	39.909
335.57	41.886
335.93	40.268
336.29	41.941
336.66	42.922
337.02	41.810
337.38	42.407
337.75	41.176
338.11	42.435
338.47	42.357
338.84	41.797
339.20	41.560
339.56	44.891
339.93	42.727
340.29	43.025
340.65	43.494
341.02	43.019
341.38	44.395
341.74	43.070
342.11	43.144
342.47	44.229
342.83	42.808
343.20	43.636
343.56	42.628
343.92	42.281
344.28	43.027
344.65	43.766
345.01	42.340
345.37	43.310
345.73	43.401
346.10	43.478
346.46	43.644
346.82	43.493
347.19	43.442
347.55	43.678
347.91	43.123
348.27	43.714
348.63	44.900
349.00	43.528
349.36	43.350
349.72	42.502
350.08	44.246
350.45	44.752
350.81	42.729
351.17	44.084
351.53	42.670
351.89	42.492
352.26	44.672
352.62	44.266
352.98	44.652
353.34	43.632
353.70	43.535
354.07	43.548
354.43	44.206
354.79	43.202
355.15	44.054
355.51	45.723
355.87	45.796
356.24	43.567
356.60	43.224
356.96	45.776
357.32	44.072
357.68	45.512
358.04	44.656
358.40	44.339
358.77	44.601
359.13	45.541
359.49	44.784
359.85	45.238
360.21	44.498
360.57	45.914
360.93	46.231
361.29	46.183
361.66	44.814
362.02	45.448
362.38	46.084
362.74	46.205
363.10	45.300
363.46	45.488
363.82	45.276
364.18	44.787
364.54	46.434
364.90	46.246
365.26	46.471
365.62	46.165
365.98	45.873
366.35	44.126
366.71	44.469
367.07	46.176
367.43	46.444
367.79	46.752
368.15	46.695
368.51	46.003
368.87	45.396
369.23	46.086
369.59	47.864
369.95	45.368
370.31	45.513
370.67	45.435
371.03	47.940
371.39	47.012
371.75	47.132
372.11	47.155
372.47	47.287
372.83	48.055
373.19	46.243
373.55	48.263
373.91	48.675
374.27	46.529
374.63	48.364
374.99	47.811
375.35	46.267
375.71	47.087
376.07	47.805
376.42	47.937
376.78	47.846
377.14	47.829
377.50	49.139
377.86	47.473
378.22	48.420
378.58	46.867
378.94	47.894
379.30	48.728
379.66	49.112
380.02	48.157
380.38	48.998
380.74	48.860
381.09	49.083
381.45	48.740
381.81	49.140
382.17	49.108
382.53	49.182
382.89	49.198
383.25	47.467
383.61	49.442
383.97	48.593
384.32	49.595
384.68	49.195
385.04	48.679
385.40	49.721
385.76	48.771
386.12	48.187
386.48	49.717
386.83	49.070
387.19	49.660
387.55	49.227
387.91	49.879
388.27	49.295
388.62	48.679
388.98	48.526
389.34	50.250
389.70	49.969
390.06	50.253
390.42	50.454
390.77	50.636
391.13	50.670
391.49	50.190
391.85	49.968
392.20	50.158
392.56	49.811
392.92	49.676
393.28	49.172
393.64	50.240
393.99	49.175
394.35	49.752
394.71	49.937
395.07	48.536
395.42	50.371
395.78	49.237
396.14	48.976
396.50	50.877
396.85	50.731
397.21	49.322
397.57	50.279
397.92	50.240
398.28	48.038
398.64	49.522
399.00	49.972
399.35	50.197
399.71	48.900
400.07	50.503
400.42	49.877
400.78	50.663
401.14	51.463
401.49	51.403
401.85	49.304
402.21	49.461
402.57	51.018
402.92	52.585
403.28	51.280
403.63	50.557
403.99	49.873
404.35	50.485
404.70	50.240
405.06	49.621
405.42	50.343
405.77	50.057
406.13	49.041
406.49	50.917
406.84	49.616
407.20	49.468
407.55	50.351
407.91	51.200
408.27	50.287
408.62	50.632
408.98	50.000
409.34	50.369
409.69	51.613
410.05	50.124
410.40	50.703
410.76	49.582
411.11	49.940
411.47	49.776
411.83	50.458
412.18	51.082
412.54	50.249
412.89	50.542
413.25	49.292
413.60	49.969
413.96	48.391
414.31	49.635
414.67	49.747
415.03	49.338
415.38	50.129
415.74	50.932
416.09	51.143
416.45	50.669
416.80	50.297
417.16	51.743
417.51	50.232
417.87	49.583
418.22	50.536
418.58	50.807
418.93	50.983
419.29	50.477
419.64	50.945
420.00	49.268
420.35	48.870
420.71	50.508
421.06	50.060
421.42	49.532
421.77	50.112
422.12	49.354
422.48	49.217
422.83	49.913
423.19	49.392
423.54	50.784
423.90	50.261
424.25	50.363
424.61	50.417
424.96	51.370
425.31	49.114
425.67	49.438
426.02	49.771
426.38	50.916
426.73	50.088
427.09	50.213
427.44	50.834
427.79	50.489
428.15	50.357
428.50	50.790
428.85	50.894
429.21	49.696
429.56	50.337
429.92	49.673
430.27	50.248
430.62	49.923
430.98	49.974
431.33	49.227
431.68	50.681
432.04	49.681
432.39	50.428
432.74	50.987
433.10	50.877
433.45	52.187
433.80	50.998
434.16	50.000
434.51	49.421
434.86	50.456
435.22	50.806
435.57	51.368
435.92	51.492
436.28	51.542
436.63	50.883
436.98	49.914
437.34	50.865
437.69	51.109
438.04	50.534
438.39	51.343
438.75	51.365
439.10	50.447
439.45	50.885
439.81	51.782
440.16	51.722
440.51	51.201
440.86	51.129
441.22	50.723
441.57	50.955
441.92	50.921
442.27	50.377
442.63	50.237
442.98	52.451
443.33	50.652
443.68	48.787
444.03	50.659
444.39	49.854
444.74	51.082
445.09	51.590
445.44	49.973
445.79	49.530
446.15	50.609
446.50	50.135
446.85	49.383
447.20	49.363
447.55	52.205
447.91	51.407
448.26	50.807
448.61	49.124
448.96	51.883
449.31	50.787
449.66	50.647
450.02	49.415
450.37	49.490
450.72	50.818
451.07	49.787
451.42	50.638
451.77	50.147
452.12	50.982
452.47	51.617
452.83	51.282
453.18	50.367
453.53	52.072
453.88	50.502
454.23	50.568
454.58	51.605
454.93	52.320
455.28	51.122
455.63	50.728
455.98	51.726
456.34	49.623
456.69	51.346
457.04	52.693
457.39	50.789
457.74	49.971
458.09	50.546
458.44	50.513
458.79	48.915
459.14	50.621
459.49	50.496
459.84	49.917
460.19	50.678
460.54	49.132
460.89	50.905
461.24	51.852
461.59	51.888
461.94	49.322
462.29	51.276
462.64	50.670
462.99	49.707
463.34	50.000
463.69	50.782
464.04	49.681
464.39	49.275
464.74	49.198
465.09	49.337
465.44	49.363
465.79	49.161
466.14	48.331
466.49	49.166
466.84	49.037
467.19	49.366
467.54	50.062
467.89	48.319
468.24	49.506
468.59	49.695
468.94	48.992
469.29	51.157
469.64	49.866
469.99	50.068
470.34	51.387
470.68	51.006
471.03	50.544
471.38	51.981
471.73	49.034
472.08	50.592
472.43	49.183
472.78	48.585
473.13	49.743
473.48	49.313
473.83	49.207
474.17	48.662
474.52	49.504
474.87	48.628
475.22	49.913
475.57	48.415
475.92	48.274
476.27	49.380
476.61	47.876
476.96	47.993
477.31	48.718
477.66	47.593
478.01	47.256
478.36	48.387
478.70	47.300
479.05	47.817
479.40	46.981
479.75	48.449
480.10	48.161
480.45	46.692
480.79	47.014
481.14	47.505
481.49	48.173
481.84	47.874
482.19	47.342
482.53	46.972
482.88	47.604
483.23	47.850
483.58	46.997
483.92	46.813
484.27	45.708
484.62	46.034
484.97	46.196
485.31	45.856
485.66	43.658
486.01	41.673
486.36	40.751
486.70	40.538
487.05	41.498
487.40	43.029
487.75	43.647
488.09	44.252
488.44	44.863
488.79	46.293
489.13	46.028
489.48	45.840
489.83	45.792
490.17	46.471
490.52	46.236
490.87	46.450
491.22	46.567
491.56	44.920
491.91	46.161
492.26	45.475
492.60	45.714
492.95	45.089
493.30	45.421
493.64	46.290
493.99	44.475
494.34	45.236
494.68	46.658
495.03	45.536
495.37	45.044
495.72	46.248
496.07	46.079
496.41	43.982
496.76	44.811
497.11	44.890
497.45	44.574
497.80	44.866
498.14	44.831
498.49	45.610
498.84	44.391
499.18	44.476
499.53	44.872
499.87	44.455
500.22	44.701
500.56	45.243
500.91	43.606
501.26	44.429
501.60	45.373
501.95	44.134
502.29	44.096
502.64	45.251
502.98	43.619
503.33	42.962
503.67	43.712
504.02	43.452
504.36	43.566
504.71	44.064
505.06	42.458
505.40	44.725
505.75	43.153
506.09	44.461
506.44	44.647
506.78	44.277
507.13	44.826
507.47	44.949
507.82	43.262
508.16	43.972
508.51	44.749
508.85	42.453
509.19	44.133
509.54	43.520
509.88	43.534
510.23	44.010
510.57	44.324
510.92	44.122
511.26	42.806
511.61	43.154
511.95	43.267
512.30	43.372
512.64	44.546
512.98	44.212
513.33	43.469
513.67	42.903
514.02	42.532
514.36	44.511
514.70	43.442
515.05	43.056
515.39	43.578
515.74	44.651
516.08	43.488
516.42	43.507
516.77	43.813
517.11	43.674
517.46	44.526
517.80	43.786
518.14	42.038
518.49	43.524
518.83	42.386
519.17	43.995
519.52	43.803
519.86	42.670
520.20	43.526
520.55	43.686
520.89	43.552
521.23	43.607
521.58	44.538
521.92	43.111
522.26	42.831
522.61	43.427
522.95	43.524
523.29	44.187
523.64	43.963
523.98	43.007
524.32	42.883
524.66	42.273
525.01	42.831
525.35	42.875
525.69	41.995
526.04	42.056
526.38	41.855
526.72	41.595
527.06	42.122
527.41	40.532
527.75	44.180
528.09	42.839
528.43	42.001
528.78	41.549
529.12	42.242
529.46	42.131
529.80	42.265
530.15	42.555
530.49	41.108
530.83	42.278
531.17	42.428
531.51	43.126
531.86	42.581
532.20	42.634
532.54	42.409
532.88	40.950
533.22	40.600
533.57	41.296
533.91	40.458
534.25	40.948
534.59	41.184
534.93	41.225
535.27	40.555
535.62	40.415
535.96	41.431
536.30	41.259
536.64	41.468
536.98	42.468
537.32	41.211
537.66	41.800
538.01	40.816
538.35	40.724
538.69	40.906
539.03	39.181
539.37	39.489
539.71	38.626
540.05	40.523
540.39	41.063
540.73	39.780
541.07	40.169
541.42	40.378
541.76	40.258
542.10	39.651
542.44	39.868
542.78	41.436
543.12	38.964
543.46	40.197
543.80	39.948
544.14	38.896
544.48	39.937
544.82	38.486
545.16	40.143
545.50	38.560
545.84	39.247
546.18	39.259
546.52	39.780
546.86	39.381
547.20	39.987
547.54	38.878
547.88	38.648
548.22	38.107
548.56	38.428
548.90	38.156
549.24	38.316
549.58	38.131
549.92	38.668
550.26	40.128
550.60	38.036
550.94	38.169
551.28	38.552
551.62	39.396
551.96	39.088
552.30	38.430
552.64	38.675
552.98	39.186
553.32	38.031
553.66	37.832
554.00	39.465
554.34	37.750
554.68	39.056
555.02	38.152
555.36	37.926
555.69	37.686
556.03	37.752
556.37	37.449
556.71	37.108
557.05	37.255
557.39	38.558
557.73	37.121
558.07	37.926
558.41	37.554
558.75	38.942
559.08	38.330
559.42	38.851
559.76	38.162
560.10	37.830
560.44	37.317
560.78	36.128
561.12	36.609
561.45	36.832
561.79	36.124
562.13	36.955
562.47	37.227
562.81	37.308
563.15	37.057
563.48	36.605
563.82	36.073
564.16	36.625
564.50	36.263
564.84	35.335
565.17	35.843
565.51	36.166
565.85	35.660
566.19	35.066
566.52	35.592
566.86	34.901
567.20	35.083
567.54	34.703
567.88	33.188
568.21	34.180
568.55	33.367
568.89	33.804
569.23	32.442
569.56	31.417
569.90	31.811
570.24	30.750
570.57	30.772
570.91	29.864
571.25	29.926
571.59	29.514
571.92	29.493
572.26	29.607
572.60	30.150
572.93	29.505
573.27	29.547
573.61	29.509
573.95	29.974
574.28	28.392
574.62	28.814
574.96	28.865
575.29	28.201
575.63	28.735
575.97	28.404
576.30	28.837
576.64	28.481
576.98	28.731
577.31	28.119
577.65	27.883
577.98	27.986
578.32	27.601
578.66	27.526
578.99	28.281
579.33	27.887
579.67	27.852
580.00	28.075
580.34	28.049
580.67	28.197
581.01	27.884
581.35	27.122
581.68	27.413
582.02	26.692
582.35	27.414
582.69	27.667
583.02	27.684
583.36	27.623
583.70	27.672
584.03	28.605
584.37	28.432
584.70	28.631
585.04	27.348
585.37	27.610
585.71	27.514
586.04	27.446
586.38	28.004
586.72	28.528
587.05	27.927
587.39	27.652
587.72	27.802
588.06	27.535
588.39	28.121
588.73	27.779
589.06	28.545
589.40	29.360
589.73	29.426
590.07	29.466
590.40	29.083
590.73	29.391
591.07	30.362
591.40	29.903
591.74	29.870
592.07	29.843
592.41	30.219
592.74	28.951
593.08	28.314
593.41	27.776
593.75	27.171
594.08	27.690
594.41	28.420
594.75	28.799
595.08	28.454
595.42	28.301
595.75	28.312
596.09	28.727
596.42	29.470
596.75	28.620
597.09	29.957
597.42	28.331
597.75	28.849
598.09	29.435
598.42	28.565
598.76	27.848
599.09	27.518
599.42	27.620
599.76	27.562
600.09	27.359
600.42	27.502
600.76	27.250
601.09	27.942
601.42	27.740
601.76	27.704
602.09	28.063
602.42	27.309
602.76	28.738
603.09	27.813
603.42	28.739
603.76	27.096
604.09	27.918
604.42	28.292
604.76	28.469
605.09	28.266
605.42	28.345
605.75	27.980
606.09	27.694
606.42	28.157
606.75	27.914
607.09	28.631
607.42	27.856
607.75	27.426
608.08	27.790
608.42	28.328
608.75	27.547
609.08	28.261
609.41	28.272
609.75	27.489
610.08	27.992
610.41	27.654
610.74	28.761
611.07	29.644
611.41	28.263
611.74	29.462
612.07	30.124
612.40	28.384
612.73	29.105
613.07	28.772
613.40	29.279
613.73	28.317
614.06	29.086
614.39	27.583
614.72	28.421
615.06	29.097
615.39	28.875
615.72	27.403
616.05	28.442
616.38	29.350
616.71	29.157
617.05	29.446
617.38	29.645
617.71	28.889
618.04	29.087
618.37	29.036
618.70	29.123
619.03	30.197
619.36	29.803
619.69	30.704
620.03	30.220
620.36	30.615
620.69	31.575
621.02	31.342
621.35	29.836
621.68	31.231
622.01	30.728
622.34	30.787
622.67	30.875
623.00	29.567
623.33	29.807
623.66	30.093
623.99	30.560
624.32	29.244
624.65	30.155
624.99	29.462
625.32	29.471
625.65	30.654
625.98	29.977
626.31	31.571
626.64	30.939
626.97	30.590
627.30	30.923
627.63	30.681
627.96	31.034
628.29	31.846
628.62	32.388
628.95	33.396
629.28	31.569
629.61	32.722
629.94	32.476
630.26	32.126
630.59	31.554
630.92	30.843
631.25	30.602
631.58	32.633
631.91	32.961
632.24	31.962
632.57	32.634
632.90	34.868
633.23	33.781
633.56	35.480
633.89	34.994
634.22	33.371
634.55	33.964
634.88	33.892
635.20	34.767
635.53	33.133
635.86	35.149
636.19	34.941
636.52	34.602
636.85	32.302
637.18	32.258
637.51	34.515
637.83	32.306
638.16	34.655
638.49	34.761
638.82	35.777
639.15	34.375
639.48	34.289
639.81	36.863
640.13	34.375
640.46	35.034
640.79	34.082
641.12	33.425
641.45	34.078
641.77	37.850
642.10	35.088
642.43	36.486
642.76	36.687
643.09	38.037
643.41	34.294
643.74	36.111
644.07	35.213
644.40	37.730
644.73	36.220
645.05	36.292
645.38	36.177
645.71	36.232
646.04	38.040
646.36	37.730
646.69	38.294
647.02	37.755
647.35	37.973
647.67	38.584
648.00	37.561
648.33	35.974
648.66	35.606
648.98	34.633
649.31	34.679
649.64	34.978
649.96	34.724
650.29	36.019
650.62	36.246
650.94	36.791
651.27	38.007
651.60	38.270
651.92	35.623
652.25	35.831
652.58	35.358
652.90	37.915
653.23	33.590
653.56	33.543
653.88	35.816
654.21	36.651
654.54	35.314
654.86	33.956
655.19	31.757
655.52	21.578
655.84	18.182
656.17	23.385
656.49	31.421
656.82	32.643
657.15	24.813
657.47	18.449
657.80	14.149
658.13	14.928
658.45	22.986
658.78	22.710
659.10	24.207
659.43	25.732
659.75	27.825
660.08	30.759
660.41	33.520
660.73	36.086
661.06	36.146
661.38	39.636
661.71	35.769
662.03	40.828
662.36	35.586
662.68	37.149
663.01	37.374
663.33	35.244
663.66	39.916
663.98	38.229
664.31	38.445
664.63	38.259
664.96	34.406
665.28	39.549
665.61	33.723
665.93	36.821
666.26	39.148
666.58	38.494
666.91	41.649
667.23	38.652
667.56	39.093
667.88	38.462
668.21	39.659
668.53	39.913
668.86	35.931
669.18	39.232
669.50	39.348
669.83	40.087
670.15	38.000
670.48	35.730
670.80	40.948
671.13	36.730
671.45	37.447
671.77	40.326
672.10	35.490
672.42	34.982
672.75	32.504
673.07	35.387
673.39	33.635
673.72	36.133
674.04	36.275
674.37	37.476
674.69	35.992
675.01	34.100
675.34	37.988
675.66	41.895
675.98	35.642
676.31	37.395
676.63	37.367
676.95	36.478
677.28	35.047
677.60	35.165
677.92	40.717
678.25	34.086
678.57	32.072
678.89	36.874
679.22	34.381
679.54	35.305
679.86	36.147
680.18	32.737
680.51	33.688
680.83	32.918
681.15	33.585
681.48	34.972
681.80	34.816
682.12	35.824
682.44	32.302
682.77	37.678
683.09	37.768
683.41	36.142
683.73	35.320
684.06	36.983
684.38	33.659
684.70	36.822
685.02	33.583
685.34	32.601
685.67	30.245
685.99	33.333
686.31	32.082
686.63	32.862
686.96	33.214
687.28	32.310
687.60	32.609
687.92	36.015
688.24	33.460
688.56	33.936
688.89	35.062
689.21	38.428
689.53	36.952
689.85	33.925
690.17	33.747
690.49	37.155
690.82	35.748
691.14	33.705
691.46	34.388
691.78	32.530
692.10	34.711
692.42	35.529
692.74	34.440
693.06	33.404
693.39	34.908
693.71	33.624
694.03	38.526
694.35	34.416
694.67	37.071
694.99	37.317
695.31	35.784
695.63	35.407
695.95	37.653
696.27	36.041
696.59	37.306
696.91	40.674
697.23	32.394
697.56	34.968
697.88	29.857
698.20	32.292
698.52	35.484
698.84	35.412
699.16	35.484
699.48	36.105
699.80	37.923
700.12	40.260
700.44	38.196
700.76	41.989
701.08	37.069
701.40	41.341
701.72	39.067
702.04	43.750
702.36	37.960
702.68	38.810
703.00	38.227
703.32	34.309
703.64	36.997
703.96	40.111
704.28	40.116
704.60	38.416
704.91	43.917
705.23	40.469
705.55	41.860
705.87	43.522
706.19	43.816
706.51	38.006
706.83	40.909
707.15	40.336
707.47	32.828
707.79	36.364
708.11	32.877
708.43	32.619
708.74	35.204
709.06	40.000
709.38	33.858
709.70	40.407
710.02	38.279
710.34	39.091
710.66	43.284
710.98	37.784
711.29	39.826
711.61	43.068
711.93	39.103
712.25	44.695
712.57	40.074
712.89	40.138
713.20	39.818
713.52	40.132
713.84	39.873
714.16	36.585
714.48	39.368
714.80	39.818
715.11	35.159
715.43	35.608
715.75	36.522
716.07	37.061
716.39	37.931
716.70	44.186
717.02	41.367
717.34	40.989
717.66	43.657
717.97	47.410
718.29	41.111
718.61	43.066
718.93	38.235
719.24	42.907
719.56	38.983
719.88	41.356
720.20	44.595
720.51	44.948
720.83	42.379
721.15	38.433
721.46	41.844
721.78	43.728
722.10	41.132
722.42	47.368
722.73	41.573
723.05	42.623
723.37	41.296
723.68	42.857
724.00	41.057
724.32	45.161
724.63	37.805
724.95	45.607
725.27	41.296
725.58	49.609
725.90	43.796
726.22	41.509
726.53	43.750
726.85	40.614
727.16	39.502
727.48	43.972
727.80	41.288
728.11	39.130
728.43	40.769
728.74	39.068
729.06	46.350
729.38	41.912
729.69	42.349
730.01	37.543
730.32	38.889
730.64	39.465
730.96	38.944
731.27	39.735
731.59	36.086
731.90	35.569
732.22	36.957
732.53	32.817
732.85	39.423
733.16	36.656
733.48	37.874
733.80	40.260
734.11	36.624
734.43	36.982
734.74	35.143
735.06	33.524
735.37	39.306
735.69	33.121
736.00	39.216
736.32	35.826
736.63	34.505
736.95	36.102
737.26	33.333
737.58	34.194
737.89	37.124
738.21	38.225
738.52	37.857
738.83	37.358
739.15	42.308
739.46	38.321
739.78	42.361
740.09	35.692
740.41	37.742
740.72	35.889
741.04	40.000
741.35	42.917
741.66	46.222
741.98	41.981
742.29	50.239
742.61	48.707
742.92	46.606
743.23	46.154
743.55	42.000
743.86	41.228
744.18	46.460
744.49	46.411
744.80	44.131
745.12	42.727
745.43	43.612
745.74	53.153
746.06	41.743
746.37	44.395
746.68	42.534
747.00	49.074
747.31	49.524
747.62	47.345
747.94	45.815
748.25	43.404
748.56	41.410
748.88	45.050
749.19	51.500
749.50	46.512
749.82	41.870
750.13	39.184
750.44	37.591
750.75	41.053
751.07	45.016
751.38	39.024
751.69	39.711
752.01	37.594
752.32	38.989
752.63	42.553
752.94	39.754
753.26	47.600
753.57	39.837
753.88	41.406
754.19	37.500
754.51	40.972
754.82	35.018
755.13	42.642
755.44	40.226
755.75	35.036
756.07	39.362
756.38	36.131
756.69	37.584
757.00	35.629
757.31	34.718
757.63	33.918
757.94	32.172
758.25	30.392
758.56	30.123
758.87	32.796
759.18	36.061
759.50	36.050
759.81	37.072
760.12	30.313
760.43	33.238
760.74	33.967
761.05	32.768
761.36	30.214
761.67	33.239
761.99	34.472
762.30	38.542
762.61	40.840
762.92	42.188
763.23	39.076
763.54	43.600
763.85	39.453
764.16	46.154
764.47	41.825
764.78	37.809
765.10	35.759
765.41	34.218
765.72	33.533
766.03	36.677
766.34	36.000
766.65	42.553
766.96	39.316
767.27	44.670
767.58	53.646
767.89	48.421
768.20	59.770
768.51	42.640
768.82	44.954
769.13	38.211
769.44	39.271
769.75	45.064
770.06	39.450
770.37	43.439
770.68	43.056
770.99	40.889
771.30	37.295
771.61	41.704
771.92	38.934
772.23	40.756
772.54	41.538
772.85	45.026
773.16	48.404
773.47	56.522
773.78	51.777
774.09	46.429
774.39	54.386
774.70	48.765
775.01	52.174
775.32	49.673
775.63	57.895
775.94	61.151
776.25	63.780
776.56	61.940
776.87	55.738
777.18	57.031
777.48	70.992
777.79	54.545
778.10	59.259
778.41	59.821
778.72	52.555
779.03	56.376
779.34	56.376
779.65	48.649
779.95	53.374
780.26	54.248
780.57	62.069
780.88	66.406
781.19	64.662
781.50	54.054
781.80	54.717
782.11	51.412
782.42	49.367
782.73	45.399
783.04	57.432
783.34	59.859
783.65	68.493
783.96	55.224
784.27	49.650
784.57	46.043
784.88	59.259
785.19	65.873
785.50	66.038
785.81	58.955
786.11	65.574
786.42	64.341
786.73	50.442
787.04	78.302
787.34	67.857
787.65	62.000
787.96	64.865
788.26	61.983
788.57	67.797
788.88	60.331
789.19	61.111
789.49	62.121
789.80	58.779
790.11	77.143
790.41	81.188
790.72	81.928
791.03	75.000
791.33	81.395
791.64	67.010
791.95	72.277
792.25	91.111
792.56	85.714
792.87	79.487
793.17	89.873
793.48	87.356
793.79	72.414
794.09	77.273
794.40	69.748
794.70	64.706
795.01	54.074
795.32	64.029
795.62	54.331
795.93	58.621
796.23	71.681
796.54	70.588
796.85	81.081
797.15	100.000
797.46	87.879
797.76	87.952
798.07	92.405
798.37	95.385
798.68	101.515
798.99	77.465
799.29	93.506
799.60	82.955
799.90	97.260
800.21	71.642
800.51	98.276
800.82	112.281
801.12	85.246
801.43	100.000
801.73	91.892
802.04	100.000
802.34	87.654
802.65	107.812
802.95	111.864
803.26	103.125
803.56	90.000
803.87	96.923
804.17	101.471
804.48	120.370
804.78	86.207
805.09	98.529
805.39	78.846
805.70	107.143
806.00	91.803
806.30	87.879
806.61	97.561
806.91	75.949
807.22	80.263
807.52	86.567
807.83	100.000
808.13	90.625
808.43	125.000
808.74	73.684
809.04	101.449
809.35	92.537
809.65	85.526
809.95	103.226
810.26	110.169
810.56	90.476
810.86	154.545
811.17	150.000
811.47	100.000
811.77	98.148
812.08	109.091
812.38	130.000
812.69	172.222
812.99	147.727
813.29	116.327
813.59	135.714
813.90	132.653
814.20	109.091
814.50	87.692
814.81	101.471
815.11	136.735
815.41	103.279
815.72	140.476
816.02	120.000
816.32	157.143
816.62	132.500
816.93	134.146
817.23	152.381
817.53	143.182
817.84	209.091
818.14	115.217
818.44	133.333
818.74	182.353
819.04	160.000
819.35	140.000
819.65	185.294
819.95	160.714
820.25	255.000
820.56	174.359
820.86	152.273
821.16	139.535
821.46	141.026
821.76	114.000
822.07	177.143
822.37	145.000
822.67	145.455
822.97	123.529
823.27	200.000
823.57	167.568
823.88	162.500
824.18	180.000
824.48	138.095
824.78	208.000
825.08	220.833
825.38	167.568
825.69	156.098
825.99	266.667
826.29	168.966
826.59	173.684
826.89	150.000
827.19	161.765
827.49	180.645
827.79	163.636
828.09	147.727
828.39	123.404
828.70	130.612
829.00	188.889
829.30	145.161
829.60	145.000
829.90	340.000
830.20	210.714
830.50	191.304
830.80	239.130
831.10	226.667
831.40	183.333
831.70	234.783
832.00	246.154
832.30	222.222
832.60	331.250
832.90	223.333
833.20	450.000
833.50	229.032
833.80	172.414
834.10	193.750
834.40	230.769
834.70	283.333
835.00	271.429
835.30	174.286
835.60	407.692
835.90	203.448
836.20	335.714
836.50	186.207
836.80	220.000
837.10	194.444
837.40	276.190
837.70	341.176
838.00	207.407
838.30	242.857
838.60	319.048
838.90	234.615
839.19	220.000
839.49	442.857
839.79	350.000
840.09	335.000
840.39	285.714
840.69	221.739
840.99	294.444
841.29	550.000
841.59	391.667
841.88	337.500
842.18	189.655
842.48	276.190
842.78	203.333
843.08	252.174
843.38	212.500
843.68	933.333
843.97	246.154
844.27	224.138
844.57	290.476
844.87	350.000
845.17	233.333
845.47	1600.000
845.76	422.222
846.06	317.647
846.36	625.000
846.66	428.571
846.96	268.750
847.25	554.545
847.55	472.727
847.85	234.783
848.15	490.000
848.44	328.571
848.74	288.889
849.04	305.882
849.34	500.000
849.63	321.053
849.93	463.636
850.23	1040.000
850.53	500.000
850.82	2250.000
851.12	-5700.000
851.42	5100.000
851.71	285.000
852.01	-1233.333
852.31	295.833
852.61	1866.667
852.90	252.381
853.20	232.000
853.50	358.824
853.79	285.714
854.09	250.000
854.39	331.250
854.68	183.784
854.98	170.968
855.28	183.333
855.57	203.448
855.87	188.889
856.17	236.842
856.46	286.667
856.76	282.353
857.05	213.793
857.35	233.333
857.65	340.000
857.94	291.304
858.24	207.692
858.53	275.000
858.83	300.000
859.13	393.333
859.42	0.000
859.72	488.889
860.01	427.273
860.31	281.818
860.60	236.842
860.90	252.174
861.20	588.889
861.49	450.000
861.79	-4300.000
862.08	700.000
862.38	304.762
862.67	400.000
862.97	335.294
863.26	611.111
863.56	316.667
863.85	383.333
864.15	600.000
864.44	420.000
864.74	866.667
865.03	750.000
865.33	278.947
865.62	363.636
865.92	423.077
866.21	391.667
866.51	0.000
866.80	445.455
867.10	1180.000
867.39	400.000
867.69	527.273
867.98	336.842
868.27	445.455
868.57	315.789
868.86	-6100.000
869.16	381.250
869.45	2300.000
869.75	-4500.000
870.04	433.333
870.33	600.000
870.63	1175.000
870.92	2600.000
871.22	600.000
871.51	411.765
871.80	300.000
872.10	428.571
>>>>>End Processed Spectral Data<<<<<
