SpectraSuite Data File
++++++++++++++++++++++++++++++++++++
Date: Wed May 13 19:42:01 PDT 2015
User: schluterlab
Dark Spectrum Present: Yes
Reference Spectrum Present: Yes
Number of Sampled Component Spectra: 1
Spectrometers: USB2E3373
Integration Time (usec): 3000 (USB2E3373)
Spectra Averaged: 3 (USB2E3373)
Boxcar Smoothing: 0 (USB2E3373)
Correct for Electrical Dark: No (USB2E3373)
Strobe/Lamp Enabled: No (USB2E3373)
Correct for Detector Non-linearity: No (USB2E3373)
Correct for Stray Light: No (USB2E3373)
Number of Pixels in Processed Spectrum: 2048
>>>>>Begin Processed Spectral Data<<<<<
178.53	0.000
178.91	-1250.000
179.29	-1325.000
179.67	-344.444
180.04	-1475.000
180.42	2850.000
180.80	1020.000
181.18	-1175.000
181.56	671.429
181.94	0.000
182.31	-685.714
182.69	1866.667
183.07	-537.500
183.45	-511.111
183.83	509.091
184.20	-440.000
184.58	2400.000
184.96	6200.000
185.34	-940.000
185.72	-600.000
186.09	-2350.000
186.47	2450.000
186.85	2150.000
187.23	4500.000
187.61	-1733.333
187.98	1225.000
188.36	590.909
188.74	563.636
189.12	-1040.000
189.49	480.000
189.87	-4900.000
190.25	-1175.000
190.63	464.286
191.00	346.154
191.38	866.667
191.76	-1300.000
192.14	1575.000
192.51	612.500
192.89	766.667
193.27	662.500
193.65	-900.000
194.02	580.000
194.40	980.000
194.78	690.000
195.15	508.333
195.53	650.000
195.91	-2300.000
196.29	368.750
196.66	284.211
197.04	-370.000
197.42	0.000
197.79	670.000
198.17	-4900.000
198.55	742.857
198.92	675.000
199.30	740.000
199.68	0.000
200.05	355.556
200.43	771.429
200.81	5400.000
201.18	1766.667
201.56	-1933.333
201.94	622.222
202.31	622.222
202.69	500.000
203.07	570.000
203.44	0.000
203.82	1000.000
204.19	771.429
204.57	435.714
204.95	812.500
205.32	1500.000
205.70	518.182
206.08	407.143
206.45	2350.000
206.83	325.000
207.20	866.667
207.58	880.000
207.96	383.333
208.33	737.500
208.71	-766.667
209.08	742.857
209.46	500.000
209.84	490.909
210.21	-1700.000
210.59	1300.000
210.96	-562.500
211.34	2600.000
211.71	520.000
212.09	800.000
212.46	0.000
212.84	1866.667
213.22	1475.000
213.59	-5000.000
213.97	883.333
214.34	828.571
214.72	572.727
215.09	1160.000
215.47	-2600.000
215.84	-2450.000
216.22	1833.333
216.59	435.714
216.97	1450.000
217.34	427.273
217.72	-666.667
218.09	0.000
218.47	-5300.000
218.84	655.556
219.22	757.143
219.59	1466.667
219.97	-671.429
220.34	840.000
220.72	-1566.667
221.09	421.429
221.47	1650.000
221.84	-900.000
222.22	0.000
222.59	1325.000
222.97	-2500.000
223.34	1140.000
223.72	430.769
224.09	940.000
224.46	2450.000
224.84	-4800.000
225.21	-1180.000
225.59	-4700.000
225.96	590.000
226.34	340.000
226.71	3150.000
227.08	687.500
227.46	630.000
227.83	-950.000
228.21	-2400.000
228.58	766.667
228.95	-2700.000
229.33	-2500.000
229.70	1833.333
230.08	828.571
230.45	-900.000
230.82	466.667
231.20	1016.667
231.57	628.571
231.95	441.667
232.32	250.000
232.69	436.364
233.07	757.143
233.44	346.154
233.81	-1700.000
234.19	289.474
234.56	483.333
234.93	400.000
235.31	436.364
235.68	300.000
236.05	414.286
236.43	172.727
236.80	236.842
237.17	4400.000
237.55	242.857
237.92	185.714
238.29	247.619
238.67	154.839
239.04	165.517
239.41	152.778
239.79	119.565
240.16	145.238
240.53	138.636
240.91	86.275
241.28	104.000
241.65	94.000
242.02	104.348
242.40	79.032
242.77	86.667
243.14	66.667
243.51	75.281
243.89	67.059
244.26	58.889
244.63	61.290
245.00	57.447
245.38	60.396
245.75	51.402
246.12	48.624
246.49	55.474
246.87	50.400
247.24	43.077
247.61	40.714
247.98	37.255
248.36	40.541
248.73	43.312
249.10	41.401
249.47	34.463
249.84	44.385
250.22	36.364
250.59	35.503
250.96	30.303
251.33	34.597
251.70	39.109
252.08	27.143
252.45	29.148
252.82	30.000
253.19	29.362
253.56	25.490
253.94	29.461
254.31	27.734
254.68	26.538
255.05	26.937
255.42	26.016
255.79	23.162
256.16	26.354
256.54	22.968
256.91	24.911
257.28	24.460
257.65	26.403
258.02	27.329
258.39	22.082
258.76	24.080
259.14	24.405
259.51	21.581
259.88	18.944
260.25	23.867
260.62	23.699
260.99	21.429
261.36	21.622
261.73	21.203
262.10	22.384
262.47	21.408
262.85	22.006
263.22	19.658
263.59	21.368
263.96	19.505
264.33	24.543
264.70	19.211
265.07	21.995
265.44	20.960
265.81	17.032
266.18	20.101
266.55	20.488
266.92	18.428
267.29	21.528
267.66	20.413
268.03	19.318
268.40	20.561
268.77	18.138
269.14	17.117
269.51	20.316
269.88	20.513
270.25	15.801
270.62	21.124
270.99	20.430
271.36	20.601
271.73	18.925
272.10	19.348
272.47	16.989
272.84	19.697
273.21	19.287
273.58	14.847
273.95	18.029
274.32	15.909
274.69	18.630
275.06	16.732
275.43	18.723
275.80	17.836
276.17	16.904
276.54	16.840
276.91	15.810
277.28	17.773
277.65	17.215
278.02	16.977
278.39	18.750
278.76	17.273
279.13	16.604
279.50	14.711
279.87	16.733
280.23	18.563
280.60	17.215
280.97	15.527
281.34	15.398
281.71	17.636
282.08	17.083
282.45	15.091
282.82	15.808
283.19	16.399
283.56	16.140
283.92	15.059
284.29	14.991
284.66	15.245
285.03	13.201
285.40	15.493
285.77	14.478
286.14	13.472
286.51	16.167
286.87	13.504
287.24	15.309
287.61	15.891
287.98	15.584
288.35	12.995
288.72	14.330
289.08	17.058
289.45	12.850
289.82	15.935
290.19	13.344
290.56	14.395
290.93	13.142
291.29	12.117
291.66	14.307
292.03	16.570
292.40	13.950
292.77	12.574
293.13	14.030
293.50	12.974
293.87	13.037
294.24	12.148
294.60	11.645
294.97	13.808
295.34	15.656
295.71	13.210
296.08	13.533
296.44	13.618
296.81	13.474
297.18	12.873
297.55	10.950
297.91	11.609
298.28	13.253
298.65	12.533
299.02	13.175
299.38	11.952
299.75	9.973
300.12	11.367
300.48	11.875
300.85	10.358
301.22	11.465
301.59	10.354
301.95	11.083
302.32	12.709
302.69	11.111
303.05	11.273
303.42	9.753
303.79	10.985
304.15	10.956
304.52	11.124
304.89	11.034
305.25	9.513
305.62	10.646
305.99	12.397
306.35	10.515
306.72	10.874
307.09	10.655
307.45	12.050
307.82	9.821
308.19	10.265
308.55	10.895
308.92	10.419
309.29	10.771
309.65	11.347
310.02	11.628
310.38	11.398
310.75	9.926
311.12	12.078
311.48	11.703
311.85	11.111
312.22	11.030
312.58	9.875
312.95	11.932
313.31	11.650
313.68	10.915
314.05	12.919
314.41	12.161
314.78	11.178
315.14	11.917
315.51	11.740
315.87	12.079
316.24	12.115
316.61	11.501
316.97	12.133
317.34	11.937
317.70	13.480
318.07	14.533
318.43	14.384
318.80	15.370
319.16	14.407
319.53	14.165
319.89	15.524
320.26	15.300
320.62	15.873
320.99	15.758
321.35	17.374
321.72	17.556
322.08	17.966
322.45	18.010
322.81	18.411
323.18	18.979
323.54	19.295
323.91	18.585
324.27	19.885
324.64	19.664
325.00	20.108
325.37	21.201
325.73	21.364
326.10	21.889
326.46	20.520
326.83	23.555
327.19	23.570
327.56	22.997
327.92	23.272
328.29	24.401
328.65	24.586
329.01	24.819
329.38	24.422
329.74	24.284
330.11	25.165
330.47	25.253
330.84	26.930
331.20	25.319
331.56	26.330
331.93	26.759
332.29	26.442
332.66	27.168
333.02	25.960
333.38	28.275
333.75	28.164
334.11	26.779
334.48	27.240
334.84	27.941
335.20	27.909
335.57	27.108
335.93	26.518
336.29	28.022
336.66	27.232
337.02	27.602
337.38	28.333
337.75	26.738
338.11	27.574
338.47	28.085
338.84	27.589
339.20	28.073
339.56	29.197
339.93	27.818
340.29	27.627
340.65	27.807
341.02	28.447
341.38	27.936
341.74	27.982
342.11	27.860
342.47	28.370
342.83	27.825
343.20	27.706
343.56	27.717
343.92	26.842
344.28	27.551
344.65	28.461
345.01	27.104
345.37	26.930
345.73	27.665
346.10	28.900
346.46	28.814
346.82	28.089
347.19	26.817
347.55	28.243
347.91	28.317
348.27	28.431
348.63	28.261
349.00	27.346
349.36	27.176
349.72	27.747
350.08	26.742
350.45	28.560
350.81	28.270
351.17	27.796
351.53	27.518
351.89	27.310
352.26	27.388
352.62	29.110
352.98	28.606
353.34	28.184
353.70	27.823
354.07	28.306
354.43	27.540
354.79	27.595
355.15	27.454
355.51	29.097
355.87	30.122
356.24	28.094
356.60	28.388
356.96	27.997
357.32	27.637
357.68	28.661
358.04	27.553
358.40	27.553
358.77	28.091
359.13	27.072
359.49	27.922
359.85	27.937
360.21	28.947
360.57	29.027
360.93	27.769
361.29	28.193
361.66	27.632
362.02	27.836
362.38	28.213
362.74	28.943
363.10	28.053
363.46	28.100
363.82	28.193
364.18	28.561
364.54	29.495
364.90	29.674
365.26	28.309
365.62	29.511
365.98	28.853
366.35	28.152
366.71	29.140
367.07	28.332
367.43	29.971
367.79	28.551
368.15	29.310
368.51	28.779
368.87	29.265
369.23	29.115
369.59	29.327
369.95	28.603
370.31	29.131
370.67	29.058
371.03	29.738
371.39	29.300
371.75	28.750
372.11	28.236
372.47	29.985
372.83	30.476
373.19	29.335
373.55	29.712
373.91	31.591
374.27	29.072
374.63	29.891
374.99	29.308
375.35	29.030
375.71	29.404
376.07	31.824
376.42	29.917
376.78	30.020
377.14	29.376
377.50	30.397
377.86	30.120
378.22	30.405
378.58	29.637
378.94	29.290
379.30	29.453
379.66	30.520
380.02	30.160
380.38	29.872
380.74	30.432
381.09	30.318
381.45	30.424
381.81	30.958
382.17	31.274
382.53	29.686
382.89	30.185
383.25	30.832
383.61	30.855
383.97	29.894
384.32	31.067
384.68	29.306
385.04	30.424
385.40	30.526
385.76	29.914
386.12	29.534
386.48	30.648
386.83	31.430
387.19	31.602
387.55	30.241
387.91	31.137
388.27	30.717
388.62	30.793
388.98	30.528
389.34	30.163
389.70	30.227
390.06	32.003
390.42	31.777
390.77	30.216
391.13	31.844
391.49	31.853
391.85	30.108
392.20	30.095
392.56	31.061
392.92	30.901
393.28	30.355
393.64	30.276
393.99	30.422
394.35	30.397
394.71	31.054
395.07	30.467
395.42	30.284
395.78	30.598
396.14	30.788
396.50	31.140
396.85	30.451
397.21	30.764
397.57	30.750
397.92	31.731
398.28	30.157
398.64	30.466
399.00	30.778
399.35	29.893
399.71	30.035
400.07	31.283
400.42	31.288
400.78	31.122
401.14	30.427
401.49	31.284
401.85	30.913
402.21	29.281
402.57	30.043
402.92	31.148
403.28	30.543
403.63	30.507
403.99	31.083
404.35	30.424
404.70	30.635
405.06	29.354
405.42	30.443
405.77	29.371
406.13	30.474
406.49	30.810
406.84	30.419
407.20	29.965
407.55	30.249
407.91	30.933
408.27	30.504
408.62	29.500
408.98	29.534
409.34	29.705
409.69	30.323
410.05	29.988
410.40	30.275
410.76	30.167
411.11	29.674
411.47	30.607
411.83	31.338
412.18	30.921
412.54	30.324
412.89	30.361
413.25	29.516
413.60	30.574
413.96	29.083
414.31	30.012
414.67	29.658
415.03	30.728
415.38	30.348
415.74	30.418
416.09	30.242
416.45	29.451
416.80	30.535
417.16	31.233
417.51	30.192
417.87	29.351
418.22	30.599
418.58	30.665
418.93	30.037
419.29	30.999
419.64	30.793
420.00	30.000
420.35	30.319
420.71	29.707
421.06	29.475
421.42	30.292
421.77	30.549
422.12	29.927
422.48	28.980
422.83	29.761
423.19	29.945
423.54	29.832
423.90	30.435
424.25	29.927
424.61	29.821
424.96	30.146
425.31	29.900
425.67	29.157
426.02	30.114
426.38	31.013
426.73	30.252
427.09	30.030
427.44	30.592
427.79	29.385
428.15	30.893
428.50	30.544
428.85	30.513
429.21	29.818
429.56	30.067
429.92	29.441
430.27	29.791
430.62	28.981
430.98	30.306
431.33	29.227
431.68	29.372
432.04	29.286
432.39	31.468
432.74	30.042
433.10	30.390
433.45	30.204
433.80	29.989
434.16	30.182
434.51	30.421
434.86	30.559
435.22	30.072
435.57	30.274
435.92	29.783
436.28	31.613
436.63	30.740
436.98	29.994
437.34	30.352
437.69	31.155
438.04	30.242
438.39	30.866
438.75	31.028
439.10	30.391
439.45	30.342
439.81	30.695
440.16	30.322
440.51	29.174
440.86	30.979
441.22	29.644
441.57	30.149
441.92	30.450
442.27	30.947
442.63	31.122
442.98	31.549
443.33	30.815
443.68	30.872
444.03	31.528
444.39	30.721
444.74	31.006
445.09	31.429
445.44	30.946
445.79	31.123
446.15	30.916
446.50	32.256
446.85	31.244
447.20	30.597
447.55	30.709
447.91	31.054
448.26	31.330
448.61	30.695
448.96	30.842
449.31	32.002
449.66	30.951
450.02	30.362
450.37	30.896
450.72	31.190
451.07	31.079
451.42	30.881
451.77	31.298
452.12	30.196
452.47	32.027
452.83	30.944
453.18	32.641
453.53	31.107
453.88	31.483
454.23	31.620
454.58	31.738
454.93	32.931
455.28	31.234
455.63	31.432
455.98	32.560
456.34	32.035
456.69	31.935
457.04	31.269
457.39	31.268
457.74	31.109
458.09	30.650
458.44	31.300
458.79	30.694
459.14	31.321
459.49	30.590
459.84	31.302
460.19	30.171
460.54	30.093
460.89	31.103
461.24	30.905
461.59	32.191
461.94	30.333
462.29	31.869
462.64	31.142
462.99	30.449
463.34	31.600
463.69	30.519
464.04	31.594
464.39	30.087
464.74	30.600
465.09	30.579
465.44	30.637
465.79	30.705
466.14	30.268
466.49	29.366
466.84	30.940
467.19	30.839
467.54	31.875
467.89	29.952
468.24	31.297
468.59	31.074
468.94	30.666
469.29	30.527
469.64	31.124
469.99	30.785
470.34	31.110
470.68	31.825
471.03	30.204
471.38	31.550
471.73	30.979
472.08	31.447
472.43	30.590
472.78	30.612
473.13	31.065
473.48	30.836
473.83	30.488
474.17	29.869
474.52	30.583
474.87	30.823
475.22	30.760
475.57	29.769
475.92	30.165
476.27	29.200
476.61	30.502
476.96	28.532
477.31	30.037
477.66	29.923
478.01	29.326
478.36	29.931
478.70	29.855
479.05	30.032
479.40	30.092
479.75	29.944
480.10	28.728
480.45	28.367
480.79	29.097
481.14	29.697
481.49	29.663
481.84	28.989
482.19	28.987
482.53	28.899
482.88	28.990
483.23	29.907
483.58	29.163
483.92	28.538
484.27	28.235
484.62	27.802
484.97	28.104
485.31	27.877
485.66	26.229
486.01	25.553
486.36	24.895
486.70	24.689
487.05	25.665
487.40	26.302
487.75	26.177
488.09	27.267
488.44	27.385
488.79	28.174
489.13	27.960
489.48	27.977
489.83	27.795
490.17	28.409
490.52	27.812
490.87	28.675
491.22	27.876
491.56	27.244
491.91	28.292
492.26	28.066
492.60	27.419
492.95	26.988
493.30	27.804
493.64	28.138
493.99	27.205
494.34	27.382
494.68	27.335
495.03	27.914
495.37	27.873
495.72	28.021
496.07	27.935
496.41	26.372
496.76	26.781
497.11	27.060
497.45	27.387
497.80	27.543
498.14	27.343
498.49	27.415
498.84	27.565
499.18	26.619
499.53	26.733
499.87	27.446
500.22	27.131
500.56	27.621
500.91	26.827
501.26	26.648
501.60	27.290
501.95	26.260
502.29	26.242
502.64	26.676
502.98	26.554
503.33	26.645
503.67	26.032
504.02	26.707
504.36	25.456
504.71	26.478
505.06	26.313
505.40	25.863
505.75	26.037
506.09	25.753
506.44	25.654
506.78	26.303
507.13	26.300
507.47	26.818
507.82	26.241
508.16	26.646
508.51	27.296
508.85	26.167
509.19	26.122
509.54	26.173
509.88	25.657
510.23	26.118
510.57	27.296
510.92	26.100
511.26	25.283
511.61	25.934
511.95	25.678
512.30	24.443
512.64	25.470
512.98	25.723
513.33	26.820
513.67	25.560
514.02	25.271
514.36	25.505
514.70	26.010
515.05	25.321
515.39	25.911
515.74	26.239
516.08	26.607
516.42	26.249
516.77	25.920
517.11	25.749
517.46	25.451
517.80	26.249
518.14	25.536
518.49	26.196
518.83	25.455
519.17	25.404
519.52	25.354
519.86	25.898
520.20	26.474
520.55	26.092
520.89	25.547
521.23	27.081
521.58	26.411
521.92	25.658
522.26	24.954
522.61	26.480
522.95	24.739
523.29	26.172
523.64	26.402
523.98	26.124
524.32	24.849
524.66	24.835
525.01	26.654
525.35	23.792
525.69	24.692
526.04	26.168
526.38	25.320
526.72	24.663
527.06	26.051
527.41	24.691
527.75	25.402
528.09	25.498
528.43	25.366
528.78	25.814
529.12	25.939
529.46	24.801
529.80	25.186
530.15	25.919
530.49	23.385
530.83	25.000
531.17	26.305
531.51	26.135
531.86	25.226
532.20	25.880
532.54	25.625
532.88	24.968
533.22	24.922
533.57	25.494
533.91	24.624
534.25	24.605
534.59	23.978
534.93	25.223
535.27	24.080
535.62	24.115
535.96	25.110
536.30	24.539
536.64	25.370
536.98	25.348
537.32	24.490
537.66	25.667
538.01	25.016
538.35	25.016
538.69	24.761
539.03	23.522
539.37	24.217
539.71	22.813
540.05	24.967
540.39	25.050
540.73	24.127
541.07	24.984
541.42	24.918
541.76	26.000
542.10	25.550
542.44	24.371
542.78	24.967
543.12	24.440
543.46	24.656
543.80	25.374
544.14	23.556
544.48	24.508
544.82	23.348
545.16	24.073
545.50	24.100
545.84	24.261
546.18	24.646
546.52	25.189
546.86	23.643
547.20	25.759
547.54	24.716
547.88	24.617
548.22	24.035
548.56	23.774
548.90	24.136
549.24	23.906
549.58	23.329
549.92	24.451
550.26	24.787
550.60	24.896
550.94	24.014
551.28	25.165
551.62	24.802
551.96	24.070
552.30	23.481
552.64	25.017
552.98	24.678
553.32	25.084
553.66	24.744
554.00	24.159
554.34	24.707
554.68	24.392
555.02	24.118
555.36	24.426
555.69	23.410
556.03	23.957
556.37	23.738
556.71	24.557
557.05	23.599
557.39	23.373
557.73	22.936
558.07	24.873
558.41	23.227
558.75	24.100
559.08	23.714
559.42	24.339
559.76	24.706
560.10	23.055
560.44	23.480
560.78	22.954
561.12	23.549
561.45	23.403
561.79	22.742
562.13	23.877
562.47	23.634
562.81	23.501
563.15	22.742
563.48	23.210
563.82	22.309
564.16	23.218
564.50	22.461
564.84	22.377
565.17	23.037
565.51	22.939
565.85	21.954
566.19	22.542
566.52	22.736
566.86	21.097
567.20	22.347
567.54	21.975
567.88	21.890
568.21	20.847
568.55	21.284
568.89	20.623
569.23	20.766
569.56	20.202
569.90	19.132
570.24	19.842
570.57	19.007
570.91	19.328
571.25	19.086
571.59	19.087
571.92	18.635
572.26	19.497
572.60	19.009
572.93	18.921
573.27	18.693
573.61	18.844
573.95	18.941
574.28	17.940
574.62	18.270
574.96	18.017
575.29	17.895
575.63	18.216
575.97	18.589
576.30	18.455
576.64	18.499
576.98	18.036
577.31	17.953
577.65	17.611
577.98	17.411
578.32	17.474
578.66	17.757
578.99	18.101
579.33	18.010
579.67	17.684
580.00	18.341
580.34	18.130
580.67	17.821
581.01	18.170
581.35	17.509
581.68	17.482
582.02	16.775
582.35	17.306
582.69	17.245
583.02	17.556
583.36	17.800
583.70	18.157
584.03	18.156
584.37	18.498
584.70	18.234
585.04	18.102
585.37	17.381
585.71	17.740
586.04	17.758
586.38	18.443
586.72	17.647
587.05	17.658
587.39	17.388
587.72	17.908
588.06	18.010
588.39	18.519
588.73	17.806
589.06	18.448
589.40	18.418
589.73	18.339
590.07	18.078
590.40	17.720
590.73	18.501
591.07	19.862
591.40	18.853
591.74	20.130
592.07	18.979
592.41	19.430
592.74	18.464
593.08	18.055
593.41	17.748
593.75	17.458
594.08	17.700
594.41	17.745
594.75	18.078
595.08	18.003
595.42	18.424
595.75	17.949
596.09	18.137
596.42	18.821
596.75	18.869
597.09	19.481
597.42	17.960
597.75	18.715
598.09	18.043
598.42	19.029
598.76	18.362
599.09	17.142
599.42	17.795
599.76	17.277
600.09	17.413
600.42	17.641
600.76	17.357
601.09	17.486
601.42	17.618
601.76	17.230
602.09	18.103
602.42	18.591
602.76	18.299
603.09	17.939
603.42	18.040
603.76	17.873
604.09	17.294
604.42	18.182
604.76	18.937
605.09	17.955
605.42	17.700
605.75	17.881
606.09	17.609
606.42	17.859
606.75	18.001
607.09	17.832
607.42	17.972
607.75	17.511
608.08	17.846
608.42	17.884
608.75	18.485
609.08	17.669
609.41	18.563
609.75	17.532
610.08	18.379
610.41	18.669
610.74	18.307
611.07	19.565
611.41	19.038
611.74	19.910
612.07	18.634
612.40	18.888
612.73	19.105
613.07	18.696
613.40	19.431
613.73	17.567
614.06	18.172
614.39	18.668
614.72	18.842
615.06	18.487
615.39	17.516
615.72	17.843
616.05	18.341
616.38	18.510
616.71	19.181
617.05	19.199
617.38	19.062
617.71	19.159
618.04	19.471
618.37	18.510
618.70	19.602
619.03	18.882
619.36	19.212
619.69	18.803
620.03	19.849
620.36	20.053
620.69	20.411
621.02	20.059
621.35	19.812
621.68	20.483
622.01	20.046
622.34	19.894
622.67	18.859
623.00	18.562
623.33	19.228
623.66	19.800
623.99	19.219
624.32	18.688
624.65	19.209
624.99	19.263
625.32	18.755
625.65	19.835
625.98	20.061
626.31	19.751
626.64	20.653
626.97	21.363
627.30	20.366
627.63	20.263
627.96	21.110
628.29	20.122
628.62	21.409
628.95	22.925
629.28	21.077
629.61	21.998
629.94	21.429
630.26	20.782
630.59	19.828
630.92	21.839
631.25	19.842
631.58	21.722
631.91	20.588
632.24	21.941
632.57	21.826
632.90	21.820
633.23	21.365
633.56	23.277
633.89	22.763
634.22	21.680
634.55	22.604
634.88	23.353
635.20	21.744
635.53	22.771
635.86	23.144
636.19	21.882
636.52	22.145
636.85	21.764
637.18	21.313
637.51	23.404
637.83	21.332
638.16	23.274
638.49	22.544
638.82	23.388
639.15	24.375
639.48	23.566
639.81	23.995
640.13	22.656
640.46	23.221
640.79	23.778
641.12	21.871
641.45	22.765
641.77	23.122
642.10	24.561
642.43	22.072
642.76	24.613
643.09	23.620
643.41	22.458
643.74	24.691
644.07	23.933
644.40	25.767
644.73	24.724
645.05	25.674
645.38	23.697
645.71	23.349
646.04	25.914
646.36	26.711
646.69	26.589
647.02	25.510
647.35	25.945
647.67	24.956
648.00	25.041
648.33	23.432
648.66	23.636
648.98	24.888
649.31	23.468
649.64	22.571
649.96	24.292
650.29	23.381
650.62	24.272
650.94	27.229
651.27	24.662
651.60	26.789
651.92	23.802
652.25	23.779
652.58	22.741
652.90	23.855
653.23	22.188
653.56	21.890
653.88	23.455
654.21	26.066
654.54	23.267
654.86	23.364
655.19	21.757
655.52	14.226
655.84	11.270
656.17	14.486
656.49	19.669
656.82	20.362
657.15	15.587
657.47	11.660
657.80	9.042
658.13	9.657
658.45	14.305
658.78	14.957
659.10	15.486
659.43	16.644
659.75	18.133
660.08	18.861
660.41	21.229
660.73	25.540
661.06	22.930
661.38	27.091
661.71	27.692
662.03	26.627
662.36	26.243
662.68	28.514
663.01	28.081
663.33	26.327
663.66	26.891
663.98	26.782
664.31	26.891
664.63	25.304
664.96	25.352
665.28	27.049
665.61	26.706
665.93	25.553
666.26	26.369
666.58	26.778
666.91	28.541
667.23	27.191
667.56	23.974
667.88	27.564
668.21	27.079
668.53	26.247
668.86	25.325
669.18	29.211
669.50	27.391
669.83	27.233
670.15	27.111
670.48	25.926
670.80	26.509
671.13	26.115
671.45	26.596
671.77	26.477
672.10	22.921
672.42	24.205
672.75	24.212
673.07	23.063
673.39	24.955
673.72	22.070
674.04	25.882
674.37	25.631
674.69	24.540
675.01	23.849
675.34	25.462
675.66	26.737
675.98	27.495
676.31	27.311
676.63	28.875
676.95	26.834
677.28	27.804
677.60	26.374
677.92	28.270
678.25	25.462
678.57	26.295
678.89	25.651
679.22	23.969
679.54	27.099
679.86	26.422
680.18	24.329
680.51	23.936
680.83	25.267
681.15	29.057
681.48	25.331
681.80	23.791
682.12	23.180
682.44	23.211
682.77	24.236
683.09	27.253
683.41	26.164
683.73	26.049
684.06	25.826
684.38	23.288
684.70	23.062
685.02	25.141
685.34	24.176
685.67	21.329
685.99	20.447
686.31	21.672
686.63	21.378
686.96	23.214
687.28	23.646
687.60	22.645
687.92	25.960
688.24	24.715
688.56	26.908
688.89	26.971
689.21	27.074
689.53	25.470
689.85	25.721
690.17	23.810
690.49	25.690
690.82	26.168
691.14	23.884
691.46	22.574
691.78	23.092
692.10	24.380
692.42	26.547
692.74	21.784
693.06	23.617
693.39	25.873
693.71	25.546
694.03	26.316
694.35	24.026
694.67	24.714
694.99	30.000
695.31	26.716
695.63	24.641
695.95	28.362
696.27	25.381
696.59	25.648
696.91	27.979
697.23	23.474
697.56	25.160
697.88	23.722
698.20	23.125
698.52	21.935
698.84	25.390
699.16	25.346
699.48	27.078
699.80	28.261
700.12	29.870
700.44	27.586
700.76	29.282
701.08	28.161
701.40	28.212
701.72	30.321
702.04	32.955
702.36	26.062
702.68	27.195
703.00	27.978
703.32	28.191
703.64	27.882
703.96	29.805
704.28	28.779
704.60	29.912
704.91	26.706
705.23	28.152
705.55	34.219
705.87	31.561
706.19	32.509
706.51	31.464
706.83	32.727
707.15	26.611
707.47	25.505
707.79	27.518
708.11	27.169
708.43	26.190
708.74	26.020
709.06	28.571
709.38	26.772
709.70	27.326
710.02	31.454
710.34	26.970
710.66	30.448
710.98	27.841
711.29	28.198
711.61	31.858
711.93	28.846
712.25	30.547
712.57	34.559
712.89	31.142
713.20	29.787
713.52	29.605
713.84	30.380
714.16	27.439
714.48	25.287
714.80	31.307
715.11	29.395
715.43	29.377
715.75	27.826
716.07	27.796
716.39	28.213
716.70	31.561
717.02	30.935
717.34	31.802
717.66	36.194
717.97	33.466
718.29	30.000
718.61	34.672
718.93	31.250
719.24	29.066
719.56	27.797
719.88	28.136
720.20	34.459
720.51	34.495
720.83	31.599
721.15	30.970
721.46	30.496
721.78	30.466
722.10	33.962
722.42	32.707
722.73	32.210
723.05	28.689
723.37	31.579
723.68	37.066
724.00	38.618
724.32	34.677
724.63	32.927
724.95	33.054
725.27	34.818
725.58	35.156
725.90	36.496
726.22	29.434
726.53	30.208
726.85	35.495
727.16	29.893
727.48	33.333
727.80	32.197
728.11	29.710
728.43	28.846
728.74	30.108
729.06	35.766
729.38	30.147
729.69	33.452
730.01	24.573
730.32	28.125
730.64	31.104
730.96	26.733
731.27	34.106
731.59	29.358
731.90	27.405
732.22	26.708
732.53	26.625
732.85	28.526
733.16	29.904
733.48	28.239
733.80	28.896
734.11	31.210
734.43	30.769
734.74	22.000
735.06	24.642
735.37	29.191
735.69	25.796
736.00	28.105
736.32	31.153
736.63	29.073
736.95	27.476
737.26	25.850
737.58	25.484
737.89	32.107
738.21	29.010
738.52	28.214
738.83	33.962
739.15	30.000
739.46	30.657
739.78	30.208
740.09	30.154
740.41	30.968
740.72	24.739
741.04	32.963
741.35	27.917
741.66	36.444
741.98	31.604
742.29	36.364
742.61	38.793
742.92	32.127
743.23	36.752
743.55	32.800
743.86	35.965
744.18	39.381
744.49	38.278
744.80	38.967
745.12	41.364
745.43	37.885
745.74	36.036
746.06	37.156
746.37	35.426
746.68	35.747
747.00	40.741
747.31	41.905
747.62	30.973
747.94	35.683
748.25	31.915
748.56	34.361
748.88	36.139
749.19	43.500
749.50	36.744
749.82	32.520
750.13	29.388
750.44	32.482
750.75	34.035
751.07	32.154
751.38	28.571
751.69	28.520
752.01	29.699
752.32	31.047
752.63	30.142
752.94	30.328
753.26	34.800
753.57	30.894
753.88	32.422
754.19	30.357
754.51	32.986
754.82	28.881
755.13	30.943
755.44	30.075
755.75	29.197
756.07	32.979
756.38	27.372
756.69	27.852
757.00	25.749
757.31	29.674
757.63	27.193
757.94	26.005
758.25	23.284
758.56	18.765
758.87	23.118
759.18	27.273
759.50	26.646
759.81	28.660
760.12	24.688
760.43	27.221
760.74	25.543
761.05	25.706
761.36	23.262
761.67	27.273
761.99	26.087
762.30	29.514
762.61	31.298
762.92	35.547
763.23	33.193
763.54	36.000
763.85	29.687
764.16	35.000
764.47	30.038
764.78	29.682
765.10	25.316
765.41	28.909
765.72	28.443
766.03	26.332
766.34	28.333
766.65	33.617
766.96	32.479
767.27	35.025
767.58	46.354
767.89	41.053
768.20	39.080
768.51	38.071
768.82	36.239
769.13	30.488
769.44	33.603
769.75	33.047
770.06	30.275
770.37	38.462
770.68	34.722
770.99	32.000
771.30	29.508
771.61	31.390
771.92	31.967
772.23	34.034
772.54	36.410
772.85	41.361
773.16	38.830
773.47	42.391
773.78	37.563
774.09	41.071
774.39	46.199
774.70	40.741
775.01	50.725
775.32	43.791
775.63	48.026
775.94	39.568
776.25	54.331
776.56	52.239
776.87	52.459
777.18	46.094
777.48	49.618
777.79	55.303
778.10	52.593
778.41	55.357
778.72	50.365
779.03	49.664
779.34	36.913
779.65	39.865
779.95	43.558
780.26	49.673
780.57	50.345
780.88	58.594
781.19	51.880
781.50	45.270
781.80	45.912
782.11	37.853
782.42	38.608
782.73	47.239
783.04	46.622
783.34	47.887
783.65	56.164
783.96	54.478
784.27	40.559
784.57	41.727
784.88	47.222
785.19	58.730
785.50	48.113
785.81	55.224
786.11	56.557
786.42	50.388
786.73	47.788
787.04	62.264
787.34	58.036
787.65	59.000
787.96	57.658
788.26	54.545
788.57	55.932
788.88	52.893
789.19	54.861
789.49	53.788
789.80	48.855
790.11	72.381
790.41	67.327
790.72	63.855
791.03	69.565
791.33	65.116
791.64	62.887
791.95	65.347
792.25	62.222
792.56	75.325
792.87	93.590
793.17	93.671
793.48	58.621
793.79	71.264
794.09	71.591
794.40	57.143
794.70	58.088
795.01	48.889
795.32	53.237
795.62	55.906
795.93	55.172
796.23	56.637
796.54	64.706
796.85	58.108
797.15	87.324
797.46	81.818
797.76	79.518
798.07	81.013
798.37	80.000
798.68	78.788
798.99	63.380
799.29	59.740
799.60	79.545
799.90	76.712
800.21	83.582
800.51	98.276
800.82	98.246
801.12	93.443
801.43	98.485
801.73	64.865
802.04	90.476
802.34	88.889
802.65	104.688
802.95	108.475
803.26	110.938
803.56	75.714
803.87	100.000
804.17	92.647
804.48	111.111
804.78	98.276
805.09	89.706
805.39	111.538
805.70	89.286
806.00	114.754
806.30	75.758
806.61	85.366
806.91	58.228
807.22	65.789
807.52	67.164
807.83	100.000
808.13	93.750
808.43	81.667
808.74	71.053
809.04	86.957
809.35	82.090
809.65	90.789
809.95	109.677
810.26	105.085
810.56	96.825
810.86	134.091
811.17	133.333
811.47	110.000
811.77	94.444
812.08	116.364
812.38	122.000
812.69	166.667
812.99	143.182
813.29	132.653
813.59	119.048
813.90	114.286
814.20	94.545
814.50	78.462
814.81	108.824
815.11	104.082
815.41	108.197
815.72	147.619
816.02	120.000
816.32	116.667
816.62	125.000
816.93	129.268
817.23	147.619
817.53	102.273
817.84	172.727
818.14	113.043
818.44	117.778
818.74	161.765
819.04	155.000
819.35	145.714
819.65	155.882
819.95	203.571
820.25	240.000
820.56	146.154
820.86	134.091
821.16	148.837
821.46	130.769
821.76	126.000
822.07	180.000
822.37	147.500
822.67	154.545
822.97	113.725
823.27	192.857
823.57	137.838
823.88	172.500
824.18	203.333
824.48	152.381
824.78	196.000
825.08	204.167
825.38	151.351
825.69	119.512
825.99	200.000
826.29	162.069
826.59	181.579
826.89	147.368
827.19	161.765
827.49	190.323
827.79	159.091
828.09	136.364
828.39	108.511
828.70	140.816
829.00	174.074
829.30	161.290
829.60	145.000
829.90	266.667
830.20	210.714
830.50	200.000
830.80	226.087
831.10	186.667
831.40	203.333
831.70	156.522
832.00	238.462
832.30	225.926
832.60	287.500
832.90	193.333
833.20	371.429
833.50	209.677
833.80	182.759
834.10	200.000
834.40	273.077
834.70	255.556
835.00	276.190
835.30	171.429
835.60	346.154
835.90	193.103
836.20	278.571
836.50	196.552
836.80	204.000
837.10	188.889
837.40	266.667
837.70	352.941
838.00	229.630
838.30	223.810
838.60	266.667
838.90	234.615
839.19	295.000
839.49	371.429
839.79	340.000
840.09	235.000
840.39	233.333
840.69	256.522
840.99	288.889
841.29	580.000
841.59	358.333
841.88	318.750
842.18	203.448
842.48	228.571
842.78	186.667
843.08	247.826
843.38	168.750
843.68	683.333
843.97	230.769
844.27	217.241
844.57	338.095
844.87	312.500
845.17	162.963
845.47	1500.000
845.76	511.111
846.06	276.471
846.36	550.000
846.66	371.429
846.96	218.750
847.25	454.545
847.55	372.727
847.85	252.174
848.15	460.000
848.44	414.286
848.74	277.778
849.04	335.294
849.34	490.000
849.63	278.947
849.93	490.909
850.23	860.000
850.53	350.000
850.82	2300.000
851.12	-4800.000
851.42	4500.000
851.71	325.000
852.01	-1300.000
852.31	225.000
852.61	1666.667
852.90	314.286
853.20	216.000
853.50	294.118
853.79	228.571
854.09	216.667
854.39	406.250
854.68	172.973
854.98	206.452
855.28	173.333
855.57	224.138
855.87	225.926
856.17	252.632
856.46	226.667
856.76	276.471
857.05	217.241
857.35	237.500
857.65	333.333
857.94	260.870
858.24	196.154
858.53	265.000
858.83	213.636
859.13	326.667
859.42	0.000
859.72	555.556
860.01	518.182
860.31	218.182
860.60	257.895
860.90	204.348
861.20	511.111
861.49	566.667
861.79	-4000.000
862.08	625.000
862.38	300.000
862.67	292.308
862.97	335.294
863.26	511.111
863.56	277.778
863.85	358.333
864.15	600.000
864.44	360.000
864.74	850.000
865.03	637.500
865.33	321.053
865.62	454.545
865.92	446.154
866.21	391.667
866.51	0.000
866.80	436.364
867.10	1060.000
867.39	446.154
867.69	409.091
867.98	305.263
868.27	509.091
868.57	289.474
868.86	-4900.000
869.16	356.250
869.45	2250.000
869.75	-4400.000
870.04	491.667
870.33	657.143
870.63	1025.000
870.92	2900.000
871.22	657.143
871.51	323.529
871.80	276.190
872.10	357.143
>>>>>End Processed Spectral Data<<<<<
