SpectraSuite Data File
++++++++++++++++++++++++++++++++++++
Date: Wed May 13 19:52:59 PDT 2015
User: schluterlab
Dark Spectrum Present: Yes
Reference Spectrum Present: Yes
Number of Sampled Component Spectra: 1
Spectrometers: USB2E3373
Integration Time (usec): 3000 (USB2E3373)
Spectra Averaged: 3 (USB2E3373)
Boxcar Smoothing: 0 (USB2E3373)
Correct for Electrical Dark: No (USB2E3373)
Strobe/Lamp Enabled: No (USB2E3373)
Correct for Detector Non-linearity: No (USB2E3373)
Correct for Stray Light: No (USB2E3373)
Number of Pixels in Processed Spectrum: 2048
>>>>>Begin Processed Spectral Data<<<<<
178.53	0.000
178.91	-1375.000
179.29	-1450.000
179.67	-222.222
180.04	-1350.000
180.42	2750.000
180.80	1060.000
181.18	-1075.000
181.56	785.714
181.94	0.000
182.31	-700.000
182.69	1566.667
183.07	-625.000
183.45	-466.667
183.83	527.273
184.20	-490.000
184.58	3150.000
184.96	5700.000
185.34	-1180.000
185.72	-650.000
186.09	-2500.000
186.47	3200.000
186.85	3050.000
187.23	5200.000
187.61	-1700.000
187.98	1175.000
188.36	600.000
188.74	463.636
189.12	-1020.000
189.49	620.000
189.87	-5600.000
190.25	-1475.000
190.63	428.571
191.00	453.846
191.38	916.667
191.76	-1325.000
192.14	1600.000
192.51	737.500
192.89	916.667
193.27	662.500
193.65	-1425.000
194.02	630.000
194.40	900.000
194.78	510.000
195.15	558.333
195.53	630.000
195.91	-2750.000
196.29	300.000
196.66	347.368
197.04	-360.000
197.42	0.000
197.79	650.000
198.17	-4800.000
198.55	757.143
198.92	775.000
199.30	1000.000
199.68	0.000
200.05	394.444
200.43	900.000
200.81	4600.000
201.18	1933.333
201.56	-1866.667
201.94	566.667
202.31	677.778
202.69	466.667
203.07	570.000
203.44	0.000
203.82	1450.000
204.19	814.286
204.57	407.143
204.95	737.500
205.32	1566.667
205.70	618.182
206.08	385.714
206.45	2900.000
206.83	400.000
207.20	950.000
207.58	960.000
207.96	333.333
208.33	837.500
208.71	-816.667
209.08	842.857
209.46	622.222
209.84	554.545
210.21	-1566.667
210.59	1125.000
210.96	-600.000
211.34	2500.000
211.71	550.000
212.09	816.667
212.46	0.000
212.84	1600.000
213.22	1475.000
213.59	-3900.000
213.97	950.000
214.34	800.000
214.72	681.818
215.09	900.000
215.47	-2200.000
215.84	-2550.000
216.22	1733.333
216.59	500.000
216.97	1450.000
217.34	454.545
217.72	-866.667
218.09	0.000
218.47	-5700.000
218.84	822.222
219.22	771.429
219.59	1733.333
219.97	-657.143
220.34	1160.000
220.72	-2000.000
221.09	442.857
221.47	1425.000
221.84	-883.333
222.22	0.000
222.59	1525.000
222.97	-2900.000
223.34	1340.000
223.72	446.154
224.09	1000.000
224.46	2400.000
224.84	-5500.000
225.21	-900.000
225.59	-5400.000
225.96	610.000
226.34	315.000
226.71	2900.000
227.08	737.500
227.46	540.000
227.83	-1200.000
228.21	-2650.000
228.58	655.556
228.95	-2400.000
229.33	-2400.000
229.70	1733.333
230.08	885.714
230.45	-920.000
230.82	408.333
231.20	883.333
231.57	785.714
231.95	475.000
232.32	290.909
232.69	481.818
233.07	814.286
233.44	315.385
233.81	-1966.667
234.19	352.632
234.56	466.667
234.93	425.000
235.31	509.091
235.68	415.385
236.05	385.714
236.43	193.939
236.80	347.368
237.17	4900.000
237.55	280.952
237.92	214.286
238.29	266.667
238.67	212.903
239.04	206.897
239.41	147.222
239.79	134.783
240.16	159.524
240.53	143.182
240.91	119.608
241.28	106.000
241.65	122.000
242.02	105.797
242.40	127.419
242.77	116.667
243.14	90.323
243.51	95.506
243.89	83.529
244.26	77.778
244.63	70.968
245.00	79.787
245.38	65.347
245.75	69.159
246.12	57.798
246.49	68.613
246.87	70.400
247.24	71.538
247.61	62.143
247.98	54.248
248.36	54.054
248.73	57.325
249.10	60.510
249.47	50.847
249.84	55.080
250.22	51.337
250.59	53.846
250.96	46.465
251.33	52.133
251.70	48.515
252.08	50.952
252.45	44.843
252.82	42.174
253.19	47.660
253.56	44.314
253.94	46.888
254.31	41.406
254.68	44.231
255.05	41.328
255.42	44.309
255.79	42.647
256.16	45.126
256.54	40.283
256.91	40.214
257.28	41.367
257.65	38.614
258.02	43.478
258.39	41.325
258.76	36.120
259.14	41.071
259.51	37.690
259.88	32.609
260.25	38.671
260.62	39.017
260.99	36.646
261.36	42.342
261.73	36.103
262.10	33.430
262.47	35.775
262.85	37.326
263.22	33.903
263.59	37.607
263.96	37.637
264.33	35.248
264.70	34.474
265.07	36.061
265.44	36.111
265.81	34.550
266.18	35.427
266.55	34.390
266.92	38.084
267.29	35.880
267.66	33.945
268.03	32.273
268.40	35.748
268.77	30.310
269.14	30.180
269.51	34.989
269.88	34.732
270.25	33.183
270.62	31.461
270.99	33.763
271.36	34.120
271.73	32.009
272.10	32.174
272.47	33.333
272.84	33.983
273.21	31.866
273.58	30.568
273.95	33.333
274.32	32.645
274.69	33.191
275.06	30.906
275.43	30.638
275.80	31.463
276.17	32.994
276.54	31.393
276.91	32.016
277.28	30.859
277.65	30.561
278.02	32.091
278.39	34.375
278.76	28.545
279.13	28.868
279.50	30.726
279.87	31.076
280.23	32.136
280.60	31.528
280.97	28.835
281.34	30.619
281.71	30.727
282.08	32.438
282.45	29.818
282.82	30.906
283.19	29.055
283.56	26.842
283.92	29.103
284.29	29.806
284.66	29.583
285.03	29.295
285.40	27.289
285.77	29.966
286.14	29.016
286.51	29.500
286.87	28.718
287.24	27.036
287.61	28.411
287.98	29.545
288.35	28.051
288.72	26.480
289.08	27.387
289.45	26.524
289.82	26.179
290.19	24.961
290.56	26.646
290.93	26.284
291.29	25.153
291.66	27.434
292.03	26.744
292.40	27.019
292.77	24.556
293.13	25.821
293.50	26.676
293.87	24.444
294.24	24.889
294.60	22.271
294.97	24.128
295.34	23.695
295.71	24.432
296.08	24.501
296.44	24.072
296.81	22.853
297.18	24.797
297.55	22.296
297.91	22.032
298.28	24.230
298.65	24.021
299.02	22.530
299.38	20.319
299.75	20.485
300.12	22.222
300.48	22.000
300.85	20.962
301.22	21.401
301.59	21.843
301.95	23.048
302.32	22.465
302.69	20.789
303.05	23.030
303.42	21.605
303.79	21.857
304.15	20.629
304.52	20.162
304.89	21.254
305.25	20.766
305.62	20.951
305.99	22.432
306.35	19.687
306.72	22.197
307.09	20.644
307.45	21.959
307.82	19.420
308.19	21.523
308.55	21.899
308.92	21.482
309.29	20.063
309.65	19.724
310.02	20.190
310.38	20.860
310.75	21.859
311.12	21.187
311.48	21.630
311.85	22.222
312.22	22.581
312.58	21.310
312.95	22.070
313.31	21.748
313.68	23.077
314.05	22.978
314.41	22.613
314.78	22.457
315.14	22.046
315.51	23.275
315.87	23.960
316.24	23.337
316.61	23.782
316.97	24.070
317.34	23.386
317.70	25.239
318.07	26.083
318.43	26.321
318.80	27.085
319.16	27.684
319.53	26.173
319.89	27.429
320.26	28.200
320.62	28.571
320.99	28.889
321.35	27.879
321.72	32.649
322.08	31.293
322.45	32.139
322.81	33.818
323.18	34.682
323.54	34.416
323.91	35.849
324.27	35.373
324.64	35.228
325.00	36.519
325.37	35.760
325.73	36.266
326.10	36.893
326.46	38.889
326.83	38.568
327.19	39.624
327.56	39.460
327.92	41.645
328.29	42.147
328.65	43.094
329.01	43.412
329.38	43.756
329.74	43.121
330.11	44.392
330.47	44.077
330.84	46.415
331.20	44.627
331.56	45.229
331.93	46.944
332.29	44.720
332.66	47.345
333.02	47.075
333.38	47.606
333.75	46.078
334.11	48.043
334.48	46.229
334.84	48.621
335.20	48.000
335.57	46.782
335.93	47.411
336.29	47.619
336.66	48.242
337.02	48.326
337.38	48.704
337.75	46.881
338.11	47.001
338.47	47.974
338.84	49.404
339.20	47.982
339.56	50.091
339.93	48.273
340.29	48.913
340.65	47.950
341.02	48.778
341.38	49.822
341.74	48.246
342.11	50.306
342.47	50.044
342.83	48.716
343.20	49.437
343.56	47.852
343.92	48.947
344.28	48.044
344.65	50.473
345.01	47.391
345.37	49.400
345.73	47.547
346.10	47.059
346.46	49.661
346.82	48.517
347.19	49.206
347.55	47.947
347.91	48.382
348.27	48.973
348.63	49.749
349.00	48.220
349.36	47.619
349.72	47.795
350.08	46.921
350.45	48.413
350.81	47.685
351.17	48.298
351.53	47.093
351.89	47.112
352.26	48.066
352.62	47.715
352.98	47.650
353.34	48.151
353.70	47.136
354.07	47.984
354.43	46.190
354.79	44.650
355.15	47.007
355.51	48.521
355.87	48.408
356.24	47.964
356.60	47.474
356.96	47.707
357.32	48.406
357.68	47.402
358.04	47.110
358.40	46.318
358.77	48.044
359.13	48.066
359.49	47.608
359.85	47.222
360.21	46.332
360.57	47.704
360.93	47.923
361.29	46.032
361.66	47.059
362.02	46.642
362.38	47.985
362.74	47.024
363.10	46.706
363.46	47.762
363.82	46.334
364.18	45.668
364.54	47.920
364.90	46.459
365.26	46.471
365.62	46.384
365.98	45.873
366.35	46.203
366.71	46.855
367.07	46.322
367.43	48.041
367.79	46.824
368.15	46.695
368.51	46.076
368.87	47.323
369.23	44.989
369.59	46.198
369.95	44.485
370.31	44.872
370.67	45.290
371.03	46.367
371.39	44.679
371.75	45.662
372.11	44.808
372.47	45.968
372.83	46.758
373.19	45.448
373.55	46.711
373.91	45.803
374.27	44.948
374.63	45.382
374.99	44.845
375.35	44.871
375.71	44.071
376.07	44.582
376.42	45.873
376.78	44.732
377.14	45.319
377.50	46.026
377.86	43.484
378.22	45.828
378.58	43.860
378.94	44.437
379.30	44.975
379.66	45.114
380.02	45.762
380.38	43.959
380.74	43.277
381.09	44.621
381.45	45.728
381.81	44.533
382.17	44.204
382.53	44.277
382.89	44.198
383.25	43.277
383.61	45.291
383.97	44.465
384.32	43.980
384.68	42.255
385.04	43.331
385.40	44.149
385.76	43.305
386.12	43.912
386.48	43.738
386.83	44.901
387.19	44.341
387.55	45.022
387.91	43.410
388.27	42.121
388.62	44.007
388.98	42.015
389.34	42.804
389.70	41.631
390.06	43.156
390.42	42.996
390.77	43.257
391.13	43.906
391.49	42.576
391.85	43.348
392.20	42.019
392.56	42.929
392.92	42.437
393.28	41.243
393.64	42.086
393.99	41.967
394.35	41.811
394.71	41.405
395.07	40.997
395.42	42.274
395.78	42.621
396.14	40.410
396.50	42.669
396.85	41.704
397.21	41.677
397.57	40.794
397.92	41.767
398.28	40.751
398.64	40.681
399.00	40.347
399.35	40.891
399.71	40.914
400.07	41.396
400.42	40.613
400.78	40.953
401.14	40.854
401.49	41.254
401.85	40.532
402.21	40.898
402.57	40.839
402.92	39.596
403.28	40.600
403.63	40.223
403.99	40.255
404.35	39.636
404.70	38.429
405.06	40.070
405.42	39.988
405.77	38.571
406.13	39.447
406.49	39.030
406.84	39.988
407.20	38.889
407.55	38.800
407.91	40.467
408.27	39.119
408.62	38.471
408.98	38.909
409.34	38.745
409.69	40.516
410.05	38.786
410.40	38.226
410.76	39.068
411.11	38.299
411.47	38.530
411.83	38.424
412.18	37.972
412.54	39.041
412.89	37.771
413.25	37.721
413.60	39.222
413.96	37.887
414.31	37.485
414.67	38.403
415.03	38.079
415.38	39.626
415.74	38.071
416.09	38.276
416.45	37.617
416.80	37.409
417.16	38.338
417.51	38.089
417.87	37.315
418.22	38.233
418.58	38.089
418.93	37.776
419.29	38.256
419.64	38.035
420.00	36.463
420.35	36.754
420.71	37.717
421.06	36.516
421.42	36.316
421.77	36.379
422.12	36.889
422.48	36.373
422.83	36.459
423.19	37.514
423.54	36.912
423.90	36.348
424.25	37.856
424.61	37.202
424.96	36.793
425.31	35.604
425.67	36.461
426.02	35.657
426.38	36.142
426.73	36.454
427.09	36.657
427.44	35.538
427.79	35.653
428.15	35.774
428.50	35.167
428.85	35.638
429.21	35.395
429.56	35.977
429.92	34.877
430.27	34.856
430.62	34.818
430.98	35.599
431.33	35.567
431.68	35.654
432.04	34.398
432.39	35.637
432.74	35.368
433.10	35.031
433.45	35.219
433.80	34.091
434.16	34.829
434.51	34.211
434.86	35.690
435.22	34.074
435.57	34.468
435.92	35.459
436.28	34.757
436.63	35.099
436.98	34.860
437.34	35.301
437.69	33.839
438.04	34.626
438.39	34.209
438.75	34.457
439.10	35.084
439.45	34.002
439.81	34.381
440.16	33.540
440.51	35.032
440.86	34.105
441.22	33.204
441.57	32.696
441.92	33.777
442.27	32.939
442.63	33.913
442.98	33.972
443.33	33.478
443.68	32.060
444.03	33.138
444.39	32.473
444.74	33.225
445.09	33.369
445.44	32.859
445.79	32.905
446.15	33.298
446.50	32.795
446.85	32.631
447.20	32.483
447.55	33.333
447.91	33.039
448.26	33.055
448.61	33.239
448.96	33.887
449.31	33.521
449.66	32.752
450.02	32.145
450.37	33.447
450.72	32.375
451.07	33.090
451.42	31.429
451.77	33.235
452.12	31.928
452.47	32.525
452.83	32.751
453.18	32.090
453.53	33.271
453.88	33.077
454.23	32.576
454.58	32.283
454.93	33.121
455.28	31.920
455.63	31.250
455.98	33.452
456.34	32.852
456.69	32.561
457.04	32.570
457.39	31.853
457.74	32.095
458.09	32.087
458.44	31.870
458.79	30.152
459.14	31.998
459.49	31.173
459.84	31.524
460.19	31.349
460.54	30.845
460.89	31.322
461.24	31.633
461.59	30.970
461.94	31.751
462.29	32.047
462.64	31.972
462.99	30.514
463.34	32.400
463.69	31.144
464.04	30.783
464.39	31.362
464.74	31.135
465.09	30.881
465.44	30.083
465.79	30.313
466.14	30.378
466.49	30.200
466.84	31.757
467.19	30.296
467.54	31.125
467.89	30.252
468.24	30.076
468.59	32.112
468.94	29.933
469.29	30.527
469.64	32.329
469.99	30.108
470.34	30.713
470.68	30.963
471.03	30.612
471.38	31.550
471.73	30.313
472.08	30.855
472.43	29.899
472.78	29.559
473.13	29.910
473.48	29.338
473.83	29.695
474.17	28.998
474.52	30.459
474.87	30.006
475.22	29.425
475.57	29.393
475.92	27.987
476.27	28.974
476.61	28.296
476.96	28.147
477.31	28.938
477.66	29.540
478.01	29.221
478.36	28.979
478.70	28.557
479.05	28.914
479.40	29.069
479.75	29.487
480.10	27.982
480.45	28.891
480.79	27.711
481.14	28.229
481.49	28.761
481.84	27.755
482.19	28.124
482.53	28.486
482.88	27.920
483.23	28.832
483.58	28.389
483.92	28.397
484.27	26.928
484.62	26.853
484.97	28.025
485.31	27.877
485.66	24.705
486.01	24.134
486.36	23.638
486.70	24.323
487.05	24.944
487.40	26.200
487.75	26.835
488.09	28.025
488.44	28.119
488.79	28.788
489.13	27.884
489.48	27.692
489.83	27.449
490.17	27.663
490.52	26.749
490.87	26.594
491.22	27.103
491.56	27.107
491.91	26.803
492.26	27.285
492.60	27.051
492.95	25.538
493.30	26.168
493.64	26.832
493.99	26.230
494.34	26.966
494.68	26.923
495.03	27.444
495.37	26.152
495.72	26.998
496.07	27.100
496.41	26.195
496.76	26.165
497.11	26.655
497.45	26.549
497.80	26.967
498.14	26.618
498.49	26.927
498.84	26.989
499.18	26.429
499.53	25.451
499.87	26.095
500.22	26.519
500.56	26.505
500.91	26.106
501.26	25.320
501.60	26.673
501.95	25.802
502.29	26.242
502.64	25.279
502.98	25.947
503.33	25.366
503.67	25.615
504.02	26.006
504.36	25.082
504.71	26.136
505.06	26.169
505.40	25.425
505.75	24.928
506.09	25.413
506.44	25.752
506.78	25.524
507.13	25.997
507.47	26.313
507.82	26.089
508.16	25.887
508.51	25.723
508.85	25.323
509.19	25.867
509.54	25.051
509.88	25.296
510.23	25.450
510.57	25.800
510.92	25.893
511.26	25.694
511.61	25.363
511.95	24.896
512.30	24.973
512.64	25.255
512.98	26.152
513.33	24.893
513.67	25.187
514.02	24.405
514.36	26.434
514.70	24.903
515.05	25.655
515.39	25.294
515.74	26.464
516.08	25.992
516.42	26.193
516.77	26.031
517.11	24.806
517.46	25.734
517.80	26.249
518.14	24.667
518.49	25.788
518.83	25.739
519.17	24.769
519.52	26.429
519.86	26.070
520.20	26.358
520.55	25.972
520.89	25.730
521.23	26.236
521.58	26.170
521.92	25.597
522.26	25.808
522.61	25.607
522.95	25.414
523.29	25.989
523.64	24.756
523.98	25.262
524.32	25.211
524.66	24.474
525.01	24.877
525.35	24.473
525.69	25.554
526.04	25.358
526.38	25.381
526.72	24.969
527.06	25.110
527.41	24.319
527.75	24.952
528.09	24.855
528.43	25.366
528.78	25.077
529.12	24.545
529.46	25.107
529.80	24.876
530.15	24.922
530.49	23.631
530.83	24.810
531.17	25.653
531.51	26.070
531.86	24.452
532.20	24.837
532.54	25.753
532.88	25.160
533.22	24.172
533.57	25.494
533.91	24.624
534.25	24.423
534.59	24.466
534.93	23.855
535.27	23.537
535.62	24.298
535.96	25.047
536.30	24.793
536.64	25.370
536.98	25.547
537.32	25.280
537.66	24.733
538.01	24.424
538.35	24.305
538.69	25.144
539.03	23.782
539.37	23.962
539.71	23.461
540.05	24.248
540.39	23.854
540.73	23.286
541.07	25.049
541.42	25.310
541.76	24.710
542.10	24.968
542.44	24.238
542.78	25.165
543.12	23.480
543.46	24.721
543.80	24.528
544.14	23.492
544.48	24.635
544.82	24.375
545.16	23.357
545.50	24.422
545.84	23.790
546.18	22.896
546.52	24.019
546.86	24.192
547.20	24.680
547.54	23.714
547.88	24.490
548.22	23.474
548.56	23.711
548.90	22.919
549.24	24.310
549.58	24.625
549.92	24.519
550.26	24.858
550.60	23.859
550.94	24.437
551.28	23.994
551.62	24.371
551.96	23.719
552.30	23.481
552.64	23.124
552.98	24.068
553.32	23.668
553.66	24.267
554.00	24.846
554.34	23.948
554.68	24.821
555.02	23.766
555.36	24.078
555.69	23.681
556.03	23.217
556.37	23.056
556.71	22.647
557.05	24.020
557.39	23.513
557.73	24.065
558.07	24.801
558.41	24.168
558.75	24.467
559.08	24.087
559.42	24.112
559.76	22.868
560.10	22.841
560.44	23.270
560.78	22.821
561.12	22.889
561.45	23.598
561.79	22.413
562.13	24.145
562.47	24.112
562.81	24.198
563.15	23.813
563.48	22.745
563.82	24.070
564.16	23.218
564.50	22.786
564.84	22.756
565.17	22.587
565.51	23.067
565.85	23.414
566.19	22.417
566.52	23.559
566.86	23.207
567.20	23.172
567.54	22.432
567.88	21.347
568.21	22.593
568.55	21.587
568.89	21.449
569.23	21.257
569.56	20.567
569.90	20.642
570.24	20.344
570.57	20.503
570.91	20.685
571.25	20.383
571.59	20.206
571.92	19.816
572.26	20.075
572.60	20.270
572.93	20.870
573.27	20.349
573.61	20.045
573.95	20.362
574.28	19.497
574.62	19.776
574.96	19.331
575.29	19.423
575.63	19.639
575.97	19.578
576.30	20.499
576.64	19.762
576.98	19.737
577.31	19.755
577.65	19.392
577.98	19.240
578.32	18.864
578.66	19.832
578.99	19.950
579.33	20.189
579.67	19.898
580.00	20.091
580.34	20.408
580.67	20.090
581.01	19.721
581.35	19.165
581.68	19.193
582.02	18.769
582.35	19.259
582.69	19.424
583.02	19.565
583.36	20.406
583.70	20.704
584.03	20.846
584.37	21.265
584.70	20.794
585.04	20.205
585.37	19.571
585.71	19.549
586.04	19.836
586.38	20.193
586.72	20.160
587.05	20.130
587.39	19.314
587.72	20.536
588.06	20.304
588.39	20.658
588.73	20.769
589.06	20.848
589.40	20.943
589.73	20.908
590.07	20.783
590.40	20.789
590.73	21.077
591.07	21.123
591.40	20.877
591.74	21.429
592.07	20.462
592.41	21.455
592.74	19.775
593.08	19.620
593.41	19.709
593.75	19.207
594.08	20.583
594.41	20.643
594.75	20.259
595.08	20.115
595.42	20.665
595.75	20.228
596.09	20.841
596.42	21.179
596.75	21.824
597.09	21.558
597.42	20.110
597.75	20.742
598.09	22.000
598.42	20.576
598.76	19.497
599.09	19.764
599.42	19.360
599.76	19.766
600.09	19.454
600.42	19.905
600.76	19.464
601.09	19.891
601.42	19.444
601.76	20.076
602.09	20.711
602.42	20.820
602.76	21.362
603.09	20.378
603.42	20.266
603.76	20.274
604.09	19.775
604.42	20.791
604.76	20.877
605.09	19.878
605.42	20.778
605.75	20.447
606.09	19.764
606.42	19.943
606.75	20.697
607.09	20.762
607.42	19.598
607.75	19.662
608.08	20.104
608.42	20.484
608.75	20.108
609.08	19.889
609.41	20.466
609.75	20.819
610.08	21.112
610.41	20.345
610.74	20.151
611.07	20.504
611.41	20.658
611.74	21.569
612.07	21.066
612.40	21.406
612.73	20.947
613.07	21.767
613.40	21.432
613.73	20.399
614.06	21.344
614.39	20.451
614.72	20.684
615.06	21.534
615.39	20.435
615.72	19.888
616.05	20.415
616.38	20.734
616.71	21.378
617.05	21.496
617.38	21.587
617.71	21.261
618.04	20.673
618.37	21.289
618.70	22.464
619.03	22.434
619.36	21.045
619.69	21.338
620.03	22.665
620.36	21.725
620.69	22.466
621.02	23.009
621.35	22.318
621.68	22.040
622.01	21.904
622.34	21.634
622.67	21.673
623.00	22.084
623.33	21.301
623.66	20.586
623.99	21.060
624.32	20.827
624.65	20.551
624.99	20.609
625.32	21.434
625.65	22.164
625.98	22.905
626.31	22.473
626.64	22.122
626.97	22.278
627.30	21.530
627.63	22.806
627.96	23.381
628.29	23.097
628.62	22.324
628.95	23.396
629.28	22.901
629.61	23.740
629.94	22.476
630.26	23.546
630.59	22.498
630.92	23.084
631.25	22.014
631.58	22.723
631.91	23.327
632.24	22.468
632.57	25.393
632.90	23.575
633.23	22.819
633.56	24.520
633.89	23.443
634.22	23.383
634.55	24.024
634.88	24.790
635.20	25.090
635.53	24.458
635.86	23.515
636.19	25.647
636.52	23.529
636.85	21.993
637.18	22.811
637.51	24.941
637.83	20.469
638.16	23.402
638.49	24.685
638.82	26.422
639.15	24.875
639.48	24.938
639.81	25.469
640.13	25.000
640.46	24.027
640.79	24.835
641.12	25.447
641.45	23.603
641.77	25.920
642.10	25.731
642.43	24.775
642.76	26.161
643.09	25.307
643.41	24.886
643.74	27.623
644.07	25.152
644.40	25.920
644.73	27.874
645.05	26.941
645.38	25.118
645.71	25.765
646.04	26.578
646.36	27.546
646.69	27.592
647.02	26.361
647.35	26.117
647.67	25.664
648.00	27.154
648.33	24.257
648.66	24.394
648.98	25.187
649.31	23.019
649.64	26.009
649.96	27.273
650.29	25.276
650.62	25.243
650.94	25.446
651.27	28.547
651.60	27.454
651.92	25.879
652.25	24.267
652.58	25.701
652.90	24.645
653.23	25.270
653.56	25.039
653.88	25.674
654.21	24.329
654.54	25.083
654.86	26.480
655.19	22.973
655.52	15.959
655.84	12.456
656.17	15.929
656.49	22.554
656.82	25.182
657.15	20.650
657.47	15.996
657.80	12.809
658.13	13.979
658.45	21.505
658.78	22.710
659.10	24.154
659.43	25.494
659.75	26.932
660.08	28.101
660.41	29.609
660.73	31.004
661.06	27.229
661.38	28.545
661.71	28.654
662.03	29.389
662.36	25.447
662.68	27.711
663.01	28.889
663.33	26.327
663.66	30.462
663.98	30.670
664.31	27.521
664.63	25.506
664.96	27.364
665.28	25.820
665.61	25.146
665.93	27.767
666.26	27.181
666.58	26.987
666.91	28.964
667.23	26.742
667.56	26.998
667.88	28.419
668.21	28.785
668.53	29.501
668.86	25.541
669.18	30.490
669.50	29.348
669.83	30.065
670.15	28.667
670.48	28.976
670.80	29.310
671.13	29.936
671.45	27.021
671.77	28.717
672.10	28.835
672.42	27.562
672.75	24.710
673.07	25.352
673.39	24.774
673.72	27.539
674.04	28.627
674.37	26.019
674.69	26.585
675.01	25.941
675.34	29.774
675.66	29.474
675.98	27.902
676.31	27.731
676.63	29.087
676.95	27.673
677.28	27.804
677.60	28.352
677.92	27.426
678.25	25.873
678.57	29.084
678.89	25.251
679.22	26.130
679.54	26.527
679.86	27.339
680.18	26.297
680.51	25.532
680.83	26.690
681.15	26.792
681.48	26.843
681.80	25.145
682.12	26.820
682.44	24.371
682.77	27.902
683.09	27.897
683.41	27.273
683.73	27.152
684.06	27.479
684.38	26.614
684.70	28.876
685.02	28.705
685.34	24.908
685.67	23.601
685.99	24.055
686.31	24.061
686.63	25.088
686.96	23.750
687.28	24.910
687.60	25.000
687.92	25.411
688.24	27.757
688.56	27.309
688.89	29.668
689.21	29.258
689.53	28.184
689.85	27.273
690.17	26.294
690.49	28.875
690.82	28.505
691.14	28.571
691.46	26.793
691.78	25.502
692.10	28.926
692.42	27.146
692.74	25.934
693.06	27.021
693.39	27.926
693.71	26.856
694.03	29.263
694.35	25.325
694.67	26.087
694.99	30.732
695.31	29.902
695.63	23.445
695.95	29.340
696.27	28.426
696.59	29.793
696.91	29.534
697.23	23.944
697.56	29.211
697.88	23.313
698.20	28.958
698.52	28.817
698.84	28.062
699.16	29.493
699.48	27.791
699.80	29.469
700.12	30.909
700.44	31.034
700.76	28.729
701.08	28.161
701.40	31.006
701.72	30.321
702.04	35.511
702.36	27.762
702.68	30.028
703.00	32.410
703.32	29.787
703.64	28.686
703.96	30.084
704.28	31.105
704.60	33.138
704.91	32.641
705.23	30.499
705.55	33.555
705.87	36.545
706.19	34.629
706.51	33.645
706.83	33.333
707.15	28.571
707.47	27.273
707.79	30.713
708.11	27.397
708.43	28.095
708.74	28.061
709.06	30.649
709.38	29.921
709.70	29.360
710.02	29.970
710.34	33.939
710.66	32.537
710.98	34.659
711.29	29.942
711.61	30.973
711.93	31.410
712.25	35.370
712.57	38.971
712.89	34.948
713.20	32.523
713.52	34.211
713.84	31.962
714.16	30.488
714.48	28.736
714.80	34.650
715.11	29.395
715.43	30.564
715.75	32.174
716.07	32.268
716.39	28.213
716.70	34.219
717.02	33.094
717.34	35.336
717.66	32.463
717.97	37.052
718.29	31.852
718.61	34.307
718.93	33.824
719.24	31.488
719.56	31.864
719.88	33.898
720.20	33.446
720.51	31.359
720.83	38.290
721.15	31.343
721.46	30.142
721.78	35.842
722.10	36.981
722.42	36.466
722.73	35.206
723.05	34.016
723.37	34.413
723.68	36.680
724.00	37.398
724.32	35.484
724.63	35.772
724.95	36.820
725.27	40.891
725.58	35.937
725.90	35.766
726.22	38.491
726.53	34.375
726.85	33.447
727.16	37.722
727.48	31.560
727.80	31.439
728.11	31.522
728.43	30.385
728.74	35.842
729.06	33.942
729.38	37.868
729.69	34.164
730.01	31.058
730.32	33.681
730.64	31.438
730.96	29.043
731.27	36.755
731.59	31.498
731.90	29.155
732.22	27.329
732.53	30.650
732.85	33.974
733.16	31.833
733.48	31.229
733.80	32.792
734.11	34.395
734.43	31.953
734.74	30.000
735.06	26.648
735.37	32.370
735.69	30.892
736.00	34.641
736.32	28.037
736.63	33.227
736.95	30.671
737.26	25.850
737.58	30.968
737.89	35.786
738.21	33.106
738.52	32.857
738.83	30.566
739.15	32.692
739.46	34.307
739.78	32.292
740.09	31.692
740.41	34.516
740.72	31.359
741.04	36.296
741.35	36.667
741.66	38.667
741.98	39.623
742.29	41.148
742.61	40.948
742.92	40.271
743.23	31.624
743.55	32.800
743.86	32.018
744.18	44.248
744.49	45.455
744.80	43.192
745.12	47.273
745.43	37.445
745.74	43.243
746.06	34.862
746.37	42.152
746.68	38.914
747.00	41.204
747.31	37.619
747.62	40.708
747.94	37.004
748.25	31.064
748.56	45.815
748.88	36.139
749.19	41.000
749.50	35.349
749.82	32.114
750.13	33.061
750.44	32.117
750.75	32.632
751.07	34.084
751.38	32.753
751.69	35.018
752.01	35.714
752.32	33.935
752.63	36.170
752.94	36.885
753.26	36.400
753.57	34.146
753.88	39.453
754.19	32.500
754.51	35.069
754.82	31.047
755.13	36.981
755.44	37.218
755.75	33.212
756.07	33.333
756.38	29.927
756.69	34.228
757.00	26.946
757.31	28.487
757.63	27.485
757.94	26.810
758.25	27.206
758.56	27.407
758.87	26.882
759.18	30.909
759.50	29.467
759.81	27.414
760.12	27.500
760.43	28.940
760.74	26.630
761.05	30.226
761.36	27.540
761.67	30.966
761.99	30.435
762.30	30.556
762.61	37.023
762.92	33.984
763.23	35.294
763.54	32.400
763.85	30.469
764.16	34.231
764.47	34.601
764.78	31.802
765.10	27.532
765.41	30.973
765.72	29.042
766.03	35.110
766.34	29.000
766.65	39.149
766.96	40.171
767.27	42.640
767.58	42.708
767.89	48.421
768.20	46.552
768.51	39.086
768.82	40.826
769.13	33.740
769.44	37.247
769.75	36.481
770.06	36.239
770.37	39.367
770.68	37.963
770.99	40.889
771.30	31.967
771.61	37.220
771.92	34.016
772.23	38.235
772.54	43.590
772.85	41.361
773.16	45.745
773.47	41.848
773.78	49.239
774.09	44.048
774.39	45.614
774.70	40.741
775.01	52.174
775.32	52.941
775.63	53.289
775.94	54.676
776.25	61.417
776.56	50.000
776.87	51.639
777.18	59.375
777.48	58.779
777.79	47.727
778.10	57.037
778.41	53.571
778.72	50.365
779.03	50.336
779.34	47.651
779.65	47.297
779.95	48.466
780.26	54.248
780.57	50.345
780.88	57.031
781.19	55.639
781.50	56.081
781.80	45.283
782.11	44.633
782.42	44.304
782.73	51.534
783.04	50.676
783.34	59.859
783.65	56.164
783.96	55.224
784.27	42.657
784.57	43.885
784.88	52.778
785.19	67.460
785.50	57.547
785.81	53.731
786.11	58.197
786.42	62.791
786.73	53.982
787.04	61.321
787.34	62.500
787.65	61.000
787.96	48.649
788.26	47.934
788.57	69.492
788.88	54.545
789.19	50.000
789.49	62.879
789.80	58.015
790.11	68.571
790.41	68.317
790.72	74.699
791.03	67.391
791.33	69.767
791.64	56.701
791.95	67.327
792.25	77.778
792.56	66.234
792.87	76.923
793.17	94.937
793.48	79.310
793.79	72.414
794.09	73.864
794.40	65.546
794.70	61.029
795.01	51.111
795.32	47.482
795.62	59.055
795.93	56.034
796.23	64.602
796.54	72.941
796.85	85.135
797.15	92.958
797.46	84.848
797.76	81.928
798.07	79.747
798.37	89.231
798.68	89.394
798.99	71.831
799.29	84.416
799.60	80.682
799.90	94.521
800.21	85.075
800.51	96.552
800.82	105.263
801.12	96.721
801.43	104.545
801.73	78.378
802.04	100.000
802.34	80.247
802.65	92.188
802.95	116.949
803.26	96.875
803.56	80.000
803.87	86.154
804.17	95.588
804.48	105.556
804.78	96.552
805.09	94.118
805.39	88.462
805.70	110.714
806.00	113.115
806.30	84.848
806.61	91.463
806.91	75.949
807.22	80.263
807.52	83.582
807.83	77.465
808.13	101.563
808.43	100.000
808.74	84.211
809.04	97.101
809.35	95.522
809.65	78.947
809.95	109.677
810.26	106.780
810.56	103.175
810.86	140.909
811.17	128.571
811.47	123.333
811.77	112.963
812.08	116.364
812.38	126.000
812.69	188.889
812.99	150.000
813.29	124.490
813.59	121.429
813.90	110.204
814.20	112.727
814.50	84.615
814.81	95.588
815.11	134.694
815.41	111.475
815.72	161.905
816.02	141.818
816.32	121.429
816.62	155.000
816.93	146.341
817.23	142.857
817.53	140.909
817.84	184.848
818.14	134.783
818.44	124.444
818.74	194.118
819.04	162.500
819.35	148.571
819.65	155.882
819.95	214.286
820.25	285.000
820.56	153.846
820.86	145.455
821.16	162.791
821.46	146.154
821.76	152.000
822.07	202.857
822.37	147.500
822.67	187.879
822.97	129.412
823.27	232.143
823.57	154.054
823.88	157.500
824.18	213.333
824.48	142.857
824.78	208.000
825.08	170.833
825.38	154.054
825.69	141.463
825.99	187.500
826.29	144.828
826.59	160.526
826.89	155.263
827.19	167.647
827.49	190.323
827.79	145.455
828.09	150.000
828.39	146.809
828.70	130.612
829.00	151.852
829.30	200.000
829.60	165.000
829.90	313.333
830.20	228.571
830.50	221.739
830.80	208.696
831.10	196.667
831.40	180.000
831.70	221.739
832.00	226.923
832.30	192.593
832.60	312.500
832.90	230.000
833.20	364.286
833.50	180.645
833.80	231.034
834.10	193.750
834.40	234.615
834.70	277.778
835.00	300.000
835.30	174.286
835.60	369.231
835.90	210.345
836.20	328.571
836.50	193.103
836.80	220.000
837.10	186.111
837.40	233.333
837.70	323.529
838.00	177.778
838.30	219.048
838.60	314.286
838.90	203.846
839.19	315.000
839.49	371.429
839.79	290.000
840.09	280.000
840.39	257.143
840.69	265.217
840.99	277.778
841.29	510.000
841.59	341.667
841.88	331.250
842.18	220.690
842.48	295.238
842.78	203.333
843.08	226.087
843.38	196.875
843.68	983.333
843.97	238.462
844.27	175.862
844.57	333.333
844.87	368.750
845.17	233.333
845.47	1500.000
845.76	422.222
846.06	323.529
846.36	500.000
846.66	442.857
846.96	318.750
847.25	454.545
847.55	390.909
847.85	269.565
848.15	450.000
848.44	321.429
848.74	316.667
849.04	341.176
849.34	620.000
849.63	273.684
849.93	527.273
850.23	1080.000
850.53	414.286
850.82	2050.000
851.12	-4800.000
851.42	5200.000
851.71	310.000
852.01	-1233.333
852.31	262.500
852.61	1533.333
852.90	247.619
853.20	260.000
853.50	364.706
853.79	295.238
854.09	225.000
854.39	362.500
854.68	181.081
854.98	174.194
855.28	193.333
855.57	224.138
855.87	237.037
856.17	247.368
856.46	346.667
856.76	300.000
857.05	220.690
857.35	225.000
857.65	386.667
857.94	243.478
858.24	261.538
858.53	275.000
858.83	250.000
859.13	353.333
859.42	0.000
859.72	655.556
860.01	409.091
860.31	281.818
860.60	363.158
860.90	260.870
861.20	655.556
861.49	425.000
861.79	-4700.000
862.08	550.000
862.38	280.952
862.67	461.538
862.97	347.059
863.26	611.111
863.56	322.222
863.85	425.000
864.15	550.000
864.44	386.667
864.74	850.000
865.03	812.500
865.33	273.684
865.62	445.455
865.92	407.692
866.21	425.000
866.51	0.000
866.80	427.273
867.10	1120.000
867.39	492.308
867.69	445.455
867.98	273.684
868.27	490.909
868.57	336.842
868.86	-4900.000
869.16	406.250
869.45	2500.000
869.75	-4700.000
870.04	516.667
870.33	728.571
870.63	1275.000
870.92	2650.000
871.22	828.571
871.51	335.294
871.80	266.667
872.10	400.000
>>>>>End Processed Spectral Data<<<<<
