SpectraSuite Data File
++++++++++++++++++++++++++++++++++++
Date: Wed May 13 19:15:06 PDT 2015
User: schluterlab
Dark Spectrum Present: Yes
Reference Spectrum Present: Yes
Number of Sampled Component Spectra: 1
Spectrometers: USB2E3373
Integration Time (usec): 3000 (USB2E3373)
Spectra Averaged: 3 (USB2E3373)
Boxcar Smoothing: 0 (USB2E3373)
Correct for Electrical Dark: No (USB2E3373)
Strobe/Lamp Enabled: No (USB2E3373)
Correct for Detector Non-linearity: No (USB2E3373)
Correct for Stray Light: No (USB2E3373)
Number of Pixels in Processed Spectrum: 2048
>>>>>Begin Processed Spectral Data<<<<<
178.53	0.000
178.91	-1650.000
179.29	-1550.000
179.67	-272.222
180.04	-1675.000
180.42	2650.000
180.80	1160.000
181.18	-1325.000
181.56	728.571
181.94	0.000
182.31	-742.857
182.69	2000.000
183.07	-612.500
183.45	-488.889
183.83	572.727
184.20	-500.000
184.58	3050.000
184.96	6100.000
185.34	-960.000
185.72	-600.000
186.09	-2800.000
186.47	3000.000
186.85	2450.000
187.23	5400.000
187.61	-2100.000
187.98	1625.000
188.36	609.091
188.74	672.727
189.12	-1120.000
189.49	550.000
189.87	-4700.000
190.25	-1375.000
190.63	485.714
191.00	469.231
191.38	966.667
191.76	-1250.000
192.14	1475.000
192.51	750.000
192.89	950.000
193.27	612.500
193.65	-1150.000
194.02	620.000
194.40	1020.000
194.78	660.000
195.15	591.667
195.53	720.000
195.91	-2650.000
196.29	400.000
196.66	305.263
197.04	-340.000
197.42	0.000
197.79	640.000
198.17	-5600.000
198.55	842.857
198.92	737.500
199.30	1080.000
199.68	0.000
200.05	383.333
200.43	914.286
200.81	5200.000
201.18	2000.000
201.56	-1766.667
201.94	577.778
202.31	666.667
202.69	508.333
203.07	610.000
203.44	0.000
203.82	1300.000
204.19	871.429
204.57	457.143
204.95	662.500
205.32	2000.000
205.70	600.000
206.08	428.571
206.45	2800.000
206.83	412.500
207.20	983.333
207.58	800.000
207.96	388.889
208.33	750.000
208.71	-933.333
209.08	928.571
209.46	655.556
209.84	563.636
210.21	-1600.000
210.59	1600.000
210.96	-550.000
211.34	2950.000
211.71	620.000
212.09	733.333
212.46	0.000
212.84	2100.000
213.22	1475.000
213.59	-4800.000
213.97	783.333
214.34	942.857
214.72	727.273
215.09	1300.000
215.47	-2300.000
215.84	-2800.000
216.22	1766.667
216.59	464.286
216.97	1500.000
217.34	481.818
217.72	-833.333
218.09	0.000
218.47	-5500.000
218.84	766.667
219.22	757.143
219.59	1866.667
219.97	-714.286
220.34	1100.000
220.72	-1966.667
221.09	442.857
221.47	1525.000
221.84	-983.333
222.22	0.000
222.59	1550.000
222.97	-2700.000
223.34	1120.000
223.72	492.308
224.09	1220.000
224.46	2650.000
224.84	-5500.000
225.21	-1280.000
225.59	-5500.000
225.96	600.000
226.34	300.000
226.71	3650.000
227.08	812.500
227.46	620.000
227.83	-1075.000
228.21	-2650.000
228.58	577.778
228.95	-2150.000
229.33	-2300.000
229.70	1800.000
230.08	885.714
230.45	-1000.000
230.82	441.667
231.20	966.667
231.57	800.000
231.95	533.333
232.32	250.000
232.69	509.091
233.07	800.000
233.44	400.000
233.81	-1833.333
234.19	315.789
234.56	575.000
234.93	458.333
235.31	436.364
235.68	430.769
236.05	442.857
236.43	224.242
236.80	342.105
237.17	5400.000
237.55	285.714
237.92	250.000
238.29	285.714
238.67	216.129
239.04	237.931
239.41	188.889
239.79	143.478
240.16	185.714
240.53	165.909
240.91	147.059
241.28	154.000
241.65	162.000
242.02	136.232
242.40	124.194
242.77	138.333
243.14	103.226
243.51	117.978
243.89	98.824
244.26	105.556
244.63	100.000
245.00	91.489
245.38	98.020
245.75	86.916
246.12	93.578
246.49	87.591
246.87	91.200
247.24	84.615
247.61	76.429
247.98	78.431
248.36	74.324
248.73	77.070
249.10	74.522
249.47	70.056
249.84	68.984
250.22	71.123
250.59	76.923
250.96	67.172
251.33	66.825
251.70	70.297
252.08	69.048
252.45	67.265
252.82	61.304
253.19	67.660
253.56	60.784
253.94	65.975
254.31	58.203
254.68	62.308
255.05	59.779
255.42	63.415
255.79	57.721
256.16	58.484
256.54	60.071
256.91	59.075
257.28	58.633
257.65	57.756
258.02	55.901
258.39	52.681
258.76	57.525
259.14	52.976
259.51	55.015
259.88	54.969
260.25	54.985
260.62	55.780
260.99	53.106
261.36	57.057
261.73	53.868
262.10	56.977
262.47	55.211
262.85	53.203
263.22	50.427
263.59	58.689
263.96	50.549
264.33	51.697
264.70	55.526
265.07	53.708
265.44	48.485
265.81	49.635
266.18	51.759
266.55	53.171
266.92	53.317
267.29	49.537
267.66	51.376
268.03	50.909
268.40	48.832
268.77	51.074
269.14	48.423
269.51	49.887
269.88	51.981
270.25	47.630
270.62	51.461
270.99	53.118
271.36	49.571
271.73	49.065
272.10	48.478
272.47	50.968
272.84	49.351
273.21	48.847
273.58	47.380
273.95	47.799
274.32	47.314
274.69	49.251
275.06	48.425
275.43	49.362
275.80	49.699
276.17	47.862
276.54	51.351
276.91	48.419
277.28	44.922
277.65	47.002
278.02	44.720
278.39	47.656
278.76	44.000
279.13	46.038
279.50	45.438
279.87	45.618
280.23	45.309
280.60	44.681
280.97	45.102
281.34	46.549
281.71	46.182
282.08	49.328
282.45	43.818
282.82	45.826
283.19	44.920
283.56	43.158
283.92	46.531
284.29	43.210
284.66	43.920
285.03	44.485
285.40	44.542
285.77	43.939
286.14	45.250
286.51	44.333
286.87	44.103
287.24	43.811
287.61	43.339
287.98	42.370
288.35	40.729
288.72	39.097
289.08	40.219
289.45	41.186
289.82	40.325
290.19	38.148
290.56	40.582
290.93	38.973
291.29	41.871
291.66	39.233
292.03	40.698
292.40	41.997
292.77	38.018
293.13	37.910
293.50	37.901
293.87	38.074
294.24	38.222
294.60	38.282
294.97	37.209
295.34	37.094
295.71	36.932
296.08	36.325
296.44	36.864
296.81	33.950
297.18	36.585
297.55	33.905
297.91	33.641
298.28	35.341
298.65	35.117
299.02	34.387
299.38	34.263
299.75	33.154
300.12	33.461
300.48	33.500
300.85	32.429
301.22	32.229
301.59	32.323
301.95	32.997
302.32	35.302
302.69	33.094
303.05	32.242
303.42	32.346
303.79	31.597
304.15	30.886
304.52	30.475
304.89	32.172
305.25	31.555
305.62	32.050
305.99	31.995
306.35	31.432
306.72	30.045
307.09	31.853
307.45	31.869
307.82	29.911
308.19	31.126
308.55	31.931
308.92	30.075
309.29	28.511
309.65	29.374
310.02	31.078
310.38	30.860
310.75	30.095
311.12	29.376
311.48	29.990
311.85	30.398
312.22	28.200
312.58	31.185
312.95	30.095
313.31	28.252
313.68	30.665
314.05	30.473
314.41	29.648
314.78	29.003
315.14	28.798
315.51	29.248
315.87	30.000
316.24	29.196
316.61	29.922
316.97	28.865
317.34	27.202
317.70	29.924
318.07	29.355
318.43	28.865
318.80	29.428
319.16	29.002
319.53	27.955
319.89	28.476
320.26	30.200
320.62	30.060
320.99	28.586
321.35	29.192
321.72	29.363
322.08	29.418
322.45	30.149
322.81	30.426
323.18	29.769
323.54	28.942
323.91	29.340
324.27	28.585
324.64	28.518
325.00	26.781
325.37	29.208
325.73	29.533
326.10	27.979
326.46	27.778
326.83	30.285
327.19	28.352
327.56	30.226
327.92	28.259
328.29	28.571
328.65	28.637
329.01	28.339
329.38	29.417
329.74	28.624
330.11	28.935
330.47	29.385
330.84	30.055
331.20	27.413
331.56	28.716
331.93	28.889
332.29	28.926
332.66	28.053
333.02	28.519
333.38	29.359
333.75	29.055
334.11	28.025
334.48	28.838
334.84	28.217
335.20	28.000
335.57	26.836
335.93	27.143
336.29	27.930
336.66	27.683
337.02	27.692
337.38	28.796
337.75	27.807
338.11	28.469
338.47	28.269
338.84	28.139
339.20	27.798
339.56	29.745
339.93	27.909
340.29	27.808
340.65	28.431
341.02	28.447
341.38	28.559
341.74	27.807
342.11	27.686
342.47	28.106
342.83	28.253
343.20	27.706
343.56	26.032
343.92	26.842
344.28	27.041
344.65	26.741
345.01	27.778
345.37	25.214
345.73	28.003
346.10	26.939
346.46	27.203
346.82	25.865
347.19	26.065
347.55	25.287
347.91	26.618
348.27	25.965
348.63	27.090
349.00	27.265
349.36	25.205
349.72	27.265
350.08	26.256
350.45	26.119
350.81	25.508
351.17	26.256
351.53	26.699
351.89	25.578
352.26	26.204
352.62	25.822
352.98	26.904
353.34	26.787
353.70	24.468
354.07	26.371
354.43	25.159
354.79	24.537
355.15	25.619
355.51	27.018
355.87	26.449
356.24	25.244
356.60	25.261
356.96	25.261
357.32	25.593
357.68	26.220
358.04	25.970
358.40	26.445
358.77	25.352
359.13	24.941
359.49	25.333
359.85	23.413
360.21	24.163
360.57	26.070
360.93	25.385
361.29	25.321
361.66	24.226
362.02	25.000
362.38	26.616
362.74	24.628
363.10	23.020
363.46	24.358
363.82	25.019
364.18	24.670
364.54	25.260
364.90	24.221
365.26	24.191
365.62	24.763
365.98	24.470
366.35	23.567
366.71	25.380
367.07	24.909
367.43	23.512
367.79	24.483
368.15	24.497
368.51	23.401
368.87	24.340
369.23	24.214
369.59	24.982
369.95	23.897
370.31	23.932
370.67	22.174
371.03	25.318
371.39	24.781
371.75	24.044
372.11	24.253
372.47	25.806
372.83	24.784
373.19	23.555
373.55	24.242
373.91	24.742
374.27	23.574
374.63	23.709
374.99	25.212
375.35	23.447
375.71	23.852
376.07	23.388
376.42	23.521
376.78	23.658
377.14	23.474
377.50	23.974
377.86	22.606
378.22	23.009
378.58	22.807
378.94	23.444
379.30	23.919
379.66	23.604
380.02	22.359
380.38	23.012
380.74	23.649
381.09	23.472
381.45	23.786
381.81	23.157
382.17	23.631
382.53	22.138
382.89	23.519
383.25	23.265
383.61	22.924
383.97	23.702
384.32	22.770
384.68	22.553
385.04	22.618
385.40	22.724
385.76	22.727
386.12	22.927
386.48	24.103
386.83	23.028
387.19	23.933
387.55	23.006
387.91	22.914
388.27	22.379
388.62	22.188
388.98	21.683
389.34	23.154
389.70	23.360
390.06	23.891
390.42	22.568
390.77	23.219
391.13	23.229
391.49	23.223
391.85	22.788
392.20	21.767
392.56	23.359
392.92	22.837
393.28	22.367
393.64	22.962
393.99	23.152
394.35	21.712
394.71	22.208
395.07	22.243
395.42	22.806
395.78	21.628
396.14	23.029
396.50	23.120
396.85	22.950
397.21	22.750
397.57	23.063
397.92	22.716
398.28	22.029
398.64	22.461
399.00	22.832
399.35	22.391
399.71	22.627
400.07	21.762
400.42	22.822
400.78	22.557
401.14	22.195
401.49	22.209
401.85	22.142
402.21	22.216
402.57	22.270
402.92	22.951
403.28	22.736
403.63	22.463
403.99	22.166
404.35	22.303
404.70	22.482
405.06	21.840
405.42	23.206
405.77	21.657
406.13	22.291
406.49	22.708
406.84	22.977
407.20	21.513
407.55	21.761
407.91	23.267
408.27	22.527
408.62	22.577
408.98	22.855
409.34	22.694
409.69	22.581
410.05	22.739
410.40	22.569
410.76	22.640
411.11	22.618
411.47	22.045
411.83	22.786
412.18	21.398
412.54	22.914
412.89	22.048
413.25	22.491
413.60	23.224
413.96	21.797
414.31	22.418
414.67	22.370
415.03	21.854
415.38	23.325
415.74	22.765
416.09	23.449
416.45	22.624
416.80	22.802
417.16	22.989
417.51	23.689
417.87	23.635
418.22	23.155
418.58	22.272
418.93	22.912
419.29	22.852
419.64	23.111
420.00	21.951
420.35	23.072
420.71	23.192
421.06	22.315
421.42	22.807
421.77	21.749
422.12	22.010
422.48	21.587
422.83	22.714
423.19	22.541
423.54	22.867
423.90	22.435
424.25	22.278
424.61	22.024
424.96	21.516
425.31	22.924
425.67	21.629
426.02	22.514
426.38	24.176
426.73	22.703
427.09	23.161
427.44	22.197
427.79	22.829
428.15	22.440
428.50	22.411
428.85	23.540
429.21	21.756
429.56	21.566
429.92	22.245
430.27	21.549
430.62	22.529
430.98	22.574
431.33	22.577
431.68	22.304
432.04	22.204
432.39	22.559
432.74	22.741
433.10	22.411
433.45	23.499
433.80	22.007
434.16	22.329
434.51	22.368
434.86	22.577
435.22	22.624
435.57	23.587
435.92	22.294
436.28	23.428
436.63	23.068
436.98	22.553
437.34	22.958
437.69	23.454
438.04	21.979
438.39	23.104
438.75	23.242
439.10	23.296
439.45	23.022
439.81	23.625
440.16	23.038
440.51	23.199
440.86	23.798
441.22	21.913
441.57	22.293
441.92	22.825
442.27	22.659
442.63	22.486
442.98	23.380
443.33	22.446
443.68	22.819
444.03	21.571
444.39	21.957
444.74	22.835
445.09	22.210
445.44	22.909
445.79	22.712
446.15	22.710
446.50	21.809
446.85	22.302
447.20	22.489
447.55	22.892
447.91	23.001
448.26	23.484
448.61	22.951
448.96	23.145
449.31	22.778
449.66	23.073
450.02	22.340
450.37	22.619
450.72	22.561
451.07	22.547
451.42	22.371
451.77	23.782
452.12	23.210
452.47	23.010
452.83	22.436
453.18	23.105
453.53	23.500
453.88	22.977
454.23	23.491
454.58	23.016
454.93	24.094
455.28	23.005
455.63	23.847
455.98	24.702
456.34	23.681
456.69	23.231
457.04	23.406
457.39	23.027
457.74	23.389
458.09	23.289
458.44	23.432
458.79	22.614
459.14	23.307
459.49	23.643
459.84	23.102
460.19	22.864
460.54	23.322
460.89	23.587
461.24	24.165
461.59	24.463
461.94	22.873
462.29	24.154
462.64	24.378
462.99	23.748
463.34	24.733
463.69	23.952
464.04	23.884
464.39	23.304
464.74	23.827
465.09	23.341
465.44	22.992
465.79	22.987
466.14	23.317
466.49	23.971
466.84	23.234
467.19	23.537
467.54	24.375
467.89	23.529
468.24	23.618
468.59	24.237
468.94	23.091
469.29	24.614
469.64	24.297
469.99	24.899
470.34	23.646
470.68	24.713
471.03	24.014
471.38	24.253
471.73	25.117
472.08	25.592
472.43	24.058
472.78	24.226
473.13	24.454
473.48	25.094
473.83	24.573
474.17	24.456
474.52	24.007
474.87	23.584
475.22	24.028
475.57	24.019
475.92	23.473
476.27	23.844
476.61	23.773
476.96	23.804
477.31	23.862
477.66	23.468
478.01	23.157
478.36	23.850
478.70	23.105
479.05	24.068
479.40	24.104
479.75	23.843
480.10	24.105
480.45	23.227
480.79	23.364
481.14	23.581
481.49	23.730
481.84	22.908
482.19	23.671
482.53	23.257
482.88	23.872
483.23	23.084
483.58	23.885
483.92	23.899
484.27	22.745
484.62	23.448
484.97	22.428
485.31	23.185
485.66	20.796
486.01	19.952
486.36	19.111
486.70	19.034
487.05	20.005
487.40	20.863
487.75	21.249
488.09	21.474
488.44	21.114
488.79	22.857
489.13	23.300
489.48	23.246
489.83	23.479
490.17	24.375
490.52	24.181
490.87	23.926
491.22	23.874
491.56	23.098
491.91	24.244
492.26	24.162
492.60	23.502
492.95	23.433
493.30	24.579
493.64	24.218
493.99	23.909
494.34	23.636
494.68	24.725
495.03	24.154
495.37	24.477
495.72	24.220
496.07	25.058
496.41	23.407
496.76	24.011
497.11	24.043
497.45	24.639
497.80	24.232
498.14	24.348
498.49	23.854
498.84	24.640
499.18	24.905
499.53	24.596
499.87	23.812
500.22	24.305
500.56	24.563
500.91	23.413
501.26	24.229
501.60	25.012
501.95	24.381
502.29	24.930
502.64	24.860
502.98	24.451
503.33	24.543
503.67	24.594
504.02	24.462
504.36	24.052
504.71	24.670
505.06	24.530
505.40	24.550
505.75	24.301
506.09	24.636
506.44	24.963
506.78	25.134
507.13	24.735
507.47	25.758
507.82	24.417
508.16	25.228
508.51	25.723
508.85	24.926
509.19	25.969
509.54	25.306
509.88	24.575
510.23	25.604
510.57	25.645
510.92	24.961
511.26	25.231
511.61	25.519
511.95	25.104
512.30	25.027
512.64	25.900
512.98	25.991
513.33	25.428
513.67	26.254
514.02	25.271
514.36	26.597
514.70	25.346
515.05	26.046
515.39	25.911
515.74	26.239
516.08	27.390
516.42	27.414
516.77	27.202
517.11	25.860
517.46	26.806
517.80	26.713
518.14	26.578
518.49	27.538
518.83	27.670
519.17	26.270
519.52	27.051
519.86	26.754
520.20	28.497
520.55	27.708
520.89	26.764
521.23	27.503
521.58	27.851
521.92	27.250
522.26	25.930
522.61	26.729
522.95	27.931
523.29	27.450
523.64	27.561
523.98	28.219
524.32	27.443
524.66	27.661
525.01	27.267
525.35	27.881
525.69	27.463
526.04	27.414
526.38	28.188
526.72	27.853
527.06	28.751
527.41	26.609
527.75	28.682
528.09	27.746
528.43	28.171
528.78	27.781
529.12	26.667
529.46	27.679
529.80	27.847
530.15	27.477
530.49	27.077
530.83	27.152
531.17	28.264
531.51	29.442
531.86	27.355
532.20	28.357
532.54	28.315
532.88	28.562
533.22	27.171
533.57	27.469
533.91	26.911
534.25	27.217
534.59	28.005
534.93	26.234
535.27	27.761
535.62	26.557
535.96	27.558
536.30	27.082
536.64	27.560
536.98	27.936
537.32	27.386
537.66	27.467
538.01	28.308
538.35	27.731
538.69	28.143
539.03	27.096
539.37	26.837
539.71	26.118
540.05	27.255
540.39	28.439
540.73	27.232
541.07	29.267
541.42	27.658
541.76	27.871
542.10	27.167
542.44	28.079
542.78	28.656
543.12	28.215
543.46	27.803
543.80	27.261
544.14	27.985
544.48	27.937
544.82	27.518
545.16	27.781
545.50	27.057
545.84	28.091
546.18	28.485
546.52	28.217
546.86	27.560
547.20	28.051
547.54	27.989
547.88	28.635
548.22	28.020
548.56	27.987
548.90	27.017
549.24	26.397
549.58	28.990
549.92	28.365
550.26	28.693
550.60	28.077
550.94	28.239
551.28	28.676
551.62	28.541
551.96	28.561
552.30	27.850
552.64	27.519
552.98	28.203
553.32	27.175
553.66	29.175
554.00	28.071
554.34	29.193
554.68	28.469
555.02	28.279
555.36	27.905
555.69	27.740
556.03	28.600
556.37	28.649
556.71	27.490
557.05	28.922
557.39	28.551
557.73	28.158
558.07	29.079
558.41	29.233
558.75	28.802
559.08	29.157
559.42	29.478
559.76	28.897
560.10	28.979
560.44	28.861
560.78	27.079
561.12	27.704
561.45	28.096
561.79	27.357
562.13	27.364
562.47	28.347
562.81	28.312
563.15	27.826
563.48	27.586
563.82	27.789
564.16	27.404
564.50	27.279
564.84	27.686
565.17	27.735
565.51	28.115
565.85	27.792
566.19	27.552
566.52	27.992
566.86	25.980
567.20	27.476
567.54	26.998
567.88	25.747
568.21	25.608
568.55	25.885
568.89	25.486
569.23	24.198
569.56	23.522
569.90	23.094
570.24	23.071
570.57	22.543
570.91	22.269
571.25	22.421
571.59	22.180
571.92	21.025
572.26	21.606
572.60	22.102
572.93	21.469
573.27	21.887
573.61	21.803
573.95	21.809
574.28	21.206
574.62	20.578
574.96	20.932
575.29	21.072
575.63	21.062
575.97	21.140
576.30	21.455
576.64	21.077
576.98	20.418
577.31	20.795
577.65	20.673
577.98	20.406
578.32	20.433
578.66	20.147
578.99	20.361
579.33	21.133
579.67	20.822
580.00	20.930
580.34	20.930
580.67	20.681
581.01	20.531
581.35	20.536
581.68	20.327
582.02	19.573
582.35	19.602
582.69	20.106
583.02	20.130
583.36	20.521
583.70	20.904
584.03	21.499
584.37	21.370
584.70	21.108
585.04	20.768
585.37	20.876
585.71	20.606
586.04	20.585
586.38	20.559
586.72	21.513
587.05	20.891
587.39	21.082
587.72	20.974
588.06	20.624
588.39	21.180
588.73	21.414
589.06	21.938
589.40	22.323
589.73	21.894
590.07	22.278
590.40	22.324
590.73	23.146
591.07	22.873
591.40	23.956
591.74	24.026
592.07	23.691
592.41	23.563
592.74	22.060
593.08	22.318
593.41	22.113
593.75	21.580
594.08	21.924
594.41	22.658
594.75	22.255
595.08	21.940
595.42	23.012
595.75	21.546
596.09	22.944
596.42	23.851
596.75	23.132
597.09	23.939
597.42	22.892
597.75	23.243
598.09	24.391
598.42	23.668
598.76	22.619
599.09	22.197
599.42	21.470
599.76	21.999
600.09	21.967
600.42	22.425
600.76	22.107
601.09	21.676
601.42	22.374
601.76	22.277
602.09	22.727
602.42	22.532
602.76	22.975
603.09	22.974
603.42	22.765
603.76	22.256
604.09	22.295
604.42	23.237
604.76	23.534
605.09	23.504
605.42	23.130
605.75	23.013
606.09	22.692
606.42	23.294
606.75	22.978
607.09	23.901
607.42	23.620
607.75	22.911
608.08	22.623
608.42	23.980
608.75	23.805
609.08	23.543
609.41	24.417
609.75	23.487
610.08	24.505
610.41	23.371
610.74	23.888
611.07	24.407
611.41	24.289
611.74	24.786
612.07	25.207
612.40	24.921
612.73	24.421
613.07	25.000
613.40	25.013
613.73	23.597
614.06	24.677
614.39	24.279
614.72	24.684
615.06	24.737
615.39	24.416
615.72	23.773
616.05	24.668
616.38	25.014
616.71	25.891
617.05	26.031
617.38	25.075
617.71	25.285
618.04	25.721
618.37	26.375
618.70	26.073
619.03	26.250
619.36	27.155
619.69	27.042
620.03	27.473
620.36	27.139
620.69	26.986
621.02	27.507
621.35	28.269
621.68	28.037
622.01	27.632
622.34	28.593
622.67	27.833
623.00	27.439
623.33	27.234
623.66	27.663
623.99	28.940
624.32	27.532
624.65	27.048
624.99	27.125
625.32	26.647
625.65	27.423
625.98	27.825
626.31	27.605
626.64	29.469
626.97	28.845
627.30	29.094
627.63	29.779
627.96	29.773
628.29	29.484
628.62	31.565
628.95	31.132
629.28	30.201
629.61	30.522
629.94	30.476
630.26	30.315
630.59	30.505
630.92	31.130
631.25	30.109
631.58	30.430
631.91	31.237
632.24	32.489
632.57	32.214
632.90	32.675
633.23	32.103
633.56	34.124
633.89	34.202
634.22	33.144
634.55	33.846
634.88	35.329
635.20	34.886
635.53	35.542
635.86	33.787
636.19	33.176
636.52	33.564
636.85	34.021
637.18	31.797
637.51	34.988
637.83	31.319
638.16	34.271
638.49	34.635
638.82	34.893
639.15	34.500
639.48	35.910
639.81	35.121
640.13	34.896
640.46	36.779
640.79	35.007
641.12	35.076
641.45	36.453
641.77	36.230
642.10	35.819
642.43	36.336
642.76	37.461
643.09	39.264
643.41	36.419
643.74	39.198
644.07	36.128
644.40	38.957
644.73	38.268
645.05	37.084
645.38	37.283
645.71	38.969
646.04	37.375
646.36	40.568
646.69	39.465
647.02	38.435
647.35	36.426
647.67	39.823
648.00	36.585
648.33	36.634
648.66	36.970
648.98	36.882
649.31	35.127
649.64	35.725
649.96	36.513
650.29	39.336
650.62	36.408
650.94	39.384
651.27	39.696
651.60	38.103
651.92	36.262
652.25	37.785
652.58	35.047
652.90	37.757
653.23	35.901
653.56	39.055
653.88	34.865
654.21	36.019
654.54	35.314
654.86	35.514
655.19	34.054
655.52	21.100
655.84	16.557
656.17	20.591
656.49	27.679
656.82	27.865
657.15	21.057
657.47	15.784
657.80	12.206
658.13	12.783
658.45	19.035
658.78	20.053
659.10	21.010
659.43	22.192
659.75	24.386
660.08	28.354
660.41	32.309
660.73	35.324
661.06	36.146
661.38	38.727
661.71	40.577
662.03	41.815
662.36	38.767
662.68	40.964
663.01	40.000
663.33	42.887
663.66	41.387
663.98	41.253
664.31	41.597
664.63	42.105
664.96	38.229
665.28	40.984
665.61	40.351
665.93	40.644
666.26	41.785
666.58	42.050
666.91	43.129
667.23	43.146
667.56	41.037
667.88	42.521
668.21	43.284
668.53	42.082
668.86	39.394
669.18	44.989
669.50	39.348
669.83	42.266
670.15	41.556
670.48	43.573
670.80	42.241
671.13	40.552
671.45	39.574
671.77	41.752
672.10	38.632
672.42	38.339
672.75	37.977
673.07	36.972
673.39	37.794
673.72	37.891
674.04	38.235
674.37	38.058
674.69	39.059
675.01	37.866
675.34	41.684
675.66	41.474
675.98	41.752
676.31	40.546
676.63	40.977
676.95	41.509
677.28	42.290
677.60	41.099
677.92	39.662
678.25	38.809
678.57	38.247
678.89	40.481
679.22	37.721
679.54	39.504
679.86	36.881
680.18	35.599
680.51	35.993
680.83	35.587
681.15	37.358
681.48	41.021
681.80	38.104
682.12	39.655
682.44	35.977
682.77	38.289
683.09	42.060
683.41	40.576
683.73	39.294
684.06	40.289
684.38	37.182
684.70	35.853
685.02	38.086
685.34	34.432
685.67	34.790
685.99	34.536
686.31	34.983
686.63	35.159
686.96	34.643
687.28	35.018
687.60	35.507
687.92	34.369
688.24	36.502
688.56	40.562
688.89	37.759
689.21	38.646
689.53	37.370
689.85	41.242
690.17	37.267
690.49	39.703
690.82	43.458
691.14	39.062
691.46	38.397
691.78	37.550
692.10	39.256
692.42	36.527
692.74	34.855
693.06	41.277
693.39	36.756
693.71	37.991
694.03	40.421
694.35	37.662
694.67	38.902
694.99	43.171
695.31	40.196
695.63	39.952
695.95	42.787
696.27	41.624
696.59	41.451
696.91	39.896
697.23	36.150
697.56	37.313
697.88	33.742
698.20	39.583
698.52	38.925
698.84	38.753
699.16	35.484
699.48	38.242
699.80	39.614
700.12	44.935
700.44	42.971
700.76	46.685
701.08	44.828
701.40	43.855
701.72	45.773
702.04	47.727
702.36	42.493
702.68	42.776
703.00	43.767
703.32	41.223
703.64	45.040
703.96	43.454
704.28	44.186
704.60	45.455
704.91	43.620
705.23	44.868
705.55	48.837
705.87	52.492
706.19	46.643
706.51	48.598
706.83	47.576
707.15	42.577
707.47	41.667
707.79	37.346
708.11	40.868
708.43	40.238
708.74	38.776
709.06	40.000
709.38	40.945
709.70	47.093
710.02	43.917
710.34	41.212
710.66	45.970
710.98	43.466
711.29	43.314
711.61	48.673
711.93	44.872
712.25	45.981
712.57	48.162
712.89	47.751
713.20	45.289
713.52	41.447
713.84	44.937
714.16	45.122
714.48	43.391
714.80	46.201
715.11	42.363
715.43	41.246
715.75	43.478
716.07	46.965
716.39	44.828
716.70	49.502
717.02	46.403
717.34	47.703
717.66	52.239
717.97	49.402
718.29	48.889
718.61	50.000
718.93	51.103
719.24	49.481
719.56	45.424
719.88	50.508
720.20	42.568
720.51	47.038
720.83	49.442
721.15	45.149
721.46	48.227
721.78	49.462
722.10	47.170
722.42	48.496
722.73	49.813
723.05	47.131
723.37	48.583
723.68	49.035
724.00	47.561
724.32	53.226
724.63	54.472
724.95	50.209
725.27	51.417
725.58	51.563
725.90	48.175
726.22	48.679
726.53	44.444
726.85	41.980
727.16	47.687
727.48	45.035
727.80	46.970
728.11	47.101
728.43	50.385
728.74	43.369
729.06	48.175
729.38	49.265
729.69	49.822
730.01	45.051
730.32	45.139
730.64	43.813
730.96	40.924
731.27	42.715
731.59	42.202
731.90	41.983
732.22	42.857
732.53	37.152
732.85	42.628
733.16	38.907
733.48	43.522
733.80	42.532
734.11	46.497
734.43	42.308
734.74	40.571
735.06	39.255
735.37	42.775
735.69	39.809
736.00	47.386
736.32	42.679
736.63	42.812
736.95	44.728
737.26	39.456
737.58	42.903
737.89	41.806
738.21	45.051
738.52	41.786
738.83	45.283
739.15	46.154
739.46	44.161
739.78	44.097
740.09	42.154
740.41	44.839
740.72	43.206
741.04	48.519
741.35	49.167
741.66	55.111
741.98	53.302
742.29	54.067
742.61	54.741
742.92	51.584
743.23	44.872
743.55	49.600
743.86	47.807
744.18	48.230
744.49	54.545
744.80	61.033
745.12	55.455
745.43	53.744
745.74	54.955
746.06	54.587
746.37	52.466
746.68	54.299
747.00	54.630
747.31	56.667
747.62	49.558
747.94	48.899
748.25	44.681
748.56	52.423
748.88	50.000
749.19	60.500
749.50	52.558
749.82	46.341
750.13	48.571
750.44	43.796
750.75	45.614
751.07	50.161
751.38	42.509
751.69	44.765
752.01	50.000
752.32	44.765
752.63	46.809
752.94	45.902
753.26	52.800
753.57	47.561
753.88	46.094
754.19	45.000
754.51	46.181
754.82	41.877
755.13	44.528
755.44	45.113
755.75	44.891
756.07	41.844
756.38	43.796
756.69	43.960
757.00	38.922
757.31	40.356
757.63	38.304
757.94	35.925
758.25	36.029
758.56	35.556
758.87	34.140
759.18	36.667
759.50	42.320
759.81	38.941
760.12	37.187
760.43	40.115
760.74	38.315
761.05	40.678
761.36	36.631
761.67	39.205
761.99	43.478
762.30	42.361
762.61	47.710
762.92	43.359
763.23	45.798
763.54	52.800
763.85	42.578
764.16	44.615
764.47	48.289
764.78	41.696
765.10	39.241
765.41	39.823
765.72	39.222
766.03	41.066
766.34	39.333
766.65	47.660
766.96	47.009
767.27	55.330
767.58	52.604
767.89	58.947
768.20	60.920
768.51	49.239
768.82	49.541
769.13	44.309
769.44	42.915
769.75	47.210
770.06	49.541
770.37	51.131
770.68	51.852
770.99	50.667
771.30	41.803
771.61	47.982
771.92	47.951
772.23	52.521
772.54	51.282
772.85	62.827
773.16	60.106
773.47	60.870
773.78	63.959
774.09	56.548
774.39	58.480
774.70	62.963
775.01	68.116
775.32	66.013
775.63	56.579
775.94	64.029
776.25	74.803
776.56	72.388
776.87	75.410
777.18	71.094
777.48	70.229
777.79	69.697
778.10	71.111
778.41	81.250
778.72	56.204
779.03	61.745
779.34	63.758
779.65	59.459
779.95	56.442
780.26	65.359
780.57	62.069
780.88	78.125
781.19	65.414
781.50	66.216
781.80	61.635
782.11	52.542
782.42	64.557
782.73	52.147
783.04	61.486
783.34	67.606
783.65	69.178
783.96	70.149
784.27	60.140
784.57	61.871
784.88	68.519
785.19	72.222
785.50	70.755
785.81	71.642
786.11	68.033
786.42	72.868
786.73	74.336
787.04	86.792
787.34	73.214
787.65	75.000
787.96	72.973
788.26	66.116
788.57	73.729
788.88	80.165
789.19	71.528
789.49	70.455
789.80	71.756
790.11	91.429
790.41	87.129
790.72	90.361
791.03	82.609
791.33	89.535
791.64	75.258
791.95	78.218
792.25	86.667
792.56	94.805
792.87	103.846
793.17	93.671
793.48	87.356
793.79	101.149
794.09	80.682
794.40	70.588
794.70	72.059
795.01	68.148
795.32	64.029
795.62	70.866
795.93	76.724
796.23	67.257
796.54	72.941
796.85	95.946
797.15	108.451
797.46	116.667
797.76	106.024
798.07	86.076
798.37	103.077
798.68	104.545
798.99	102.817
799.29	89.610
799.60	88.636
799.90	109.589
800.21	107.463
800.51	129.310
800.82	119.298
801.12	121.311
801.43	107.576
801.73	89.189
802.04	112.698
802.34	97.531
802.65	110.938
802.95	128.814
803.26	126.563
803.56	87.143
803.87	116.923
804.17	111.765
804.48	138.889
804.78	125.862
805.09	108.824
805.39	128.846
805.70	114.286
806.00	127.869
806.30	115.152
806.61	91.463
806.91	94.937
807.22	92.105
807.52	83.582
807.83	115.493
808.13	120.313
808.43	118.333
808.74	94.737
809.04	111.594
809.35	107.463
809.65	89.474
809.95	127.419
810.26	110.169
810.56	111.111
810.86	159.091
811.17	169.048
811.47	138.333
811.77	127.778
812.08	127.273
812.38	142.000
812.69	172.222
812.99	177.273
813.29	163.265
813.59	130.952
813.90	148.980
814.20	125.455
814.50	112.308
814.81	113.235
815.11	148.980
815.41	109.836
815.72	192.857
816.02	129.091
816.32	138.095
816.62	152.500
816.93	173.171
817.23	161.905
817.53	134.091
817.84	184.848
818.14	139.130
818.44	142.222
818.74	182.353
819.04	165.000
819.35	188.571
819.65	211.765
819.95	207.143
820.25	265.000
820.56	202.564
820.86	152.273
821.16	179.070
821.46	141.026
821.76	148.000
822.07	194.286
822.37	142.500
822.67	206.061
822.97	139.216
823.27	221.429
823.57	167.568
823.88	180.000
824.18	233.333
824.48	171.429
824.78	200.000
825.08	225.000
825.38	181.081
825.69	146.341
825.99	254.167
826.29	189.655
826.59	194.737
826.89	165.789
827.19	170.588
827.49	209.677
827.79	165.909
828.09	152.273
828.39	142.553
828.70	153.061
829.00	229.630
829.30	200.000
829.60	177.500
829.90	433.333
830.20	235.714
830.50	234.783
830.80	269.565
831.10	203.333
831.40	230.000
831.70	247.826
832.00	253.846
832.30	196.296
832.60	325.000
832.90	236.667
833.20	407.143
833.50	254.839
833.80	210.345
834.10	203.125
834.40	223.077
834.70	327.778
835.00	338.095
835.30	182.857
835.60	369.231
835.90	231.034
836.20	350.000
836.50	241.379
836.80	276.000
837.10	213.889
837.40	285.714
837.70	329.412
838.00	248.148
838.30	285.714
838.60	300.000
838.90	265.385
839.19	290.000
839.49	478.571
839.79	350.000
840.09	295.000
840.39	319.048
840.69	343.478
840.99	327.778
841.29	500.000
841.59	458.333
841.88	350.000
842.18	186.207
842.48	290.476
842.78	160.000
843.08	282.609
843.38	215.625
843.68	983.333
843.97	226.923
844.27	237.931
844.57	352.381
844.87	406.250
845.17	248.148
845.47	2133.333
845.76	544.444
846.06	323.529
846.36	687.500
846.66	421.429
846.96	325.000
847.25	481.818
847.55	463.636
847.85	291.304
848.15	580.000
848.44	428.571
848.74	277.778
849.04	317.647
849.34	590.000
849.63	315.789
849.93	418.182
850.23	1200.000
850.53	457.143
850.82	2650.000
851.12	-4900.000
851.42	5900.000
851.71	295.000
852.01	-1533.333
852.31	258.333
852.61	1833.333
852.90	290.476
853.20	252.000
853.50	341.176
853.79	300.000
854.09	279.167
854.39	393.750
854.68	186.486
854.98	190.323
855.28	230.000
855.57	220.690
855.87	237.037
856.17	247.368
856.46	326.667
856.76	335.294
857.05	244.828
857.35	258.333
857.65	360.000
857.94	304.348
858.24	265.385
858.53	375.000
858.83	318.182
859.13	373.333
859.42	0.000
859.72	633.333
860.01	445.455
860.31	318.182
860.60	300.000
860.90	260.870
861.20	655.556
861.49	558.333
861.79	-5300.000
862.08	800.000
862.38	290.476
862.67	392.308
862.97	352.941
863.26	633.333
863.56	316.667
863.85	458.333
864.15	612.500
864.44	440.000
864.74	916.667
865.03	775.000
865.33	315.789
865.62	454.545
865.92	430.769
866.21	441.667
866.51	0.000
866.80	490.909
867.10	1200.000
867.39	507.692
867.69	472.727
867.98	373.684
868.27	554.545
868.57	305.263
868.86	-6000.000
869.16	443.750
869.45	2450.000
869.75	-4400.000
870.04	516.667
870.33	828.571
870.63	1400.000
870.92	2950.000
871.22	914.286
871.51	411.765
871.80	290.476
872.10	378.571
>>>>>End Processed Spectral Data<<<<<
