SpectraSuite Data File
++++++++++++++++++++++++++++++++++++
Date: Wed May 13 19:22:49 PDT 2015
User: schluterlab
Dark Spectrum Present: Yes
Reference Spectrum Present: Yes
Number of Sampled Component Spectra: 1
Spectrometers: USB2E3373
Integration Time (usec): 3000 (USB2E3373)
Spectra Averaged: 3 (USB2E3373)
Boxcar Smoothing: 0 (USB2E3373)
Correct for Electrical Dark: No (USB2E3373)
Strobe/Lamp Enabled: No (USB2E3373)
Correct for Detector Non-linearity: No (USB2E3373)
Correct for Stray Light: No (USB2E3373)
Number of Pixels in Processed Spectrum: 2048
>>>>>Begin Processed Spectral Data<<<<<
178.53	0.000
178.91	-1225.000
179.29	-1400.000
179.67	-222.222
180.04	-1275.000
180.42	2850.000
180.80	1180.000
181.18	-1075.000
181.56	785.714
181.94	0.000
182.31	-800.000
182.69	1866.667
183.07	-587.500
183.45	-700.000
183.83	563.636
184.20	-440.000
184.58	2550.000
184.96	5600.000
185.34	-940.000
185.72	-625.000
186.09	-2800.000
186.47	2750.000
186.85	2450.000
187.23	6000.000
187.61	-1900.000
187.98	1500.000
188.36	636.364
188.74	500.000
189.12	-1040.000
189.49	620.000
189.87	-4800.000
190.25	-1525.000
190.63	478.571
191.00	507.692
191.38	950.000
191.76	-1225.000
192.14	1500.000
192.51	725.000
192.89	1016.667
193.27	712.500
193.65	-1450.000
194.02	640.000
194.40	1040.000
194.78	560.000
195.15	491.667
195.53	630.000
195.91	-2750.000
196.29	337.500
196.66	347.368
197.04	-490.000
197.42	0.000
197.79	660.000
198.17	-4700.000
198.55	828.571
198.92	775.000
199.30	1080.000
199.68	0.000
200.05	400.000
200.43	728.571
200.81	5100.000
201.18	1966.667
201.56	-1966.667
201.94	577.778
202.31	744.444
202.69	408.333
203.07	610.000
203.44	0.000
203.82	1375.000
204.19	757.143
204.57	521.429
204.95	837.500
205.32	1866.667
205.70	509.091
206.08	435.714
206.45	2650.000
206.83	418.750
207.20	1050.000
207.58	1000.000
207.96	316.667
208.33	737.500
208.71	-933.333
209.08	800.000
209.46	566.667
209.84	518.182
210.21	-1633.333
210.59	1650.000
210.96	-500.000
211.34	2600.000
211.71	610.000
212.09	966.667
212.46	0.000
212.84	1900.000
213.22	1375.000
213.59	-5200.000
213.97	983.333
214.34	857.143
214.72	572.727
215.09	1060.000
215.47	-2750.000
215.84	-3350.000
216.22	1933.333
216.59	392.857
216.97	1350.000
217.34	418.182
217.72	-833.333
218.09	0.000
218.47	-4300.000
218.84	733.333
219.22	814.286
219.59	2033.333
219.97	-614.286
220.34	960.000
220.72	-1566.667
221.09	414.286
221.47	1675.000
221.84	-1000.000
222.22	0.000
222.59	1725.000
222.97	-2800.000
223.34	1180.000
223.72	423.077
224.09	1360.000
224.46	2250.000
224.84	-5500.000
225.21	-1020.000
225.59	-5200.000
225.96	660.000
226.34	345.000
226.71	3150.000
227.08	825.000
227.46	570.000
227.83	-1050.000
228.21	-2800.000
228.58	777.778
228.95	-2450.000
229.33	-2350.000
229.70	1933.333
230.08	842.857
230.45	-980.000
230.82	466.667
231.20	1116.667
231.57	671.429
231.95	491.667
232.32	218.182
232.69	445.455
233.07	685.714
233.44	384.615
233.81	-1566.667
234.19	294.737
234.56	466.667
234.93	325.000
235.31	436.364
235.68	300.000
236.05	400.000
236.43	193.939
236.80	294.737
237.17	5000.000
237.55	233.333
237.92	210.714
238.29	180.952
238.67	154.839
239.04	210.345
239.41	138.889
239.79	123.913
240.16	142.857
240.53	147.727
240.91	98.039
241.28	82.000
241.65	110.000
242.02	88.406
242.40	85.484
242.77	95.000
243.14	65.591
243.51	74.157
243.89	64.706
244.26	61.111
244.63	54.839
245.00	44.681
245.38	44.554
245.75	49.533
246.12	41.284
246.49	48.905
246.87	53.600
247.24	47.692
247.61	34.286
247.98	29.412
248.36	29.730
248.73	35.669
249.10	40.127
249.47	32.203
249.84	33.155
250.22	32.620
250.59	26.627
250.96	30.303
251.33	28.436
251.70	31.188
252.08	27.619
252.45	25.561
252.82	22.174
253.19	20.851
253.56	23.922
253.94	23.651
254.31	24.219
254.68	26.538
255.05	22.878
255.42	23.984
255.79	19.118
256.16	21.300
256.54	18.375
256.91	23.132
257.28	20.144
257.65	17.822
258.02	19.255
258.39	18.612
258.76	17.726
259.14	17.262
259.51	15.502
259.88	17.391
260.25	18.127
260.62	15.607
260.99	18.944
261.36	16.817
261.73	16.619
262.10	13.663
262.47	15.493
262.85	16.992
263.22	13.390
263.59	17.949
263.96	14.011
264.33	13.577
264.70	14.474
265.07	16.624
265.44	15.152
265.81	10.706
266.18	15.075
266.55	16.585
266.92	14.496
267.29	14.583
267.66	15.138
268.03	15.455
268.40	16.121
268.77	12.888
269.14	12.387
269.51	14.673
269.88	14.685
270.25	11.061
270.62	12.135
270.99	15.269
271.36	12.232
271.73	11.449
272.10	13.261
272.47	12.903
272.84	14.935
273.21	16.143
273.58	11.572
273.95	12.788
274.32	9.504
274.69	11.349
275.06	12.598
275.43	13.617
275.80	11.022
276.17	11.609
276.54	11.435
276.91	12.846
277.28	12.500
277.65	12.186
278.02	10.145
278.39	12.500
278.76	12.545
279.13	11.698
279.50	10.056
279.87	10.359
280.23	13.174
280.60	9.671
280.97	9.982
281.34	10.796
281.71	11.273
282.08	11.324
282.45	11.273
282.82	11.723
283.19	8.734
283.56	10.526
283.92	9.983
284.29	9.171
284.66	9.800
285.03	9.946
285.40	10.387
285.77	9.764
286.14	8.463
286.51	11.833
286.87	11.795
287.24	11.564
287.61	10.594
287.98	10.390
288.35	10.143
288.72	9.969
289.08	10.329
289.45	8.896
289.82	8.293
290.19	9.262
290.56	8.882
290.93	8.761
291.29	8.896
291.66	10.619
292.03	11.628
292.40	11.013
292.77	8.432
293.13	10.000
293.50	9.767
293.87	9.481
294.24	6.519
294.60	7.715
294.97	8.430
295.34	9.732
295.71	9.659
296.08	9.259
296.44	7.978
296.81	8.190
297.18	7.995
297.55	6.728
297.91	8.047
298.28	8.300
298.65	8.747
299.02	8.037
299.38	6.507
299.75	6.604
300.12	7.152
300.48	6.125
300.85	8.015
301.22	7.261
301.59	6.313
301.95	6.549
302.32	7.445
302.69	7.527
303.05	7.152
303.42	7.654
303.79	7.701
304.15	6.876
304.52	6.489
304.89	7.317
305.25	6.961
305.62	8.267
305.99	8.619
306.35	8.166
306.72	7.623
307.09	7.880
307.45	7.770
307.82	5.469
308.19	6.954
308.55	7.228
308.92	7.626
309.29	6.653
309.65	6.363
310.02	5.603
310.38	8.065
310.75	6.758
311.12	6.141
311.48	6.792
311.85	7.023
312.22	6.556
312.58	6.237
312.95	6.758
313.31	6.408
313.68	5.821
314.05	7.692
314.41	6.030
314.78	6.949
315.14	6.753
315.51	8.033
315.87	7.129
316.24	7.448
316.61	5.848
316.97	7.241
317.34	4.697
317.70	6.788
318.07	6.641
318.43	5.969
318.80	6.279
319.16	7.533
319.53	5.816
319.89	7.048
320.26	7.400
320.62	7.044
320.99	5.960
321.35	6.061
321.72	7.700
322.08	6.515
322.45	6.667
322.81	6.395
323.18	7.707
323.54	7.236
323.91	8.208
324.27	7.075
324.64	6.058
325.00	6.132
325.37	6.824
325.73	7.899
326.10	6.796
326.46	6.004
326.83	6.903
327.19	6.405
327.56	5.662
327.92	7.262
328.29	7.986
328.65	8.195
329.01	5.596
329.38	6.383
329.74	6.094
330.11	6.786
330.47	7.805
330.84	8.180
331.20	6.740
331.56	7.706
331.93	6.204
332.29	7.542
332.66	7.345
333.02	6.764
333.38	7.407
333.75	8.200
334.11	7.117
334.48	7.010
334.84	7.077
335.20	7.364
335.57	6.165
335.93	5.893
336.29	7.143
336.66	6.763
337.02	6.787
337.38	8.148
337.75	5.793
338.11	6.804
338.47	6.906
338.84	7.241
339.20	6.881
339.56	8.212
339.93	6.091
340.29	7.065
340.65	6.774
341.02	6.545
341.38	6.940
341.74	6.491
342.11	6.900
342.47	6.167
342.83	6.592
343.20	7.965
343.56	7.329
343.92	6.404
344.28	6.378
344.65	6.363
345.01	6.313
345.37	6.432
345.73	6.599
346.10	7.076
346.46	6.271
346.82	6.919
347.19	5.931
347.55	5.993
347.91	6.553
348.27	6.738
348.63	5.686
349.00	6.311
349.36	6.158
349.72	7.137
350.08	5.916
350.45	6.103
350.81	6.661
351.17	5.997
351.53	5.897
351.89	6.353
352.26	7.261
352.62	6.576
352.98	5.997
353.34	6.820
353.70	5.646
354.07	5.645
354.43	6.270
354.79	5.712
355.15	5.986
355.51	6.395
355.87	5.633
356.24	6.922
356.60	5.453
356.96	5.471
357.32	6.460
357.68	6.063
358.04	6.413
358.40	7.047
358.77	6.416
359.13	5.288
359.49	5.647
359.85	4.921
360.21	4.705
360.57	6.070
360.93	6.231
361.29	6.122
361.66	5.186
362.02	5.224
362.38	6.388
362.74	6.101
363.10	5.551
363.46	5.136
363.82	5.820
364.18	5.507
364.54	5.721
364.90	6.303
365.26	5.000
365.62	5.332
365.98	5.113
366.35	5.158
366.71	5.785
367.07	5.390
367.43	5.080
367.79	4.925
368.15	6.250
368.51	5.160
368.87	5.710
369.23	4.974
369.59	6.010
369.95	5.441
370.31	5.199
370.67	6.159
371.03	6.442
371.39	5.394
371.75	5.074
372.11	5.263
372.47	5.865
372.83	5.836
373.19	4.263
373.55	4.952
373.91	6.775
374.27	6.048
374.63	4.218
374.99	5.862
375.35	5.234
375.71	4.798
376.07	5.967
376.42	5.021
376.78	5.368
377.14	5.156
377.50	5.762
377.86	4.854
378.22	6.195
378.58	4.699
378.94	4.023
379.30	4.453
379.66	5.076
380.02	5.405
380.38	4.857
380.74	5.582
381.09	5.134
381.45	4.978
381.81	5.037
382.17	5.350
382.53	4.465
382.89	4.568
383.25	4.565
383.61	5.638
383.97	5.128
384.32	5.365
384.68	4.771
385.04	5.532
385.40	4.272
385.76	4.853
386.12	4.793
386.48	5.412
386.83	5.196
387.19	5.690
387.55	4.947
387.91	5.139
388.27	4.905
388.62	4.733
388.98	4.423
389.34	5.319
389.70	4.844
390.06	5.513
390.42	4.799
390.77	5.216
391.13	4.531
391.49	5.266
391.85	4.519
392.20	4.795
392.56	4.419
392.92	5.003
393.28	2.959
393.64	5.216
393.99	5.498
394.35	4.591
394.71	4.768
395.07	4.673
395.42	4.759
395.78	4.835
396.14	4.780
396.50	5.326
396.85	4.832
397.21	4.932
397.57	4.960
397.92	4.928
398.28	4.204
398.64	5.436
399.00	4.589
399.35	4.174
399.71	5.498
400.07	4.849
400.42	4.479
400.78	4.946
401.14	4.756
401.49	4.478
401.85	4.537
402.21	4.311
402.57	4.812
402.92	4.918
403.28	5.059
403.63	4.517
403.99	4.395
404.35	5.212
404.70	4.376
405.06	4.310
405.42	4.492
405.77	3.771
406.13	4.120
406.49	4.849
406.84	4.784
407.20	4.492
407.55	5.105
407.91	5.000
408.27	4.148
408.62	4.816
408.98	4.841
409.34	3.998
409.69	4.581
410.05	4.833
410.40	4.648
410.76	4.958
411.11	5.549
411.47	5.112
411.83	4.215
412.18	4.453
412.54	4.545
412.89	5.422
413.25	4.723
413.60	4.941
413.96	4.979
414.31	4.800
414.67	5.196
415.03	4.768
415.38	5.090
415.74	5.145
416.09	4.899
416.45	5.087
416.80	4.428
417.16	5.295
417.51	4.579
417.87	4.110
418.22	5.237
418.58	5.294
418.93	4.853
419.29	4.456
419.64	5.479
420.00	5.549
420.35	5.797
420.71	4.842
421.06	4.475
421.42	4.971
421.77	5.213
422.12	4.267
422.48	3.616
422.83	4.718
423.19	4.972
423.54	4.701
423.90	5.101
424.25	5.193
424.61	5.000
424.96	4.840
425.31	5.150
425.67	3.989
426.02	4.800
426.38	5.556
426.73	4.915
427.09	4.985
427.44	4.370
427.79	5.118
428.15	5.417
428.50	4.974
428.85	5.781
429.21	4.362
429.56	4.510
429.92	4.731
430.27	4.469
430.62	4.147
430.98	4.722
431.33	4.897
431.68	4.869
432.04	4.526
432.39	4.626
432.74	4.788
433.10	4.980
433.45	4.665
433.80	4.102
434.16	4.861
434.51	4.789
434.86	5.530
435.22	3.891
435.57	5.350
435.92	3.979
436.28	5.279
436.63	5.408
436.98	4.522
437.34	4.949
437.69	5.601
438.04	4.216
438.39	5.194
438.75	5.288
439.10	4.413
439.45	5.254
439.81	4.350
440.16	4.404
440.51	5.214
440.86	5.732
441.22	4.783
441.57	4.883
441.92	4.606
442.27	4.682
442.63	4.265
442.98	5.352
443.33	4.783
443.68	4.646
444.03	4.490
444.39	3.992
444.74	4.437
445.09	5.121
445.44	4.374
445.79	4.701
446.15	5.188
446.50	4.631
446.85	4.779
447.20	5.099
447.55	4.467
447.91	4.578
448.26	5.008
448.61	5.088
448.96	5.592
449.31	5.062
449.66	5.459
450.02	4.513
450.37	5.102
450.72	5.189
451.07	5.058
451.42	5.289
451.77	5.813
452.12	5.658
452.47	5.410
452.83	4.662
453.18	5.196
453.53	5.195
453.88	4.666
454.23	5.200
454.58	5.754
454.93	5.785
455.28	4.676
455.63	5.461
455.98	6.071
456.34	5.402
456.69	5.009
457.04	5.573
457.39	5.085
457.74	4.933
458.09	5.923
458.44	4.960
458.79	4.176
459.14	5.192
459.49	4.612
459.84	4.765
460.19	5.009
460.54	5.093
460.89	4.937
461.24	5.161
461.59	6.856
461.94	4.994
462.29	5.935
462.64	5.424
462.99	5.140
463.34	5.867
463.69	4.816
464.04	5.739
464.39	6.203
464.74	5.764
465.09	4.885
465.44	4.820
465.79	4.251
466.14	5.309
466.49	4.894
466.84	4.962
467.19	5.552
467.54	5.688
467.89	5.462
468.24	5.526
468.59	5.861
468.94	4.765
469.29	5.591
469.64	6.627
469.99	5.616
470.34	5.416
470.68	5.675
471.03	5.442
471.38	5.698
471.73	5.796
472.08	5.724
472.43	6.156
472.78	5.662
473.13	5.584
473.48	5.930
473.83	5.366
474.17	4.667
474.52	5.831
474.87	5.779
475.22	4.875
475.57	4.460
475.92	4.992
476.27	4.679
476.61	5.019
476.96	4.563
477.31	4.448
477.66	5.252
478.01	4.861
478.36	5.288
478.70	4.413
479.05	5.005
479.40	5.067
479.75	4.423
480.10	4.970
480.45	4.379
480.79	4.587
481.14	4.892
481.49	4.509
481.84	4.435
482.19	4.543
482.53	5.229
482.88	4.793
483.23	4.579
483.58	4.504
483.92	5.295
484.27	3.660
484.62	4.052
484.97	3.823
485.31	4.212
485.66	3.171
486.01	2.819
486.36	2.884
486.70	2.635
487.05	3.180
487.40	3.269
487.75	3.368
488.09	3.640
488.44	3.569
488.79	4.087
489.13	4.278
489.48	3.752
489.83	4.316
490.17	4.384
490.52	4.694
490.87	4.116
491.22	4.457
491.56	4.146
491.91	4.607
492.26	4.272
492.60	4.793
492.95	4.116
493.30	3.972
493.64	4.386
493.99	4.225
494.34	4.394
494.68	4.945
495.03	4.981
495.37	4.746
495.72	4.288
496.07	4.826
496.41	4.204
496.76	4.398
497.11	4.548
497.45	4.425
497.80	4.607
498.14	3.382
498.49	4.439
498.84	4.986
499.18	4.905
499.53	4.368
499.87	4.427
500.22	4.805
500.56	5.049
500.91	4.375
501.26	4.694
501.60	4.841
501.95	4.629
502.29	4.639
502.64	4.842
502.98	4.488
503.33	4.753
503.67	4.269
504.02	5.005
504.36	5.194
504.71	4.592
505.06	4.193
505.40	4.570
505.75	4.050
506.09	4.713
506.44	4.243
506.78	5.261
507.13	4.846
507.47	5.253
507.82	4.509
508.16	4.711
508.51	4.566
508.85	4.419
509.19	4.235
509.54	4.949
509.88	4.791
510.23	4.524
510.57	5.573
510.92	4.972
511.26	4.985
511.61	5.394
511.95	4.332
512.30	4.825
512.64	5.051
512.98	5.252
513.33	5.353
513.67	5.443
514.02	4.545
514.36	5.079
514.70	5.589
515.05	4.629
515.39	5.440
515.74	5.462
516.08	5.422
516.42	5.549
516.77	5.686
517.11	4.772
517.46	5.135
517.80	5.285
518.14	4.343
518.49	5.659
518.83	5.852
519.17	5.370
519.52	4.924
519.86	5.476
520.20	5.954
520.55	5.506
520.89	5.414
521.23	6.333
521.58	5.222
521.92	6.001
522.26	5.186
522.61	4.860
522.95	5.586
523.29	4.565
523.64	4.878
523.98	5.977
524.32	5.428
524.66	5.953
525.01	5.331
525.35	5.514
525.69	5.850
526.04	5.670
526.38	6.040
526.72	5.583
527.06	5.712
527.41	5.012
527.75	5.723
528.09	5.138
528.43	6.055
528.78	5.962
529.12	6.061
529.46	5.634
529.80	5.879
530.15	6.106
530.49	6.215
530.83	5.696
531.17	5.483
531.51	6.615
531.86	5.613
532.20	5.867
532.54	6.214
532.88	6.290
533.22	5.746
533.57	5.617
533.91	5.539
534.25	5.650
534.59	5.796
534.93	5.354
535.27	6.156
535.62	6.227
535.96	5.964
536.30	5.722
536.64	6.632
536.98	6.171
537.32	6.122
537.66	6.000
538.01	6.386
538.35	6.464
538.69	6.828
539.03	6.238
539.37	4.920
539.71	4.796
540.05	6.209
540.39	6.379
540.73	6.274
541.07	6.944
541.42	6.327
541.76	6.774
542.10	6.339
542.44	5.563
542.78	5.995
543.12	5.566
543.46	6.295
543.80	5.856
544.14	4.878
544.48	5.714
544.82	5.965
545.16	6.181
545.50	5.463
545.84	6.788
546.18	5.993
546.52	5.368
546.86	5.704
547.20	6.473
547.54	6.012
547.88	6.824
548.22	6.227
548.56	5.912
548.90	5.186
549.24	6.128
549.58	6.821
549.92	6.593
550.26	6.747
550.60	6.432
550.94	6.338
551.28	5.633
551.62	5.895
551.96	6.105
552.30	6.348
552.64	6.761
552.98	6.712
553.32	7.148
553.66	6.748
554.00	5.697
554.34	5.728
554.68	7.368
555.02	6.559
555.36	6.124
555.69	6.292
556.03	6.528
556.37	6.071
556.71	6.344
557.05	5.672
557.39	6.088
557.73	6.845
558.07	5.874
558.41	6.512
558.75	6.392
559.08	7.308
559.42	6.047
559.76	6.838
560.10	6.709
560.44	6.359
560.78	5.988
561.12	6.135
561.45	7.106
561.79	5.801
562.13	6.103
562.47	5.874
562.81	5.579
563.15	5.953
563.48	6.897
563.82	5.675
564.16	6.082
564.50	5.859
564.84	6.321
565.17	6.049
565.51	5.495
565.85	6.599
566.19	6.137
566.52	5.826
566.86	5.847
567.20	6.132
567.54	5.993
567.88	4.508
568.21	5.767
568.55	5.056
568.89	4.912
569.23	5.437
569.56	4.615
569.90	4.453
570.24	4.306
570.57	4.114
570.91	4.040
571.25	3.953
571.59	4.271
571.92	3.802
572.26	3.871
572.60	4.414
572.93	4.078
573.27	4.170
573.61	4.048
573.95	3.798
574.28	3.693
574.62	3.523
574.96	3.871
575.29	3.565
575.63	3.760
575.97	3.723
576.30	3.797
576.64	3.412
576.98	3.452
577.31	3.350
577.65	3.474
577.98	3.418
578.32	3.217
578.66	3.543
578.99	3.652
579.33	3.607
579.67	3.308
580.00	3.764
580.34	3.441
580.67	3.569
581.01	4.003
581.35	3.191
581.68	3.422
582.02	3.271
582.35	3.146
582.69	3.392
583.02	3.662
583.36	3.643
583.70	3.696
584.03	3.579
584.37	4.216
584.70	3.474
585.04	3.841
585.37	4.007
585.71	3.900
586.04	3.842
586.38	3.710
586.72	4.198
587.05	3.749
587.39	3.641
587.72	3.942
588.06	3.575
588.39	4.060
588.73	4.019
589.06	3.677
589.40	4.209
589.73	4.118
590.07	4.520
590.40	4.311
590.73	4.567
591.07	5.128
591.40	5.314
591.74	5.108
592.07	5.410
592.41	4.795
592.74	4.682
593.08	4.097
593.41	4.239
593.75	3.904
594.08	4.224
594.41	4.878
594.75	4.288
595.08	4.760
595.42	4.729
595.75	4.167
596.09	4.844
596.42	5.462
596.75	5.234
597.09	5.238
597.42	4.680
597.75	5.088
598.09	4.565
598.42	4.811
598.76	4.337
599.09	4.295
599.42	4.622
599.76	4.612
600.09	4.444
600.42	4.127
600.76	3.821
601.09	4.809
601.42	4.338
601.76	5.047
602.09	4.743
602.42	5.175
602.76	5.038
603.09	4.170
603.42	4.529
603.76	4.535
604.09	4.382
604.42	4.770
604.76	5.356
605.09	4.937
605.42	5.045
605.75	4.346
606.09	4.311
606.42	4.863
606.75	4.148
607.09	5.023
607.42	4.365
607.75	4.599
608.08	4.646
608.42	5.424
608.75	4.824
609.08	4.903
609.41	4.855
609.75	4.955
610.08	5.608
610.41	4.423
610.74	4.825
611.07	4.990
611.41	4.711
611.74	5.832
612.07	5.538
612.40	5.614
612.73	5.263
613.07	5.927
613.40	5.740
613.73	4.667
614.06	5.269
614.39	6.450
614.72	5.316
615.06	5.830
615.39	5.786
615.72	4.908
616.05	4.997
616.38	5.503
616.71	5.404
617.05	6.066
617.38	5.292
617.71	5.706
618.04	6.550
618.37	6.564
618.70	5.912
619.03	6.250
619.36	6.042
619.69	6.479
620.03	6.937
620.36	6.350
620.69	6.918
621.02	5.973
621.35	6.578
621.68	7.087
622.01	6.424
622.34	7.110
622.67	6.768
623.00	6.236
623.33	6.362
623.66	6.648
623.99	6.701
624.32	6.776
624.65	6.073
624.99	5.666
625.32	6.300
625.65	6.837
625.98	6.841
626.31	7.232
626.64	7.102
626.97	7.564
627.30	6.234
627.63	7.547
627.96	7.653
628.29	7.437
628.62	8.600
628.95	9.340
629.28	7.938
629.61	8.341
629.94	6.762
630.26	8.103
630.59	7.150
630.92	7.375
631.25	7.009
631.58	7.608
631.91	8.114
632.24	7.700
632.57	8.185
632.90	7.675
633.23	8.949
633.56	9.266
633.89	8.607
634.22	8.967
634.55	8.757
634.88	7.545
635.20	9.080
635.53	8.434
635.86	8.292
636.19	8.824
636.52	8.304
636.85	9.164
637.18	8.180
637.51	9.811
637.83	7.768
638.16	9.463
638.49	9.950
638.82	9.102
639.15	9.625
639.48	10.599
639.81	10.054
640.13	11.719
640.46	10.738
640.79	9.908
641.12	9.766
641.45	9.637
641.77	11.782
642.10	8.480
642.43	9.760
642.76	10.372
643.09	10.583
643.41	9.560
643.74	11.420
644.07	12.195
644.40	12.117
644.73	12.756
645.05	12.837
645.38	10.269
645.71	10.628
646.04	10.133
646.36	13.356
646.69	12.375
647.02	12.755
647.35	12.199
647.67	13.274
648.00	12.846
648.33	11.386
648.66	10.455
648.98	10.645
649.31	8.969
649.64	9.567
649.96	11.028
650.29	9.795
650.62	11.489
650.94	13.290
651.27	13.176
651.60	8.985
651.92	13.099
652.25	9.935
652.58	11.838
652.90	11.532
653.23	10.015
653.56	11.339
653.88	10.777
654.21	12.480
654.54	12.211
654.86	12.305
655.19	8.514
655.52	4.543
655.84	2.579
656.17	2.768
656.49	3.657
656.82	3.870
657.15	3.138
657.47	2.486
657.80	2.019
658.13	2.037
658.45	3.172
658.78	3.602
659.10	4.123
659.43	4.152
659.75	5.047
660.08	6.392
660.41	7.449
660.73	11.055
661.06	9.713
661.38	13.818
661.71	14.038
662.03	13.807
662.36	10.338
662.68	10.843
663.01	12.525
663.33	12.527
663.66	13.445
663.98	12.527
664.31	11.345
664.63	11.336
664.96	12.274
665.28	13.320
665.61	12.476
665.93	13.280
666.26	13.793
666.58	12.971
666.91	14.165
667.23	15.506
667.56	12.527
667.88	16.239
668.21	12.793
668.53	14.751
668.86	14.719
669.18	14.925
669.50	12.826
669.83	16.340
670.15	13.333
670.48	13.072
670.80	14.440
671.13	14.225
671.45	10.851
671.77	13.849
672.10	11.645
672.42	12.191
672.75	12.438
673.07	11.444
673.39	11.573
673.72	10.937
674.04	13.529
674.37	13.786
674.69	11.656
675.01	12.134
675.34	14.374
675.66	17.053
675.98	13.238
676.31	13.655
676.63	15.287
676.95	14.256
677.28	13.785
677.60	12.308
677.92	15.612
678.25	12.936
678.57	12.550
678.89	14.228
679.22	13.360
679.54	13.359
679.86	12.661
680.18	12.880
680.51	13.121
680.83	12.811
681.15	13.774
681.48	14.934
681.80	10.638
682.12	13.410
682.44	14.120
682.77	13.035
683.09	15.880
683.41	15.743
683.73	11.921
684.06	14.876
684.38	13.699
684.70	12.791
685.02	13.321
685.34	12.637
685.67	10.140
685.99	11.340
686.31	11.775
686.63	10.247
686.96	12.679
687.28	12.816
687.60	11.413
687.92	13.346
688.24	11.217
688.56	14.056
688.89	13.278
689.21	15.284
689.53	13.570
689.85	14.412
690.17	12.422
690.49	16.348
690.82	13.551
691.14	12.277
691.46	12.869
691.78	13.454
692.10	15.083
692.42	14.770
692.74	13.485
693.06	12.553
693.39	15.811
693.71	12.664
694.03	14.526
694.35	13.420
694.67	12.357
694.99	17.073
695.31	13.725
695.63	14.833
695.95	15.159
696.27	12.690
696.59	13.731
696.91	15.026
697.23	12.676
697.56	15.991
697.88	13.088
698.20	13.333
698.52	13.763
698.84	15.590
699.16	13.594
699.48	13.777
699.80	15.459
700.12	18.961
700.44	16.180
700.76	18.232
701.08	16.667
701.40	17.877
701.72	20.117
702.04	21.591
702.36	16.714
702.68	18.130
703.00	16.620
703.32	17.021
703.64	18.231
703.96	16.156
704.28	16.279
704.60	17.302
704.91	20.475
705.23	21.114
705.55	20.930
705.87	25.249
706.19	22.261
706.51	18.692
706.83	20.606
707.15	19.328
707.47	17.424
707.79	16.216
708.11	14.384
708.43	17.381
708.74	12.755
709.06	15.325
709.38	16.273
709.70	16.860
710.02	18.991
710.34	15.758
710.66	20.000
710.98	20.170
711.29	21.221
711.61	19.469
711.93	15.705
712.25	20.900
712.57	18.750
712.89	20.761
713.20	22.796
713.52	20.395
713.84	18.987
714.16	21.037
714.48	18.391
714.80	18.237
715.11	18.156
715.43	14.837
715.75	19.710
716.07	19.808
716.39	18.809
716.70	26.246
717.02	21.942
717.34	19.788
717.66	25.000
717.97	23.904
718.29	24.815
718.61	22.628
718.93	22.059
719.24	22.145
719.56	20.678
719.88	18.644
720.20	21.622
720.51	20.906
720.83	24.535
721.15	20.149
721.46	20.922
721.78	22.581
722.10	18.868
722.42	22.932
722.73	20.974
723.05	23.770
723.37	22.267
723.68	26.255
724.00	23.577
724.32	24.194
724.63	23.577
724.95	23.849
725.27	23.482
725.58	26.562
725.90	25.182
726.22	26.415
726.53	20.486
726.85	21.502
727.16	20.285
727.48	20.213
727.80	24.621
728.11	22.464
728.43	24.615
728.74	24.014
729.06	28.102
729.38	26.103
729.69	22.420
730.01	19.113
730.32	20.139
730.64	22.074
730.96	18.812
731.27	22.185
731.59	18.043
731.90	20.408
732.22	19.255
732.53	16.718
732.85	17.308
733.16	20.257
733.48	21.262
733.80	19.481
734.11	22.930
734.43	17.456
734.74	19.143
735.06	17.192
735.37	19.075
735.69	17.834
736.00	22.876
736.32	24.299
736.63	20.767
736.95	18.530
737.26	15.986
737.58	17.742
737.89	20.401
738.21	21.160
738.52	22.857
738.83	18.491
739.15	23.462
739.46	22.993
739.78	21.875
740.09	19.077
740.41	20.645
740.72	19.512
741.04	23.704
741.35	22.083
741.66	31.556
741.98	25.472
742.29	31.100
742.61	27.155
742.92	26.697
743.23	22.650
743.55	26.800
743.86	25.877
744.18	28.761
744.49	27.751
744.80	30.047
745.12	29.545
745.43	30.837
745.74	26.126
746.06	24.312
746.37	27.803
746.68	28.959
747.00	29.167
747.31	29.048
747.62	21.239
747.94	22.467
748.25	22.128
748.56	31.718
748.88	25.743
749.19	26.000
749.50	25.116
749.82	24.797
750.13	20.408
750.44	20.803
750.75	24.211
751.07	23.794
751.38	22.300
751.69	23.466
752.01	22.180
752.32	22.744
752.63	19.504
752.94	23.361
753.26	24.000
753.57	24.797
753.88	24.609
754.19	24.286
754.51	23.611
754.82	20.578
755.13	24.906
755.44	21.429
755.75	21.898
756.07	17.730
756.38	19.708
756.69	18.792
757.00	19.461
757.31	20.475
757.63	18.713
757.94	19.303
758.25	16.912
758.56	15.802
758.87	16.667
759.18	17.879
759.50	21.944
759.81	18.069
760.12	12.187
760.43	21.203
760.74	16.576
761.05	16.949
761.36	17.647
761.67	17.045
761.99	17.702
762.30	21.875
762.61	20.611
762.92	26.172
763.23	28.151
763.54	30.400
763.85	24.609
764.16	27.692
764.47	24.715
764.78	20.495
765.10	15.190
765.41	18.879
765.72	16.766
766.03	21.003
766.34	19.333
766.65	25.957
766.96	26.496
767.27	34.518
767.58	30.208
767.89	33.684
768.20	39.655
768.51	26.396
768.82	30.275
769.13	22.358
769.44	24.696
769.75	22.747
770.06	21.560
770.37	28.959
770.68	25.926
770.99	30.667
771.30	22.541
771.61	26.906
771.92	24.180
772.23	26.471
772.54	29.744
772.85	34.555
773.16	30.319
773.47	33.696
773.78	32.487
774.09	32.143
774.39	39.181
774.70	32.099
775.01	41.304
775.32	41.830
775.63	32.237
775.94	40.288
776.25	45.669
776.56	40.299
776.87	45.902
777.18	43.750
777.48	44.275
777.79	46.212
778.10	50.370
778.41	41.964
778.72	38.686
779.03	39.597
779.34	36.913
779.65	34.459
779.95	33.742
780.26	42.484
780.57	46.897
780.88	46.875
781.19	42.857
781.50	34.459
781.80	38.365
782.11	34.463
782.42	32.278
782.73	34.356
783.04	33.108
783.34	47.183
783.65	50.685
783.96	40.299
784.27	34.266
784.57	39.568
784.88	40.741
785.19	50.794
785.50	54.717
785.81	57.463
786.11	52.459
786.42	48.062
786.73	39.823
787.04	45.283
787.34	52.679
787.65	53.000
787.96	47.748
788.26	44.628
788.57	48.305
788.88	49.587
789.19	52.083
789.49	46.212
789.80	45.802
790.11	56.190
790.41	57.426
790.72	61.446
791.03	54.348
791.33	66.279
791.64	59.794
791.95	62.376
792.25	62.222
792.56	74.026
792.87	89.744
793.17	78.481
793.48	68.966
793.79	63.218
794.09	65.909
794.40	51.261
794.70	46.324
795.01	43.704
795.32	32.374
795.62	45.669
795.93	50.000
796.23	54.867
796.54	63.529
796.85	60.811
797.15	87.324
797.46	59.091
797.76	87.952
798.07	70.886
798.37	67.692
798.68	83.333
798.99	57.746
799.29	63.636
799.60	61.364
799.90	98.630
800.21	88.060
800.51	84.483
800.82	94.737
801.12	91.803
801.43	93.939
801.73	79.730
802.04	104.762
802.34	77.778
802.65	85.938
802.95	108.475
803.26	110.938
803.56	77.143
803.87	75.385
804.17	88.235
804.48	112.963
804.78	68.966
805.09	88.235
805.39	105.769
805.70	105.357
806.00	109.836
806.30	80.303
806.61	68.293
806.91	67.089
807.22	65.789
807.52	61.194
807.83	80.282
808.13	89.062
808.43	80.000
808.74	80.263
809.04	84.058
809.35	85.075
809.65	78.947
809.95	90.323
810.26	83.051
810.56	90.476
810.86	129.545
811.17	119.048
811.47	108.333
811.77	88.889
812.08	101.818
812.38	126.000
812.69	163.889
812.99	172.727
813.29	114.286
813.59	111.905
813.90	122.449
814.20	90.909
814.50	89.231
814.81	89.706
815.11	106.122
815.41	101.639
815.72	159.524
816.02	127.273
816.32	111.905
816.62	112.500
816.93	146.341
817.23	128.571
817.53	120.455
817.84	166.667
818.14	119.565
818.44	120.000
818.74	144.118
819.04	125.000
819.35	137.143
819.65	158.824
819.95	178.571
820.25	255.000
820.56	156.410
820.86	145.455
821.16	134.884
821.46	130.769
821.76	124.000
822.07	157.143
822.37	137.500
822.67	169.697
822.97	119.608
823.27	157.143
823.57	162.162
823.88	172.500
824.18	183.333
824.48	157.143
824.78	232.000
825.08	150.000
825.38	172.973
825.69	129.268
825.99	279.167
826.29	127.586
826.59	171.053
826.89	142.105
827.19	191.176
827.49	151.613
827.79	152.273
828.09	156.818
828.39	148.936
828.70	118.367
829.00	188.889
829.30	158.065
829.60	135.000
829.90	373.333
830.20	185.714
830.50	186.957
830.80	256.522
831.10	200.000
831.40	180.000
831.70	195.652
832.00	207.692
832.30	207.407
832.60	362.500
832.90	230.000
833.20	435.714
833.50	180.645
833.80	182.759
834.10	175.000
834.40	246.154
834.70	350.000
835.00	328.571
835.30	180.000
835.60	353.846
835.90	244.828
836.20	371.429
836.50	200.000
836.80	188.000
837.10	177.778
837.40	276.190
837.70	294.118
838.00	222.222
838.30	233.333
838.60	295.238
838.90	276.923
839.19	285.000
839.49	421.429
839.79	300.000
840.09	295.000
840.39	257.143
840.69	278.261
840.99	333.333
841.29	460.000
841.59	391.667
841.88	343.750
842.18	162.069
842.48	285.714
842.78	200.000
843.08	265.217
843.38	196.875
843.68	650.000
843.97	230.769
844.27	217.241
844.57	295.238
844.87	368.750
845.17	218.519
845.47	1600.000
845.76	544.444
846.06	288.235
846.36	625.000
846.66	435.714
846.96	350.000
847.25	518.182
847.55	372.727
847.85	295.652
848.15	620.000
848.44	378.571
848.74	233.333
849.04	347.059
849.34	520.000
849.63	273.684
849.93	454.545
850.23	1060.000
850.53	442.857
850.82	2000.000
851.12	-4700.000
851.42	4800.000
851.71	320.000
852.01	-1333.333
852.31	287.500
852.61	2500.000
852.90	319.048
853.20	268.000
853.50	335.294
853.79	300.000
854.09	241.667
854.39	325.000
854.68	189.189
854.98	164.516
855.28	173.333
855.57	231.034
855.87	218.519
856.17	284.211
856.46	280.000
856.76	282.353
857.05	196.552
857.35	220.833
857.65	360.000
857.94	247.826
858.24	234.615
858.53	310.000
858.83	254.545
859.13	360.000
859.42	0.000
859.72	588.889
860.01	472.727
860.31	263.636
860.60	268.421
860.90	239.130
861.20	633.333
861.49	541.667
861.79	-5800.000
862.08	700.000
862.38	261.905
862.67	400.000
862.97	411.765
863.26	488.889
863.56	311.111
863.85	391.667
864.15	587.500
864.44	380.000
864.74	950.000
865.03	737.500
865.33	321.053
865.62	445.455
865.92	430.769
866.21	383.333
866.51	0.000
866.80	500.000
867.10	1180.000
867.39	461.538
867.69	527.273
867.98	278.947
868.27	454.545
868.57	305.263
868.86	-4000.000
869.16	281.250
869.45	2400.000
869.75	-4400.000
870.04	416.667
870.33	671.429
870.63	1075.000
870.92	2850.000
871.22	685.714
871.51	311.765
871.80	233.333
872.10	442.857
>>>>>End Processed Spectral Data<<<<<
