SpectraSuite Data File
++++++++++++++++++++++++++++++++++++
Date: Tue May 12 20:00:17 PDT 2015
User: schluterlab
Dark Spectrum Present: Yes
Reference Spectrum Present: Yes
Number of Sampled Component Spectra: 1
Spectrometers: USB2E3373
Integration Time (usec): 3000 (USB2E3373)
Spectra Averaged: 3 (USB2E3373)
Boxcar Smoothing: 0 (USB2E3373)
Correct for Electrical Dark: No (USB2E3373)
Strobe/Lamp Enabled: No (USB2E3373)
Correct for Detector Non-linearity: No (USB2E3373)
Correct for Stray Light: No (USB2E3373)
Number of Pixels in Processed Spectrum: 2048
>>>>>Begin Processed Spectral Data<<<<<
178.53	0.000
178.91	-150.000
179.29	-183.333
179.67	600.000
180.04	0.000
180.42	-480.000
180.80	-400.000
181.18	1400.000
181.56	-1000.000
181.94	233.333
182.31	2100.000
182.69	-314.286
183.07	0.000
183.45	283.333
183.83	460.000
184.20	433.333
184.58	1450.000
184.96	466.667
185.34	-666.667
185.72	-85.714
186.09	-200.000
186.47	-2200.000
186.85	-100.000
187.23	266.667
187.61	-228.571
187.98	-380.000
188.36	1350.000
188.74	-450.000
189.12	-188.889
189.49	-100.000
189.87	700.000
190.25	177.778
190.63	833.333
191.00	380.000
191.38	-800.000
191.76	640.000
192.14	-228.571
192.51	-180.000
192.89	-300.000
193.27	-280.000
193.65	-466.667
194.02	-216.667
194.40	1900.000
194.78	-50.000
195.15	-342.857
195.53	600.000
195.91	400.000
196.29	-625.000
196.66	-633.333
197.04	-414.286
197.42	180.000
197.79	-200.000
198.17	-141.667
198.55	-800.000
198.92	-166.667
199.30	1150.000
199.68	-275.000
200.05	-1100.000
200.43	-105.556
200.81	-133.333
201.18	366.667
201.56	-950.000
201.94	-3000.000
202.31	-50.000
202.69	-122.222
203.07	-100.000
203.44	-825.000
203.82	0.000
204.19	287.500
204.57	-500.000
204.95	218.182
205.32	440.000
205.70	650.000
206.08	-1700.000
206.45	-360.000
206.83	2200.000
207.20	-166.667
207.58	-61.538
207.96	500.000
208.33	1000.000
208.71	700.000
209.08	900.000
209.46	-200.000
209.84	666.667
210.21	-866.667
210.59	450.000
210.96	277.778
211.34	-575.000
211.71	1100.000
212.09	-340.000
212.46	-262.500
212.84	-312.500
213.22	242.857
213.59	-25.000
213.97	0.000
214.34	-1000.000
214.72	-1900.000
215.09	1150.000
215.47	-20.000
215.84	-175.000
216.22	-2500.000
216.59	2500.000
216.97	-125.000
217.34	-216.667
217.72	-33.333
218.09	500.000
218.47	-126.316
218.84	-225.000
219.22	-85.714
219.59	-250.000
219.97	-130.000
220.34	400.000
220.72	190.909
221.09	-1200.000
221.47	0.000
221.84	900.000
222.22	-625.000
222.59	-450.000
222.97	-47.826
223.34	233.333
223.72	371.429
224.09	-350.000
224.46	223.077
224.84	-126.667
225.21	-650.000
225.59	-550.000
225.96	-30.000
226.34	533.333
226.71	300.000
227.08	-153.846
227.46	-142.857
227.83	-116.667
228.21	-1300.000
228.58	316.667
228.95	-47.368
229.33	-81.250
229.70	-133.333
230.08	-266.667
230.45	-566.667
230.82	-1600.000
231.20	-28.571
231.57	-400.000
231.95	-500.000
232.32	177.778
232.69	-1050.000
233.07	-37.500
233.44	-237.500
233.81	-9.677
234.19	-520.000
234.56	-100.000
234.93	-316.667
235.31	-18.519
235.68	-37.037
236.05	-46.154
236.43	-63.158
236.80	-72.727
237.17	-142.857
237.55	-135.000
237.92	4.651
238.29	-22.581
238.67	-39.286
239.04	2.857
239.41	7.843
239.79	-12.000
240.16	-10.000
240.53	-24.138
240.91	-2.740
241.28	14.085
241.65	15.625
242.02	-1.754
242.40	6.667
242.77	10.526
243.14	29.412
243.51	24.731
243.89	5.714
244.26	12.037
244.63	12.245
245.00	15.179
245.38	9.244
245.75	13.559
246.12	25.000
246.49	12.800
246.87	16.393
247.24	7.746
247.61	23.841
247.98	16.854
248.36	22.013
248.73	21.591
249.10	20.556
249.47	23.958
249.84	22.843
250.22	22.396
250.59	17.416
250.96	27.727
251.33	22.170
251.70	23.853
252.08	29.004
252.45	21.633
252.82	21.097
253.19	27.237
253.56	25.490
253.94	24.390
254.31	26.978
254.68	26.389
255.05	29.470
255.42	29.455
255.79	31.457
256.16	28.819
256.54	23.636
256.91	28.205
257.28	31.494
257.65	23.934
258.02	24.324
258.39	31.118
258.76	24.465
259.14	25.294
259.51	27.606
259.88	33.141
260.25	27.557
260.62	25.562
260.99	27.577
261.36	23.276
261.73	28.000
262.10	27.793
262.47	27.824
262.85	29.563
263.22	27.957
263.59	28.150
263.96	27.937
264.33	26.954
264.70	27.764
265.07	26.847
265.44	29.274
265.81	31.084
266.18	27.166
266.55	29.762
266.92	29.464
267.29	30.000
267.66	27.955
268.03	29.677
268.40	29.291
268.77	30.735
269.14	24.370
269.51	28.054
269.88	27.137
270.25	28.270
270.62	30.672
270.99	27.579
271.36	26.711
271.73	28.333
272.10	28.631
272.47	26.400
272.84	25.902
273.21	25.887
273.58	26.939
273.95	26.295
274.32	28.627
274.69	28.767
275.06	27.392
275.43	26.600
275.80	27.725
276.17	28.656
276.54	27.376
276.91	31.670
277.28	29.400
277.65	27.032
278.02	28.409
278.39	30.490
278.76	29.423
279.13	30.233
279.50	28.339
279.87	29.623
280.23	28.962
280.60	25.088
280.97	28.647
281.34	26.271
281.71	24.689
282.08	28.265
282.45	26.279
282.82	25.758
283.19	27.441
283.56	28.328
283.92	27.804
284.29	27.750
284.66	27.965
285.03	23.499
285.40	28.000
285.77	28.736
286.14	25.832
286.51	27.170
286.87	27.715
287.24	27.404
287.61	26.698
287.98	28.638
288.35	26.357
288.72	25.688
289.08	25.000
289.45	26.989
289.82	23.913
290.19	26.212
290.56	26.049
290.93	24.225
291.29	24.965
291.66	26.545
292.03	26.399
292.40	27.338
292.77	24.490
293.13	24.082
293.50	23.967
293.87	23.856
294.24	25.843
294.60	23.634
294.97	23.130
295.34	23.699
295.71	22.191
296.08	23.087
296.44	23.847
296.81	21.604
297.18	23.674
297.55	24.246
297.91	21.447
298.28	21.611
298.65	21.345
299.02	21.208
299.38	22.832
299.75	23.166
300.12	21.463
300.48	22.535
300.85	20.782
301.22	21.394
301.59	22.749
301.95	23.049
302.32	21.507
302.69	21.998
303.05	21.251
303.42	22.464
303.79	19.326
304.15	21.404
304.52	20.894
304.89	20.180
305.25	21.789
305.62	22.045
305.99	21.165
306.35	20.470
306.72	20.806
307.09	21.328
307.45	21.575
307.82	21.345
308.19	20.682
308.55	20.253
308.92	21.504
309.29	22.176
309.65	21.259
310.02	22.327
310.38	20.043
310.75	21.619
311.12	21.160
311.48	21.274
311.85	19.250
312.22	20.971
312.58	21.047
312.95	22.074
313.31	23.107
313.68	21.152
314.05	22.939
314.41	22.200
314.78	22.312
315.14	21.058
315.51	22.244
315.87	24.121
316.24	22.651
316.61	23.981
316.97	22.843
317.34	24.402
317.70	24.743
318.07	23.626
318.43	25.520
318.80	24.954
319.16	24.138
319.53	25.943
319.89	26.231
320.26	27.729
320.62	28.101
320.99	28.061
321.35	28.557
321.72	28.081
322.08	29.505
322.45	30.178
322.81	31.626
323.18	29.147
323.54	31.469
323.91	33.207
324.27	31.823
324.64	33.271
325.00	35.578
325.37	35.342
325.73	34.672
326.10	35.464
326.46	38.078
326.83	36.939
327.19	39.825
327.56	41.026
327.92	38.455
328.29	41.398
328.65	41.525
329.01	41.835
329.38	43.251
329.74	43.825
330.11	43.057
330.47	44.507
330.84	43.233
331.20	44.824
331.56	44.057
331.93	44.373
332.29	45.791
332.66	46.745
333.02	46.797
333.38	48.529
333.75	48.307
334.11	47.830
334.48	47.317
334.84	47.418
335.20	46.374
335.57	49.864
335.93	49.581
336.29	48.812
336.66	48.907
337.02	48.685
337.38	49.623
337.75	49.909
338.11	51.595
338.47	50.511
338.84	50.552
339.20	50.962
339.56	49.301
339.93	50.541
340.29	51.677
340.65	51.142
341.02	49.513
341.38	50.750
341.74	51.423
342.11	52.166
342.47	50.874
342.83	52.472
343.20	51.636
343.56	51.661
343.92	52.581
344.28	50.943
344.65	51.199
345.01	52.787
345.37	51.197
345.73	51.938
346.10	53.068
346.46	51.510
346.82	54.121
347.19	52.733
347.55	53.571
347.91	53.808
348.27	53.580
348.63	54.624
349.00	55.008
349.36	53.421
349.72	53.284
350.08	53.110
350.45	52.726
350.81	53.097
351.17	52.554
351.53	52.093
351.89	54.750
352.26	53.089
352.62	54.374
352.98	54.728
353.34	56.224
353.70	54.403
354.07	55.931
354.43	54.090
354.79	55.492
355.15	54.722
355.51	54.605
355.87	54.455
356.24	56.699
356.60	56.928
356.96	55.371
357.32	57.366
357.68	55.847
358.04	57.050
358.40	55.810
358.77	55.984
359.13	57.831
359.49	55.600
359.85	56.675
360.21	56.463
360.57	58.453
360.93	57.403
361.29	58.022
361.66	56.861
362.02	58.477
362.38	57.110
362.74	58.263
363.10	58.446
363.46	58.691
363.82	58.040
364.18	57.835
364.54	57.863
364.90	58.296
365.26	58.942
365.62	58.668
365.98	59.895
366.35	59.304
366.71	59.671
367.07	60.000
367.43	58.773
367.79	58.430
368.15	59.896
368.51	60.974
368.87	60.499
369.23	59.727
369.59	59.926
369.95	59.165
370.31	60.455
370.67	60.150
371.03	60.681
371.39	61.480
371.75	58.990
372.11	60.074
372.47	59.020
372.83	60.409
373.19	61.672
373.55	60.629
373.91	60.833
374.27	62.399
374.63	59.794
374.99	60.542
375.35	60.958
375.71	63.343
376.07	61.413
376.42	59.959
376.78	61.254
377.14	61.802
377.50	61.560
377.86	62.883
378.22	62.285
378.58	62.368
378.94	61.690
379.30	60.940
379.66	61.716
380.02	61.538
380.38	61.768
380.74	61.840
381.09	61.182
381.45	62.857
381.81	62.883
382.17	62.280
382.53	62.656
382.89	61.514
383.25	61.636
383.61	62.492
383.97	62.898
384.32	62.710
384.68	62.324
385.04	62.444
385.40	62.173
385.76	63.188
386.12	62.442
386.48	63.601
386.83	63.331
387.19	63.282
387.55	63.536
387.91	61.558
388.27	64.363
388.62	63.731
388.98	61.896
389.34	62.394
389.70	63.590
390.06	64.488
390.42	64.841
390.77	63.313
391.13	63.110
391.49	63.814
391.85	63.606
392.20	64.224
392.56	62.344
392.92	64.069
393.28	62.118
393.64	64.408
393.99	63.571
394.35	64.568
394.71	63.179
395.07	63.528
395.42	62.413
395.78	62.702
396.14	63.691
396.50	62.743
396.85	63.714
397.21	61.966
397.57	64.319
397.92	63.868
398.28	63.789
398.64	62.794
399.00	61.927
399.35	62.954
399.71	63.293
400.07	63.002
400.42	63.846
400.78	64.299
401.14	62.058
401.49	63.960
401.85	63.619
402.21	63.579
402.57	62.717
402.92	63.811
403.28	62.744
403.63	62.436
403.99	63.078
404.35	62.611
404.70	61.621
405.06	63.298
405.42	64.151
405.77	62.366
406.13	61.768
406.49	62.271
406.84	62.765
407.20	62.020
407.55	62.993
407.91	62.587
408.27	62.633
408.62	62.379
408.98	63.192
409.34	62.420
409.69	61.405
410.05	62.241
410.40	61.785
410.76	62.453
411.11	63.348
411.47	62.789
411.83	60.979
412.18	63.547
412.54	61.190
412.89	61.982
413.25	63.448
413.60	62.245
413.96	62.718
414.31	62.906
414.67	63.471
415.03	63.416
415.38	63.440
415.74	62.660
416.09	62.922
416.45	61.076
416.80	62.309
417.16	62.553
417.51	61.554
417.87	64.295
418.22	61.965
418.58	61.437
418.93	62.798
419.29	63.840
419.64	65.110
420.00	62.279
420.35	62.524
420.71	61.588
421.06	62.816
421.42	63.864
421.77	63.764
422.12	61.134
422.48	63.621
422.83	61.581
423.19	61.176
423.54	61.698
423.90	61.557
424.25	63.746
424.61	63.355
424.96	62.469
425.31	62.923
425.67	63.091
426.02	63.789
426.38	63.192
426.73	61.620
427.09	62.114
427.44	62.346
427.79	62.995
428.15	62.016
428.50	63.442
428.85	63.117
429.21	63.539
429.56	62.707
429.92	62.412
430.27	61.920
430.62	62.791
430.98	61.257
431.33	62.736
431.68	63.457
432.04	63.234
432.39	61.141
432.74	62.682
433.10	62.765
433.45	63.331
433.80	62.024
434.16	63.003
434.51	62.207
434.86	62.961
435.22	61.932
435.57	64.710
435.92	62.229
436.28	62.516
436.63	62.552
436.98	63.704
437.34	63.532
437.69	62.963
438.04	62.500
438.39	63.251
438.75	61.785
439.10	64.762
439.45	64.442
439.81	63.619
440.16	63.884
440.51	61.834
440.86	64.078
441.22	61.584
441.57	61.595
441.92	64.274
442.27	65.029
442.63	63.375
442.98	65.220
443.33	63.278
443.68	62.396
444.03	62.474
444.39	62.311
444.74	63.137
445.09	63.518
445.44	62.915
445.79	63.754
446.15	64.257
446.50	63.216
446.85	62.706
447.20	63.348
447.55	63.409
447.91	63.374
448.26	63.976
448.61	63.807
448.96	63.394
449.31	62.869
449.66	62.651
450.02	62.189
450.37	63.487
450.72	63.435
451.07	64.601
451.42	62.912
451.77	61.980
452.12	62.845
452.47	63.076
452.83	64.446
453.18	64.416
453.53	63.684
453.88	63.050
454.23	62.812
454.58	64.883
454.93	63.147
455.28	65.173
455.63	64.263
455.98	63.388
456.34	62.827
456.69	62.424
457.04	63.386
457.39	62.984
457.74	63.338
458.09	63.908
458.44	63.826
458.79	63.251
459.14	63.148
459.49	64.331
459.84	63.674
460.19	63.415
460.54	63.131
460.89	62.353
461.24	63.052
461.59	63.091
461.94	62.788
462.29	62.093
462.64	62.117
462.99	63.669
463.34	63.370
463.69	63.855
464.04	63.117
464.39	64.566
464.74	61.518
465.09	61.801
465.44	62.148
465.79	62.094
466.14	61.695
466.49	61.095
466.84	61.364
467.19	61.533
467.54	60.544
467.89	62.116
468.24	62.942
468.59	61.453
468.94	62.811
469.29	63.460
469.64	62.801
469.99	62.581
470.34	62.306
470.68	61.769
471.03	61.314
471.38	62.827
471.73	61.773
472.08	63.559
472.43	62.932
472.78	62.509
473.13	61.193
473.48	63.278
473.83	63.276
474.17	60.907
474.52	63.094
474.87	60.669
475.22	62.389
475.57	61.340
475.92	61.285
476.27	60.940
476.61	61.525
476.96	61.707
477.31	61.929
477.66	60.081
478.01	61.566
478.36	61.375
478.70	62.479
479.05	62.391
479.40	61.415
479.75	61.694
480.10	61.418
480.45	62.094
480.79	60.509
481.14	61.887
481.49	60.514
481.84	61.313
482.19	60.488
482.53	60.931
482.88	60.803
483.23	61.910
483.58	60.594
483.92	60.553
484.27	60.939
484.62	60.302
484.97	59.095
485.31	58.043
485.66	56.213
486.01	55.599
486.36	56.066
486.70	57.003
487.05	57.743
487.40	58.108
487.75	56.084
488.09	56.234
488.44	57.178
488.79	58.410
489.13	58.146
489.48	58.878
489.83	58.807
490.17	59.962
490.52	59.417
490.87	60.534
491.22	59.763
491.56	59.190
491.91	59.388
492.26	60.530
492.60	61.020
492.95	60.524
493.30	60.272
493.64	61.207
493.99	61.704
494.34	60.112
494.68	59.217
495.03	58.874
495.37	59.503
495.72	60.232
496.07	58.722
496.41	58.696
496.76	58.835
497.11	59.872
497.45	59.417
497.80	59.761
498.14	60.454
498.49	60.545
498.84	58.910
499.18	59.211
499.53	58.723
499.87	58.013
500.22	59.584
500.56	59.864
500.91	60.199
501.26	59.213
501.60	58.461
501.95	58.649
502.29	58.748
502.64	58.437
502.98	57.143
503.33	57.664
503.67	58.244
504.02	58.325
504.36	57.422
504.71	57.979
505.06	59.400
505.40	58.016
505.75	58.820
506.09	58.180
506.44	59.227
506.78	57.173
507.13	57.220
507.47	59.003
507.82	57.589
508.16	57.405
508.51	59.409
508.85	59.066
509.19	58.365
509.54	58.187
509.88	58.918
510.23	57.640
510.57	57.978
510.92	58.163
511.26	58.415
511.61	57.534
511.95	58.300
512.30	57.971
512.64	56.716
512.98	58.240
513.33	56.506
513.67	55.808
514.02	56.851
514.36	58.126
514.70	59.138
515.05	58.232
515.39	59.661
515.74	58.647
516.08	58.569
516.42	59.105
516.77	58.447
517.11	57.798
517.46	59.213
517.80	60.625
518.14	58.571
518.49	59.767
518.83	58.820
519.17	58.933
519.52	58.463
519.86	58.835
520.20	57.707
520.55	59.726
520.89	60.121
521.23	58.717
521.58	59.259
521.92	57.477
522.26	59.588
522.61	59.727
522.95	58.014
523.29	58.165
523.64	58.345
523.98	58.333
524.32	58.788
524.66	59.551
525.01	57.526
525.35	58.618
525.69	57.536
526.04	59.690
526.38	59.356
526.72	59.653
527.06	60.549
527.41	58.611
527.75	60.158
528.09	58.487
528.43	58.469
528.78	57.792
529.12	57.055
529.46	55.083
529.80	56.841
530.15	57.540
530.49	57.252
530.83	57.411
531.17	58.263
531.51	57.602
531.86	57.633
532.20	56.421
532.54	57.482
532.88	57.018
533.22	56.825
533.57	56.276
533.91	57.261
534.25	55.669
534.59	57.703
534.93	55.272
535.27	54.613
535.62	56.043
535.96	57.223
536.30	55.463
536.64	55.508
536.98	55.457
537.32	56.324
537.66	55.865
538.01	55.376
538.35	55.782
538.69	54.140
539.03	55.588
539.37	53.553
539.71	56.159
540.05	54.993
540.39	56.064
540.73	55.531
541.07	55.368
541.42	54.170
541.76	54.317
542.10	54.591
542.44	56.936
542.78	55.499
543.12	53.863
543.46	54.769
543.80	54.253
544.14	54.552
544.48	53.895
544.82	52.661
545.16	55.145
545.50	55.604
545.84	53.841
546.18	54.607
546.52	53.497
546.86	54.093
547.20	54.318
547.54	53.525
547.88	52.564
548.22	51.617
548.56	52.925
548.90	53.614
549.24	54.605
549.58	54.844
549.92	52.632
550.26	52.741
550.60	53.767
550.94	55.000
551.28	53.659
551.62	54.791
551.96	53.674
552.30	53.643
552.64	52.592
552.98	53.863
553.32	50.985
553.66	52.580
554.00	53.205
554.34	53.125
554.68	53.190
555.02	53.651
555.36	52.661
555.69	51.422
556.03	50.850
556.37	51.988
556.71	51.735
557.05	52.266
557.39	54.217
557.73	51.258
558.07	52.739
558.41	52.354
558.75	52.448
559.08	53.362
559.42	52.843
559.76	52.822
560.10	53.708
560.44	51.544
560.78	50.939
561.12	51.540
561.45	51.042
561.79	49.927
562.13	52.261
562.47	52.982
562.81	52.161
563.15	51.103
563.48	51.236
563.82	51.019
564.16	50.871
564.50	50.358
564.84	50.602
565.17	50.715
565.51	50.387
565.85	50.493
566.19	51.009
566.52	50.538
566.86	49.454
567.20	50.366
567.54	49.521
567.88	48.847
568.21	48.886
568.55	46.972
568.89	48.077
569.23	46.436
569.56	46.299
569.90	46.210
570.24	44.996
570.57	44.056
570.91	45.087
571.25	44.559
571.59	44.131
571.92	42.109
572.26	43.011
572.60	43.746
572.93	43.157
573.27	42.375
573.61	42.278
573.95	42.065
574.28	42.014
574.62	41.706
574.96	40.756
575.29	40.475
575.63	40.592
575.97	40.481
576.30	41.643
576.64	41.152
576.98	41.718
577.31	41.554
577.65	41.193
577.98	40.279
578.32	40.678
578.66	40.331
578.99	41.579
579.33	40.987
579.67	40.897
580.00	40.239
580.34	40.442
580.67	40.310
581.01	40.548
581.35	39.856
581.68	39.486
582.02	39.072
582.35	40.023
582.69	39.941
583.02	40.138
583.36	39.727
583.70	40.350
584.03	40.623
584.37	40.451
584.70	39.546
585.04	39.677
585.37	40.097
585.71	39.577
586.04	40.808
586.38	39.935
586.72	39.918
587.05	40.373
587.39	40.396
587.72	39.872
588.06	40.566
588.39	40.199
588.73	39.694
589.06	40.560
589.40	40.760
589.73	41.174
590.07	40.921
590.40	41.518
590.73	41.691
591.07	41.688
591.40	41.389
591.74	43.097
592.07	41.929
592.41	42.455
592.74	41.116
593.08	40.458
593.41	39.938
593.75	40.074
594.08	40.794
594.41	40.505
594.75	40.486
595.08	41.293
595.42	39.992
595.75	40.530
596.09	40.673
596.42	40.761
596.75	41.409
597.09	40.578
597.42	41.342
597.75	42.026
598.09	41.105
598.42	40.748
598.76	41.712
599.09	40.504
599.42	39.103
599.76	40.133
600.09	40.332
600.42	39.297
600.76	39.415
601.09	39.333
601.42	39.654
601.76	39.692
602.09	39.422
602.42	40.556
602.76	40.576
603.09	41.166
603.42	40.843
603.76	40.285
604.09	40.100
604.42	40.404
604.76	40.164
605.09	40.860
605.42	40.521
605.75	39.379
606.09	40.178
606.42	38.933
606.75	39.298
607.09	41.371
607.42	39.789
607.75	39.118
608.08	40.365
608.42	41.610
608.75	40.320
609.08	40.586
609.41	40.487
609.75	40.969
610.08	40.568
610.41	40.509
610.74	40.394
611.07	41.195
611.41	40.846
611.74	40.207
612.07	40.960
612.40	42.117
612.73	41.319
613.07	41.339
613.40	40.771
613.73	40.951
614.06	41.393
614.39	42.121
614.72	40.614
615.06	41.963
615.39	39.896
615.72	40.314
616.05	41.449
616.38	41.103
616.71	40.796
617.05	40.829
617.38	40.387
617.71	41.150
618.04	42.904
618.37	41.792
618.70	42.391
619.03	42.785
619.36	43.225
619.69	42.302
620.03	42.334
620.36	43.235
620.69	42.572
621.02	43.389
621.35	42.298
621.68	46.355
622.01	42.959
622.34	42.714
622.67	43.170
623.00	43.243
623.33	41.969
623.66	42.948
623.99	43.541
624.32	41.700
624.65	41.719
624.99	42.266
625.32	42.338
625.65	42.354
625.98	44.583
626.31	43.723
626.64	44.505
626.97	44.945
627.30	43.611
627.63	42.977
627.96	43.948
628.29	44.168
628.62	44.227
628.95	43.928
629.28	44.628
629.61	45.559
629.94	45.332
630.26	45.816
630.59	47.120
630.92	43.414
631.25	45.922
631.58	46.279
631.91	44.875
632.24	46.509
632.57	46.730
632.90	49.077
633.23	49.548
633.56	48.428
633.89	45.251
634.22	46.410
634.55	46.781
634.88	47.523
635.20	48.630
635.53	49.581
635.86	48.913
636.19	47.749
636.52	49.326
636.85	45.632
637.18	45.855
637.51	48.103
637.83	46.229
638.16	49.502
638.49	45.245
638.82	46.273
639.15	46.286
639.48	48.763
639.81	47.690
640.13	49.158
640.46	49.764
640.79	47.597
641.12	48.372
641.45	48.212
641.77	46.338
642.10	49.511
642.43	49.495
642.76	51.434
643.09	46.886
643.41	47.849
643.74	48.611
644.07	47.090
644.40	50.722
644.73	49.171
645.05	50.382
645.38	51.538
645.71	50.954
646.04	53.717
646.36	46.402
646.69	53.965
647.02	52.344
647.35	54.400
647.67	52.104
648.00	49.126
648.33	50.289
648.66	48.052
648.98	46.102
649.31	46.988
649.64	48.193
649.96	46.284
650.29	46.018
650.62	49.536
650.94	47.135
651.27	48.940
651.60	44.933
651.92	49.046
652.25	45.315
652.58	45.242
652.90	46.085
653.23	46.801
653.56	44.792
653.88	45.438
654.21	46.692
654.54	48.218
654.86	47.662
655.19	42.419
655.52	42.873
655.84	36.840
656.17	34.126
656.49	45.418
656.82	51.418
657.15	40.998
657.47	31.091
657.80	22.790
658.13	19.306
658.45	32.296
658.78	31.144
659.10	30.476
659.43	30.642
659.75	30.576
660.08	31.651
660.41	33.070
660.73	37.258
661.06	42.909
661.38	45.766
661.71	46.389
662.03	49.537
662.36	48.449
662.68	47.482
663.01	50.721
663.33	48.585
663.66	54.785
663.98	52.567
664.31	46.341
664.63	44.037
664.96	53.444
665.28	45.390
665.61	46.963
665.93	47.696
666.26	46.578
666.58	47.477
666.91	50.585
667.23	48.768
667.56	49.877
667.88	50.627
668.21	49.746
668.53	49.239
668.86	46.173
669.18	49.492
669.50	52.442
669.83	47.250
670.15	48.250
670.48	50.376
670.80	51.269
671.13	44.819
671.45	50.765
671.77	48.309
672.10	43.956
672.42	43.227
672.75	44.466
673.07	42.056
673.39	44.553
673.72	43.802
674.04	44.894
674.37	47.113
674.69	46.729
675.01	51.163
675.34	43.382
675.66	42.381
675.98	44.949
676.31	48.615
676.63	46.134
676.95	45.324
677.28	43.317
677.60	49.875
677.92	47.368
678.25	43.619
678.57	42.459
678.89	45.413
679.22	43.578
679.54	42.539
679.86	42.612
680.18	42.887
680.51	42.916
680.83	41.250
681.15	43.791
681.48	45.319
681.80	41.739
682.12	43.041
682.44	42.241
682.77	46.136
683.09	46.078
683.41	45.614
683.73	46.231
684.06	45.178
684.38	42.686
684.70	44.342
685.02	41.342
685.34	40.377
685.67	41.502
685.99	42.315
686.31	41.045
686.63	39.806
686.96	40.041
687.28	41.684
687.60	40.246
687.92	39.662
688.24	41.895
688.56	39.341
688.89	44.292
689.21	40.465
689.53	43.223
689.85	44.557
690.17	42.647
690.49	42.824
690.82	40.049
691.14	44.125
691.46	42.500
691.78	43.062
692.10	42.431
692.42	41.055
692.74	41.469
693.06	42.892
693.39	40.394
693.71	37.674
694.03	39.372
694.35	40.594
694.67	39.949
694.99	41.240
695.31	45.609
695.63	38.649
695.95	44.663
696.27	42.210
696.59	44.807
696.91	42.165
697.23	46.132
697.56	43.264
697.88	39.813
698.20	37.530
698.52	37.019
698.84	39.348
699.16	38.522
699.48	41.361
699.80	38.187
700.12	37.741
700.44	37.168
700.76	46.057
701.08	38.413
701.40	42.434
701.72	44.000
702.04	38.776
702.36	41.639
702.68	42.617
703.00	42.587
703.32	33.533
703.64	42.587
703.96	40.190
704.28	38.732
704.60	44.178
704.91	38.487
705.23	44.211
705.55	36.803
705.87	41.727
706.19	44.622
706.51	36.719
706.83	45.055
707.15	35.593
707.47	44.012
707.79	38.109
708.11	38.095
708.43	38.400
708.74	35.519
709.06	38.037
709.38	36.499
709.70	36.688
710.02	40.210
710.34	36.170
710.66	44.195
710.98	45.455
711.29	38.144
711.61	34.752
711.93	42.322
712.25	42.264
712.57	40.234
712.89	45.714
713.20	38.306
713.52	39.024
713.84	37.956
714.16	38.514
714.48	39.590
714.80	36.364
715.11	39.519
715.43	39.932
715.75	37.544
716.07	43.636
716.39	37.543
716.70	43.600
717.02	34.274
717.34	40.260
717.66	39.091
717.97	38.426
718.29	41.333
718.61	40.991
718.93	40.336
719.24	41.423
719.56	41.071
719.88	36.471
720.20	36.325
720.51	38.158
720.83	38.912
721.15	34.694
721.46	35.865
721.78	38.528
722.10	39.147
722.42	39.130
722.73	33.032
723.05	39.171
723.37	37.104
723.68	37.441
724.00	38.889
724.32	36.916
724.63	40.271
724.95	38.356
725.27	41.315
725.58	43.379
725.90	36.937
726.22	37.555
726.53	34.426
726.85	35.926
727.16	32.389
727.48	38.306
727.80	32.877
728.11	36.000
728.43	32.099
728.74	35.088
729.06	32.314
729.38	34.884
729.69	36.400
730.01	33.054
730.32	36.653
730.64	34.231
730.96	31.274
731.27	32.432
731.59	30.976
731.90	28.618
732.22	35.548
732.53	30.877
732.85	29.225
733.16	37.729
733.48	32.463
733.80	32.727
734.11	32.979
734.43	34.657
734.74	30.218
735.06	36.334
735.37	30.671
735.69	34.507
736.00	35.556
736.32	31.818
736.63	34.815
736.95	33.074
737.26	32.609
737.58	29.562
737.89	32.075
738.21	39.313
738.52	34.016
738.83	30.342
739.15	32.727
739.46	25.676
739.78	35.521
740.09	33.730
740.41	33.712
740.72	27.490
741.04	33.992
741.35	34.529
741.66	34.409
741.98	26.020
742.29	35.751
742.61	31.214
742.92	35.784
743.23	38.308
743.55	33.161
743.86	30.435
744.18	38.000
744.49	36.667
744.80	33.333
745.12	28.205
745.43	33.155
745.74	33.155
746.06	37.356
746.37	30.556
746.68	27.027
747.00	29.282
747.31	33.508
747.62	43.158
747.94	29.717
748.25	34.483
748.56	37.374
748.88	36.612
749.19	40.933
749.50	37.059
749.82	36.000
750.13	37.379
750.44	33.476
750.75	34.000
751.07	31.381
751.38	30.859
751.69	35.317
752.01	32.353
752.32	35.950
752.63	31.878
752.94	26.400
753.26	35.160
753.57	34.123
753.88	28.837
754.19	31.718
754.51	35.565
754.82	35.000
755.13	26.549
755.44	29.870
755.75	32.932
756.07	34.335
756.38	35.565
756.69	36.226
757.00	34.043
757.31	34.602
757.63	31.046
757.94	28.788
758.25	29.167
758.56	27.297
758.87	27.976
759.18	38.006
759.50	33.452
759.81	28.958
760.12	33.096
760.43	29.900
760.74	29.641
761.05	25.962
761.36	29.674
761.67	29.179
761.99	28.094
762.30	27.273
762.61	29.675
762.92	29.778
763.23	31.628
763.54	30.964
763.85	28.507
764.16	26.087
764.47	29.565
764.78	26.613
765.10	31.102
765.41	29.766
765.72	29.766
766.03	30.769
766.34	29.924
766.65	29.297
766.96	26.222
767.27	32.961
767.58	31.447
767.89	37.662
768.20	29.054
768.51	25.287
768.82	31.875
769.13	39.815
769.44	28.774
769.75	31.863
770.06	27.184
770.37	26.064
770.68	31.795
770.99	32.995
771.30	30.412
771.61	21.525
771.92	25.000
772.23	24.519
772.54	26.471
772.85	22.603
773.16	23.226
773.47	22.293
773.78	29.940
774.09	22.368
774.39	27.941
774.70	26.316
775.01	23.846
775.32	28.571
775.63	22.835
775.94	23.585
776.25	25.926
776.56	20.909
776.87	25.641
777.18	36.000
777.48	25.000
777.79	25.000
778.10	26.415
778.41	31.373
778.72	19.811
779.03	20.175
779.34	18.487
779.65	26.761
779.95	29.496
780.26	13.710
780.57	28.986
780.88	17.431
781.19	28.704
781.50	15.574
781.80	27.007
782.11	19.872
782.42	19.310
782.73	28.671
783.04	24.800
783.34	21.600
783.65	26.016
783.96	17.213
784.27	14.286
784.57	21.495
784.88	15.179
785.19	19.588
785.50	20.000
785.81	29.000
786.11	20.792
786.42	-1.176
786.73	27.083
787.04	23.469
787.34	26.852
787.65	33.962
787.96	9.278
788.26	18.812
788.57	16.522
788.88	11.009
789.19	9.917
789.49	21.739
789.80	24.138
790.11	13.415
790.41	32.584
790.72	23.256
791.03	22.093
791.33	15.584
791.64	23.171
791.95	15.854
792.25	-6.024
792.56	-1.235
792.87	9.859
793.17	27.711
793.48	20.000
793.79	15.000
794.09	-5.000
794.40	22.826
794.70	16.522
795.01	13.761
795.32	14.173
795.62	10.784
795.93	18.627
796.23	25.253
796.54	8.140
796.85	5.797
797.15	1.563
797.46	0.000
797.76	13.115
798.07	15.789
798.37	19.355
798.68	14.062
798.99	20.000
799.29	4.545
799.60	18.841
799.90	34.286
800.21	7.018
800.51	3.448
800.82	-5.660
801.12	1.961
801.43	14.516
801.73	8.065
802.04	16.000
802.34	0.000
802.65	-2.632
802.95	25.455
803.26	-9.434
803.56	-4.918
803.87	24.000
804.17	-11.111
804.48	5.769
804.78	-8.163
805.09	21.277
805.39	20.339
805.70	-22.917
806.00	-10.714
806.30	10.169
806.61	9.231
806.91	6.154
807.22	14.474
807.52	-2.857
807.83	-12.069
808.13	20.253
808.43	19.672
808.74	19.672
809.04	16.216
809.35	11.111
809.65	14.286
809.95	11.864
810.26	-18.367
810.56	5.660
810.86	13.725
811.17	2.703
811.47	-40.741
811.77	3.922
812.08	6.818
812.38	-50.000
812.69	7.692
812.99	-23.810
813.29	21.739
813.59	-8.571
813.90	-4.762
814.20	-5.455
814.50	2.041
814.81	9.804
815.11	-14.583
815.41	-7.317
815.72	-34.615
816.02	-2.128
816.32	-31.250
816.62	18.182
816.93	-15.152
817.23	-27.027
817.53	5.882
817.84	-2.500
818.14	-38.235
818.44	-9.375
818.74	-52.381
819.04	-20.000
819.35	-8.571
819.65	0.000
819.95	-2.564
820.25	-50.000
820.56	-62.069
820.86	-10.714
821.16	-34.783
821.46	-21.429
821.76	12.963
822.07	-13.043
822.37	-28.571
822.67	-18.605
822.97	-30.435
823.27	-30.769
823.57	3.704
823.88	-42.857
824.18	-23.077
824.48	-42.857
824.78	-9.091
825.08	-80.000
825.38	-15.000
825.69	-72.222
825.99	-33.333
826.29	4.444
826.59	-51.852
826.89	-22.222
827.19	-57.143
827.49	-27.273
827.79	-59.091
828.09	-36.364
828.39	-60.870
828.70	14.815
829.00	-42.857
829.30	-30.952
829.60	3.226
829.90	-65.385
830.20	-20.513
830.50	-4.545
830.80	-38.095
831.10	-61.111
831.40	-142.857
831.70	-25.926
832.00	-35.294
832.30	-43.478
832.60	-54.167
832.90	-181.818
833.20	-61.111
833.50	-25.000
833.80	-53.846
834.10	-12.000
834.40	-58.333
834.70	-109.091
835.00	-42.308
835.30	-35.000
835.60	-160.000
835.90	-35.000
836.20	-64.286
836.50	-52.174
836.80	-88.889
837.10	-93.333
837.40	-140.000
837.70	-69.565
838.00	7.143
838.30	3200.000
838.60	12.000
838.90	-320.000
839.19	-144.444
839.49	-850.000
839.79	-58.824
840.09	-144.444
840.39	3.571
840.69	-105.556
840.99	-75.000
841.29	-41.379
841.59	-153.333
841.88	-127.273
842.18	-383.333
842.48	-50.000
842.78	-42.308
843.08	-135.294
843.38	-70.000
843.68	-200.000
843.97	-111.765
844.27	-80.000
844.57	-66.667
844.87	-45.455
845.17	-115.789
845.47	-88.889
845.76	8.333
846.06	-95.238
846.36	-121.429
846.66	-266.667
846.96	-55.000
847.25	-360.000
847.55	-237.500
847.85	-80.000
848.15	-325.000
848.44	-52.632
848.74	-113.333
849.04	-26.316
849.34	-300.000
849.63	-183.333
849.93	-47.059
850.23	-118.182
850.53	-700.000
850.82	-260.000
851.12	-244.444
851.42	-242.857
851.71	-380.000
852.01	-85.714
852.31	-433.333
852.61	-146.154
852.90	-240.000
853.20	-177.778
853.50	-200.000
853.79	-160.000
854.09	-95.000
854.39	-52.632
854.68	-85.000
854.98	-325.000
855.28	-66.667
855.57	-85.714
855.87	-73.684
856.17	-137.500
856.46	-65.385
856.76	-80.000
857.05	-100.000
857.35	-8.333
857.65	-88.889
857.94	-162.500
858.24	-69.565
858.53	-260.000
858.83	-466.667
859.13	-181.818
859.42	-210.000
859.72	350.000
860.01	-53.846
860.31	-220.000
860.60	-262.500
860.90	-525.000
861.20	-316.667
861.49	-250.000
861.79	1350.000
862.08	3.226
862.38	-21.053
862.67	-92.308
862.97	-250.000
863.26	-108.333
863.56	-86.957
863.85	-333.333
864.15	-85.714
864.44	-37.500
864.74	-141.667
865.03	-133.333
865.33	-466.667
865.62	-1900.000
865.92	-900.000
866.21	-416.667
866.51	-163.636
866.80	-833.333
867.10	-100.000
867.39	-200.000
867.69	-150.000
867.98	400.000
868.27	-425.000
868.57	500.000
868.86	-53.333
869.16	-76.923
869.45	1050.000
869.75	-416.667
870.04	-283.333
870.33	-47.059
870.63	-200.000
870.92	39.130
871.22	-250.000
871.51	760.000
871.80	-18.750
872.10	-733.333
>>>>>End Processed Spectral Data<<<<<
