SpectraSuite Data File
++++++++++++++++++++++++++++++++++++
Date: Wed May 13 19:52:39 PDT 2015
User: schluterlab
Dark Spectrum Present: Yes
Reference Spectrum Present: Yes
Number of Sampled Component Spectra: 1
Spectrometers: USB2E3373
Integration Time (usec): 3000 (USB2E3373)
Spectra Averaged: 3 (USB2E3373)
Boxcar Smoothing: 0 (USB2E3373)
Correct for Electrical Dark: No (USB2E3373)
Strobe/Lamp Enabled: No (USB2E3373)
Correct for Detector Non-linearity: No (USB2E3373)
Correct for Stray Light: No (USB2E3373)
Number of Pixels in Processed Spectrum: 2048
>>>>>Begin Processed Spectral Data<<<<<
178.53	0.000
178.91	-1475.000
179.29	-1325.000
179.67	-227.778
180.04	-1350.000
180.42	2750.000
180.80	1140.000
181.18	-1200.000
181.56	814.286
181.94	0.000
182.31	-728.571
182.69	1733.333
183.07	-600.000
183.45	-477.778
183.83	500.000
184.20	-310.000
184.58	3200.000
184.96	6200.000
185.34	-860.000
185.72	-650.000
186.09	-1950.000
186.47	2000.000
186.85	2050.000
187.23	4800.000
187.61	-1766.667
187.98	1300.000
188.36	627.273
188.74	518.182
189.12	-880.000
189.49	580.000
189.87	-4600.000
190.25	-1225.000
190.63	414.286
191.00	476.923
191.38	1000.000
191.76	-1275.000
192.14	1250.000
192.51	637.500
192.89	1050.000
193.27	687.500
193.65	-1100.000
194.02	590.000
194.40	1100.000
194.78	520.000
195.15	558.333
195.53	670.000
195.91	-2400.000
196.29	368.750
196.66	321.053
197.04	-360.000
197.42	0.000
197.79	660.000
198.17	-5000.000
198.55	771.429
198.92	750.000
199.30	1080.000
199.68	0.000
200.05	344.444
200.43	714.286
200.81	5100.000
201.18	1833.333
201.56	-1733.333
201.94	588.889
202.31	633.333
202.69	441.667
203.07	550.000
203.44	0.000
203.82	1575.000
204.19	914.286
204.57	442.857
204.95	650.000
205.32	1966.667
205.70	590.909
206.08	435.714
206.45	2950.000
206.83	387.500
207.20	816.667
207.58	880.000
207.96	333.333
208.33	762.500
208.71	-750.000
209.08	800.000
209.46	511.111
209.84	536.364
210.21	-1833.333
210.59	1450.000
210.96	-525.000
211.34	2950.000
211.71	610.000
212.09	950.000
212.46	0.000
212.84	1733.333
213.22	950.000
213.59	-5300.000
213.97	866.667
214.34	885.714
214.72	545.455
215.09	1180.000
215.47	-1900.000
215.84	-2700.000
216.22	1666.667
216.59	457.143
216.97	1275.000
217.34	472.727
217.72	-783.333
218.09	0.000
218.47	-5600.000
218.84	666.667
219.22	714.286
219.59	1566.667
219.97	-614.286
220.34	1060.000
220.72	-1566.667
221.09	400.000
221.47	1575.000
221.84	-916.667
222.22	0.000
222.59	1475.000
222.97	-2800.000
223.34	1020.000
223.72	415.385
224.09	1180.000
224.46	2100.000
224.84	-5200.000
225.21	-1120.000
225.59	-4400.000
225.96	720.000
226.34	315.000
226.71	2900.000
227.08	700.000
227.46	600.000
227.83	-1025.000
228.21	-1700.000
228.58	633.333
228.95	-2500.000
229.33	-2600.000
229.70	2066.667
230.08	871.429
230.45	-1100.000
230.82	416.667
231.20	866.667
231.57	785.714
231.95	475.000
232.32	250.000
232.69	500.000
233.07	757.143
233.44	384.615
233.81	-1666.667
234.19	342.105
234.56	441.667
234.93	441.667
235.31	509.091
235.68	415.385
236.05	450.000
236.43	209.091
236.80	315.789
237.17	5100.000
237.55	257.143
237.92	260.714
238.29	261.905
238.67	180.645
239.04	231.034
239.41	186.111
239.79	152.174
240.16	188.095
240.53	152.273
240.91	141.176
241.28	136.000
241.65	124.000
242.02	121.739
242.40	122.581
242.77	111.667
243.14	91.398
243.51	102.247
243.89	96.471
244.26	87.778
244.63	91.398
245.00	89.362
245.38	79.208
245.75	79.439
246.12	76.147
246.49	77.372
246.87	84.000
247.24	80.000
247.61	76.429
247.98	61.438
248.36	62.162
248.73	62.420
249.10	66.242
249.47	66.102
249.84	64.706
250.22	62.032
250.59	64.497
250.96	63.131
251.33	58.768
251.70	65.842
252.08	56.190
252.45	54.709
252.82	56.522
253.19	60.426
253.56	57.255
253.94	60.166
254.31	53.125
254.68	55.385
255.05	53.875
255.42	55.285
255.79	50.735
256.16	53.791
256.54	50.177
256.91	58.719
257.28	48.921
257.65	53.795
258.02	51.553
258.39	48.265
258.76	46.823
259.14	48.512
259.51	50.456
259.88	43.168
260.25	51.057
260.62	46.821
260.99	50.621
261.36	47.147
261.73	47.278
262.10	50.000
262.47	49.296
262.85	45.125
263.22	47.578
263.59	49.288
263.96	44.780
264.33	46.214
264.70	48.158
265.07	46.803
265.44	45.202
265.81	43.552
266.18	45.729
266.55	44.146
266.92	47.420
267.29	44.907
267.66	41.284
268.03	45.455
268.40	42.056
268.77	43.437
269.14	40.991
269.51	45.824
269.88	45.688
270.25	41.986
270.62	42.697
270.99	44.086
271.36	44.206
271.73	44.159
272.10	42.174
272.47	47.742
272.84	41.126
273.21	44.025
273.58	41.485
273.95	42.138
274.32	39.669
274.69	41.970
275.06	40.748
275.43	41.915
275.80	40.882
276.17	41.141
276.54	42.620
276.91	42.095
277.28	40.625
277.65	41.973
278.02	38.302
278.39	43.164
278.76	39.455
279.13	40.943
279.50	40.223
279.87	40.438
280.23	40.918
280.60	39.845
280.97	41.774
281.34	39.469
281.71	41.091
282.08	42.610
282.45	38.000
282.82	42.096
283.19	38.324
283.56	42.105
283.92	40.440
284.29	38.272
284.66	39.927
285.03	39.421
285.40	36.444
285.77	36.532
286.14	37.997
286.51	39.500
286.87	38.803
287.24	40.391
287.61	36.918
287.98	37.338
288.35	37.559
288.72	35.202
289.08	36.307
289.45	36.903
289.82	38.862
290.19	35.636
290.56	34.763
290.93	33.837
291.29	34.663
291.66	34.218
292.03	36.192
292.40	35.389
292.77	34.024
293.13	33.433
293.50	32.945
293.87	35.852
294.24	32.593
294.60	32.023
294.97	32.267
295.34	33.427
295.71	33.949
296.08	32.051
296.44	33.150
296.81	32.232
297.18	32.520
297.55	29.683
297.91	29.815
298.28	32.262
298.65	30.418
299.02	31.094
299.38	30.279
299.75	30.863
300.12	28.736
300.48	30.500
300.85	29.593
301.22	31.083
301.59	28.788
301.95	29.597
302.32	29.910
302.69	28.076
303.05	28.121
303.42	29.506
303.79	28.766
304.15	28.671
304.52	29.200
304.89	28.339
305.25	26.914
305.62	28.879
305.99	29.752
306.35	28.635
306.72	28.139
307.09	29.301
307.45	29.167
307.82	25.670
308.19	27.483
308.55	27.400
308.92	27.497
309.29	27.033
309.65	27.572
310.02	26.533
310.38	27.097
310.75	27.666
311.12	27.329
311.48	26.646
311.85	27.463
312.22	26.847
312.58	25.468
312.95	27.666
313.31	24.757
313.68	26.507
314.05	28.994
314.41	27.538
314.78	26.083
315.14	26.614
315.51	26.982
315.87	27.525
316.24	27.110
316.61	26.121
316.97	26.027
317.34	25.538
317.70	26.291
318.07	26.468
318.43	26.321
318.80	26.710
319.16	26.648
319.53	25.047
319.89	26.667
320.26	26.800
320.62	28.075
320.99	25.455
321.35	26.263
321.72	25.667
322.08	26.160
322.45	26.368
322.81	27.132
323.18	27.457
323.54	26.809
323.91	27.264
324.27	25.717
324.64	25.629
325.00	25.518
325.37	27.480
325.73	26.481
326.10	26.567
326.46	25.000
326.83	26.057
327.19	25.790
327.56	26.045
327.92	25.722
328.29	26.087
328.65	25.230
329.01	24.458
329.38	25.994
329.74	25.854
330.11	25.259
330.47	26.263
330.84	26.195
331.20	25.774
331.56	25.688
331.93	23.981
332.29	25.555
332.66	25.752
333.02	25.503
333.38	25.203
333.75	25.045
334.11	24.822
334.48	24.756
334.84	24.632
335.20	24.182
335.57	25.023
335.93	24.911
336.29	24.817
336.66	24.707
337.02	22.805
337.38	25.185
337.75	24.421
338.11	24.082
338.47	24.033
338.84	24.748
339.20	23.670
339.56	25.639
339.93	24.182
340.29	24.638
340.65	22.906
341.02	24.171
341.38	24.288
341.74	24.035
342.11	23.581
342.47	23.524
342.83	25.171
343.20	24.762
343.56	23.842
343.92	24.649
344.28	23.724
344.65	25.021
345.01	23.569
345.37	23.413
345.73	24.112
346.10	24.552
346.46	23.644
346.82	23.970
347.19	23.810
347.55	23.892
347.91	23.139
348.27	23.993
348.63	23.746
349.00	22.411
349.36	22.989
349.72	22.775
350.08	23.339
350.45	25.061
350.81	23.477
351.17	23.987
351.53	23.178
351.89	22.937
352.26	23.915
352.62	22.935
352.98	22.690
353.34	22.761
353.70	22.422
354.07	23.468
354.43	22.381
354.79	22.365
355.15	22.825
355.51	23.181
355.87	23.184
356.24	23.290
356.60	22.294
356.96	22.446
357.32	22.159
357.68	22.835
358.04	22.724
358.40	23.199
358.77	23.005
359.13	21.310
359.49	22.588
359.85	21.429
360.21	21.691
360.57	23.580
360.93	23.000
361.29	22.147
361.66	21.517
362.02	22.761
362.38	22.966
362.74	21.280
363.10	21.170
363.46	22.524
363.82	22.525
364.18	22.687
364.54	22.585
364.90	21.034
365.26	22.206
365.62	22.060
365.98	21.622
366.35	21.203
366.71	23.283
367.07	21.194
367.43	22.279
367.79	21.485
368.15	23.276
368.51	21.802
368.87	21.984
369.23	22.312
369.59	22.303
369.95	21.250
370.31	21.652
370.67	20.797
371.03	21.798
371.39	21.939
371.75	20.882
372.11	21.479
372.47	22.287
372.83	21.182
373.19	20.809
373.55	21.951
373.91	21.944
374.27	20.687
374.63	21.382
374.99	21.398
375.35	21.005
375.71	21.247
376.07	22.497
376.42	21.389
376.78	20.610
377.14	20.488
377.50	20.662
377.86	20.346
378.22	21.302
378.58	20.301
378.94	19.987
379.30	19.338
379.66	20.812
380.02	20.823
380.38	20.704
380.74	21.068
381.09	19.988
381.45	21.451
381.81	20.885
382.17	21.083
382.53	20.755
382.89	21.728
383.25	19.575
383.61	21.066
383.97	20.325
384.32	20.711
384.68	19.393
385.04	20.590
385.40	20.372
385.76	19.840
386.12	20.920
386.48	20.453
386.83	21.103
387.19	21.150
387.55	21.027
387.91	19.710
388.27	19.436
388.62	20.836
388.98	19.717
389.34	20.776
389.70	19.804
390.06	21.166
390.42	20.039
390.77	20.483
391.13	20.102
391.49	20.685
391.85	19.924
392.20	19.748
392.56	20.202
392.92	20.129
393.28	18.757
393.64	19.484
393.99	20.159
394.35	20.409
394.71	19.824
395.07	19.626
395.42	20.272
395.78	19.847
396.14	19.677
396.50	20.175
396.85	20.407
397.21	19.359
397.57	20.521
397.92	20.312
398.28	18.890
398.64	20.012
399.00	20.034
399.35	19.684
399.71	19.329
400.07	19.752
400.42	19.571
400.78	20.507
401.14	19.573
401.49	20.239
401.85	19.238
402.21	20.000
402.57	19.186
402.92	18.916
403.28	20.175
403.63	18.626
403.99	19.363
404.35	20.121
404.70	19.904
405.06	19.220
405.42	19.526
405.77	18.743
406.13	19.131
406.49	19.219
406.84	19.374
407.20	19.326
407.55	19.719
407.91	19.333
408.27	19.272
408.62	19.205
408.98	19.301
409.34	19.373
409.69	18.710
410.05	19.331
410.40	19.633
410.76	19.056
411.11	18.938
411.47	19.105
411.83	19.914
412.18	18.800
412.54	19.863
412.89	19.578
413.25	19.008
413.60	19.271
413.96	19.004
414.31	19.198
414.67	19.835
415.03	19.934
415.38	19.330
415.74	19.743
416.09	19.203
416.45	18.675
416.80	19.167
417.16	20.375
417.51	19.841
417.87	18.240
418.22	19.432
418.58	19.819
418.93	19.103
419.29	19.223
419.64	19.710
420.00	19.329
420.35	19.130
420.71	19.845
421.06	19.332
421.42	19.415
421.77	19.283
422.12	18.585
422.48	18.025
422.83	18.928
423.19	19.116
423.54	18.688
423.90	19.536
424.25	18.370
424.61	18.571
424.96	19.359
425.31	19.546
425.67	18.764
426.02	19.371
426.38	19.536
426.73	18.724
427.09	19.149
427.44	18.861
427.79	19.206
428.15	20.119
428.50	18.607
428.85	19.964
429.21	18.940
429.56	18.611
429.92	18.218
430.27	18.520
430.62	18.331
430.98	18.111
431.33	18.402
431.68	19.267
432.04	18.956
432.39	19.132
432.74	19.270
433.10	18.902
433.45	19.067
433.80	18.625
434.16	19.498
434.51	18.895
434.86	18.700
435.22	18.899
435.57	19.210
435.92	18.958
436.28	19.692
436.63	19.702
436.98	19.004
437.34	20.036
437.69	20.478
438.04	19.280
438.39	18.985
438.75	19.407
439.10	19.106
439.45	19.244
439.81	19.154
440.16	18.634
440.51	19.859
440.86	18.992
441.22	19.355
441.57	19.268
441.92	18.731
442.27	18.353
442.63	18.273
442.98	19.662
443.33	19.130
443.68	19.618
444.03	18.790
444.39	18.549
444.74	19.426
445.09	19.137
445.44	19.136
445.79	18.951
446.15	18.952
446.50	18.901
446.85	18.448
447.20	18.460
447.55	18.816
447.91	18.698
448.26	18.920
448.61	19.050
448.96	19.767
449.31	18.841
449.66	18.739
450.02	18.663
450.37	17.914
450.72	18.669
451.07	19.196
451.42	18.116
451.77	19.319
452.12	18.418
452.47	19.216
452.83	18.124
453.18	18.826
453.53	19.295
453.88	18.665
454.23	18.769
454.58	19.685
454.93	20.598
455.28	18.953
455.63	18.204
455.98	20.179
456.34	18.781
456.69	19.161
457.04	19.567
457.39	18.410
457.74	18.688
458.09	18.861
458.44	19.441
458.79	18.384
459.14	19.074
459.49	19.673
459.84	18.338
460.19	19.151
460.54	18.461
460.89	19.144
461.24	19.247
461.59	19.988
461.94	18.804
462.29	19.288
462.64	18.890
462.99	18.282
463.34	19.533
463.69	19.387
464.04	19.420
464.39	18.609
464.74	19.430
465.09	18.697
465.44	19.335
465.79	18.065
466.14	18.774
466.49	18.020
466.84	18.739
467.19	19.372
467.54	17.875
467.89	19.868
468.24	19.546
468.59	19.231
468.94	18.754
469.29	19.537
469.64	19.411
469.99	19.486
470.34	18.758
470.68	18.894
471.03	19.320
471.38	19.388
471.73	18.654
472.08	20.197
472.43	18.781
472.78	18.367
473.13	18.806
473.48	19.101
473.83	19.146
474.17	18.668
474.52	19.107
474.87	19.323
475.22	18.572
475.57	18.968
475.92	19.437
476.27	18.038
476.61	18.698
476.96	18.197
477.31	17.739
477.66	18.873
478.01	18.348
478.36	18.985
478.70	18.069
479.05	18.477
479.40	18.014
479.75	19.166
480.10	17.545
480.45	18.420
480.79	17.582
481.14	18.885
481.49	19.127
481.84	18.519
482.19	18.037
482.53	17.890
482.88	17.776
483.23	18.318
483.58	18.608
483.92	18.322
484.27	17.211
484.62	18.233
484.97	17.304
485.31	18.185
485.66	17.257
486.01	16.802
486.36	16.645
486.70	16.435
487.05	16.599
487.40	16.752
487.75	17.223
488.09	17.561
488.44	17.145
488.79	17.722
489.13	17.800
489.48	17.863
489.83	17.695
490.17	17.580
490.52	17.626
490.87	17.503
491.22	17.599
491.56	17.494
491.91	17.497
492.26	17.593
492.60	18.157
492.95	17.587
493.30	17.617
493.64	17.732
493.99	18.059
494.34	17.576
494.68	18.178
495.03	17.481
495.37	17.310
495.72	17.788
496.07	18.190
496.41	17.124
496.76	17.150
497.11	17.605
497.45	17.979
497.80	18.426
498.14	17.536
498.49	17.561
498.84	17.881
499.18	17.429
499.53	17.426
499.87	17.241
500.22	17.475
500.56	18.689
500.91	17.356
501.26	17.496
501.60	18.178
501.95	17.415
502.29	18.088
502.64	17.691
502.98	17.345
503.33	17.048
503.67	17.216
504.02	18.101
504.36	17.735
504.71	18.222
505.06	18.169
505.40	17.598
505.75	17.261
506.09	17.541
506.44	18.106
506.78	18.363
507.13	18.375
507.47	18.030
507.82	18.389
508.16	18.541
508.51	18.468
508.85	17.627
509.19	16.939
509.54	17.959
509.88	17.568
510.23	18.149
510.57	18.627
510.92	18.281
511.26	17.986
511.61	18.828
511.95	16.962
512.30	17.338
512.64	18.109
512.98	18.221
513.33	18.148
513.67	16.969
514.02	17.100
514.36	18.405
514.70	18.207
515.05	17.736
515.39	18.059
515.74	18.300
516.08	18.390
516.42	17.980
516.77	18.729
517.11	18.202
517.46	18.002
517.80	18.699
518.14	17.603
518.49	18.320
518.83	18.693
519.17	17.783
519.52	18.110
519.86	18.311
520.20	18.671
520.55	18.851
520.89	18.370
521.23	19.059
521.58	18.187
521.92	18.310
522.26	17.511
522.61	19.252
522.95	18.478
523.29	19.598
523.64	18.841
523.98	18.854
524.32	18.637
524.66	18.641
525.01	17.892
525.35	17.968
525.69	18.227
526.04	18.442
526.38	18.548
526.72	18.773
527.06	19.460
527.41	17.574
527.75	19.807
528.09	18.818
528.43	20.013
528.78	19.299
529.12	18.788
529.46	19.106
529.80	19.121
530.15	19.128
530.49	18.708
530.83	19.430
531.17	19.843
531.51	20.298
531.86	19.097
532.20	18.644
532.54	19.667
532.88	17.908
533.22	18.676
533.57	18.210
533.91	19.386
534.25	19.016
534.59	19.341
534.93	18.679
535.27	19.131
535.62	19.475
535.96	19.774
536.30	18.754
536.64	19.897
536.98	19.244
537.32	18.631
537.66	19.533
538.01	18.367
538.35	19.910
538.69	19.655
539.03	18.648
539.37	18.403
539.71	17.758
540.05	18.954
540.39	18.870
540.73	18.564
541.07	19.598
541.42	19.700
541.76	19.419
542.10	20.181
542.44	19.272
542.78	19.368
543.12	18.554
543.46	20.197
543.80	19.258
544.14	18.806
544.48	19.302
544.82	19.371
545.16	19.779
545.50	18.702
545.84	19.019
546.18	19.057
546.52	19.890
546.86	18.969
547.20	19.285
547.54	20.508
547.88	19.770
548.22	19.614
548.56	18.931
548.90	19.398
549.24	18.855
549.58	19.918
549.92	18.819
550.26	19.957
550.60	19.640
550.94	20.634
551.28	18.435
551.62	20.417
551.96	18.386
552.30	20.273
552.64	19.337
552.98	20.407
553.32	19.622
553.66	20.654
554.00	20.247
554.34	20.083
554.68	20.172
555.02	18.829
555.36	20.181
555.69	19.892
556.03	19.381
556.37	19.509
556.71	19.372
557.05	19.328
557.39	20.014
557.73	20.466
558.07	20.667
558.41	19.682
558.75	19.324
559.08	18.792
559.42	19.652
559.76	19.338
560.10	19.343
560.44	19.497
560.78	18.829
561.12	20.185
561.45	20.665
561.79	19.117
562.13	19.182
562.47	20.423
562.81	19.247
563.15	19.331
563.48	19.363
563.82	19.439
564.16	19.424
564.50	19.206
564.84	18.837
565.17	19.369
565.51	19.681
565.85	19.289
566.19	19.098
566.52	19.126
566.86	18.264
567.20	19.575
567.54	19.349
567.88	18.088
568.21	19.630
568.55	19.515
568.89	18.677
569.23	19.207
569.56	18.300
569.90	18.717
570.24	18.622
570.57	18.361
570.91	18.293
571.25	18.005
571.59	18.321
571.92	18.059
572.26	18.313
572.60	18.378
572.93	17.811
573.27	18.545
573.61	18.398
573.95	18.553
574.28	17.990
574.62	17.468
574.96	17.849
575.29	17.726
575.63	18.013
575.97	18.094
576.30	18.189
576.64	18.196
576.98	17.574
577.31	17.652
577.65	18.176
577.98	17.833
578.32	17.593
578.66	17.841
578.99	17.599
579.33	17.720
579.67	17.490
580.00	17.766
580.34	18.154
580.67	17.703
581.01	17.675
581.35	17.631
581.68	18.003
582.02	17.527
582.35	17.939
582.69	18.041
583.02	17.765
583.36	18.261
583.70	18.631
584.03	18.260
584.37	18.103
584.70	18.156
585.04	18.493
585.37	18.034
585.71	18.022
586.04	18.265
586.38	18.103
586.72	18.696
587.05	18.555
587.39	17.599
587.72	18.320
588.06	18.143
588.39	18.546
588.73	18.158
589.06	18.884
589.40	18.788
589.73	18.198
590.07	18.790
590.40	17.866
590.73	18.931
591.07	19.088
591.40	19.148
591.74	18.745
592.07	18.892
592.41	18.975
592.74	18.202
593.08	18.454
593.41	19.108
593.75	18.270
594.08	18.471
594.41	19.017
594.75	18.891
595.08	18.611
595.42	18.319
595.75	18.661
596.09	19.452
596.42	18.978
596.75	19.080
597.09	19.177
597.42	17.749
597.75	18.931
598.09	19.174
598.42	18.557
598.76	18.565
599.09	17.826
599.42	18.377
599.76	18.302
600.09	18.142
600.42	18.408
600.76	18.714
601.09	18.324
601.42	18.455
601.76	18.292
602.09	18.656
602.42	18.869
602.76	19.226
603.09	18.332
603.42	19.524
603.76	18.445
604.09	18.185
604.42	18.671
604.76	19.654
605.09	18.785
605.42	18.726
605.75	18.791
606.09	18.544
606.42	18.145
606.75	18.457
607.09	18.669
607.42	18.100
607.75	18.186
608.08	18.888
608.42	18.870
608.75	17.583
609.08	18.501
609.41	18.753
609.75	19.104
610.08	18.897
610.41	18.994
610.74	18.496
611.07	19.516
611.41	19.136
611.74	19.356
612.07	19.410
612.40	19.203
612.73	18.579
613.07	19.397
613.40	19.221
613.73	18.983
614.06	19.140
614.39	19.664
614.72	18.737
615.06	19.065
615.39	18.790
615.72	18.916
616.05	18.820
616.38	19.733
616.71	18.765
617.05	19.611
617.38	19.002
617.71	18.739
618.04	19.952
618.37	18.746
618.70	19.353
619.03	20.132
619.36	19.416
619.69	20.211
620.03	20.536
620.36	19.853
620.69	20.137
621.02	19.764
621.35	19.734
621.68	18.536
622.01	18.576
622.34	20.272
622.67	18.783
623.00	19.663
623.33	18.799
623.66	19.299
623.99	19.588
624.32	18.973
624.65	19.774
624.99	19.122
625.32	19.334
625.65	19.985
625.98	20.061
626.31	19.907
626.64	20.000
626.97	20.200
627.30	18.703
627.63	20.673
627.96	20.017
628.29	19.685
628.62	20.403
628.95	21.038
629.28	19.891
629.61	21.448
629.94	20.190
630.26	20.210
630.59	21.544
630.92	19.828
631.25	20.632
631.58	20.420
631.91	20.588
632.24	20.464
632.57	20.357
632.90	19.956
633.23	20.582
633.56	20.904
633.89	20.725
634.22	20.772
634.55	21.657
634.88	20.120
635.20	20.550
635.53	21.205
635.86	22.153
636.19	21.647
636.52	20.069
636.85	20.848
637.18	20.392
637.51	20.686
637.83	18.742
638.16	20.460
638.49	21.662
638.82	21.365
639.15	21.625
639.48	21.820
639.81	22.654
640.13	22.656
640.46	20.268
640.79	21.532
641.12	21.458
641.45	22.207
641.77	22.533
642.10	21.345
642.43	21.922
642.76	22.136
643.09	22.853
643.41	20.637
643.74	24.228
644.07	21.646
644.40	22.393
644.73	24.252
645.05	23.455
645.38	23.223
645.71	22.705
646.04	24.751
646.36	25.876
646.69	25.920
647.02	22.959
647.35	24.055
647.67	23.009
648.00	22.927
648.33	20.792
648.66	21.212
648.98	23.088
649.31	22.123
649.64	22.571
649.96	21.908
650.29	22.433
650.62	22.330
650.94	23.825
651.27	25.507
651.60	24.626
651.92	22.684
652.25	21.987
652.58	23.832
652.90	23.855
653.23	21.726
653.56	22.205
653.88	24.406
654.21	25.592
654.54	23.597
654.86	22.741
655.19	22.838
655.52	15.601
655.84	14.726
656.17	19.547
656.49	27.009
656.82	28.102
657.15	21.532
657.47	15.801
657.80	12.215
658.13	12.751
658.45	18.427
658.78	18.581
659.10	19.054
659.43	19.469
659.75	20.634
660.08	23.038
660.41	23.743
660.73	24.778
661.06	23.089
661.38	24.909
661.71	27.885
662.03	27.416
662.36	22.465
662.68	26.908
663.01	26.263
663.33	20.382
663.66	25.420
663.98	25.270
664.31	23.109
664.63	24.089
664.96	22.133
665.28	23.770
665.61	25.536
665.93	24.950
666.26	25.558
666.58	24.686
666.91	27.696
667.23	27.416
667.56	22.894
667.88	24.786
668.21	25.373
668.53	24.512
668.86	25.541
669.18	26.439
669.50	25.217
669.83	28.105
670.15	28.000
670.48	25.054
670.80	26.078
671.13	25.053
671.45	23.404
671.77	25.866
672.10	25.693
672.42	24.735
672.75	24.378
673.07	22.359
673.39	24.051
673.72	23.633
674.04	24.118
674.37	24.466
674.69	23.517
675.01	23.640
675.34	27.310
675.66	27.789
675.98	24.847
676.31	25.840
676.63	22.718
676.95	26.205
677.28	24.065
677.60	26.154
677.92	25.105
678.25	25.051
678.57	24.104
678.89	24.449
679.22	23.576
679.54	23.664
679.86	26.422
680.18	23.792
680.51	25.532
680.83	22.420
681.15	23.962
681.48	25.331
681.80	24.758
682.12	25.287
682.44	23.985
682.77	24.440
683.09	26.824
683.41	27.051
683.73	25.607
684.06	25.413
684.38	24.266
684.70	24.419
685.02	23.452
685.34	25.641
685.67	21.678
685.99	21.993
686.31	20.990
686.63	23.145
686.96	23.929
687.28	24.368
687.60	23.732
687.92	26.691
688.24	20.913
688.56	25.703
688.89	26.971
689.21	27.293
689.53	25.887
689.85	26.608
690.17	23.602
690.49	27.176
690.82	25.935
691.14	24.554
691.46	26.160
691.78	24.900
692.10	27.273
692.42	25.150
692.74	25.104
693.06	25.319
693.39	25.462
693.71	25.764
694.03	25.474
694.35	25.325
694.67	24.256
694.99	28.537
695.31	25.000
695.63	24.880
695.95	26.406
696.27	24.365
696.59	28.497
696.91	27.461
697.23	23.474
697.56	27.505
697.88	21.677
698.20	25.625
698.52	26.667
698.84	26.949
699.16	26.498
699.48	26.603
699.80	27.536
700.12	30.130
700.44	29.708
700.76	26.519
701.08	27.299
701.40	29.609
701.72	30.321
702.04	31.250
702.36	27.762
702.68	28.612
703.00	31.025
703.32	26.862
703.64	27.882
703.96	28.134
704.28	27.035
704.60	28.446
704.91	27.300
705.23	28.739
705.55	31.894
705.87	35.548
706.19	29.329
706.51	31.464
706.83	28.182
707.15	31.373
707.47	26.010
707.79	27.027
708.11	26.941
708.43	25.476
708.74	27.551
709.06	28.312
709.38	27.297
709.70	30.523
710.02	29.674
710.34	28.182
710.66	28.955
710.98	28.977
711.29	29.070
711.61	31.858
711.93	30.128
712.25	30.547
712.57	28.309
712.89	29.066
713.20	31.611
713.52	33.553
713.84	30.063
714.16	28.963
714.48	29.023
714.80	33.739
715.11	30.259
715.43	29.080
715.75	30.435
716.07	31.949
716.39	30.408
716.70	33.887
717.02	30.216
717.34	32.862
717.66	34.328
717.97	34.263
718.29	34.815
718.61	30.292
718.93	40.441
719.24	32.180
719.56	31.525
719.88	34.915
720.20	32.770
720.51	34.843
720.83	35.316
721.15	33.955
721.46	31.560
721.78	35.125
722.10	33.208
722.42	35.338
722.73	34.082
723.05	32.787
723.37	31.174
723.68	36.293
724.00	31.301
724.32	33.065
724.63	32.520
724.95	30.544
725.27	39.271
725.58	35.547
725.90	36.861
726.22	31.698
726.53	35.764
726.85	31.741
727.16	32.740
727.48	33.333
727.80	32.955
728.11	34.420
728.43	31.538
728.74	32.975
729.06	38.321
729.38	33.824
729.69	36.299
730.01	29.693
730.32	29.861
730.64	33.779
730.96	29.373
731.27	29.139
731.59	30.275
731.90	31.778
732.22	29.193
732.53	28.173
732.85	30.449
733.16	31.190
733.48	30.897
733.80	29.870
734.11	35.032
734.43	29.586
734.74	28.000
735.06	26.074
735.37	31.792
735.69	29.299
736.00	35.621
736.32	32.399
736.63	27.157
736.95	34.505
737.26	26.871
737.58	28.065
737.89	33.779
738.21	35.495
738.52	34.286
738.83	34.717
739.15	32.308
739.46	31.022
739.78	34.028
740.09	30.462
740.41	29.677
740.72	32.404
741.04	34.815
741.35	33.333
741.66	44.000
741.98	31.132
742.29	38.278
742.61	39.224
742.92	33.937
743.23	39.744
743.55	38.800
743.86	39.035
744.18	41.593
744.49	41.627
744.80	40.376
745.12	42.727
745.43	34.361
745.74	40.991
746.06	33.028
746.37	37.220
746.68	36.652
747.00	40.278
747.31	44.286
747.62	32.301
747.94	37.885
748.25	34.894
748.56	37.445
748.88	37.624
749.19	47.500
749.50	38.140
749.82	36.992
750.13	35.102
750.44	32.847
750.75	29.825
751.07	33.119
751.38	37.282
751.69	33.213
752.01	36.842
752.32	31.769
752.63	31.915
752.94	38.525
753.26	42.400
753.57	36.179
753.88	32.031
754.19	30.357
754.51	28.472
754.82	29.603
755.13	35.094
755.44	33.083
755.75	33.577
756.07	33.688
756.38	30.657
756.69	32.550
757.00	30.838
757.31	31.454
757.63	29.825
757.94	28.954
758.25	28.186
758.56	31.605
758.87	31.183
759.18	28.485
759.50	32.602
759.81	29.595
760.12	27.500
760.43	32.092
760.74	30.978
761.05	32.203
761.36	32.353
761.67	31.534
761.99	30.124
762.30	31.597
762.61	33.588
762.92	36.719
763.23	35.294
763.54	35.200
763.85	33.594
764.16	37.308
764.47	38.783
764.78	30.389
765.10	30.063
765.41	34.513
765.72	29.641
766.03	31.034
766.34	31.333
766.65	38.298
766.96	35.043
767.27	43.147
767.58	42.188
767.89	45.263
768.20	47.701
768.51	33.503
768.82	41.743
769.13	38.211
769.44	37.247
769.75	38.627
770.06	32.110
770.37	39.367
770.68	41.204
770.99	36.000
771.30	38.115
771.61	36.323
771.92	39.754
772.23	40.756
772.54	40.000
772.85	48.691
773.16	43.617
773.47	45.652
773.78	47.208
774.09	45.833
774.39	40.936
774.70	46.914
775.01	55.072
775.32	55.556
775.63	48.684
775.94	50.360
776.25	59.055
776.56	53.731
776.87	55.738
777.18	54.688
777.48	53.435
777.79	56.818
778.10	45.926
778.41	45.536
778.72	35.036
779.03	53.020
779.34	51.007
779.65	45.946
779.95	48.466
780.26	51.634
780.57	55.862
780.88	53.125
781.19	46.617
781.50	56.081
781.80	47.170
782.11	46.893
782.42	41.139
782.73	41.718
783.04	46.622
783.34	49.296
783.65	58.219
783.96	52.985
784.27	42.657
784.57	51.799
784.88	50.000
785.19	54.762
785.50	55.660
785.81	58.955
786.11	65.574
786.42	46.512
786.73	63.717
787.04	65.094
787.34	59.821
787.65	70.000
787.96	52.252
788.26	57.025
788.57	57.627
788.88	64.463
789.19	52.083
789.49	61.364
789.80	55.725
790.11	80.952
790.41	70.297
790.72	66.265
791.03	69.565
791.33	72.093
791.64	70.103
791.95	69.307
792.25	76.667
792.56	93.506
792.87	75.641
793.17	88.608
793.48	83.908
793.79	81.609
794.09	61.364
794.40	58.824
794.70	52.941
795.01	49.630
795.32	50.360
795.62	56.693
795.93	64.655
796.23	64.602
796.54	69.412
796.85	74.324
797.15	107.042
797.46	81.818
797.76	72.289
798.07	75.949
798.37	76.923
798.68	83.333
798.99	85.915
799.29	80.519
799.60	72.727
799.90	93.151
800.21	83.582
800.51	98.276
800.82	126.316
801.12	95.082
801.43	104.545
801.73	70.270
802.04	112.698
802.34	88.889
802.65	104.688
802.95	105.085
803.26	115.625
803.56	72.857
803.87	87.692
804.17	82.353
804.48	135.185
804.78	93.103
805.09	86.765
805.39	100.000
805.70	94.643
806.00	90.164
806.30	86.364
806.61	81.707
806.91	65.823
807.22	85.526
807.52	89.552
807.83	94.366
808.13	96.875
808.43	91.667
808.74	81.579
809.04	98.551
809.35	100.000
809.65	86.842
809.95	119.355
810.26	103.390
810.56	87.302
810.86	138.636
811.17	142.857
811.47	123.333
811.77	112.963
812.08	125.455
812.38	130.000
812.69	119.444
812.99	143.182
813.29	118.367
813.59	123.810
813.90	136.735
814.20	101.818
814.50	93.846
814.81	91.176
815.11	110.204
815.41	101.639
815.72	161.905
816.02	127.273
816.32	159.524
816.62	137.500
816.93	160.976
817.23	150.000
817.53	136.364
817.84	181.818
818.14	132.609
818.44	126.667
818.74	141.176
819.04	135.000
819.35	128.571
819.65	208.824
819.95	192.857
820.25	270.000
820.56	176.923
820.86	145.455
821.16	134.884
821.46	151.282
821.76	138.000
822.07	162.857
822.37	160.000
822.67	166.667
822.97	125.490
823.27	203.571
823.57	172.973
823.88	160.000
824.18	196.667
824.48	157.143
824.78	228.000
825.08	200.000
825.38	154.054
825.69	141.463
825.99	216.667
826.29	175.862
826.59	157.895
826.89	160.526
827.19	179.412
827.49	238.710
827.79	150.000
828.09	156.818
828.39	121.277
828.70	140.816
829.00	200.000
829.30	170.968
829.60	132.500
829.90	293.333
830.20	214.286
830.50	195.652
830.80	273.913
831.10	193.333
831.40	206.667
831.70	213.043
832.00	246.154
832.30	233.333
832.60	337.500
832.90	203.333
833.20	435.714
833.50	180.645
833.80	206.897
834.10	187.500
834.40	250.000
834.70	338.889
835.00	276.190
835.30	151.429
835.60	384.615
835.90	227.586
836.20	378.571
836.50	203.448
836.80	208.000
837.10	191.667
837.40	247.619
837.70	329.412
838.00	233.333
838.30	238.095
838.60	285.714
838.90	238.462
839.19	280.000
839.49	492.857
839.79	355.000
840.09	290.000
840.39	266.667
840.69	226.087
840.99	300.000
841.29	460.000
841.59	383.333
841.88	425.000
842.18	179.310
842.48	280.952
842.78	183.333
843.08	243.478
843.38	218.750
843.68	900.000
843.97	246.154
844.27	193.103
844.57	319.048
844.87	337.500
845.17	244.444
845.47	1933.333
845.76	500.000
846.06	288.235
846.36	550.000
846.66	400.000
846.96	356.250
847.25	445.455
847.55	445.455
847.85	282.609
848.15	510.000
848.44	378.571
848.74	288.889
849.04	323.529
849.34	550.000
849.63	268.421
849.93	500.000
850.23	1100.000
850.53	471.429
850.82	2650.000
851.12	-4500.000
851.42	3800.000
851.71	325.000
852.01	-1133.333
852.31	250.000
852.61	1366.667
852.90	261.905
853.20	284.000
853.50	335.294
853.79	285.714
854.09	220.833
854.39	400.000
854.68	200.000
854.98	200.000
855.28	186.667
855.57	237.931
855.87	222.222
856.17	263.158
856.46	226.667
856.76	276.471
857.05	186.207
857.35	237.500
857.65	306.667
857.94	256.522
858.24	246.154
858.53	245.000
858.83	300.000
859.13	366.667
859.42	0.000
859.72	655.556
860.01	481.818
860.31	290.909
860.60	294.737
860.90	282.609
861.20	677.778
861.49	550.000
861.79	-4100.000
862.08	675.000
862.38	295.238
862.67	446.154
862.97	358.824
863.26	622.222
863.56	322.222
863.85	416.667
864.15	687.500
864.44	386.667
864.74	1033.333
865.03	725.000
865.33	378.947
865.62	481.818
865.92	515.385
866.21	441.667
866.51	0.000
866.80	436.364
867.10	1000.000
867.39	446.154
867.69	527.273
867.98	305.263
868.27	545.455
868.57	321.053
868.86	-4700.000
869.16	400.000
869.45	2100.000
869.75	-4900.000
870.04	408.333
870.33	642.857
870.63	1325.000
870.92	2850.000
871.22	785.714
871.51	341.176
871.80	285.714
872.10	407.143
>>>>>End Processed Spectral Data<<<<<
