SpectraSuite Data File
++++++++++++++++++++++++++++++++++++
Date: Tue May 12 19:56:20 PDT 2015
User: schluterlab
Dark Spectrum Present: Yes
Reference Spectrum Present: Yes
Number of Sampled Component Spectra: 1
Spectrometers: USB2E3373
Integration Time (usec): 3000 (USB2E3373)
Spectra Averaged: 3 (USB2E3373)
Boxcar Smoothing: 0 (USB2E3373)
Correct for Electrical Dark: No (USB2E3373)
Strobe/Lamp Enabled: No (USB2E3373)
Correct for Detector Non-linearity: No (USB2E3373)
Correct for Stray Light: No (USB2E3373)
Number of Pixels in Processed Spectrum: 2048
>>>>>Begin Processed Spectral Data<<<<<
178.53	0.000
178.91	-170.000
179.29	-266.667
179.67	400.000
180.04	0.000
180.42	-280.000
180.80	-366.667
181.18	1850.000
181.56	-950.000
181.94	200.000
182.31	2400.000
182.69	-271.429
183.07	0.000
183.45	275.000
183.83	340.000
184.20	316.667
184.58	1100.000
184.96	533.333
185.34	-500.000
185.72	-100.000
186.09	-200.000
186.47	-1600.000
186.85	-140.000
187.23	275.000
187.61	-300.000
187.98	-340.000
188.36	600.000
188.74	-375.000
189.12	-144.444
189.49	-260.000
189.87	400.000
190.25	211.111
190.63	866.667
191.00	420.000
191.38	-733.333
191.76	480.000
192.14	-285.714
192.51	-200.000
192.89	-300.000
193.27	-200.000
193.65	-500.000
194.02	-216.667
194.40	1600.000
194.78	-75.000
195.15	-200.000
195.53	400.000
195.91	320.000
196.29	-625.000
196.66	-733.333
197.04	-314.286
197.42	120.000
197.79	-237.500
198.17	-191.667
198.55	-1200.000
198.92	-200.000
199.30	1000.000
199.68	-525.000
200.05	-1300.000
200.43	-83.333
200.81	-175.000
201.18	450.000
201.56	-450.000
201.94	-2300.000
202.31	-141.667
202.69	-88.889
203.07	-100.000
203.44	-525.000
203.82	0.000
204.19	275.000
204.57	-566.667
204.95	218.182
205.32	320.000
205.70	575.000
206.08	-1200.000
206.45	-220.000
206.83	3300.000
207.20	-177.778
207.58	-130.769
207.96	466.667
208.33	800.000
208.71	600.000
209.08	500.000
209.46	-100.000
209.84	633.333
210.21	-866.667
210.59	700.000
210.96	288.889
211.34	-500.000
211.71	1250.000
212.09	-180.000
212.46	-262.500
212.84	-187.500
213.22	171.429
213.59	-175.000
213.97	0.000
214.34	-300.000
214.72	-1400.000
215.09	1650.000
215.47	-13.333
215.84	-75.000
216.22	-1300.000
216.59	1900.000
216.97	-50.000
217.34	-350.000
217.72	-22.222
218.09	525.000
218.47	-78.947
218.84	-312.500
219.22	-57.143
219.59	-200.000
219.97	-160.000
220.34	366.667
220.72	200.000
221.09	-950.000
221.47	0.000
221.84	1150.000
222.22	-350.000
222.59	-425.000
222.97	-34.783
223.34	226.667
223.72	528.571
224.09	-316.667
224.46	192.308
224.84	-60.000
225.21	-850.000
225.59	-425.000
225.96	-20.000
226.34	366.667
226.71	260.000
227.08	-138.462
227.46	-128.571
227.83	-183.333
228.21	-850.000
228.58	383.333
228.95	-52.632
229.33	-6.250
229.70	-316.667
230.08	-177.778
230.45	-766.667
230.82	-2200.000
231.20	-66.667
231.57	-480.000
231.95	-733.333
232.32	188.889
232.69	-700.000
233.07	-43.750
233.44	-87.500
233.81	16.129
234.19	-560.000
234.56	-55.556
234.93	-183.333
235.31	29.630
235.68	-22.222
236.05	-30.769
236.43	-15.789
236.80	-9.091
237.17	-128.571
237.55	-75.000
237.92	27.907
238.29	6.452
238.67	3.571
239.04	62.857
239.41	0.000
239.79	18.000
240.16	5.000
240.53	18.966
240.91	17.808
241.28	29.577
241.65	34.375
242.02	14.035
242.40	40.000
242.77	18.947
243.14	44.706
243.51	26.882
243.89	37.143
244.26	42.593
244.63	43.878
245.00	37.500
245.38	32.773
245.75	41.525
246.12	47.656
246.49	44.000
246.87	44.262
247.24	35.211
247.61	41.060
247.98	44.944
248.36	45.283
248.73	44.318
249.10	40.556
249.47	50.000
249.84	38.579
250.22	44.792
250.59	47.191
250.96	45.455
251.33	58.019
251.70	47.706
252.08	48.052
252.45	42.857
252.82	45.148
253.19	52.140
253.56	50.196
253.94	47.967
254.31	54.317
254.68	49.653
255.05	54.305
255.42	50.182
255.79	53.974
256.16	49.306
256.54	47.273
256.91	50.641
257.28	53.571
257.65	44.918
258.02	53.453
258.39	51.964
258.76	52.294
259.14	51.471
259.51	50.704
259.88	57.637
260.25	48.580
260.62	45.787
260.99	48.747
261.36	51.724
261.73	50.667
262.10	54.223
262.47	51.791
262.85	50.386
263.22	51.075
263.59	50.938
263.96	49.608
264.33	49.057
264.70	51.597
265.07	54.433
265.44	51.991
265.81	55.181
266.18	53.864
266.55	55.000
266.92	55.357
267.29	50.000
267.66	51.591
268.03	49.677
268.40	51.259
268.77	54.120
269.14	48.739
269.51	52.262
269.88	49.359
270.25	46.414
270.62	53.151
270.99	48.842
271.36	50.993
271.73	52.292
272.10	52.490
272.47	49.600
272.84	46.921
273.21	46.347
273.58	50.000
273.95	50.598
274.32	52.805
274.69	50.294
275.06	48.780
275.43	50.800
275.80	52.390
276.17	52.372
276.54	51.521
276.91	54.319
277.28	52.031
277.65	46.314
278.02	49.811
278.39	49.365
278.76	51.210
279.13	49.732
279.50	50.542
279.87	48.113
280.23	50.091
280.60	47.527
280.97	51.494
281.34	49.492
281.71	49.734
282.08	50.089
282.45	49.559
282.82	48.485
283.19	49.495
283.56	49.317
283.92	46.445
284.29	49.239
284.66	50.442
285.03	47.170
285.40	48.500
285.77	48.112
286.14	48.177
286.51	49.196
286.87	48.136
287.24	48.077
287.61	45.525
287.98	49.139
288.35	48.682
288.72	46.483
289.08	43.396
289.45	46.022
289.82	43.323
290.19	45.000
290.56	45.152
290.93	45.643
291.29	43.972
291.66	44.663
292.03	44.476
292.40	44.029
292.77	41.545
293.13	41.263
293.50	42.011
293.87	42.302
294.24	44.101
294.60	39.891
294.97	41.136
295.34	41.233
295.71	38.835
296.08	39.617
296.44	40.975
296.81	39.845
297.18	40.750
297.55	38.191
297.91	37.944
298.28	39.642
298.65	38.810
299.02	38.471
299.38	36.480
299.75	39.125
300.12	37.410
300.48	38.028
300.85	37.042
301.22	37.260
301.59	37.226
301.95	38.415
302.32	36.330
302.69	35.910
303.05	35.537
303.42	37.923
303.79	35.506
304.15	37.712
304.52	35.866
304.89	35.851
305.25	36.009
305.62	36.818
305.99	34.490
306.35	38.255
306.72	36.275
307.09	36.997
307.45	36.570
307.82	35.966
308.19	35.864
308.55	37.342
308.92	36.441
309.29	35.251
309.65	35.088
310.02	36.059
310.38	36.034
310.75	35.451
311.12	36.724
311.48	36.074
311.85	34.853
312.22	35.537
312.58	34.743
312.95	35.626
313.31	36.382
313.68	35.253
314.05	37.637
314.41	34.185
314.78	34.975
315.14	35.162
315.51	34.856
315.87	37.207
316.24	36.400
316.61	36.893
316.97	36.765
317.34	37.033
317.70	36.415
318.07	36.837
318.43	37.618
318.80	35.792
319.16	35.322
319.53	36.981
319.89	37.027
320.26	35.890
320.62	38.469
320.99	38.265
321.35	38.439
321.72	38.283
322.08	39.406
322.45	39.448
322.81	40.099
323.18	40.077
323.54	41.517
323.91	41.556
324.27	40.116
324.64	41.706
325.00	41.401
325.37	41.187
325.73	41.332
326.10	42.644
326.46	43.246
326.83	43.184
327.19	43.668
327.56	45.181
327.92	40.972
328.29	42.473
328.65	43.974
329.01	42.661
329.38	43.618
329.74	44.661
330.11	44.828
330.47	44.693
330.84	42.951
331.20	43.808
331.56	44.717
331.93	43.916
332.29	45.698
332.66	45.208
333.02	44.383
333.38	45.588
333.75	45.380
334.11	45.479
334.48	44.633
334.84	45.164
335.20	44.315
335.57	45.867
335.93	45.767
336.29	45.887
336.66	45.264
337.02	46.872
337.38	45.283
337.75	45.545
338.11	45.943
338.47	47.818
338.84	47.053
339.20	47.571
339.56	46.132
339.93	45.225
340.29	46.782
340.65	46.027
341.02	45.970
341.38	44.395
341.74	47.153
342.11	45.447
342.47	45.455
342.83	45.707
343.20	46.419
343.56	47.378
343.92	46.982
344.28	44.854
344.65	44.777
345.01	48.693
345.37	47.350
345.73	46.942
346.10	46.672
346.46	47.282
346.82	47.154
347.19	46.930
347.55	47.704
347.91	46.683
348.27	48.357
348.63	48.920
349.00	48.664
349.36	47.650
349.72	47.291
350.08	46.072
350.45	46.379
350.81	47.151
351.17	46.870
351.53	46.296
351.89	47.841
352.26	46.504
352.62	47.506
352.98	48.285
353.34	47.368
353.70	47.654
354.07	49.341
354.43	47.579
354.79	46.721
355.15	46.489
355.51	48.574
355.87	47.960
356.24	47.876
356.60	47.997
356.96	47.077
357.32	47.901
357.68	46.858
358.04	47.731
358.40	48.854
358.77	47.149
359.13	47.952
359.49	47.680
359.85	48.761
360.21	46.550
360.57	48.405
360.93	48.139
361.29	48.754
361.66	45.978
362.02	48.666
362.38	48.329
362.74	48.578
363.10	46.833
363.46	48.457
363.82	47.397
364.18	48.675
364.54	48.550
364.90	48.963
365.26	49.255
365.62	49.281
365.98	48.201
366.35	48.487
366.71	48.693
367.07	47.675
367.43	48.014
367.79	47.747
368.15	48.480
368.51	49.813
368.87	48.825
369.23	49.129
369.59	48.309
369.95	47.615
370.31	48.712
370.67	47.744
371.03	48.684
371.39	49.018
371.75	47.028
372.11	48.667
372.47	47.216
372.83	49.306
373.19	48.268
373.55	48.578
373.91	48.333
374.27	50.184
374.63	48.675
374.99	46.999
375.35	50.218
375.71	48.996
376.07	47.279
376.42	49.447
376.78	47.456
377.14	48.534
377.50	48.974
377.86	50.000
378.22	47.424
378.58	49.539
378.94	49.443
379.30	48.777
379.66	48.720
380.02	49.078
380.38	50.318
380.74	48.602
381.09	48.158
381.45	49.079
381.81	48.087
382.17	48.730
382.53	50.230
382.89	49.134
383.25	48.510
383.61	48.824
383.97	47.498
384.32	48.516
384.68	49.936
385.04	47.231
385.40	48.562
385.76	49.083
386.12	49.373
386.48	49.315
386.83	49.375
387.19	48.212
387.55	49.806
387.91	48.910
388.27	48.049
388.62	50.259
388.98	49.173
389.34	48.666
389.70	49.679
390.06	49.175
390.42	50.101
390.77	49.296
391.13	48.796
391.49	49.394
391.85	47.838
392.20	48.845
392.56	48.723
392.92	49.907
393.28	47.457
393.64	48.132
393.99	47.662
394.35	49.448
394.71	48.808
395.07	49.005
395.42	47.810
395.78	50.403
396.14	49.101
396.50	47.801
396.85	48.579
397.21	47.283
397.57	48.716
397.92	48.410
398.28	49.221
398.64	48.063
399.00	48.578
399.35	48.476
399.71	48.503
400.07	47.375
400.42	48.974
400.78	49.264
401.14	49.053
401.49	47.720
401.85	47.746
402.21	48.350
402.57	47.006
402.92	48.274
403.28	48.309
403.63	47.821
403.99	47.556
404.35	47.197
404.70	47.055
405.06	48.729
405.42	46.779
405.77	46.730
406.13	46.296
406.49	47.634
406.84	47.945
407.20	47.398
407.55	47.094
407.91	48.252
408.27	48.537
408.62	45.723
408.98	47.490
409.34	46.863
409.69	46.488
410.05	45.984
410.40	45.022
410.76	46.513
411.11	46.542
411.47	45.986
411.83	45.718
412.18	46.008
412.54	46.054
412.89	46.049
413.25	46.959
413.60	45.727
413.96	46.084
414.31	44.997
414.67	46.455
415.03	45.021
415.38	45.613
415.74	45.803
416.09	44.590
416.45	46.355
416.80	45.688
417.16	46.051
417.51	46.565
417.87	44.254
418.22	43.516
418.58	46.303
418.93	45.003
419.29	45.387
419.64	46.978
420.00	45.449
420.35	45.951
420.71	44.430
421.06	44.257
421.42	44.981
421.77	45.432
422.12	44.064
422.48	45.003
422.83	44.255
423.19	46.353
423.54	44.166
423.90	44.314
424.25	45.982
424.61	43.484
424.96	44.042
425.31	43.901
425.67	44.242
426.02	44.596
426.38	44.723
426.73	43.489
427.09	43.533
427.44	43.951
427.79	44.988
428.15	43.627
428.50	43.970
428.85	44.387
429.21	44.710
429.56	42.707
429.92	44.078
430.27	42.720
430.62	43.537
430.98	42.504
431.33	43.771
431.68	43.600
432.04	44.419
432.39	43.910
432.74	41.999
433.10	44.148
433.45	42.875
433.80	43.452
434.16	42.002
434.51	43.423
434.86	42.779
435.22	42.549
435.57	43.470
435.92	41.858
436.28	42.030
436.63	42.278
436.98	43.025
437.34	43.634
437.69	43.148
438.04	41.767
438.39	42.037
438.75	41.477
439.10	43.631
439.45	43.261
439.81	42.032
440.16	43.043
440.51	41.016
440.86	41.793
441.22	40.739
441.57	41.538
441.92	41.524
442.27	42.057
442.63	41.309
442.98	42.543
443.33	42.186
443.68	41.930
444.03	40.979
444.39	41.437
444.74	41.042
445.09	42.503
445.44	41.283
445.79	41.046
446.15	40.641
446.50	41.006
446.85	40.869
447.20	40.919
447.55	40.780
447.91	41.093
448.26	41.484
448.61	40.906
448.96	41.218
449.31	40.205
449.66	39.528
450.02	39.586
450.37	41.252
450.72	40.156
451.07	40.079
451.42	39.789
451.77	39.660
452.12	40.727
452.47	39.973
452.83	40.598
453.18	40.716
453.53	39.909
453.88	40.332
454.23	40.447
454.58	40.862
454.93	40.054
455.28	39.851
455.63	39.376
455.98	40.038
456.34	38.915
456.69	40.284
457.04	39.436
457.39	39.201
457.74	39.381
458.09	38.457
458.44	40.282
458.79	37.691
459.14	38.819
459.49	39.745
459.84	39.596
460.19	38.837
460.54	38.510
460.89	38.882
461.24	39.935
461.59	39.243
461.94	38.001
462.29	38.471
462.64	38.649
462.99	38.651
463.34	38.755
463.69	37.860
464.04	37.845
464.39	38.457
464.74	37.184
465.09	38.135
465.44	36.833
465.79	38.026
466.14	37.053
466.49	37.954
466.84	38.084
467.19	36.582
467.54	36.406
467.89	37.035
468.24	36.553
468.59	36.715
468.94	37.929
469.29	37.924
469.64	37.053
469.99	37.924
470.34	35.431
470.68	36.538
471.03	35.766
471.38	37.248
471.73	37.355
472.08	36.299
472.43	37.206
472.78	35.896
473.13	36.421
473.48	36.376
473.83	36.724
474.17	35.090
474.52	36.236
474.87	36.111
475.22	36.976
475.57	36.251
475.92	36.669
476.27	36.709
476.61	36.170
476.96	36.159
477.31	37.500
477.66	36.955
478.01	36.433
478.36	36.275
478.70	37.352
479.05	37.028
479.40	35.268
479.75	37.577
480.10	37.500
480.45	36.754
480.79	35.651
481.14	37.111
481.49	36.658
481.84	36.364
482.19	35.659
482.53	36.078
482.88	37.062
483.23	36.332
483.58	36.584
483.92	34.925
484.27	35.915
484.62	36.917
484.97	35.589
485.31	35.576
485.66	35.621
486.01	35.529
486.36	36.536
486.70	36.999
487.05	36.785
487.40	36.698
487.75	36.273
488.09	35.589
488.44	35.184
488.79	35.703
489.13	34.830
489.48	35.336
489.83	34.813
490.17	34.787
490.52	34.847
490.87	35.806
491.22	35.059
491.56	35.277
491.91	34.990
492.26	36.206
492.60	34.949
492.95	34.805
493.30	34.239
493.64	34.990
493.99	34.600
494.34	35.530
494.68	34.390
495.03	34.533
495.37	34.617
495.72	35.021
496.07	34.483
496.41	34.190
496.76	34.384
497.11	34.564
497.45	35.761
497.80	34.060
498.14	35.428
498.49	34.223
498.84	34.119
499.18	34.821
499.53	35.151
499.87	34.255
500.22	34.390
500.56	33.961
500.91	34.714
501.26	33.701
501.60	35.423
501.95	34.903
502.29	33.915
502.64	33.698
502.98	34.881
503.33	33.999
503.67	34.609
504.02	34.474
504.36	33.436
504.71	35.160
505.06	35.297
505.40	34.155
505.75	34.071
506.09	34.453
506.44	34.979
506.78	34.743
507.13	33.931
507.47	34.958
507.82	35.156
508.16	34.354
508.51	34.737
508.85	34.890
509.19	33.736
509.54	33.938
509.88	33.832
510.23	33.820
510.57	33.901
510.92	33.957
511.26	34.291
511.61	34.132
511.95	34.297
512.30	33.855
512.64	33.959
512.98	34.436
513.33	32.649
513.67	32.575
514.02	34.615
514.36	33.749
514.70	34.791
515.05	34.085
515.39	34.065
515.74	34.900
516.08	33.459
516.42	34.183
516.77	34.099
517.11	33.884
517.46	34.791
517.80	34.588
518.14	35.041
518.49	34.929
518.83	34.371
519.17	34.319
519.52	34.354
519.86	34.389
520.20	33.758
520.55	34.204
520.89	34.278
521.23	34.068
521.58	33.333
521.92	33.178
522.26	33.814
522.61	35.358
522.95	33.425
523.29	33.873
523.64	35.007
523.98	34.073
524.32	33.603
524.66	34.194
525.01	33.471
525.35	33.584
525.69	32.897
526.04	34.461
526.38	34.476
526.72	33.958
527.06	33.615
527.41	32.459
527.75	33.740
528.09	33.805
528.43	32.318
528.78	33.333
529.12	33.699
529.46	34.020
529.80	33.356
530.15	35.094
530.49	33.682
530.83	34.490
531.17	33.404
531.51	33.476
531.86	32.983
532.20	32.973
532.54	32.230
532.88	33.745
533.22	33.405
533.57	33.310
533.91	35.650
534.25	34.827
534.59	34.044
534.93	33.983
535.27	33.737
535.62	33.288
535.96	33.496
536.30	32.985
536.64	33.691
536.98	32.448
537.32	33.036
537.66	32.771
538.01	33.432
538.35	33.309
538.69	32.272
539.03	33.093
539.37	33.022
539.71	33.696
540.05	33.575
540.39	33.624
540.73	33.553
541.07	33.015
541.42	33.286
541.76	33.453
542.10	33.788
542.44	34.538
542.78	31.672
543.12	32.347
543.46	33.159
543.80	32.666
544.14	34.122
544.48	33.263
544.82	32.363
545.16	34.420
545.50	33.552
545.84	32.992
546.18	33.333
546.52	34.051
546.86	33.053
547.20	32.652
547.54	32.828
547.88	32.977
548.22	32.700
548.56	33.968
548.90	33.193
549.24	32.749
549.58	32.861
549.92	31.880
550.26	32.432
550.60	34.100
550.94	34.286
551.28	31.870
551.62	32.924
551.96	32.668
552.30	32.713
552.64	33.058
552.98	32.244
553.32	32.045
553.66	32.853
554.00	33.591
554.34	33.125
554.68	33.254
555.02	33.810
555.36	31.295
555.69	31.975
556.03	32.225
556.37	31.133
556.71	33.183
557.05	31.406
557.39	31.647
557.73	31.289
558.07	34.272
558.41	31.045
558.75	33.527
559.08	33.787
559.42	33.194
559.76	31.929
560.10	33.089
560.44	32.858
560.78	32.307
561.12	32.682
561.45	32.887
561.79	32.159
562.13	33.136
562.47	31.498
562.81	32.676
563.15	33.232
563.48	32.809
563.82	33.042
564.16	32.438
564.50	32.235
564.84	32.388
565.17	32.833
565.51	33.216
565.85	33.451
566.19	33.751
566.52	32.545
566.86	32.514
567.20	34.065
567.54	32.929
567.88	32.342
568.21	33.411
568.55	33.050
568.89	33.571
569.23	33.635
569.56	33.471
569.90	34.133
570.24	33.255
570.57	33.333
570.91	33.624
571.25	34.435
571.59	33.967
571.92	32.899
572.26	33.138
572.60	33.355
572.93	33.530
573.27	33.160
573.61	33.829
573.95	32.786
574.28	32.993
574.62	33.125
574.96	34.029
575.29	33.015
575.63	32.960
575.97	33.075
576.30	32.649
576.64	32.607
576.98	33.289
577.31	32.969
577.65	33.309
577.98	33.428
578.32	33.491
578.66	32.944
578.99	33.421
579.33	33.240
579.67	32.447
580.00	32.762
580.34	33.045
580.67	32.579
581.01	33.026
581.35	33.034
581.68	33.313
582.02	33.087
582.35	33.277
582.69	34.012
583.02	33.189
583.36	33.459
583.70	33.368
584.03	33.222
584.37	33.286
584.70	32.823
585.04	32.328
585.37	33.120
585.71	33.233
586.04	32.651
586.38	34.214
586.72	32.941
587.05	33.866
587.39	33.965
587.72	33.482
588.06	33.782
588.39	33.801
588.73	33.136
589.06	33.114
589.40	33.087
589.73	32.909
590.07	32.520
590.40	33.017
590.73	33.569
591.07	32.814
591.40	32.800
591.74	32.416
592.07	32.235
592.41	33.646
592.74	34.001
593.08	33.020
593.41	32.979
593.75	34.311
594.08	33.715
594.41	33.572
594.75	33.947
595.08	33.502
595.42	33.759
595.75	33.030
596.09	33.387
596.42	33.235
596.75	33.864
597.09	32.229
597.42	32.942
597.75	34.053
598.09	32.959
598.42	32.418
598.76	33.060
599.09	32.353
599.42	31.865
599.76	33.307
600.09	33.373
600.42	32.539
600.76	32.564
601.09	32.627
601.42	32.488
601.76	32.914
602.09	32.216
602.42	33.825
602.76	33.377
603.09	33.203
603.42	32.751
603.76	33.235
604.09	33.250
604.42	32.632
604.76	33.501
605.09	32.452
605.42	32.938
605.75	32.663
606.09	33.111
606.42	32.896
606.75	32.993
607.09	33.256
607.42	33.318
607.75	32.461
608.08	33.068
608.42	33.075
608.75	33.167
609.08	31.651
609.41	33.178
609.75	32.859
610.08	32.455
610.41	33.384
610.74	33.165
611.07	33.051
611.41	31.156
611.74	32.699
612.07	31.808
612.40	33.315
612.73	32.870
613.07	31.885
613.40	32.950
613.73	33.162
614.06	32.026
614.39	33.392
614.72	32.881
615.06	33.754
615.39	31.351
615.72	32.027
616.05	31.768
616.38	32.444
616.71	32.836
617.05	32.601
617.38	32.387
617.71	33.246
618.04	33.114
618.37	32.374
618.70	32.473
619.03	33.140
619.36	33.284
619.69	31.260
620.03	32.723
620.36	32.351
620.69	32.373
621.02	31.591
621.35	33.106
621.68	31.413
622.01	32.799
622.34	30.570
622.67	31.872
623.00	31.859
623.33	32.047
623.66	33.307
623.99	31.978
624.32	32.566
624.65	31.875
624.99	31.406
625.32	32.227
625.65	31.625
625.98	33.500
626.31	30.216
626.64	31.892
626.97	32.077
627.30	31.852
627.63	32.744
627.96	31.378
628.29	31.549
628.62	31.237
628.95	30.834
629.28	31.921
629.61	31.452
629.94	32.988
630.26	31.172
630.59	31.518
630.92	29.610
631.25	32.067
631.58	31.860
631.91	31.777
632.24	32.781
632.57	31.867
632.90	30.504
633.23	31.871
633.56	30.189
633.89	29.683
634.22	32.179
634.55	30.749
634.88	31.191
635.20	32.877
635.53	32.542
635.86	33.560
636.19	30.150
636.52	33.558
636.85	31.421
637.18	32.254
637.51	31.572
637.83	31.983
638.16	30.014
638.49	31.412
638.82	29.958
639.15	32.429
639.48	28.675
639.81	31.148
640.13	31.240
640.46	31.024
640.79	29.612
641.12	30.543
641.45	30.793
641.77	30.573
642.10	28.990
642.43	32.155
642.76	29.928
643.09	28.720
643.41	29.211
643.74	29.167
644.07	27.513
644.40	29.783
644.73	27.440
645.05	29.389
645.38	31.346
645.71	30.916
646.04	30.483
646.36	28.788
646.69	31.141
647.02	31.445
647.35	32.200
647.67	32.665
648.00	31.456
648.33	32.177
648.66	29.314
648.98	27.966
649.31	30.293
649.64	32.530
649.96	28.547
650.29	27.080
650.62	31.169
650.94	28.096
651.27	28.709
651.60	32.122
651.92	31.107
652.25	27.533
652.58	29.084
652.90	27.224
653.23	28.885
653.56	26.389
653.88	30.839
654.21	28.922
654.54	30.582
654.86	30.576
655.19	29.516
655.52	35.301
655.84	36.222
656.17	35.931
656.49	47.703
656.82	54.085
657.15	42.216
657.47	31.866
657.80	23.752
658.13	19.973
658.45	33.358
658.78	32.596
659.10	31.417
659.43	30.811
659.75	29.570
660.08	30.079
660.41	29.319
660.73	28.393
661.06	27.455
661.38	28.427
661.71	28.446
662.03	29.398
662.36	26.014
662.68	27.098
663.01	30.288
663.33	31.368
663.66	29.426
663.98	29.340
664.31	28.537
664.63	30.505
664.96	29.929
665.28	28.369
665.61	30.140
665.93	30.415
666.26	27.815
666.58	26.835
666.91	29.977
667.23	30.788
667.56	29.630
667.88	28.070
668.21	25.635
668.53	28.680
668.86	31.122
669.18	28.173
669.50	32.134
669.83	26.750
670.15	25.750
670.48	29.574
670.80	32.995
671.13	26.024
671.45	31.633
671.77	29.469
672.10	29.011
672.42	27.490
672.75	28.738
673.07	28.224
673.39	30.156
673.72	26.446
674.04	29.787
674.37	30.485
674.69	29.439
675.01	30.698
675.34	25.490
675.66	27.143
675.98	27.273
676.31	29.471
676.63	29.124
676.95	25.899
677.28	26.980
677.60	29.073
677.92	29.073
678.25	28.074
678.57	28.074
678.89	27.294
679.22	27.752
679.54	27.617
679.86	32.120
680.18	28.661
680.51	27.721
680.83	28.542
681.15	25.272
681.48	26.809
681.80	28.696
682.12	30.407
682.44	28.233
682.77	31.364
683.09	26.961
683.41	28.822
683.73	28.643
684.06	31.218
684.38	31.655
684.70	31.640
685.02	30.087
685.34	24.477
685.67	30.237
685.99	29.940
686.31	29.664
686.63	28.155
686.96	26.829
687.28	31.211
687.60	26.694
687.92	29.536
688.24	29.474
688.56	29.890
688.89	30.365
689.21	27.674
689.53	26.087
689.85	29.367
690.17	26.961
690.49	26.353
690.82	25.307
691.14	28.721
691.46	30.250
691.78	30.144
692.10	30.963
692.42	30.046
692.74	28.673
693.06	27.952
693.39	29.557
693.71	25.581
694.03	29.710
694.35	28.465
694.67	29.262
694.99	28.571
695.31	25.496
695.63	27.297
695.95	26.124
696.27	31.728
696.59	26.409
696.91	28.775
697.23	28.367
697.56	32.642
697.88	28.806
698.20	27.119
698.52	27.885
698.84	27.318
699.16	27.177
699.48	29.843
699.80	28.846
700.12	31.405
700.44	23.894
700.76	28.076
701.08	25.714
701.40	28.618
701.72	33.333
702.04	25.170
702.36	23.934
702.68	27.181
703.00	27.445
703.32	23.952
703.64	30.284
703.96	25.316
704.28	22.535
704.60	23.630
704.91	23.684
705.23	26.667
705.55	23.048
705.87	24.460
706.19	21.514
706.51	26.172
706.83	25.275
707.15	24.746
707.47	27.545
707.79	27.794
708.11	28.042
708.43	26.400
708.74	27.049
709.06	26.074
709.38	26.706
709.70	25.325
710.02	25.524
710.34	23.404
710.66	22.846
710.98	28.671
711.29	26.804
711.61	21.986
711.93	30.337
712.25	27.170
712.57	28.125
712.89	28.980
713.20	27.016
713.52	26.829
713.84	25.182
714.16	28.378
714.48	31.058
714.80	28.956
715.11	31.959
715.43	25.939
715.75	28.070
716.07	28.364
716.39	27.645
716.70	26.800
717.02	25.000
717.34	28.139
717.66	23.636
717.97	23.611
718.29	22.667
718.61	23.423
718.93	23.109
719.24	27.615
719.56	25.893
719.88	24.706
720.20	23.504
720.51	26.316
720.83	25.105
721.15	23.265
721.46	26.582
721.78	25.541
722.10	28.682
722.42	31.304
722.73	23.982
723.05	27.650
723.37	18.552
723.68	28.910
724.00	24.537
724.32	25.701
724.63	25.792
724.95	22.374
725.27	26.761
725.58	24.658
725.90	18.919
726.22	23.581
726.53	23.361
726.85	28.519
727.16	25.101
727.48	28.629
727.80	26.484
728.11	26.667
728.43	27.160
728.74	23.684
729.06	28.821
729.38	28.295
729.69	24.400
730.01	21.757
730.32	25.498
730.64	26.923
730.96	23.166
731.27	26.255
731.59	25.253
731.90	25.329
732.22	26.910
732.53	23.860
732.85	23.239
733.16	26.007
733.48	25.373
733.80	27.636
734.11	27.660
734.43	28.881
734.74	25.545
735.06	28.296
735.37	26.198
735.69	21.127
736.00	27.407
736.32	27.273
736.63	26.667
736.95	22.957
737.26	22.826
737.58	26.277
737.89	26.038
738.21	27.863
738.52	31.148
738.83	21.795
739.15	27.727
739.46	23.874
739.78	24.324
740.09	22.619
740.41	28.030
740.72	23.904
741.04	24.506
741.35	28.700
741.66	19.355
741.98	24.490
742.29	20.207
742.61	13.295
742.92	22.549
743.23	30.348
743.55	23.316
743.86	26.087
744.18	27.500
744.49	19.444
744.80	17.204
745.12	20.513
745.43	20.856
745.74	21.925
746.06	28.736
746.37	18.889
746.68	29.189
747.00	16.022
747.31	26.178
747.62	25.263
747.94	26.887
748.25	30.049
748.56	27.273
748.88	23.497
749.19	22.798
749.50	21.176
749.82	26.000
750.13	29.612
750.44	24.893
750.75	29.200
751.07	25.523
751.38	19.141
751.69	27.381
752.01	24.370
752.32	29.339
752.63	25.764
752.94	23.200
753.26	24.201
753.57	24.171
753.88	18.605
754.19	25.991
754.51	25.523
754.82	23.750
755.13	23.451
755.44	26.407
755.75	24.498
756.07	24.034
756.38	27.197
756.69	29.057
757.00	26.950
757.31	25.952
757.63	28.758
757.94	26.364
758.25	27.381
758.56	25.676
758.87	20.238
759.18	29.283
759.50	25.267
759.81	30.502
760.12	24.555
760.43	32.890
760.74	27.844
761.05	28.846
761.36	29.970
761.67	27.052
761.99	30.435
762.30	24.364
762.61	23.984
762.92	29.333
763.23	26.977
763.54	29.442
763.85	28.959
764.16	28.261
764.47	30.000
764.78	25.806
765.10	24.409
765.41	26.421
765.72	28.428
766.03	27.425
766.34	25.379
766.65	29.687
766.96	21.778
767.27	30.168
767.58	24.528
767.89	23.377
768.20	15.541
768.51	27.586
768.82	20.000
769.13	33.796
769.44	24.528
769.75	25.490
770.06	19.417
770.37	18.617
770.68	25.128
770.99	24.365
771.30	24.227
771.61	21.973
771.92	23.585
772.23	23.558
772.54	16.471
772.85	17.123
773.16	21.290
773.47	21.019
773.78	28.743
774.09	14.474
774.39	24.265
774.70	25.564
775.01	23.846
775.32	10.317
775.63	17.323
775.94	17.925
776.25	22.222
776.56	12.727
776.87	14.530
777.18	20.000
777.48	11.538
777.79	9.259
778.10	14.151
778.41	23.529
778.72	11.321
779.03	18.421
779.34	9.244
779.65	21.831
779.95	22.302
780.26	20.161
780.57	20.290
780.88	7.339
781.19	11.111
781.50	10.656
781.80	20.438
782.11	17.308
782.42	13.103
782.73	26.573
783.04	8.800
783.34	6.400
783.65	28.455
783.96	9.016
784.27	15.966
784.57	11.215
784.88	11.607
785.19	17.526
785.50	20.000
785.81	23.000
786.11	27.723
786.42	5.882
786.73	12.500
787.04	11.224
787.34	19.444
787.65	30.189
787.96	8.247
788.26	16.832
788.57	17.391
788.88	5.505
789.19	23.140
789.49	11.304
789.80	25.000
790.11	-6.098
790.41	22.472
790.72	1.163
791.03	10.465
791.33	6.494
791.64	19.512
791.95	2.439
792.25	-1.205
792.56	-2.469
792.87	21.127
793.17	20.482
793.48	8.235
793.79	8.750
794.09	-11.667
794.40	19.565
794.70	14.783
795.01	25.688
795.32	13.386
795.62	7.843
795.93	11.765
796.23	15.152
796.54	10.465
796.85	4.348
797.15	7.813
797.46	5.085
797.76	22.951
798.07	13.158
798.37	-4.839
798.68	-7.812
798.99	7.692
799.29	9.091
799.60	8.696
799.90	10.000
800.21	0.000
800.51	13.793
800.82	0.000
801.12	-1.961
801.43	11.290
801.73	20.968
802.04	-10.000
802.34	-18.868
802.65	-7.895
802.95	-3.636
803.26	-1.887
803.56	8.197
803.87	-10.000
804.17	-12.963
804.48	1.923
804.78	-8.163
805.09	-4.255
805.39	35.593
805.70	-8.333
806.00	-12.500
806.30	6.780
806.61	9.231
806.91	15.385
807.22	7.895
807.52	8.571
807.83	0.000
808.13	31.646
808.43	8.197
808.74	3.279
809.04	17.568
809.35	12.963
809.65	26.786
809.95	1.695
810.26	-22.449
810.56	0.000
810.86	9.804
811.17	-10.811
811.47	-59.259
811.77	-9.804
812.08	18.182
812.38	-33.333
812.69	7.692
812.99	4.762
813.29	8.696
813.59	-5.714
813.90	4.762
814.20	5.455
814.50	-18.367
814.81	-1.961
815.11	-18.750
815.41	4.878
815.72	-42.308
816.02	-2.128
816.32	-9.375
816.62	12.121
816.93	-42.424
817.23	-13.514
817.53	-14.706
817.84	2.500
818.14	-14.706
818.44	-18.750
818.74	-80.952
819.04	-42.857
819.35	-20.000
819.65	4.545
819.95	0.000
820.25	-77.778
820.56	-44.828
820.86	-35.714
821.16	-39.130
821.46	-2.381
821.76	7.407
822.07	-39.130
822.37	-8.163
822.67	-34.884
822.97	-69.565
823.27	-42.308
823.57	-29.630
823.88	-39.286
824.18	-7.692
824.48	-3.571
824.78	6.061
825.08	-120.000
825.38	-5.000
825.69	-111.111
825.99	-29.630
826.29	6.667
826.59	-37.037
826.89	-55.556
827.19	-42.857
827.49	-63.636
827.79	-77.273
828.09	22.727
828.39	-69.565
828.70	-48.148
829.00	-3.571
829.30	-7.143
829.60	-16.129
829.90	-34.615
830.20	5.128
830.50	-9.091
830.80	-42.857
831.10	-50.000
831.40	-135.714
831.70	-37.037
832.00	-47.059
832.30	-21.739
832.60	-41.667
832.90	-163.636
833.20	-27.778
833.50	12.500
833.80	-34.615
834.10	44.000
834.40	-37.500
834.70	-59.091
835.00	-19.231
835.30	-50.000
835.60	-150.000
835.90	-70.000
836.20	-142.857
836.50	-30.435
836.80	-111.111
837.10	-73.333
837.40	-180.000
837.70	-39.130
838.00	-78.571
838.30	1500.000
838.60	-8.000
838.90	-340.000
839.19	-177.778
839.49	-950.000
839.79	-58.824
840.09	-111.111
840.39	-21.429
840.69	-122.222
840.99	-50.000
841.29	-17.241
841.59	-113.333
841.88	-190.909
842.18	-216.667
842.48	-37.500
842.78	-23.077
843.08	-182.353
843.38	-55.000
843.68	-100.000
843.97	-111.765
844.27	-130.000
844.57	8.333
844.87	-72.727
845.17	-126.316
845.47	-116.667
845.76	-41.667
846.06	-19.048
846.36	-64.286
846.66	-311.111
846.96	-35.000
847.25	-300.000
847.55	-250.000
847.85	-113.333
848.15	-25.000
848.44	-78.947
848.74	-6.667
849.04	-26.316
849.34	-433.333
849.63	-133.333
849.93	-23.529
850.23	-263.636
850.53	-600.000
850.82	-220.000
851.12	-211.111
851.42	-142.857
851.71	-160.000
852.01	-92.857
852.31	-966.667
852.61	-153.846
852.90	-260.000
853.20	-222.222
853.50	-188.889
853.79	-130.000
854.09	-115.000
854.39	-89.474
854.68	-50.000
854.98	-550.000
855.28	-83.333
855.57	-135.714
855.87	-52.632
856.17	-81.250
856.46	11.538
856.76	-100.000
857.05	-106.250
857.35	-20.833
857.65	-27.778
857.94	-150.000
858.24	-60.870
858.53	-200.000
858.83	-500.000
859.13	-272.727
859.42	-280.000
859.72	316.667
860.01	-100.000
860.31	-130.000
860.60	-212.500
860.90	-650.000
861.20	-233.333
861.49	-375.000
861.79	1100.000
862.08	-22.581
862.38	-115.789
862.67	-53.846
862.97	-110.000
863.26	-125.000
863.56	-86.957
863.85	-383.333
864.15	-92.857
864.44	-50.000
864.74	-225.000
865.03	-222.222
865.33	-333.333
865.62	-2800.000
865.92	-800.000
866.21	-200.000
866.51	-145.455
866.80	-300.000
867.10	-271.429
867.39	-88.889
867.69	-125.000
867.98	480.000
868.27	-650.000
868.57	625.000
868.86	-60.000
869.16	-53.846
869.45	1050.000
869.75	-283.333
870.04	-233.333
870.33	-58.824
870.63	-114.286
870.92	34.783
871.22	-125.000
871.51	420.000
871.80	-62.500
872.10	-700.000
>>>>>End Processed Spectral Data<<<<<
