SpectraSuite Data File
++++++++++++++++++++++++++++++++++++
Date: Tue May 12 19:55:51 PDT 2015
User: schluterlab
Dark Spectrum Present: Yes
Reference Spectrum Present: Yes
Number of Sampled Component Spectra: 1
Spectrometers: USB2E3373
Integration Time (usec): 3000 (USB2E3373)
Spectra Averaged: 3 (USB2E3373)
Boxcar Smoothing: 0 (USB2E3373)
Correct for Electrical Dark: No (USB2E3373)
Strobe/Lamp Enabled: No (USB2E3373)
Correct for Detector Non-linearity: No (USB2E3373)
Correct for Stray Light: No (USB2E3373)
Number of Pixels in Processed Spectrum: 2048
>>>>>Begin Processed Spectral Data<<<<<
178.53	0.000
178.91	-130.000
179.29	-166.667
179.67	500.000
180.04	0.000
180.42	-200.000
180.80	-400.000
181.18	1400.000
181.56	-850.000
181.94	466.667
182.31	2200.000
182.69	-14.286
183.07	0.000
183.45	233.333
183.83	320.000
184.20	383.333
184.58	1150.000
184.96	516.667
185.34	-466.667
185.72	-64.286
186.09	-233.333
186.47	-1900.000
186.85	-200.000
187.23	208.333
187.61	-200.000
187.98	-360.000
188.36	1350.000
188.74	-425.000
189.12	-233.333
189.49	-190.000
189.87	625.000
190.25	244.444
190.63	500.000
191.00	560.000
191.38	-700.000
191.76	400.000
192.14	-100.000
192.51	-70.000
192.89	-240.000
193.27	-380.000
193.65	-266.667
194.02	-233.333
194.40	800.000
194.78	-137.500
195.15	-228.571
195.53	566.667
195.91	360.000
196.29	-425.000
196.66	-433.333
197.04	-314.286
197.42	240.000
197.79	-337.500
198.17	0.000
198.55	-1700.000
198.92	-244.444
199.30	750.000
199.68	-450.000
200.05	-700.000
200.43	-61.111
200.81	-233.333
201.18	500.000
201.56	-850.000
201.94	-2300.000
202.31	-91.667
202.69	-111.111
203.07	-150.000
203.44	-375.000
203.82	0.000
204.19	337.500
204.57	-633.333
204.95	200.000
205.32	620.000
205.70	625.000
206.08	-500.000
206.45	-200.000
206.83	2700.000
207.20	-277.778
207.58	-100.000
207.96	366.667
208.33	1000.000
208.71	633.333
209.08	850.000
209.46	-55.556
209.84	666.667
210.21	-1066.667
210.59	600.000
210.96	333.333
211.34	-450.000
211.71	1100.000
212.09	-60.000
212.46	-225.000
212.84	-187.500
213.22	100.000
213.59	-150.000
213.97	0.000
214.34	-500.000
214.72	-1600.000
215.09	1100.000
215.47	-33.333
215.84	-162.500
216.22	-2100.000
216.59	2000.000
216.97	-83.333
217.34	-216.667
217.72	-16.667
218.09	575.000
218.47	-84.211
218.84	-300.000
219.22	-135.714
219.59	-110.000
219.97	-80.000
220.34	366.667
220.72	209.091
221.09	-1100.000
221.47	0.000
221.84	900.000
222.22	-550.000
222.59	-450.000
222.97	-60.870
223.34	253.333
223.72	442.857
224.09	-183.333
224.46	230.769
224.84	-93.333
225.21	-1000.000
225.59	-525.000
225.96	15.000
226.34	483.333
226.71	240.000
227.08	-92.308
227.46	-214.286
227.83	-16.667
228.21	-1250.000
228.58	333.333
228.95	-26.316
229.33	-43.750
229.70	-250.000
230.08	-111.111
230.45	-500.000
230.82	-800.000
231.20	-33.333
231.57	-440.000
231.95	-566.667
232.32	333.333
232.69	-1450.000
233.07	-81.250
233.44	-100.000
233.81	3.226
234.19	-320.000
234.56	-72.222
234.93	-333.333
235.31	-51.852
235.68	-3.704
236.05	-23.077
236.43	-73.684
236.80	4.545
237.17	-85.714
237.55	-130.000
237.92	-11.628
238.29	3.226
238.67	-25.000
239.04	-2.857
239.41	-11.765
239.79	0.000
240.16	10.000
240.53	-22.414
240.91	8.219
241.28	15.493
241.65	-4.687
242.02	0.000
242.40	6.667
242.77	20.000
243.14	23.529
243.51	11.828
243.89	4.762
244.26	12.963
244.63	16.327
245.00	10.714
245.38	1.681
245.75	16.949
246.12	16.406
246.49	23.200
246.87	15.574
247.24	13.380
247.61	19.868
247.98	17.978
248.36	18.868
248.73	20.455
249.10	21.111
249.47	26.562
249.84	19.797
250.22	15.625
250.59	22.472
250.96	24.545
251.33	22.170
251.70	22.936
252.08	26.407
252.45	21.633
252.82	21.941
253.19	27.626
253.56	28.235
253.94	23.171
254.31	28.058
254.68	21.181
255.05	27.152
255.42	26.545
255.79	30.132
256.16	24.306
256.54	26.667
256.91	29.808
257.28	28.896
257.65	20.656
258.02	28.529
258.39	26.586
258.76	26.606
259.14	26.471
259.51	27.042
259.88	29.971
260.25	24.432
260.62	24.719
260.99	30.084
261.36	27.586
261.73	28.267
262.10	30.245
262.47	29.752
262.85	30.077
263.22	30.914
263.59	28.418
263.96	27.154
264.33	22.911
264.70	28.501
265.07	26.847
265.44	29.742
265.81	29.880
266.18	27.869
266.55	27.857
266.92	29.911
267.29	30.444
267.66	27.500
268.03	28.387
268.40	27.918
268.77	25.167
269.14	26.050
269.51	28.281
269.88	27.564
270.25	24.262
270.62	27.311
270.99	27.579
271.36	26.711
271.73	30.625
272.10	25.726
272.47	28.000
272.84	24.628
273.21	25.470
273.58	24.898
273.95	26.494
274.32	26.306
274.69	26.614
275.06	26.829
275.43	25.600
275.80	26.577
276.17	26.285
276.54	27.567
276.91	26.296
277.28	29.207
277.65	27.032
278.02	28.220
278.39	29.038
278.76	27.561
279.13	30.054
279.50	26.534
279.87	27.736
280.23	26.230
280.60	26.148
280.97	28.120
281.34	23.559
281.71	23.268
282.08	26.834
282.45	26.631
282.82	26.936
283.19	27.609
283.56	28.498
283.92	27.804
284.29	27.411
284.66	24.425
285.03	25.043
285.40	26.333
285.77	27.094
286.14	24.723
286.51	25.080
286.87	27.877
287.24	24.840
287.61	23.302
287.98	26.761
288.35	25.736
288.72	26.147
289.08	23.270
289.45	24.961
289.82	22.516
290.19	23.030
290.56	23.878
290.93	24.077
291.29	25.106
291.66	23.876
292.03	25.825
292.40	24.460
292.77	23.615
293.13	21.880
293.50	23.416
293.87	24.133
294.24	22.191
294.60	21.858
294.97	22.022
295.34	22.466
295.71	21.775
296.08	21.448
296.44	21.739
296.81	19.405
297.18	21.345
297.55	21.608
297.91	21.701
298.28	20.077
298.65	20.310
299.02	22.195
299.38	19.388
299.75	22.394
300.12	20.863
300.48	20.540
300.85	21.027
301.22	20.793
301.59	20.316
301.95	22.317
302.32	22.479
302.69	19.144
303.05	19.953
303.42	20.652
303.79	20.000
304.15	19.932
304.52	21.117
304.89	19.278
305.25	20.298
305.62	20.114
305.99	19.933
306.35	20.917
306.72	20.806
307.09	19.695
307.45	19.094
307.82	20.918
308.19	20.792
308.55	20.148
308.92	20.551
309.29	19.142
309.65	19.298
310.02	19.916
310.38	21.322
310.75	19.775
311.12	20.142
311.48	20.966
311.85	19.858
312.22	20.971
312.58	20.443
312.95	19.815
313.31	21.337
313.68	19.464
314.05	21.847
314.41	20.923
314.78	20.000
315.14	20.666
315.51	20.655
315.87	21.289
316.24	21.464
316.61	21.748
316.97	20.588
317.34	21.148
317.70	21.008
318.07	21.119
318.43	20.321
318.80	20.219
319.16	19.758
319.53	21.792
319.89	20.928
320.26	22.124
320.62	21.802
320.99	21.939
321.35	20.652
321.72	22.828
322.08	21.386
322.45	21.598
322.81	22.562
323.18	21.860
323.54	22.085
323.91	21.727
324.27	21.986
324.64	22.212
325.00	22.839
325.37	22.842
325.73	21.807
326.10	23.117
326.46	22.212
326.83	21.812
327.19	22.620
327.56	23.696
327.92	21.615
328.29	21.953
328.65	24.294
329.01	22.661
329.38	23.140
329.74	22.191
330.11	22.460
330.47	22.346
330.84	22.838
331.20	22.828
331.56	21.887
331.93	22.049
332.29	22.294
332.66	21.971
333.02	23.027
333.38	22.243
333.75	23.147
334.11	22.061
334.48	22.361
334.84	21.408
335.20	21.755
335.57	22.888
335.93	22.698
336.29	22.303
336.66	21.858
337.02	23.119
337.38	22.453
337.75	23.182
338.11	23.245
338.47	22.191
338.84	22.836
339.20	22.181
339.56	21.994
339.93	22.162
340.29	24.297
340.65	23.014
341.02	21.612
341.38	21.801
341.74	23.221
342.11	22.812
342.47	22.115
342.83	21.422
343.20	22.900
343.56	21.678
343.92	21.785
344.28	22.384
344.65	22.774
345.01	22.213
345.37	22.051
345.73	21.533
346.10	23.336
346.46	21.570
346.82	21.835
347.19	22.456
347.55	23.895
347.91	22.768
348.27	21.061
348.63	22.040
349.00	22.538
349.36	20.940
349.72	21.593
350.08	21.440
350.45	23.108
350.81	22.791
351.17	21.993
351.53	22.061
351.89	23.143
352.26	21.138
352.62	23.303
352.98	22.259
353.34	22.222
353.70	21.975
354.07	22.652
354.43	22.955
354.79	23.033
355.15	23.164
355.51	23.553
355.87	23.480
356.24	23.938
356.60	22.955
356.96	23.697
357.32	23.868
357.68	22.514
358.04	21.556
358.40	22.913
358.77	24.257
359.13	24.016
359.49	22.320
359.85	23.901
360.21	22.284
360.57	23.525
360.93	23.911
361.29	22.741
361.66	22.792
362.02	23.783
362.38	24.242
362.74	24.750
363.10	23.680
363.46	23.702
363.82	23.201
364.18	24.300
364.54	24.275
364.90	24.222
365.26	24.441
365.62	24.830
365.98	25.712
366.35	25.265
366.71	24.720
367.07	25.387
367.43	24.910
367.79	24.927
368.15	24.314
368.51	24.794
368.87	25.184
369.23	25.587
369.59	24.118
369.95	25.410
370.31	24.848
370.67	25.038
371.03	25.155
371.39	25.604
371.75	24.368
372.11	25.259
372.47	25.835
372.83	25.858
373.19	25.678
373.55	26.123
373.91	26.288
374.27	25.901
374.63	26.730
374.99	25.622
375.35	25.835
375.71	26.542
376.07	26.784
376.42	26.694
376.78	25.366
377.14	27.235
377.50	26.402
377.86	27.577
378.22	27.279
378.58	27.763
378.94	28.618
379.30	28.314
379.66	26.248
380.02	27.082
380.38	26.718
380.74	27.533
381.09	28.335
381.45	27.492
381.81	28.316
382.17	28.013
382.53	29.257
382.89	28.352
383.25	28.789
383.61	27.718
383.97	28.590
384.32	27.742
384.68	29.949
385.04	27.626
385.40	28.754
385.76	28.400
386.12	28.185
386.48	28.898
386.83	29.032
387.19	30.204
387.55	29.339
387.91	28.100
388.27	29.814
388.62	29.987
388.98	29.453
389.34	28.042
389.70	29.679
390.06	30.363
390.42	31.102
390.77	30.449
391.13	29.928
391.49	30.189
391.85	30.406
392.20	30.231
392.56	29.077
392.92	30.489
393.28	30.341
393.64	30.652
393.99	30.909
394.35	30.370
394.71	30.199
395.07	31.631
395.42	30.222
395.78	31.183
396.14	31.246
396.50	30.983
396.85	30.866
397.21	31.048
397.57	31.007
397.92	31.425
398.28	31.894
398.64	30.730
399.00	31.921
399.35	31.184
399.71	31.257
400.07	33.107
400.42	31.667
400.78	31.990
401.14	31.629
401.49	31.355
401.85	31.873
402.21	32.614
402.57	31.552
402.92	32.138
403.28	31.469
403.63	31.410
403.99	31.704
404.35	31.783
404.70	32.109
405.06	31.866
405.42	31.880
405.77	31.391
406.13	30.884
406.49	31.483
406.84	31.943
407.20	32.094
407.55	32.933
407.91	32.378
408.27	32.114
408.62	31.833
408.98	32.368
409.34	32.074
409.69	31.973
410.05	31.930
410.40	31.728
410.76	32.005
411.11	32.708
411.47	32.857
411.83	31.552
412.18	32.788
412.54	31.953
412.89	32.254
413.25	33.166
413.60	31.888
413.96	32.362
414.31	32.122
414.67	33.086
415.03	32.918
415.38	32.382
415.74	32.505
416.09	32.116
416.45	32.555
416.80	31.989
417.16	32.370
417.51	33.102
417.87	33.721
418.22	32.687
418.58	32.135
418.93	31.657
419.29	31.818
419.64	33.173
420.00	33.268
420.35	33.522
420.71	33.483
421.06	32.511
421.42	33.375
421.77	33.069
422.12	31.660
422.48	33.467
422.83	33.131
423.19	33.353
423.54	32.254
423.90	33.251
424.25	32.810
424.61	32.258
424.96	32.187
425.31	32.850
425.67	31.697
426.02	31.988
426.38	32.111
426.73	32.025
427.09	31.385
427.44	32.099
427.79	32.735
428.15	32.086
428.50	32.161
428.85	31.944
429.21	33.533
429.56	31.934
429.92	32.125
430.27	31.200
430.62	31.693
430.98	31.972
431.33	33.204
431.68	31.783
432.04	32.048
432.39	30.838
432.74	32.321
433.10	31.898
433.45	31.982
433.80	32.262
434.16	32.048
434.51	32.441
434.86	31.843
435.22	31.432
435.57	32.784
435.92	31.331
436.28	31.569
436.63	31.366
436.98	32.222
437.34	32.182
437.69	31.049
438.04	31.310
438.39	31.527
438.75	31.200
439.10	31.548
439.45	32.413
439.81	31.492
440.16	32.468
440.51	31.660
440.86	31.818
441.22	31.686
441.57	31.909
441.92	31.253
442.27	32.457
442.63	31.433
442.98	32.641
443.33	31.962
443.68	31.559
444.03	32.113
444.39	31.702
444.74	30.796
445.09	31.582
445.44	31.195
445.79	31.176
446.15	32.653
446.50	31.695
446.85	32.178
447.20	31.674
447.55	30.599
447.91	31.217
448.26	32.107
448.61	31.541
448.96	31.402
449.31	31.163
449.66	31.840
450.02	31.361
450.37	31.531
450.72	30.341
451.07	31.114
451.42	32.016
451.77	30.265
452.12	31.203
452.47	31.775
452.83	31.943
453.18	31.600
453.53	32.397
453.88	31.461
454.23	32.268
454.58	31.136
454.93	32.153
455.28	31.365
455.63	31.514
455.98	31.218
456.34	30.877
456.69	30.873
457.04	30.643
457.39	30.212
457.74	30.657
458.09	31.238
458.44	31.330
458.79	30.330
459.14	30.352
459.49	30.701
459.84	31.332
460.19	30.582
460.54	29.735
460.89	30.529
461.24	30.390
461.59	31.420
461.94	31.032
462.29	30.702
462.64	31.198
462.99	31.255
463.34	30.403
463.69	30.864
464.04	30.725
464.39	30.547
464.74	29.851
465.09	31.061
465.44	29.694
465.79	30.987
466.14	28.938
466.49	30.220
466.84	30.160
467.19	29.630
467.54	29.377
467.89	31.548
468.24	30.808
468.59	30.890
468.94	30.868
469.29	32.111
469.64	30.780
469.99	30.425
470.34	30.905
470.68	31.000
471.03	31.168
471.38	30.890
471.73	32.267
472.08	31.744
472.43	32.296
472.78	31.109
473.13	32.211
473.48	32.227
473.83	30.845
474.17	30.153
474.52	32.284
474.87	30.934
475.22	31.321
475.57	31.786
475.92	30.870
476.27	31.103
476.61	30.733
476.96	31.120
477.31	32.192
477.66	31.319
478.01	32.313
478.36	31.920
478.70	32.113
479.05	30.818
479.40	30.127
479.75	32.249
480.10	31.818
480.45	32.042
480.79	32.122
481.14	31.734
481.49	31.722
481.84	31.717
482.19	31.463
482.53	31.667
482.88	30.707
483.23	31.658
483.58	32.178
483.92	31.357
484.27	30.978
484.62	31.919
484.97	31.063
485.31	30.626
485.66	29.911
486.01	29.251
486.36	28.773
486.70	29.452
487.05	29.768
487.40	29.624
487.75	29.946
488.09	28.885
488.44	29.809
488.79	29.778
489.13	29.634
489.48	31.493
489.83	30.051
490.17	30.661
490.52	30.784
490.87	31.800
491.22	31.410
491.56	31.571
491.91	31.325
492.26	31.871
492.60	31.378
492.95	32.084
493.30	31.573
493.64	31.339
493.99	32.033
494.34	32.337
494.68	30.525
495.03	30.730
495.37	31.374
495.72	31.224
496.07	31.694
496.41	30.830
496.76	31.137
497.11	30.921
497.45	31.994
497.80	31.516
498.14	31.996
498.49	31.660
498.84	31.027
499.18	31.396
499.53	31.516
499.87	31.388
500.22	31.013
500.56	32.705
500.91	32.984
501.26	32.966
501.60	30.530
501.95	31.474
502.29	31.606
502.64	31.458
502.98	31.247
503.33	30.604
503.67	32.006
504.02	32.125
504.36	31.741
504.71	32.819
505.06	32.137
505.40	31.796
505.75	30.911
506.09	31.419
506.44	32.564
506.78	32.334
507.13	31.976
507.47	32.188
507.82	32.199
508.16	33.352
508.51	32.987
508.85	32.967
509.19	32.968
509.54	33.371
509.88	32.509
510.23	34.157
510.57	33.277
510.92	33.050
511.26	33.372
511.61	33.390
511.95	33.256
512.30	33.681
512.64	34.252
512.98	34.908
513.33	34.115
513.67	33.114
514.02	33.834
514.36	34.994
514.70	36.126
515.05	35.488
515.39	35.508
515.74	35.464
516.08	34.401
516.42	35.674
516.77	36.087
517.11	34.251
517.46	36.665
517.80	36.120
518.14	36.053
518.49	36.611
518.83	36.576
519.17	36.825
519.52	36.790
519.86	37.555
520.20	37.389
520.55	38.446
520.89	38.731
521.23	37.876
521.58	37.765
521.92	38.251
522.26	38.076
522.61	38.362
522.95	38.425
523.29	37.247
523.64	38.331
523.98	37.567
524.32	38.721
524.66	39.565
525.01	38.694
525.35	38.782
525.69	38.679
526.04	40.169
526.38	39.890
526.72	40.486
527.06	40.577
527.41	39.546
527.75	39.770
528.09	38.190
528.43	39.334
528.78	38.994
529.12	39.932
529.46	37.940
529.80	39.210
530.15	39.611
530.49	40.586
530.83	39.407
531.17	38.701
531.51	40.257
531.86	39.636
532.20	40.115
532.54	39.784
532.88	39.127
533.22	39.655
533.57	39.517
533.91	39.642
534.25	38.900
534.59	38.790
534.93	39.154
535.27	38.316
535.62	38.488
535.96	39.567
536.30	38.413
536.64	38.984
536.98	39.823
537.32	39.509
537.66	40.176
538.01	39.617
538.35	38.691
538.69	37.863
539.03	38.645
539.37	38.550
539.71	39.638
540.05	40.014
540.39	39.506
540.73	38.974
541.07	38.162
541.42	38.418
541.76	37.986
542.10	38.594
542.44	40.246
542.78	37.317
543.12	38.051
543.46	39.419
543.80	39.314
544.14	39.355
544.48	38.175
544.82	39.177
545.16	39.203
545.50	38.282
545.84	38.917
546.18	39.476
546.52	39.201
546.86	38.944
547.20	38.561
547.54	38.514
547.88	37.892
548.22	37.975
548.56	39.042
548.90	37.544
549.24	38.670
549.58	37.779
549.92	38.346
550.26	38.224
550.60	40.127
550.94	38.810
551.28	38.618
551.62	39.394
551.96	38.978
552.30	37.597
552.64	37.941
552.98	38.484
553.32	38.485
553.66	39.226
554.00	39.614
554.34	39.297
554.68	38.676
555.02	38.492
555.36	37.490
555.69	36.895
556.03	39.246
556.37	37.809
556.71	38.462
557.05	38.594
557.39	38.233
557.73	37.814
558.07	38.732
558.41	37.430
558.75	38.755
559.08	41.021
559.42	37.876
559.76	38.416
560.10	38.875
560.44	37.609
560.78	37.340
561.12	37.115
561.45	37.426
561.79	35.683
562.13	36.842
562.47	38.838
562.81	37.832
563.15	37.110
563.48	36.704
563.82	37.336
564.16	37.010
564.50	35.888
564.84	37.704
565.17	37.053
565.51	36.664
565.85	35.915
566.19	36.882
566.52	37.133
566.86	35.383
567.20	35.595
567.54	34.907
567.88	34.648
568.21	35.229
568.55	34.352
568.89	34.396
569.23	34.086
569.56	33.241
569.90	34.047
570.24	32.742
570.57	32.393
570.91	32.678
571.25	32.576
571.59	31.607
571.92	31.628
572.26	31.348
572.60	31.815
572.93	31.205
573.27	31.278
573.61	31.414
573.95	30.835
574.28	30.566
574.62	29.682
574.96	30.326
575.29	29.763
575.63	29.784
575.97	29.594
576.30	30.798
576.64	30.209
576.98	30.141
577.31	29.896
577.65	29.763
577.98	29.522
578.32	29.457
578.66	30.232
578.99	29.870
579.33	30.069
579.67	29.708
580.00	29.569
580.34	29.969
580.67	28.891
581.01	29.664
581.35	29.017
581.68	28.889
582.02	28.542
582.35	28.439
582.69	28.893
583.02	29.111
583.36	28.911
583.70	29.472
584.03	29.438
584.37	29.746
584.70	29.333
585.04	28.721
585.37	28.546
585.71	28.550
586.04	29.363
586.38	29.365
586.72	29.143
587.05	29.873
587.39	30.319
587.72	29.592
588.06	29.324
588.39	29.185
588.73	29.450
589.06	30.049
589.40	29.708
589.73	29.993
590.07	29.191
590.40	29.735
590.73	30.446
591.07	30.346
591.40	30.014
591.74	29.851
592.07	31.328
592.41	31.115
592.74	30.720
593.08	29.790
593.41	29.448
593.75	29.525
594.08	29.853
594.41	30.256
594.75	30.110
595.08	29.607
595.42	29.178
595.75	29.962
596.09	29.544
596.42	29.683
596.75	31.227
597.09	28.498
597.42	29.986
597.75	30.863
598.09	30.571
598.42	30.573
598.76	30.282
599.09	30.504
599.42	28.796
599.76	29.188
600.09	29.458
600.42	29.336
600.76	28.637
601.09	28.980
601.42	29.791
601.76	29.018
602.09	29.158
602.42	29.917
602.76	29.581
603.09	29.765
603.42	30.153
603.76	29.710
604.09	29.657
604.42	30.743
604.76	29.712
605.09	29.523
605.42	29.289
605.75	29.237
606.09	30.044
606.42	28.959
606.75	29.840
607.09	30.457
607.42	30.014
607.75	29.431
608.08	29.046
608.42	30.359
608.75	29.715
609.08	29.076
609.41	30.689
609.75	30.121
610.08	29.457
610.41	29.517
610.74	29.778
611.07	30.566
611.41	28.640
611.74	29.706
612.07	30.357
612.40	30.195
612.73	30.903
613.07	29.830
613.40	30.650
613.73	31.100
614.06	30.152
614.39	30.463
614.72	29.221
615.06	30.253
615.39	29.099
615.72	29.899
616.05	29.739
616.38	29.478
616.71	29.353
617.05	30.402
617.38	29.548
617.71	30.699
618.04	30.289
618.37	30.085
618.70	31.997
619.03	32.052
619.36	31.075
619.69	30.949
620.03	31.274
620.36	31.746
620.69	31.042
621.02	30.800
621.35	31.660
621.68	32.493
622.01	32.264
622.34	31.072
622.67	32.715
623.00	33.251
623.33	31.654
623.66	30.916
623.99	32.536
624.32	32.407
624.65	31.953
624.99	31.016
625.32	31.517
625.65	29.544
625.98	33.833
626.31	31.861
626.64	32.432
626.97	32.904
627.30	32.870
627.63	33.674
627.96	32.216
628.29	32.983
628.62	34.227
628.95	34.108
629.28	35.021
629.61	32.811
629.94	33.091
630.26	35.042
630.59	35.602
630.92	31.401
631.25	34.413
631.58	34.070
631.91	34.738
632.24	33.728
632.57	36.385
632.90	34.932
633.23	38.065
633.56	34.717
633.89	35.884
634.22	35.256
634.55	34.166
634.88	36.814
635.20	36.712
635.53	35.754
635.86	38.179
636.19	36.153
636.52	35.310
636.85	34.289
637.18	33.808
637.51	34.688
637.83	36.173
638.16	35.846
638.49	35.591
638.82	35.584
639.15	34.857
639.48	37.263
639.81	36.513
640.13	35.375
640.46	36.850
640.79	35.349
641.12	37.519
641.45	34.526
641.77	35.350
642.10	36.808
642.43	39.562
642.76	37.097
643.09	37.370
643.41	37.634
643.74	36.285
644.07	36.508
644.40	37.545
644.73	37.569
645.05	38.931
645.38	37.885
645.71	37.786
646.04	37.175
646.36	36.932
646.69	37.524
647.02	37.109
647.35	42.400
647.67	41.283
648.00	40.000
648.33	38.343
648.66	39.147
648.98	36.102
649.31	37.005
649.64	34.079
649.96	34.291
650.29	33.274
650.62	35.436
650.94	37.893
651.27	39.114
651.60	35.564
651.92	37.214
652.25	32.314
652.58	32.855
652.90	32.740
653.23	35.283
653.56	32.465
653.88	34.854
654.21	37.051
654.54	36.023
654.86	36.511
655.19	34.032
655.52	32.962
655.84	26.366
656.17	24.646
656.49	33.160
656.82	38.036
657.15	29.978
657.47	22.935
657.80	16.709
658.13	14.006
658.45	23.481
658.78	23.429
659.10	23.027
659.43	23.545
659.75	22.486
660.08	24.640
660.41	26.456
660.73	29.640
661.06	33.273
661.38	34.274
661.71	35.449
662.03	35.648
662.36	35.322
662.68	37.410
663.01	37.260
663.33	37.264
663.66	38.995
663.98	35.941
664.31	37.073
664.63	38.073
664.96	37.292
665.28	38.298
665.61	37.383
665.93	34.101
666.26	34.437
666.58	34.404
666.91	37.237
667.23	36.207
667.56	36.790
667.88	33.584
668.21	38.325
668.53	37.817
668.86	35.969
669.18	36.041
669.50	39.589
669.83	38.750
670.15	34.000
670.48	33.083
670.80	37.056
671.13	33.012
671.45	36.224
671.77	36.473
672.10	32.747
672.42	31.474
672.75	33.398
673.07	32.523
673.39	34.047
673.72	33.678
674.04	34.043
674.37	33.718
674.69	34.579
675.01	34.884
675.34	35.049
675.66	34.048
675.98	34.091
676.31	34.509
676.63	34.794
676.95	31.894
677.28	36.386
677.60	35.840
677.92	37.343
678.25	34.107
678.57	34.107
678.89	32.110
679.22	33.486
679.54	32.071
679.86	34.904
680.18	30.544
680.51	29.979
680.83	28.750
681.15	33.987
681.48	32.979
681.80	31.739
682.12	34.904
682.44	31.250
682.77	31.818
683.09	35.539
683.41	34.085
683.73	33.668
684.06	36.548
684.38	32.614
684.70	34.873
685.02	29.654
685.34	28.243
685.67	32.213
685.99	29.341
686.31	29.664
686.63	30.874
686.96	32.724
687.28	31.622
687.60	33.676
687.92	27.848
688.24	32.632
688.56	29.890
688.89	33.105
689.21	29.070
689.53	32.481
689.85	30.633
690.17	30.882
690.49	32.706
690.82	32.432
691.14	32.637
691.46	30.250
691.78	29.187
692.10	33.486
692.42	31.881
692.74	33.886
693.06	32.530
693.39	30.788
693.71	30.930
694.03	29.710
694.35	28.960
694.67	32.570
694.99	31.267
695.31	32.011
695.63	31.081
695.95	34.270
696.27	33.994
696.59	32.938
696.91	34.188
697.23	32.378
697.56	29.275
697.88	29.040
698.20	28.814
698.52	32.212
698.84	28.070
699.16	30.079
699.48	35.602
699.80	29.121
700.12	31.129
700.44	25.959
700.76	33.754
701.08	27.302
701.40	34.868
701.72	34.333
702.04	32.653
702.36	32.787
702.68	35.235
703.00	31.230
703.32	31.437
703.64	32.177
703.96	31.646
704.28	32.042
704.60	32.534
704.91	30.921
705.23	29.123
705.55	29.368
705.87	34.892
706.19	36.653
706.51	31.250
706.83	35.165
707.15	29.831
707.47	32.635
707.79	29.226
708.11	27.513
708.43	30.400
708.74	26.503
709.06	27.607
709.38	29.970
709.70	24.351
710.02	34.266
710.34	27.305
710.66	29.963
710.98	29.720
711.29	34.021
711.61	26.241
711.93	32.584
712.25	27.925
712.57	30.469
712.89	32.245
713.20	31.048
713.52	25.610
713.84	28.102
714.16	31.419
714.48	29.693
714.80	28.620
715.11	31.959
715.43	26.621
715.75	28.421
716.07	29.091
716.39	30.034
716.70	36.000
717.02	30.242
717.34	32.900
717.66	30.455
717.97	25.463
718.29	29.333
718.61	30.180
718.93	31.513
719.24	24.686
719.56	29.018
719.88	26.275
720.20	23.932
720.51	31.579
720.83	29.289
721.15	28.571
721.46	26.582
721.78	26.840
722.10	29.457
722.42	30.870
722.73	25.339
723.05	30.415
723.37	25.792
723.68	28.910
724.00	19.907
724.32	28.037
724.63	31.222
724.95	22.374
725.27	36.620
725.58	27.397
725.90	19.820
726.22	24.891
726.53	27.049
726.85	28.519
727.16	31.174
727.48	29.032
727.80	23.288
728.11	30.667
728.43	30.453
728.74	23.246
729.06	26.638
729.38	27.132
729.69	22.800
730.01	28.033
730.32	23.904
730.64	26.538
730.96	28.571
731.27	21.622
731.59	24.579
731.90	23.684
732.22	23.588
732.53	19.649
732.85	24.648
733.16	29.670
733.48	23.507
733.80	25.818
734.11	24.468
734.43	31.408
734.74	23.364
735.06	26.367
735.37	24.601
735.69	22.535
736.00	27.778
736.32	24.476
736.63	26.667
736.95	20.623
737.26	24.275
737.58	19.343
737.89	21.509
738.21	24.809
738.52	26.230
738.83	22.222
739.15	26.364
739.46	23.423
739.78	21.622
740.09	25.397
740.41	23.864
740.72	20.319
741.04	28.063
741.35	26.457
741.66	26.344
741.98	21.429
742.29	20.725
742.61	24.855
742.92	20.098
743.23	29.851
743.55	30.570
743.86	24.155
744.18	22.000
744.49	20.556
744.80	31.720
745.12	17.949
745.43	25.134
745.74	18.182
746.06	24.713
746.37	22.222
746.68	29.730
747.00	24.862
747.31	29.843
747.62	33.684
747.94	24.057
748.25	23.645
748.56	30.808
748.88	26.776
749.19	25.389
749.50	30.000
749.82	29.000
750.13	23.301
750.44	24.893
750.75	30.800
751.07	23.013
751.38	25.000
751.69	26.587
752.01	26.471
752.32	22.314
752.63	26.201
752.94	21.600
753.26	22.374
753.57	27.488
753.88	25.116
754.19	20.264
754.51	21.339
754.82	19.167
755.13	20.796
755.44	27.273
755.75	21.687
756.07	23.605
756.38	25.523
756.69	19.623
757.00	25.532
757.31	21.799
757.63	22.222
757.94	22.121
758.25	22.619
758.56	24.324
758.87	21.131
759.18	27.414
759.50	24.555
759.81	20.463
760.12	25.623
760.43	27.243
760.74	24.251
761.05	22.115
761.36	21.068
761.67	21.581
761.99	20.736
762.30	20.000
762.61	23.577
762.92	22.222
763.23	22.326
763.54	26.396
763.85	28.507
764.16	19.130
764.47	21.739
764.78	20.565
765.10	18.110
765.41	21.405
765.72	21.070
766.03	21.739
766.34	21.212
766.65	23.047
766.96	24.889
767.27	24.022
767.58	22.642
767.89	20.779
768.20	18.243
768.51	21.839
768.82	15.625
769.13	27.778
769.44	18.396
769.75	16.667
770.06	18.932
770.37	21.277
770.68	19.487
770.99	21.827
771.30	19.072
771.61	14.350
771.92	18.396
772.23	17.788
772.54	22.353
772.85	18.493
773.16	14.839
773.47	21.019
773.78	19.760
774.09	23.026
774.39	19.118
774.70	18.045
775.01	17.692
775.32	17.460
775.63	20.472
775.94	5.660
776.25	13.333
776.56	14.545
776.87	19.658
777.18	21.000
777.48	17.308
777.79	20.370
778.10	17.925
778.41	29.412
778.72	16.038
779.03	18.421
779.34	17.647
779.65	11.972
779.95	23.741
780.26	11.290
780.57	25.362
780.88	15.596
781.19	14.815
781.50	16.393
781.80	16.788
782.11	15.385
782.42	11.034
782.73	18.182
783.04	9.600
783.34	16.000
783.65	16.260
783.96	12.295
784.27	21.008
784.57	14.019
784.88	14.286
785.19	28.866
785.50	11.579
785.81	8.000
786.11	10.891
786.42	-2.353
786.73	19.792
787.04	20.408
787.34	16.667
787.65	25.472
787.96	1.031
788.26	10.891
788.57	16.522
788.88	6.422
789.19	15.702
789.49	8.696
789.80	10.345
790.11	-7.317
790.41	8.989
790.72	13.953
791.03	19.767
791.33	2.597
791.64	20.732
791.95	4.878
792.25	6.024
792.56	7.407
792.87	2.817
793.17	13.253
793.48	5.882
793.79	6.250
794.09	6.667
794.40	6.522
794.70	9.565
795.01	7.339
795.32	17.323
795.62	2.941
795.93	18.627
796.23	8.081
796.54	-3.488
796.85	5.797
797.15	-7.812
797.46	-27.119
797.76	13.115
798.07	3.947
798.37	-1.613
798.68	-3.125
798.99	10.769
799.29	10.606
799.60	4.348
799.90	8.571
800.21	-1.754
800.51	5.172
800.82	13.208
801.12	-5.882
801.43	0.000
801.73	32.258
802.04	2.000
802.34	-3.774
802.65	-31.579
802.95	29.091
803.26	-20.755
803.56	-22.951
803.87	-4.000
804.17	-7.407
804.48	0.000
804.78	-30.612
805.09	-12.766
805.39	22.034
805.70	-16.667
806.00	7.143
806.30	0.000
806.61	12.308
806.91	-9.231
807.22	-10.526
807.52	14.286
807.83	-5.172
808.13	13.924
808.43	1.639
808.74	11.475
809.04	12.162
809.35	-1.852
809.65	-3.571
809.95	16.949
810.26	-20.408
810.56	5.660
810.86	19.608
811.17	-24.324
811.47	-88.889
811.77	3.922
812.08	-4.545
812.38	-41.667
812.69	5.128
812.99	-19.048
813.29	23.913
813.59	0.000
813.90	4.762
814.20	-14.545
814.50	-12.245
814.81	-23.529
815.11	-2.083
815.41	-9.756
815.72	-23.077
816.02	-10.638
816.32	-18.750
816.62	6.061
816.93	-57.576
817.23	-10.811
817.53	-17.647
817.84	20.000
818.14	-23.529
818.44	-9.375
818.74	-90.476
819.04	-20.000
819.35	8.571
819.65	-9.091
819.95	-12.821
820.25	-61.111
820.56	-24.138
820.86	-3.571
821.16	-78.261
821.46	2.381
821.76	-7.407
822.07	-47.826
822.37	-18.367
822.67	-6.977
822.97	-60.870
823.27	-30.769
823.57	-48.148
823.88	-25.000
824.18	2.564
824.48	-17.857
824.78	6.061
825.08	-86.667
825.38	-15.000
825.69	-127.778
825.99	-3.704
826.29	-8.889
826.59	-29.630
826.89	-37.037
827.19	-35.714
827.49	-45.455
827.79	-81.818
828.09	36.364
828.39	-69.565
828.70	-22.222
829.00	-3.571
829.30	-2.381
829.60	-25.806
829.90	-38.462
830.20	0.000
830.50	-118.182
830.80	-38.095
831.10	-105.556
831.40	-121.429
831.70	-51.852
832.00	-111.765
832.30	-8.696
832.60	-16.667
832.90	-163.636
833.20	-88.889
833.50	-9.375
833.80	-30.769
834.10	8.000
834.40	-45.833
834.70	4.545
835.00	-34.615
835.30	-55.000
835.60	-230.000
835.90	-25.000
836.20	-85.714
836.50	-21.739
836.80	-72.222
837.10	-46.667
837.40	-170.000
837.70	-30.435
838.00	-71.429
838.30	1900.000
838.60	20.000
838.90	-320.000
839.19	-111.111
839.49	-1200.000
839.79	-76.471
840.09	-155.556
840.39	14.286
840.69	-94.444
840.99	-83.333
841.29	-41.379
841.59	-113.333
841.88	-72.727
842.18	-250.000
842.48	-12.500
842.78	-15.385
843.08	-88.235
843.38	-50.000
843.68	-153.846
843.97	-70.588
844.27	-190.000
844.57	-45.833
844.87	-36.364
845.17	-73.684
845.47	-94.444
845.76	-36.111
846.06	-61.905
846.36	-57.143
846.66	-233.333
846.96	-55.000
847.25	-280.000
847.55	-125.000
847.85	-133.333
848.15	-450.000
848.44	-42.105
848.74	-60.000
849.04	-15.789
849.34	-366.667
849.63	-200.000
849.93	-35.294
850.23	-154.545
850.53	-433.333
850.82	-60.000
851.12	-244.444
851.42	-200.000
851.71	-320.000
852.01	-14.286
852.31	-600.000
852.61	0.000
852.90	-440.000
853.20	-244.444
853.50	-166.667
853.79	-110.000
854.09	-85.000
854.39	-84.211
854.68	-80.000
854.98	-300.000
855.28	-22.222
855.57	-207.143
855.87	-94.737
856.17	-100.000
856.46	-42.308
856.76	-140.000
857.05	-87.500
857.35	-41.667
857.65	-50.000
857.94	-100.000
858.24	-39.130
858.53	-220.000
858.83	-733.333
859.13	-181.818
859.42	-230.000
859.72	383.333
860.01	-46.154
860.31	-200.000
860.60	-275.000
860.90	-100.000
861.20	-466.667
861.49	-375.000
861.79	1050.000
862.08	-3.226
862.38	-94.737
862.67	23.077
862.97	-160.000
863.26	-133.333
863.56	-65.217
863.85	-266.667
864.15	-85.714
864.44	-56.250
864.74	-191.667
865.03	-177.778
865.33	-566.667
865.62	-1900.000
865.92	-850.000
866.21	-233.333
866.51	-27.273
866.80	-733.333
867.10	-285.714
867.39	-177.778
867.69	-116.667
867.98	260.000
868.27	-550.000
868.57	750.000
868.86	-100.000
869.16	-100.000
869.45	1500.000
869.75	-266.667
870.04	-183.333
870.33	-70.588
870.63	-28.571
870.92	-8.696
871.22	-300.000
871.51	380.000
871.80	-43.750
872.10	-366.667
>>>>>End Processed Spectral Data<<<<<
