SpectraSuite Data File
++++++++++++++++++++++++++++++++++++
Date: Wed May 13 19:15:30 PDT 2015
User: schluterlab
Dark Spectrum Present: Yes
Reference Spectrum Present: Yes
Number of Sampled Component Spectra: 1
Spectrometers: USB2E3373
Integration Time (usec): 3000 (USB2E3373)
Spectra Averaged: 3 (USB2E3373)
Boxcar Smoothing: 0 (USB2E3373)
Correct for Electrical Dark: No (USB2E3373)
Strobe/Lamp Enabled: No (USB2E3373)
Correct for Detector Non-linearity: No (USB2E3373)
Correct for Stray Light: No (USB2E3373)
Number of Pixels in Processed Spectrum: 2048
>>>>>Begin Processed Spectral Data<<<<<
178.53	0.000
178.91	-1550.000
179.29	-1375.000
179.67	-244.444
180.04	-1450.000
180.42	2800.000
180.80	1180.000
181.18	-1025.000
181.56	800.000
181.94	0.000
182.31	-771.429
182.69	1600.000
183.07	-700.000
183.45	-511.111
183.83	563.636
184.20	-420.000
184.58	2800.000
184.96	5100.000
185.34	-820.000
185.72	-712.500
186.09	-3300.000
186.47	2900.000
186.85	2750.000
187.23	5300.000
187.61	-1633.333
187.98	1300.000
188.36	509.091
188.74	536.364
189.12	-1020.000
189.49	680.000
189.87	-5200.000
190.25	-1500.000
190.63	450.000
191.00	476.923
191.38	800.000
191.76	-1200.000
192.14	1375.000
192.51	812.500
192.89	1033.333
193.27	775.000
193.65	-1500.000
194.02	620.000
194.40	1060.000
194.78	570.000
195.15	525.000
195.53	710.000
195.91	-2650.000
196.29	387.500
196.66	352.632
197.04	-480.000
197.42	0.000
197.79	770.000
198.17	-5400.000
198.55	785.714
198.92	887.500
199.30	1100.000
199.68	0.000
200.05	350.000
200.43	971.429
200.81	5500.000
201.18	1966.667
201.56	-1666.667
201.94	644.444
202.31	744.444
202.69	450.000
203.07	680.000
203.44	0.000
203.82	1400.000
204.19	928.571
204.57	457.143
204.95	725.000
205.32	2100.000
205.70	509.091
206.08	435.714
206.45	2750.000
206.83	450.000
207.20	1083.333
207.58	960.000
207.96	333.333
208.33	787.500
208.71	-866.667
209.08	814.286
209.46	822.222
209.84	554.545
210.21	-1866.667
210.59	1525.000
210.96	-600.000
211.34	2700.000
211.71	680.000
212.09	916.667
212.46	0.000
212.84	1866.667
213.22	1250.000
213.59	-5300.000
213.97	966.667
214.34	928.571
214.72	690.909
215.09	1100.000
215.47	-2250.000
215.84	-3350.000
216.22	1900.000
216.59	464.286
216.97	1675.000
217.34	536.364
217.72	-750.000
218.09	0.000
218.47	-5200.000
218.84	666.667
219.22	785.714
219.59	1833.333
219.97	-628.571
220.34	1200.000
220.72	-1733.333
221.09	471.429
221.47	1475.000
221.84	-1033.333
222.22	0.000
222.59	1800.000
222.97	-3050.000
223.34	1260.000
223.72	484.615
224.09	1200.000
224.46	2600.000
224.84	-5000.000
225.21	-1160.000
225.59	-5500.000
225.96	620.000
226.34	385.000
226.71	2950.000
227.08	750.000
227.46	680.000
227.83	-1225.000
228.21	-2750.000
228.58	600.000
228.95	-2250.000
229.33	-2450.000
229.70	2033.333
230.08	928.571
230.45	-1000.000
230.82	533.333
231.20	1050.000
231.57	742.857
231.95	491.667
232.32	295.455
232.69	400.000
233.07	785.714
233.44	415.385
233.81	-1800.000
234.19	315.789
234.56	600.000
234.93	441.667
235.31	627.273
235.68	461.538
236.05	464.286
236.43	187.879
236.80	305.263
237.17	5200.000
237.55	276.190
237.92	250.000
238.29	309.524
238.67	212.903
239.04	265.517
239.41	177.778
239.79	143.478
240.16	192.857
240.53	181.818
240.91	131.373
241.28	136.000
241.65	148.000
242.02	118.841
242.40	138.710
242.77	105.000
243.14	104.301
243.51	87.640
243.89	102.353
244.26	86.667
244.63	96.774
245.00	81.915
245.38	90.099
245.75	86.916
246.12	88.991
246.49	81.752
246.87	84.800
247.24	76.923
247.61	81.429
247.98	71.242
248.36	71.622
248.73	64.968
249.10	71.975
249.47	68.927
249.84	67.380
250.22	64.706
250.59	60.355
250.96	63.636
251.33	57.820
251.70	63.366
252.08	60.952
252.45	58.296
252.82	54.348
253.19	60.426
253.56	57.647
253.94	57.261
254.31	51.953
254.68	55.769
255.05	53.506
255.42	51.220
255.79	54.044
256.16	56.679
256.54	51.590
256.91	54.093
257.28	53.597
257.65	52.475
258.02	54.037
258.39	49.527
258.76	53.846
259.14	50.000
259.51	51.064
259.88	45.342
260.25	48.943
260.62	49.133
260.99	52.795
261.36	53.153
261.73	51.003
262.10	50.000
262.47	52.676
262.85	47.354
263.22	47.009
263.59	52.137
263.96	47.253
264.33	48.825
264.70	50.526
265.07	47.059
265.44	46.717
265.81	44.282
266.18	49.246
266.55	45.610
266.92	47.174
267.29	47.222
267.66	46.560
268.03	46.364
268.40	47.196
268.77	42.482
269.14	43.243
269.51	46.501
269.88	47.086
270.25	42.889
270.62	46.966
270.99	46.882
271.36	45.923
271.73	45.561
272.10	44.783
272.47	46.667
272.84	44.372
273.21	42.977
273.58	42.140
273.95	42.348
274.32	41.529
274.69	44.325
275.06	42.323
275.43	44.468
275.80	42.886
276.17	42.363
276.54	44.699
276.91	43.676
277.28	41.406
277.65	43.907
278.02	44.513
278.39	42.969
278.76	42.000
279.13	40.943
279.50	40.410
279.87	42.231
280.23	42.116
280.60	42.166
280.97	40.850
281.34	41.947
281.71	39.818
282.08	44.146
282.45	39.636
282.82	41.741
283.19	39.572
283.56	38.772
283.92	42.809
284.29	42.504
284.66	41.742
285.03	40.687
285.40	41.197
285.77	39.394
286.14	38.515
286.51	39.667
286.87	39.316
287.24	39.739
287.61	38.202
287.98	39.286
288.35	38.352
288.72	38.318
289.08	36.933
289.45	38.715
289.82	35.935
290.19	35.008
290.56	36.141
290.93	35.498
291.29	34.663
291.66	36.431
292.03	36.773
292.40	36.564
292.77	36.095
293.13	35.373
293.50	34.694
293.87	33.333
294.24	34.667
294.60	34.061
294.97	33.866
295.34	34.979
295.71	33.523
296.08	32.194
296.44	32.050
296.81	31.704
297.18	34.553
297.55	29.024
297.91	29.947
298.28	31.861
298.65	31.854
299.02	31.752
299.38	31.474
299.75	29.515
300.12	32.056
300.48	29.500
300.85	29.593
301.22	30.955
301.59	29.167
301.95	30.605
302.32	30.552
302.69	28.674
303.05	31.152
303.42	28.765
303.79	28.766
304.15	27.855
304.52	28.273
304.89	29.733
305.25	27.958
305.62	29.105
305.99	29.398
306.35	28.076
306.72	27.354
307.09	28.413
307.45	29.279
307.82	27.790
308.19	28.035
308.55	28.047
308.92	28.249
309.29	26.927
309.65	26.299
310.02	28.436
310.38	28.387
310.75	28.617
311.12	27.226
311.48	28.213
311.85	27.463
312.22	26.951
312.58	26.611
312.95	28.617
313.31	27.087
313.68	27.859
314.05	29.191
314.41	27.940
314.78	27.795
315.14	28.103
315.51	28.630
315.87	27.129
316.24	27.805
316.61	27.778
316.97	28.180
317.34	27.202
317.70	29.254
318.07	29.066
318.43	29.452
318.80	29.147
319.16	29.473
319.53	28.330
319.89	30.000
320.26	30.100
320.62	29.067
320.99	29.293
321.35	30.101
321.72	29.671
322.08	30.898
322.45	31.343
322.81	32.364
323.18	33.044
323.54	30.612
323.91	31.321
324.27	30.880
324.64	31.500
325.00	31.199
325.37	33.030
325.73	34.111
326.10	32.215
326.46	33.961
326.83	35.030
327.19	35.013
327.56	33.188
327.92	34.471
328.29	35.404
328.65	34.530
329.01	35.108
329.38	35.060
329.74	35.365
330.11	36.664
330.47	36.364
330.84	37.408
331.20	35.883
331.56	36.514
331.93	36.019
332.29	36.735
332.66	35.929
333.02	36.289
333.38	36.856
333.75	35.829
334.11	36.210
334.48	36.380
334.84	36.489
335.20	37.364
335.57	36.265
335.93	35.179
336.29	36.905
336.66	37.601
337.02	35.566
337.38	36.667
337.75	36.185
338.11	36.974
338.47	37.661
338.84	36.114
339.20	36.330
339.56	37.135
339.93	36.182
340.29	36.141
340.65	35.829
341.02	37.086
341.38	36.655
341.74	37.281
342.11	36.769
342.47	37.445
342.83	35.017
343.20	36.797
343.56	35.383
343.92	36.140
344.28	35.714
344.65	37.919
345.01	35.774
345.37	35.334
345.73	36.548
346.10	36.999
346.46	35.763
346.82	36.409
347.19	36.257
347.55	34.647
347.91	36.084
348.27	36.154
348.63	36.120
349.00	36.246
349.36	35.222
349.72	37.370
350.08	34.522
350.45	36.697
350.81	35.662
351.17	36.062
351.53	35.053
351.89	34.488
352.26	34.807
352.62	36.407
352.98	34.927
353.34	35.744
353.70	34.534
354.07	34.919
354.43	35.397
354.79	33.950
355.15	35.674
355.51	36.051
355.87	36.816
356.24	35.586
356.60	34.804
356.96	35.640
357.32	36.222
357.68	34.488
358.04	35.234
358.40	35.313
358.77	35.055
359.13	34.964
359.49	35.137
359.85	34.206
360.21	35.726
360.57	35.642
360.93	36.615
361.29	34.467
361.66	34.365
362.02	35.373
362.38	35.209
362.74	36.235
363.10	34.789
363.46	35.290
363.82	36.508
364.18	36.050
364.54	35.141
364.90	36.402
365.26	35.368
365.62	36.450
365.98	36.231
366.35	33.954
366.71	36.009
367.07	35.834
367.43	35.994
367.79	36.617
368.15	35.129
368.51	34.956
368.87	35.760
369.23	36.138
369.59	37.075
369.95	36.618
370.31	36.254
370.67	36.884
371.03	36.554
371.39	36.516
371.75	36.838
372.11	34.993
372.47	36.804
372.83	38.256
373.19	35.260
373.55	36.585
373.91	36.672
374.27	35.189
374.63	36.436
374.99	36.370
375.35	36.357
375.71	37.286
376.07	36.900
376.42	38.308
376.78	37.376
377.14	36.974
377.50	37.219
377.86	35.971
378.22	37.042
378.58	36.028
378.94	36.706
379.30	37.405
379.66	36.992
380.02	37.039
380.38	35.944
380.74	37.335
381.09	37.897
381.45	37.984
381.81	37.531
382.17	37.834
382.53	37.044
382.89	38.704
383.25	37.523
383.61	39.033
383.97	38.274
384.32	38.178
384.68	38.042
385.04	37.554
385.40	37.461
385.76	38.391
386.12	39.443
386.48	39.585
386.83	39.897
387.19	39.208
387.55	39.579
387.91	39.178
388.27	38.504
388.62	39.029
388.98	38.882
389.34	39.800
389.70	40.098
390.06	39.544
390.42	40.337
390.77	40.013
391.13	41.417
391.49	40.419
391.85	40.802
392.20	41.009
392.56	40.467
392.92	41.613
393.28	39.882
393.64	39.568
393.99	41.234
394.35	40.819
394.71	40.088
395.07	40.623
395.42	42.274
395.78	40.522
396.14	41.527
396.50	41.479
396.85	41.958
397.21	41.369
397.57	41.662
397.92	42.188
398.28	40.919
398.64	42.593
399.00	43.033
399.35	41.681
399.71	41.609
400.07	41.810
400.42	42.393
400.78	42.702
401.14	43.476
401.49	43.284
401.85	42.589
402.21	42.814
402.57	43.677
402.92	43.884
403.28	44.097
403.63	43.936
403.99	44.268
404.35	44.242
404.70	43.885
405.06	44.205
405.42	45.165
405.77	43.943
406.13	43.905
406.49	44.293
406.84	44.418
407.20	44.208
407.55	45.437
407.91	45.667
408.27	45.756
408.62	44.612
408.98	44.608
409.34	45.203
409.69	46.000
410.05	44.796
410.40	45.627
410.76	45.102
411.11	46.622
411.47	46.134
411.83	47.037
412.18	46.568
412.54	46.326
412.89	46.807
413.25	45.396
413.60	46.819
413.96	46.448
414.31	47.145
414.67	47.085
415.03	47.417
415.38	47.938
415.74	47.781
416.09	49.641
416.45	47.189
416.80	48.579
417.16	48.995
417.51	48.507
417.87	47.335
418.22	50.032
418.58	49.128
418.93	48.157
419.29	49.777
419.64	49.685
420.00	47.683
420.35	48.928
420.71	48.775
421.06	48.508
421.42	48.947
421.77	50.280
422.12	48.961
422.48	48.084
422.83	49.971
423.19	49.503
423.54	49.507
423.90	50.145
424.25	49.135
424.61	49.881
424.96	50.437
425.31	50.388
425.67	49.551
426.02	50.514
426.38	50.733
426.73	50.380
427.09	51.429
427.44	51.294
427.79	51.006
428.15	51.964
428.50	51.551
428.85	51.371
429.21	51.629
429.56	51.581
429.92	51.183
430.27	51.291
430.62	50.845
430.98	51.012
431.33	51.082
431.68	52.461
432.04	51.491
432.39	51.799
432.74	52.124
433.10	53.650
433.45	53.236
433.80	53.215
434.16	53.579
434.51	52.368
434.86	53.136
435.22	53.085
435.57	54.103
435.92	54.242
436.28	54.626
436.63	53.201
436.98	55.238
437.34	54.144
437.69	55.543
438.04	54.188
438.39	55.045
438.75	55.840
439.10	55.475
439.45	55.667
439.81	55.227
440.16	55.280
440.51	56.473
440.86	56.977
441.22	55.395
441.57	57.272
441.92	55.988
442.27	55.920
442.63	56.345
442.98	57.859
443.33	56.793
443.68	56.686
444.03	56.857
444.39	56.037
444.74	57.684
445.09	56.927
445.44	56.698
445.79	57.001
446.15	57.067
446.50	57.027
446.85	57.297
447.20	57.726
447.55	59.966
447.91	57.363
448.26	58.097
448.61	56.246
448.96	58.915
449.31	59.505
449.66	57.625
450.02	57.159
450.37	57.880
450.72	58.094
451.07	57.526
451.42	57.508
451.77	59.307
452.12	58.603
452.47	58.458
452.83	59.790
453.18	57.152
453.53	60.049
453.88	59.185
454.23	58.577
454.58	59.903
454.93	61.157
455.28	58.479
455.63	60.983
455.98	61.131
456.34	59.485
456.69	59.549
457.04	59.567
457.39	59.556
457.74	59.489
458.09	59.459
458.44	59.179
458.79	58.026
459.14	58.860
459.49	58.903
459.84	59.889
460.19	58.986
460.54	58.796
460.89	59.572
461.24	60.049
461.59	59.849
461.94	59.618
462.29	60.712
462.64	58.839
462.99	58.751
463.34	60.267
463.69	61.351
464.04	60.000
464.39	59.246
464.74	59.418
465.09	60.495
465.44	59.058
465.79	59.340
466.14	58.019
466.49	59.566
466.84	59.837
467.19	58.841
467.54	61.375
467.89	59.844
468.24	59.395
468.59	61.722
468.94	59.927
469.29	61.632
469.64	61.981
469.99	62.991
470.34	61.096
470.68	63.218
471.03	61.293
471.38	63.308
471.73	61.559
472.08	61.842
472.43	61.307
472.78	62.146
473.13	60.270
473.48	60.924
473.83	62.012
474.17	61.357
474.52	62.531
474.87	62.814
475.22	62.507
475.57	61.150
475.92	60.754
476.27	61.894
476.61	61.831
476.96	62.287
477.31	60.911
477.66	62.144
478.01	60.115
478.36	62.084
478.70	60.332
479.05	61.715
479.40	63.408
479.75	61.769
480.10	61.282
480.45	60.590
480.79	61.013
481.14	60.029
481.49	61.699
481.84	61.317
482.19	60.927
482.53	60.000
482.88	61.052
483.23	61.449
483.58	60.828
483.92	61.106
484.27	58.301
484.62	61.250
484.97	59.716
485.31	61.233
485.66	58.850
486.01	57.940
486.36	55.575
486.70	54.612
487.05	55.638
487.40	58.478
487.75	58.269
488.09	59.023
488.44	60.374
488.79	61.591
489.13	61.154
489.48	61.175
489.83	60.380
490.17	61.420
490.52	60.452
490.87	60.923
491.22	59.891
491.56	58.907
491.91	60.168
492.26	58.980
492.60	60.461
492.95	58.980
493.30	60.421
493.64	60.943
493.99	60.446
494.34	60.361
494.68	60.623
495.03	60.620
495.37	59.842
495.72	61.647
496.07	61.624
496.41	59.292
496.76	60.730
497.11	59.478
497.45	59.851
497.80	60.940
498.14	61.739
498.49	61.122
498.84	61.218
499.18	61.000
499.53	61.064
499.87	61.137
500.22	60.198
500.56	61.699
500.91	60.433
501.26	60.977
501.60	62.981
501.95	60.770
502.29	61.668
502.64	62.849
502.98	61.664
503.33	61.426
503.67	62.738
504.02	62.114
504.36	61.628
504.71	63.605
505.06	62.313
505.40	62.372
505.75	60.222
506.09	62.488
506.44	63.098
506.78	62.884
507.13	65.068
507.47	63.434
507.82	63.830
508.16	64.134
508.51	64.434
508.85	63.605
509.19	64.592
509.54	64.235
509.88	64.709
510.23	65.193
510.57	65.789
510.92	65.251
511.26	64.440
511.61	65.041
511.95	64.353
512.30	64.846
512.64	65.771
512.98	66.935
513.33	67.291
513.67	64.674
514.02	65.639
514.36	66.903
514.70	65.689
515.05	66.592
515.39	67.863
515.74	68.468
516.08	68.530
516.42	69.922
516.77	68.004
517.11	67.869
517.46	69.413
517.80	68.699
518.14	68.558
518.49	69.545
518.83	69.261
519.17	69.400
519.52	69.327
519.86	69.595
520.20	69.942
520.55	72.113
520.89	72.506
521.23	70.446
521.58	70.108
521.92	71.157
522.26	71.080
522.61	71.028
522.95	70.227
523.29	71.211
523.64	72.073
523.98	72.582
524.32	71.592
524.66	72.279
525.01	71.078
525.35	70.694
525.69	70.567
526.04	72.150
526.38	71.629
526.72	71.043
527.06	72.505
527.41	69.678
527.75	73.505
528.09	73.539
528.43	72.913
528.78	73.018
529.12	73.697
529.46	72.321
529.80	74.257
530.15	72.336
530.49	71.200
530.83	72.215
531.17	74.674
531.51	75.357
531.86	74.258
532.20	74.511
532.54	74.119
532.88	73.620
533.22	71.455
533.57	72.346
533.91	73.691
534.25	72.661
534.59	72.849
534.93	72.338
535.27	72.903
535.62	71.795
535.96	74.011
536.30	72.092
536.64	72.634
536.98	73.988
537.32	72.679
537.66	74.400
538.01	74.786
538.35	73.950
538.69	74.729
539.03	72.840
539.37	72.907
539.71	71.743
540.05	73.137
540.39	73.355
540.73	72.768
541.07	73.199
541.42	73.451
541.76	74.065
542.10	73.609
542.44	73.775
542.78	74.506
543.12	71.465
543.46	74.164
543.80	72.999
544.14	72.657
544.48	73.333
544.82	72.931
545.16	74.821
545.50	72.301
545.84	73.925
546.18	75.286
546.52	73.985
546.86	72.921
547.20	74.174
547.54	72.879
547.88	73.023
548.22	72.229
548.56	72.201
548.90	72.279
549.24	74.545
549.58	73.124
549.92	71.909
550.26	74.929
550.60	73.928
550.94	74.085
551.28	74.323
551.62	75.126
551.96	74.737
552.30	73.311
552.64	75.186
552.98	74.102
553.32	72.623
553.66	72.052
554.00	73.850
554.34	73.430
554.68	74.464
555.02	73.131
555.36	73.765
555.69	72.936
556.03	74.361
556.37	74.011
556.71	72.920
557.05	74.230
557.39	73.618
557.73	73.042
558.07	74.909
558.41	75.253
558.75	74.871
559.08	74.944
559.42	76.795
559.76	74.338
560.10	72.877
560.44	73.235
560.78	72.854
561.12	73.153
561.45	71.904
561.79	73.566
562.13	72.368
562.47	73.566
562.81	73.291
563.15	72.642
563.48	72.679
563.82	71.689
564.16	73.381
564.50	72.786
564.84	71.997
565.17	72.008
565.51	72.588
565.85	72.018
566.19	71.509
566.52	72.768
566.86	70.826
567.20	71.934
567.54	72.831
567.88	70.559
568.21	70.847
568.55	68.908
568.89	69.844
569.23	68.806
569.56	67.449
569.90	67.698
570.24	68.497
570.57	66.202
570.91	66.128
571.25	65.967
571.59	66.156
571.92	66.532
572.26	67.158
572.60	66.877
572.93	66.747
573.27	66.815
573.61	65.885
573.95	66.279
574.28	65.678
574.62	65.500
574.96	64.875
575.29	65.107
575.63	64.837
575.97	65.504
576.30	65.905
576.64	66.111
576.98	65.775
577.31	65.527
577.65	65.798
577.98	64.656
578.32	65.131
578.66	64.654
578.99	65.693
579.33	65.868
579.67	65.118
580.00	65.356
580.34	65.591
580.67	65.115
581.01	65.213
581.35	64.799
581.68	65.650
582.02	63.547
582.35	65.136
582.69	64.942
583.02	64.658
583.36	65.829
583.70	66.983
584.03	66.484
584.37	66.535
584.70	66.614
585.04	66.047
585.37	65.377
585.71	65.789
586.04	65.161
586.38	66.850
586.72	66.363
587.05	66.096
587.39	64.565
587.72	67.070
588.06	65.635
588.39	65.816
588.73	66.500
589.06	66.500
589.40	67.374
589.73	67.934
590.07	66.584
590.40	66.569
590.73	68.072
591.07	68.132
591.40	68.326
591.74	68.615
592.07	67.365
592.41	68.086
592.74	66.667
593.08	65.390
593.41	66.498
593.75	64.585
594.08	64.465
594.41	65.995
594.75	66.285
595.08	66.535
595.42	66.865
595.75	66.489
596.09	67.856
596.42	67.191
596.75	67.708
597.09	67.403
597.42	66.105
597.75	67.529
598.09	66.043
598.42	66.667
598.76	66.153
599.09	65.412
599.42	64.156
599.76	66.325
600.09	64.736
600.42	65.230
600.76	65.214
601.09	64.918
601.42	66.819
601.76	66.110
602.09	66.561
602.42	67.038
602.76	67.110
603.09	66.090
603.42	65.521
603.76	66.082
604.09	65.452
604.42	66.368
604.76	66.639
605.09	66.361
605.42	65.669
605.75	65.977
606.09	66.816
606.42	65.550
606.75	65.118
607.09	65.843
607.42	65.939
607.75	65.949
608.08	64.394
608.42	66.024
608.75	65.645
609.08	65.726
609.41	67.396
609.75	66.031
610.08	66.541
610.41	66.899
610.74	66.367
611.07	67.737
611.41	66.683
611.74	67.119
612.07	67.702
612.40	66.946
612.73	66.632
613.07	67.403
613.40	67.404
613.73	65.705
614.06	67.903
614.39	65.286
614.72	66.526
615.06	65.756
615.39	66.348
615.72	65.593
616.05	65.497
616.38	66.926
616.71	68.468
617.05	68.551
617.38	67.108
617.71	69.249
618.04	68.089
618.37	66.824
618.70	67.642
619.03	69.145
619.36	68.771
619.69	69.366
620.03	71.841
620.36	68.115
620.69	68.836
621.02	68.953
621.35	69.851
621.68	67.212
622.01	69.814
622.34	68.154
622.67	67.985
623.00	67.718
623.33	67.620
623.66	69.478
623.99	68.115
624.32	67.689
624.65	67.302
624.99	67.422
625.32	67.994
625.65	68.144
625.98	69.408
626.31	67.574
626.64	70.122
626.97	69.327
627.30	68.412
627.63	69.647
627.96	69.638
628.29	70.691
628.62	68.161
628.95	70.000
629.28	71.168
629.61	70.486
629.94	72.667
630.26	70.448
630.59	69.113
630.92	69.636
631.25	69.694
631.58	72.272
631.91	71.907
632.24	70.253
632.57	70.304
632.90	68.640
633.23	71.141
633.56	71.186
633.89	72.027
634.22	72.645
634.55	74.201
634.88	72.814
635.20	72.401
635.53	72.289
635.86	74.752
636.19	71.765
636.52	69.781
636.85	71.019
637.18	69.240
637.51	73.641
637.83	69.174
638.16	72.890
638.49	70.529
638.82	72.314
639.15	72.500
639.48	72.569
639.81	73.861
640.13	71.224
640.46	71.409
640.79	71.466
641.12	71.664
641.45	73.184
641.77	75.110
642.10	72.368
642.43	71.922
642.76	74.613
643.09	73.620
643.41	73.293
643.74	72.994
644.07	75.152
644.40	76.227
644.73	74.803
645.05	73.534
645.38	73.144
645.71	71.981
646.04	75.748
646.36	76.628
646.69	75.920
647.02	76.020
647.35	72.337
647.67	76.637
648.00	72.195
648.33	73.102
648.66	70.455
648.98	74.063
649.31	70.703
649.64	75.486
649.96	70.343
650.29	74.724
650.62	73.463
650.94	71.313
651.27	73.986
651.60	75.374
651.92	70.767
652.25	70.358
652.58	73.832
652.90	73.460
653.23	72.265
653.56	73.071
653.88	70.365
654.21	73.144
654.54	73.762
654.86	71.340
655.19	67.703
655.52	51.046
655.84	48.511
656.17	63.717
656.49	86.177
656.82	88.109
657.15	67.130
657.47	50.212
657.80	38.994
658.13	40.806
658.45	61.132
658.78	61.783
659.10	64.456
659.43	68.312
659.75	70.567
660.08	75.886
660.41	80.168
660.73	79.797
661.06	76.274
661.38	78.000
661.71	77.885
662.03	77.120
662.36	73.956
662.68	75.502
663.01	73.333
663.33	73.673
663.66	76.681
663.98	73.434
664.31	75.420
664.63	73.077
664.96	70.221
665.28	75.410
665.61	69.201
665.93	74.648
666.26	73.834
666.58	75.732
666.91	73.784
667.23	76.180
667.56	72.354
667.88	76.068
668.21	71.855
668.53	75.054
668.86	72.944
669.18	73.774
669.50	74.565
669.83	77.342
670.15	74.667
670.48	73.638
670.80	74.353
671.13	72.187
671.45	73.404
671.77	72.098
672.10	69.316
672.42	70.318
672.75	70.315
673.07	70.951
673.39	70.886
673.72	72.656
674.04	72.157
674.37	71.456
674.69	70.348
675.01	73.222
675.34	70.021
675.66	75.158
675.98	72.505
676.31	72.899
676.63	71.338
676.95	68.973
677.28	75.000
677.60	72.308
677.92	73.629
678.25	70.637
678.57	70.518
678.89	70.942
679.22	71.316
679.54	70.229
679.86	68.440
680.18	68.873
680.51	65.957
680.83	68.327
681.15	72.075
681.48	69.754
681.80	69.439
682.12	68.966
682.44	68.859
682.77	71.690
683.09	74.678
683.41	73.171
683.73	70.861
684.06	71.488
684.38	67.710
684.70	68.798
685.02	67.355
685.34	68.315
685.67	66.608
685.99	67.354
686.31	66.724
686.63	64.841
686.96	68.750
687.28	68.231
687.60	66.304
687.92	67.642
688.24	71.673
688.56	68.876
688.89	71.992
689.21	73.799
689.53	71.399
689.85	71.397
690.17	66.667
690.49	69.427
690.82	72.196
691.14	70.982
691.46	65.190
691.78	67.068
692.10	71.074
692.42	69.261
692.74	67.842
693.06	71.064
693.39	70.021
693.71	72.052
694.03	68.000
694.35	68.831
694.67	69.794
694.99	70.976
695.31	72.304
695.63	71.770
695.95	74.083
696.27	70.305
696.59	71.503
696.91	70.984
697.23	65.728
697.56	65.672
697.88	63.395
698.20	68.125
698.52	67.957
698.84	67.706
699.16	67.972
699.48	70.546
699.80	71.256
700.12	74.545
700.44	71.883
700.76	71.823
701.08	71.264
701.40	68.436
701.72	74.927
702.04	75.852
702.36	68.555
702.68	69.972
703.00	74.238
703.32	69.947
703.64	67.560
703.96	74.373
704.28	72.093
704.60	70.674
704.91	72.700
705.23	71.554
705.55	80.731
705.87	78.073
706.19	74.558
706.51	72.274
706.83	71.818
707.15	71.709
707.47	66.667
707.79	68.796
708.11	68.265
708.43	67.381
708.74	67.347
709.06	69.870
709.38	69.554
709.70	74.128
710.02	73.294
710.34	73.333
710.66	74.030
710.98	71.591
711.29	69.477
711.61	70.206
711.93	74.679
712.25	71.383
712.57	80.882
712.89	76.817
713.20	67.173
713.52	72.697
713.84	71.519
714.16	67.683
714.48	69.540
714.80	75.380
715.11	68.300
715.43	71.217
715.75	70.145
716.07	74.760
716.39	70.846
716.70	75.415
717.02	76.259
717.34	75.972
717.66	75.373
717.97	83.267
718.29	75.556
718.61	76.277
718.93	77.941
719.24	77.855
719.56	69.153
719.88	72.881
720.20	75.000
720.51	71.429
720.83	78.067
721.15	75.746
721.46	70.922
721.78	76.344
722.10	76.604
722.42	77.444
722.73	74.532
723.05	80.328
723.37	74.899
723.68	73.359
724.00	75.203
724.32	77.823
724.63	78.049
724.95	74.895
725.27	75.709
725.58	75.391
725.90	70.803
726.22	73.208
726.53	72.569
726.85	66.894
727.16	80.071
727.48	72.340
727.80	72.348
728.11	73.913
728.43	69.231
728.74	71.326
729.06	72.993
729.38	71.324
729.69	70.463
730.01	67.918
730.32	71.181
730.64	65.217
730.96	67.657
731.27	70.199
731.59	69.725
731.90	66.764
732.22	67.081
732.53	62.848
732.85	70.192
733.16	72.990
733.48	69.767
733.80	67.857
734.11	71.019
734.43	68.047
734.74	68.286
735.06	67.622
735.37	67.630
735.69	66.242
736.00	72.549
736.32	66.667
736.63	63.578
736.95	70.927
737.26	62.585
737.58	67.419
737.89	66.221
738.21	70.648
738.52	67.500
738.83	68.302
739.15	73.462
739.46	71.533
739.78	74.306
740.09	66.769
740.41	67.097
740.72	66.899
741.04	75.926
741.35	74.167
741.66	79.111
741.98	78.774
742.29	79.904
742.61	77.155
742.92	74.661
743.23	74.786
743.55	73.200
743.86	75.000
744.18	78.319
744.49	76.555
744.80	82.160
745.12	77.273
745.43	69.604
745.74	80.631
746.06	72.018
746.37	76.233
746.68	73.756
747.00	75.926
747.31	74.286
747.62	73.894
747.94	74.890
748.25	73.191
748.56	75.771
748.88	77.228
749.19	77.500
749.50	77.674
749.82	66.260
750.13	73.061
750.44	67.518
750.75	71.930
751.07	67.203
751.38	71.429
751.69	68.592
752.01	71.805
752.32	65.704
752.63	67.376
752.94	70.902
753.26	76.800
753.57	64.228
753.88	68.359
754.19	65.000
754.51	68.750
754.82	68.592
755.13	72.075
755.44	65.789
755.75	67.518
756.07	63.475
756.38	68.613
756.69	64.430
757.00	60.778
757.31	59.941
757.63	61.404
757.94	58.713
758.25	56.373
758.56	58.272
758.87	61.022
759.18	63.636
759.50	64.577
759.81	59.502
760.12	61.562
760.43	63.037
760.74	60.054
761.05	63.842
761.36	61.765
761.67	61.932
761.99	58.696
762.30	68.056
762.61	63.740
762.92	67.187
763.23	70.168
763.54	68.800
763.85	67.969
764.16	71.538
764.47	67.681
764.78	63.958
765.10	63.291
765.41	60.767
765.72	60.778
766.03	62.382
766.34	61.333
766.65	72.766
766.96	69.231
767.27	79.695
767.58	72.917
767.89	74.737
768.20	74.138
768.51	73.096
768.82	71.560
769.13	64.634
769.44	64.777
769.75	64.807
770.06	68.349
770.37	69.683
770.68	75.000
770.99	70.667
771.30	64.754
771.61	70.404
771.92	68.852
772.23	70.168
772.54	79.487
772.85	69.110
773.16	77.128
773.47	73.913
773.78	72.589
774.09	85.714
774.39	78.947
774.70	75.309
775.01	86.957
775.32	87.582
775.63	78.947
775.94	81.295
776.25	91.339
776.56	87.313
776.87	94.262
777.18	87.500
777.48	94.656
777.79	84.091
778.10	81.481
778.41	97.321
778.72	79.562
779.03	74.497
779.34	87.919
779.65	76.351
779.95	74.847
780.26	84.967
780.57	88.276
780.88	89.062
781.19	80.451
781.50	87.162
781.80	85.535
782.11	75.706
782.42	79.747
782.73	82.209
783.04	84.459
783.34	87.324
783.65	92.466
783.96	81.343
784.27	83.916
784.57	85.612
784.88	91.667
785.19	100.000
785.50	91.509
785.81	90.299
786.11	99.180
786.42	83.721
786.73	89.381
787.04	103.774
787.34	91.964
787.65	111.000
787.96	91.892
788.26	90.083
788.57	95.763
788.88	90.083
789.19	80.556
789.49	91.667
789.80	87.786
790.11	100.000
790.41	111.881
790.72	108.434
791.03	109.783
791.33	108.140
791.64	109.278
791.95	100.990
792.25	102.222
792.56	115.584
792.87	129.487
793.17	131.646
793.48	111.494
793.79	116.092
794.09	103.409
794.40	92.437
794.70	91.912
795.01	76.296
795.32	77.698
795.62	94.488
795.93	87.069
796.23	96.460
796.54	101.176
796.85	109.459
797.15	130.986
797.46	121.212
797.76	118.072
798.07	102.532
798.37	120.000
798.68	121.212
798.99	116.901
799.29	112.987
799.60	102.273
799.90	123.288
800.21	138.806
800.51	139.655
800.82	147.368
801.12	147.541
801.43	134.848
801.73	109.459
802.04	126.984
802.34	117.284
802.65	121.875
802.95	149.153
803.26	146.875
803.56	117.143
803.87	103.077
804.17	122.059
804.48	159.259
804.78	120.690
805.09	119.118
805.39	128.846
805.70	125.000
806.00	136.066
806.30	110.606
806.61	112.195
806.91	101.266
807.22	109.211
807.52	114.925
807.83	121.127
808.13	131.250
808.43	130.000
808.74	107.895
809.04	120.290
809.35	123.881
809.65	121.053
809.95	117.742
810.26	137.288
810.56	138.095
810.86	168.182
811.17	185.714
811.47	150.000
811.77	133.333
812.08	145.455
812.38	162.000
812.69	194.444
812.99	200.000
813.29	175.510
813.59	164.286
813.90	163.265
814.20	114.545
814.50	106.154
814.81	126.471
815.11	144.898
815.41	136.066
815.72	192.857
816.02	147.273
816.32	180.952
816.62	162.500
816.93	173.171
817.23	178.571
817.53	143.182
817.84	215.152
818.14	158.696
818.44	175.556
818.74	200.000
819.04	160.000
819.35	185.714
819.65	211.765
819.95	203.571
820.25	360.000
820.56	217.949
820.86	168.182
821.16	167.442
821.46	179.487
821.76	164.000
822.07	217.143
822.37	187.500
822.67	215.152
822.97	149.020
823.27	260.714
823.57	191.892
823.88	182.500
824.18	240.000
824.48	188.095
824.78	260.000
825.08	254.167
825.38	181.081
825.69	151.220
825.99	270.833
826.29	217.241
826.59	186.842
826.89	184.211
827.19	205.882
827.49	229.032
827.79	172.727
828.09	179.545
828.39	161.702
828.70	175.510
829.00	255.556
829.30	225.806
829.60	185.000
829.90	406.667
830.20	282.143
830.50	278.261
830.80	291.304
831.10	236.667
831.40	216.667
831.70	226.087
832.00	273.077
832.30	259.259
832.60	400.000
832.90	223.333
833.20	550.000
833.50	219.355
833.80	237.931
834.10	225.000
834.40	284.615
834.70	361.111
835.00	380.952
835.30	174.286
835.60	315.385
835.90	272.414
836.20	407.143
836.50	251.724
836.80	252.000
837.10	230.556
837.40	338.095
837.70	394.118
838.00	259.259
838.30	271.429
838.60	385.714
838.90	296.154
839.19	335.000
839.49	478.571
839.79	385.000
840.09	305.000
840.39	342.857
840.69	247.826
840.99	338.889
841.29	610.000
841.59	450.000
841.88	362.500
842.18	220.690
842.48	328.571
842.78	230.000
843.08	243.478
843.38	250.000
843.68	966.667
843.97	269.231
844.27	224.138
844.57	285.714
844.87	393.750
845.17	233.333
845.47	1900.000
845.76	600.000
846.06	382.353
846.36	700.000
846.66	521.429
846.96	387.500
847.25	490.909
847.55	572.727
847.85	269.565
848.15	700.000
848.44	421.429
848.74	350.000
849.04	364.706
849.34	570.000
849.63	342.105
849.93	627.273
850.23	1180.000
850.53	457.143
850.82	2850.000
851.12	-5600.000
851.42	5800.000
851.71	270.000
852.01	-1666.667
852.31	295.833
852.61	2033.333
852.90	323.810
853.20	240.000
853.50	417.647
853.79	319.048
854.09	237.500
854.39	350.000
854.68	194.595
854.98	245.161
855.28	230.000
855.57	237.931
855.87	237.037
856.17	326.316
856.46	320.000
856.76	300.000
857.05	262.069
857.35	291.667
857.65	440.000
857.94	269.565
858.24	246.154
858.53	320.000
858.83	268.182
859.13	380.000
859.42	0.000
859.72	622.222
860.01	572.727
860.31	259.091
860.60	336.842
860.90	278.261
861.20	700.000
861.49	550.000
861.79	-6000.000
862.08	662.500
862.38	304.762
862.67	430.769
862.97	400.000
863.26	633.333
863.56	288.889
863.85	500.000
864.15	600.000
864.44	433.333
864.74	1050.000
865.03	787.500
865.33	336.842
865.62	509.091
865.92	484.615
866.21	416.667
866.51	0.000
866.80	600.000
867.10	1460.000
867.39	423.077
867.69	509.091
867.98	347.368
868.27	554.545
868.57	347.368
868.86	-4900.000
869.16	375.000
869.45	2400.000
869.75	-4800.000
870.04	500.000
870.33	842.857
870.63	1125.000
870.92	3000.000
871.22	842.857
871.51	435.294
871.80	247.619
872.10	457.143
>>>>>End Processed Spectral Data<<<<<
