SpectraSuite Data File
++++++++++++++++++++++++++++++++++++
Date: Wed May 13 19:30:39 PDT 2015
User: schluterlab
Dark Spectrum Present: Yes
Reference Spectrum Present: Yes
Number of Sampled Component Spectra: 1
Spectrometers: USB2E3373
Integration Time (usec): 3000 (USB2E3373)
Spectra Averaged: 3 (USB2E3373)
Boxcar Smoothing: 0 (USB2E3373)
Correct for Electrical Dark: No (USB2E3373)
Strobe/Lamp Enabled: No (USB2E3373)
Correct for Detector Non-linearity: No (USB2E3373)
Correct for Stray Light: No (USB2E3373)
Number of Pixels in Processed Spectrum: 2048
>>>>>Begin Processed Spectral Data<<<<<
178.53	0.000
178.91	-1450.000
179.29	-1300.000
179.67	-316.667
180.04	-1200.000
180.42	2850.000
180.80	1380.000
181.18	-1275.000
181.56	757.143
181.94	0.000
182.31	-728.571
182.69	1766.667
183.07	-575.000
183.45	-511.111
183.83	590.909
184.20	-320.000
184.58	2350.000
184.96	6100.000
185.34	-1100.000
185.72	-500.000
186.09	-2200.000
186.47	2750.000
186.85	2750.000
187.23	5400.000
187.61	-1666.667
187.98	1350.000
188.36	536.364
188.74	527.273
189.12	-960.000
189.49	590.000
189.87	-4700.000
190.25	-1550.000
190.63	442.857
191.00	430.769
191.38	933.333
191.76	-1250.000
192.14	1675.000
192.51	687.500
192.89	1000.000
193.27	512.500
193.65	-1125.000
194.02	530.000
194.40	1020.000
194.78	660.000
195.15	541.667
195.53	660.000
195.91	-2450.000
196.29	362.500
196.66	347.368
197.04	-340.000
197.42	0.000
197.79	630.000
198.17	-6100.000
198.55	828.571
198.92	800.000
199.30	940.000
199.68	0.000
200.05	361.111
200.43	871.429
200.81	4800.000
201.18	1833.333
201.56	-1600.000
201.94	611.111
202.31	622.222
202.69	500.000
203.07	580.000
203.44	0.000
203.82	1250.000
204.19	885.714
204.57	428.571
204.95	662.500
205.32	1600.000
205.70	581.818
206.08	350.000
206.45	3050.000
206.83	425.000
207.20	933.333
207.58	760.000
207.96	350.000
208.33	800.000
208.71	-883.333
209.08	828.571
209.46	666.667
209.84	490.909
210.21	-1466.667
210.59	1575.000
210.96	-550.000
211.34	2350.000
211.71	610.000
212.09	1033.333
212.46	0.000
212.84	1933.333
213.22	1375.000
213.59	-4700.000
213.97	866.667
214.34	642.857
214.72	618.182
215.09	820.000
215.47	-2550.000
215.84	-2700.000
216.22	1933.333
216.59	378.571
216.97	1400.000
217.34	545.455
217.72	-733.333
218.09	0.000
218.47	-5400.000
218.84	755.556
219.22	857.143
219.59	2033.333
219.97	-700.000
220.34	980.000
220.72	-1466.667
221.09	392.857
221.47	1400.000
221.84	-866.667
222.22	0.000
222.59	1600.000
222.97	-2200.000
223.34	1340.000
223.72	461.538
224.09	1140.000
224.46	1850.000
224.84	-6500.000
225.21	-1060.000
225.59	-6300.000
225.96	660.000
226.34	260.000
226.71	3150.000
227.08	700.000
227.46	630.000
227.83	-1400.000
228.21	-2700.000
228.58	700.000
228.95	-2750.000
229.33	-2550.000
229.70	1733.333
230.08	814.286
230.45	-1020.000
230.82	475.000
231.20	900.000
231.57	685.714
231.95	550.000
232.32	309.091
232.69	481.818
233.07	757.143
233.44	446.154
233.81	-2033.333
234.19	268.421
234.56	466.667
234.93	441.667
235.31	518.182
235.68	415.385
236.05	414.286
236.43	178.788
236.80	284.211
237.17	5500.000
237.55	266.667
237.92	242.857
238.29	300.000
238.67	203.226
239.04	251.724
239.41	194.444
239.79	152.174
240.16	183.333
240.53	134.091
240.91	129.412
241.28	108.000
241.65	118.000
242.02	127.536
242.40	122.581
242.77	116.667
243.14	98.925
243.51	102.247
243.89	95.294
244.26	90.000
244.63	91.398
245.00	95.745
245.38	83.168
245.75	77.570
246.12	69.725
246.49	72.263
246.87	80.000
247.24	75.385
247.61	78.571
247.98	73.203
248.36	58.784
248.73	67.516
249.10	73.248
249.47	64.972
249.84	65.241
250.22	63.636
250.59	69.231
250.96	63.131
251.33	63.507
251.70	62.871
252.08	59.524
252.45	60.090
252.82	58.261
253.19	57.447
253.56	53.725
253.94	59.751
254.31	55.859
254.68	54.231
255.05	57.565
255.42	57.724
255.79	49.265
256.16	54.874
256.54	51.237
256.91	52.669
257.28	47.842
257.65	53.465
258.02	53.416
258.39	47.003
258.76	50.502
259.14	50.893
259.51	49.848
259.88	46.273
260.25	48.943
260.62	48.844
260.99	49.379
261.36	51.652
261.73	49.284
262.10	48.837
262.47	49.577
262.85	45.404
263.22	45.299
263.59	48.718
263.96	47.253
264.33	43.342
264.70	48.684
265.07	47.315
265.44	50.253
265.81	46.715
266.18	46.985
266.55	46.341
266.92	45.700
267.29	48.380
267.66	44.037
268.03	46.364
268.40	45.561
268.77	43.198
269.14	43.018
269.51	46.501
269.88	45.688
270.25	43.567
270.62	46.292
270.99	45.376
271.36	46.781
271.73	46.028
272.10	43.696
272.47	44.731
272.84	43.506
273.21	42.977
273.58	44.978
273.95	44.235
274.32	40.289
274.69	45.824
275.06	40.354
275.43	41.915
275.80	40.882
276.17	42.770
276.54	42.827
276.91	41.897
277.28	41.797
277.65	43.907
278.02	42.029
278.39	42.969
278.76	40.364
279.13	43.208
279.50	42.272
279.87	43.227
280.23	44.311
280.60	42.553
280.97	41.959
281.34	40.708
281.71	39.818
282.08	40.499
282.45	39.455
282.82	41.385
283.19	38.503
283.56	37.719
283.92	40.778
284.29	40.564
284.66	40.835
285.03	40.325
285.40	39.789
285.77	40.572
286.14	41.796
286.51	38.500
286.87	38.803
287.24	38.925
287.61	40.610
287.98	38.799
288.35	38.352
288.72	39.252
289.08	36.620
289.45	37.891
289.82	37.398
290.19	35.008
290.56	37.060
290.93	35.801
291.29	35.123
291.66	35.841
292.03	37.791
292.40	37.004
292.77	34.763
293.13	33.433
293.50	34.985
293.87	34.667
294.24	33.778
294.60	33.770
294.97	33.140
295.34	34.274
295.71	33.097
296.08	32.479
296.44	31.912
296.81	32.365
297.18	34.553
297.55	29.156
297.91	32.322
298.28	32.262
298.65	31.854
299.02	32.938
299.38	31.474
299.75	28.976
300.12	32.439
300.48	31.125
300.85	30.456
301.22	30.573
301.59	29.672
301.95	30.479
302.32	30.424
302.69	29.271
303.05	29.818
303.42	30.494
303.79	28.199
304.15	27.972
304.52	27.810
304.89	29.152
305.25	28.190
305.62	29.219
305.99	29.988
306.35	29.754
306.72	30.045
307.09	28.191
307.45	28.604
307.82	27.344
308.19	28.256
308.55	28.047
308.92	28.249
309.29	27.138
309.65	28.314
310.02	29.387
310.38	28.387
310.75	28.089
311.12	28.659
311.48	29.676
311.85	29.560
312.22	28.824
312.58	28.690
312.95	29.356
313.31	27.961
313.68	30.042
314.05	30.375
314.41	27.839
314.78	29.909
315.14	28.401
315.51	30.484
315.87	30.000
316.24	30.387
316.61	29.922
316.97	31.213
317.34	29.550
317.70	32.792
318.07	33.782
318.43	32.290
318.80	32.615
319.16	33.522
319.53	32.364
319.89	34.190
320.26	34.900
320.62	34.623
320.99	36.263
321.35	36.162
321.72	37.474
322.08	38.598
322.45	39.303
322.81	39.050
323.18	40.173
323.54	38.776
323.91	40.566
324.27	41.874
324.64	42.684
325.00	41.569
325.37	45.041
325.73	46.140
326.10	46.337
326.46	45.968
326.83	48.490
327.19	47.225
327.56	49.652
327.92	52.406
328.29	52.174
328.65	52.026
329.01	51.895
329.38	53.377
329.74	55.217
330.11	54.100
330.47	53.352
330.84	55.239
331.20	55.464
331.56	57.615
331.93	57.963
332.29	56.256
332.66	58.584
333.02	58.867
333.38	59.350
333.75	57.932
334.11	58.897
334.48	58.740
334.84	59.099
335.20	59.000
335.57	59.565
335.93	58.482
336.29	60.989
336.66	62.038
337.02	59.548
337.38	60.556
337.75	60.160
338.11	60.788
338.47	60.866
338.84	60.770
339.20	62.661
339.56	61.679
339.93	61.000
340.29	60.417
340.65	63.280
341.02	63.176
341.38	63.167
341.74	62.456
342.11	62.795
342.47	62.996
342.83	63.356
343.20	64.156
343.56	62.932
343.92	62.632
344.28	63.265
344.65	64.918
345.01	63.131
345.37	63.894
345.73	64.382
346.10	65.217
346.46	65.085
346.82	64.333
347.19	65.079
347.55	62.233
347.91	65.129
348.27	66.146
348.63	66.137
349.00	65.210
349.36	65.599
349.72	63.512
350.08	64.344
350.45	64.931
350.81	65.150
351.17	65.559
351.53	65.029
351.89	63.284
352.26	65.430
352.62	66.881
352.98	67.504
353.34	67.625
353.70	66.612
354.07	65.000
354.43	65.556
354.79	65.567
355.15	65.922
355.51	68.505
355.87	69.143
356.24	67.508
356.60	66.399
356.96	67.900
357.32	67.539
357.68	68.898
358.04	68.409
358.40	68.646
358.77	67.449
359.13	67.640
359.49	69.255
359.85	68.571
360.21	70.255
360.57	69.728
360.93	68.154
361.29	67.800
361.66	66.641
362.02	67.313
362.38	69.962
362.74	69.196
363.10	69.948
363.46	69.919
363.82	69.010
364.18	68.355
364.54	69.168
364.90	68.272
365.26	69.044
365.62	70.489
365.98	70.709
366.35	68.123
366.71	69.993
367.07	69.556
367.43	71.843
367.79	71.092
368.15	71.552
368.51	71.512
368.87	72.234
369.23	72.275
369.59	71.470
369.95	71.618
370.31	70.442
370.67	71.304
371.03	73.184
371.39	71.939
371.75	71.618
372.11	72.333
372.47	73.094
372.83	74.063
373.19	72.182
373.55	73.910
373.91	74.374
374.27	72.371
374.63	74.909
374.99	71.681
375.35	72.435
375.71	72.104
376.07	72.428
376.42	75.034
376.78	74.089
377.14	73.813
377.50	74.768
377.86	73.604
378.22	75.095
378.58	73.308
378.94	73.853
379.30	74.618
379.66	75.571
380.02	75.737
380.38	75.713
380.74	74.250
381.09	75.795
381.45	76.275
381.81	75.123
382.17	76.879
382.53	75.597
382.89	77.099
383.25	77.111
383.61	78.191
383.97	75.860
384.32	74.797
384.68	76.332
385.04	76.829
385.40	75.975
385.76	76.044
386.12	77.137
386.48	76.841
386.83	79.474
387.19	77.922
387.55	77.365
387.91	77.509
388.27	77.744
388.62	77.197
388.98	76.720
389.34	78.348
389.70	77.744
390.06	79.214
390.42	79.053
390.77	77.417
391.13	80.089
391.49	79.886
391.85	78.485
392.20	78.612
392.56	78.725
392.92	79.105
393.28	79.112
393.64	77.818
393.99	78.681
394.35	78.598
394.71	78.858
395.07	77.632
395.42	80.222
395.78	78.181
396.14	78.336
396.50	79.449
396.85	80.420
397.21	78.483
397.57	78.797
397.92	78.365
398.28	77.522
398.64	76.822
399.00	79.463
399.35	78.003
399.71	77.778
400.07	79.125
400.42	77.975
400.78	79.735
401.14	79.390
401.49	79.701
401.85	78.040
402.21	78.443
402.57	77.483
402.92	81.274
403.28	80.575
403.63	80.074
403.99	79.427
404.35	77.212
404.70	78.417
405.06	77.752
405.42	80.225
405.77	78.914
406.13	78.160
406.49	76.464
406.84	77.200
407.20	77.305
407.55	78.175
407.91	79.733
408.27	79.643
408.62	77.784
408.98	77.880
409.34	77.737
409.69	79.548
410.05	78.996
410.40	78.104
410.76	78.554
411.11	77.563
411.47	77.252
411.83	78.131
412.18	77.737
412.54	79.016
412.89	76.627
413.25	77.863
413.60	78.691
413.96	76.381
414.31	77.278
414.67	76.996
415.03	77.417
415.38	78.608
415.74	78.135
416.09	78.119
416.45	77.644
416.80	77.991
417.16	79.759
417.51	79.164
417.87	76.750
418.22	78.675
418.58	78.502
418.93	78.624
419.29	77.467
419.64	77.078
420.00	76.890
420.35	77.217
420.71	77.107
421.06	77.506
421.42	75.731
421.77	75.785
422.12	77.260
422.48	75.715
422.83	77.402
423.19	75.580
423.54	78.294
423.90	77.159
424.25	76.829
424.61	76.607
424.96	77.959
425.31	76.633
425.67	75.899
426.02	76.286
426.38	78.388
426.73	76.243
427.09	76.413
427.44	75.618
427.79	76.366
428.15	75.952
428.50	76.712
428.85	76.937
429.21	76.091
429.56	76.568
429.92	75.491
430.27	75.571
430.62	73.938
430.98	75.817
431.33	74.897
431.68	76.126
432.04	73.908
432.39	77.213
432.74	76.002
433.10	76.797
433.45	77.259
433.80	76.996
434.16	75.481
434.51	75.895
434.86	75.770
435.22	76.320
435.57	77.386
435.92	75.366
436.28	78.351
436.63	76.159
436.98	75.730
437.34	75.373
437.69	76.138
438.04	77.403
438.39	76.358
438.75	75.944
439.10	74.749
439.45	75.974
439.81	77.281
440.16	76.285
440.51	76.801
440.86	76.086
441.22	74.416
441.57	75.743
441.92	75.435
442.27	75.565
442.63	74.671
442.98	75.831
443.33	73.750
443.68	74.703
444.03	73.694
444.39	74.440
444.74	75.920
445.09	74.286
445.44	74.686
445.79	73.775
446.15	74.272
446.50	73.936
446.85	76.053
447.20	74.452
447.55	76.270
447.91	75.179
448.26	75.125
448.61	74.166
448.96	74.585
449.31	75.478
449.66	74.902
450.02	75.320
450.37	73.980
450.72	74.958
451.07	73.370
451.42	73.799
451.77	74.985
452.12	72.344
452.47	74.689
452.83	75.291
453.18	72.738
453.53	74.397
453.88	75.074
454.23	74.059
454.58	74.500
454.93	76.224
455.28	74.252
455.63	75.485
455.98	75.655
456.34	73.869
456.69	75.454
457.04	73.932
457.39	74.868
457.74	72.722
458.09	73.663
458.44	73.375
458.79	72.614
459.14	72.968
459.49	73.147
459.84	72.355
460.19	72.834
460.54	71.123
460.89	73.341
461.24	73.649
461.59	74.259
461.94	72.750
462.29	73.887
462.64	73.389
462.99	73.195
463.34	72.600
463.69	73.734
464.04	72.986
464.39	72.986
464.74	71.420
465.09	71.834
465.44	71.579
465.79	71.756
466.14	70.334
466.49	70.133
466.84	71.862
467.19	72.179
467.54	70.938
467.89	70.108
468.24	72.484
468.59	72.344
468.94	70.250
469.29	71.979
469.64	72.289
469.99	73.748
470.34	72.391
470.68	74.569
471.03	72.721
471.38	73.940
471.73	73.151
472.08	72.763
472.43	71.168
472.78	71.560
473.13	71.502
473.48	71.973
473.83	71.890
474.17	70.442
474.52	71.960
474.87	71.512
475.22	70.400
475.57	69.801
475.92	70.844
476.27	69.222
476.61	70.656
476.96	69.764
477.31	70.016
477.66	71.444
478.01	69.263
478.36	70.227
478.70	70.042
479.05	69.755
479.40	70.624
479.75	69.954
480.10	70.278
480.45	69.205
480.79	68.323
481.14	69.080
481.49	69.388
481.84	69.639
482.19	69.196
482.53	68.303
482.88	68.637
483.23	69.439
483.58	68.016
483.92	69.025
484.27	66.536
484.62	68.491
484.97	67.600
485.31	67.842
485.66	65.831
486.01	63.799
486.36	61.086
486.70	60.725
487.05	62.630
487.40	63.790
487.75	63.965
488.09	65.817
488.44	65.911
488.79	67.559
489.13	67.647
489.48	67.292
489.83	66.940
490.17	68.040
490.52	67.095
490.87	67.526
491.22	66.576
491.56	66.606
491.91	67.520
492.26	66.376
492.60	65.899
492.95	67.259
493.30	66.682
493.64	66.869
493.99	66.249
494.34	67.206
494.68	67.582
495.03	68.139
495.37	66.589
495.72	67.300
496.07	68.910
496.41	65.133
496.76	64.952
497.11	65.241
497.45	66.744
497.80	66.075
498.14	66.763
498.49	66.537
498.84	66.970
499.18	66.095
499.53	66.429
499.87	65.471
500.22	65.379
500.56	67.379
500.91	65.721
501.26	65.055
501.60	67.110
501.95	65.170
502.29	65.745
502.64	65.317
502.98	64.703
503.33	64.534
503.67	64.872
504.02	64.827
504.36	64.202
504.71	66.488
505.06	65.301
505.40	64.657
505.75	64.320
506.09	63.946
506.44	65.762
506.78	64.978
507.13	65.926
507.47	65.808
507.82	65.299
508.16	65.856
508.51	65.753
508.85	65.045
509.19	65.255
509.54	64.133
509.88	64.297
510.23	64.833
510.57	66.563
510.92	64.319
511.26	65.313
511.61	65.405
511.95	65.031
512.30	64.157
512.64	65.771
512.98	66.024
513.33	65.632
513.67	63.714
514.02	64.610
514.36	65.156
514.70	65.689
515.05	64.919
515.39	66.237
515.74	66.047
516.08	65.288
516.42	64.817
516.77	65.552
517.11	64.484
517.46	65.237
517.80	67.073
518.14	64.737
518.49	66.336
518.83	64.148
519.17	64.376
519.52	64.233
519.86	65.260
520.20	64.740
520.55	66.008
520.89	66.849
521.23	66.164
521.58	65.246
521.92	66.932
522.26	65.711
522.61	66.417
522.95	64.150
523.29	64.881
523.64	64.939
523.98	64.695
524.32	65.199
524.66	63.860
525.01	65.564
525.35	64.808
525.69	63.916
526.04	65.047
526.38	64.918
526.72	63.067
527.06	65.160
527.41	62.686
527.75	65.016
528.09	65.511
528.43	65.073
528.78	65.089
529.12	63.091
529.46	63.380
529.80	64.295
530.15	62.617
530.49	62.769
530.83	64.177
531.17	65.862
531.51	64.851
531.86	64.065
532.20	65.645
532.54	64.446
532.88	64.249
533.22	61.399
533.57	62.654
533.91	62.914
534.25	61.908
534.59	61.379
534.93	62.879
535.27	62.161
535.62	62.271
535.96	61.833
536.30	62.047
536.64	62.846
536.98	63.835
537.32	62.344
537.66	63.200
538.01	63.726
538.35	62.314
538.69	63.433
539.03	62.768
539.37	60.895
539.71	60.467
540.05	62.157
540.39	61.927
540.73	61.125
541.07	63.465
541.42	62.622
541.76	62.387
542.10	61.966
542.44	62.252
542.78	62.121
543.12	60.717
543.46	61.311
543.80	62.785
544.14	61.553
544.48	62.413
544.82	62.476
545.16	60.768
545.50	60.476
545.84	63.374
546.18	61.616
546.52	62.010
546.86	62.543
547.20	61.767
547.54	61.456
547.88	60.778
548.22	60.149
548.56	61.195
548.90	59.859
549.24	60.337
549.58	60.641
549.92	62.019
550.26	62.429
550.60	60.512
550.94	61.972
551.28	62.253
551.62	60.963
551.96	60.421
552.30	61.433
552.64	60.176
552.98	61.898
553.32	60.283
553.66	60.395
554.00	60.604
554.34	61.146
554.68	60.157
555.02	61.213
555.36	59.847
555.69	58.254
556.03	60.363
556.37	59.959
556.71	60.641
557.05	60.854
557.39	60.322
557.73	61.538
558.07	60.551
558.41	60.709
558.75	60.176
559.08	61.521
559.42	62.963
559.76	60.735
560.10	59.529
560.44	60.028
560.78	57.751
561.12	58.773
561.45	60.300
561.79	59.921
562.13	59.222
562.47	58.948
562.81	60.391
563.15	58.127
563.48	58.090
563.82	57.860
564.16	58.339
564.50	57.878
564.84	56.953
565.17	58.301
565.51	58.211
565.85	57.297
566.19	58.359
566.52	58.201
566.86	57.444
567.20	57.370
567.54	57.021
567.88	55.242
568.21	57.196
568.55	54.904
568.89	54.767
569.23	54.323
569.56	52.713
569.90	52.906
570.24	52.853
570.57	51.581
570.91	50.194
571.25	50.432
571.59	49.897
571.92	50.490
572.26	50.289
572.60	50.601
572.93	50.435
573.27	50.902
573.61	49.218
573.95	49.819
574.28	49.020
574.62	48.785
574.96	48.435
575.29	48.860
575.63	48.476
575.97	48.633
576.30	48.938
576.64	49.457
576.98	48.736
577.31	48.614
577.65	48.491
577.98	48.331
578.32	47.677
578.66	47.338
578.99	47.592
579.33	47.954
579.67	48.018
580.00	47.998
580.34	48.908
580.67	48.097
581.01	47.740
581.35	47.290
581.68	47.592
582.02	46.668
582.35	47.269
582.69	46.883
583.02	47.374
583.36	47.775
583.70	49.201
584.03	48.354
584.37	48.485
584.70	48.824
585.04	47.872
585.37	47.926
585.71	47.603
586.04	47.379
586.38	48.406
586.72	48.909
587.05	47.786
587.39	47.599
587.72	48.209
588.06	47.385
588.39	48.532
588.73	48.255
589.06	49.143
589.40	48.990
589.73	49.701
590.07	49.431
590.40	49.178
590.73	50.195
591.07	50.061
591.40	51.413
591.74	51.126
592.07	50.262
592.41	50.475
592.74	48.914
593.08	48.434
593.41	47.738
593.75	46.908
594.08	48.106
594.41	48.851
594.75	49.020
595.08	48.103
595.42	48.546
595.75	48.291
596.09	49.268
596.42	50.138
596.75	49.852
597.09	49.654
597.42	48.904
597.75	49.030
598.09	49.261
598.42	48.926
598.76	48.439
599.09	47.624
599.42	47.198
599.76	48.463
600.09	47.031
600.42	47.991
600.76	46.821
601.09	47.432
601.42	48.478
601.76	47.780
602.09	48.182
602.42	48.447
602.76	48.569
603.09	47.797
603.42	48.262
603.76	47.409
604.09	47.615
604.42	48.227
604.76	48.461
605.09	48.799
605.42	48.397
605.75	47.806
606.09	47.499
606.42	47.977
606.75	48.113
607.09	47.258
607.42	48.224
607.75	47.511
608.08	47.026
608.42	48.095
608.75	47.115
609.08	47.687
609.41	48.120
609.75	49.023
610.08	49.105
610.41	48.883
610.74	47.588
611.07	49.506
611.41	49.755
611.74	48.869
612.07	49.689
612.40	49.318
612.73	50.053
613.07	50.269
613.40	49.447
613.73	49.397
614.06	49.409
614.39	49.240
614.72	48.263
615.06	49.055
615.39	47.824
615.72	47.751
616.05	48.272
616.38	49.083
616.71	50.119
617.05	50.177
617.38	49.248
617.71	50.030
618.04	50.421
618.37	49.261
618.70	51.151
619.03	50.658
619.36	51.731
619.69	51.056
620.03	51.786
620.36	51.404
620.69	52.123
621.02	51.991
621.35	52.937
621.68	51.791
622.01	51.548
622.34	51.589
622.67	52.015
623.00	51.211
623.33	50.393
623.66	50.107
623.99	52.283
624.32	49.929
624.65	50.424
624.99	51.275
625.32	50.181
625.65	51.766
625.98	52.575
626.31	52.022
626.64	53.306
626.97	53.533
627.30	53.450
627.63	51.600
627.96	52.397
628.29	52.756
628.62	53.614
628.95	55.283
629.28	55.109
629.61	54.354
629.94	54.000
630.26	53.765
630.59	53.480
630.92	53.736
631.25	54.590
631.58	54.354
631.91	54.564
632.24	54.008
632.57	54.145
632.90	54.496
633.23	54.474
633.56	56.384
633.89	56.399
634.22	56.300
634.55	56.923
634.88	56.287
635.20	56.511
635.53	57.711
635.86	58.292
636.19	54.941
636.52	56.632
636.85	54.754
637.18	53.226
637.51	56.147
637.83	55.117
638.16	57.801
638.49	56.423
638.82	57.269
639.15	55.625
639.48	56.484
639.81	57.373
640.13	57.812
640.46	55.839
640.79	54.822
641.12	56.259
641.45	59.078
641.77	59.205
642.10	58.333
642.43	58.408
642.76	60.681
643.09	59.356
643.41	59.636
643.74	60.340
644.07	56.860
644.40	59.816
644.73	62.362
645.05	61.014
645.38	56.714
645.71	58.132
646.04	60.797
646.36	61.603
646.69	58.027
647.02	59.524
647.35	59.794
647.67	59.823
648.00	58.699
648.33	58.251
648.66	55.000
648.98	55.472
649.31	54.559
649.64	55.904
649.96	55.291
650.29	57.188
650.62	58.091
650.94	60.292
651.27	57.264
651.60	59.068
651.92	57.348
652.25	56.026
652.58	55.140
652.90	58.452
653.23	55.008
653.56	55.906
653.88	56.735
654.21	58.610
654.54	59.076
654.86	56.231
655.19	51.216
655.52	37.059
655.84	33.088
656.17	43.126
656.49	58.159
656.82	59.803
657.15	45.302
657.47	34.369
657.80	26.228
658.13	27.506
658.45	41.413
658.78	41.357
659.10	43.155
659.43	46.835
659.75	47.521
660.08	51.519
660.41	55.493
660.73	58.704
661.06	61.306
661.38	63.091
661.71	61.538
662.03	60.552
662.36	56.859
662.68	59.237
663.01	57.778
663.33	61.359
663.66	61.975
663.98	63.499
664.31	57.983
664.63	59.312
664.96	58.753
665.28	61.475
665.61	56.335
665.93	57.344
666.26	58.824
666.58	57.322
666.91	58.140
667.23	61.798
667.56	60.043
667.88	57.479
668.21	62.900
668.53	61.822
668.86	61.472
669.18	60.768
669.50	60.652
669.83	59.041
670.15	60.444
670.48	57.734
670.80	57.974
671.13	60.085
671.45	58.085
671.77	60.896
672.10	56.192
672.42	54.594
672.75	54.561
673.07	56.162
673.39	57.505
673.72	58.203
674.04	56.471
674.37	57.087
674.69	58.078
675.01	58.577
675.34	60.780
675.66	60.211
675.98	57.026
676.31	59.244
676.63	57.749
676.95	59.329
677.28	61.682
677.60	58.022
677.92	60.549
678.25	55.236
678.57	54.781
678.89	54.108
679.22	50.491
679.54	51.718
679.86	57.064
680.18	54.741
680.51	53.546
680.83	55.338
681.15	55.094
681.48	56.333
681.80	55.319
682.12	57.663
682.44	53.578
682.77	58.248
683.09	59.871
683.41	59.202
683.73	56.954
684.06	57.851
684.38	56.947
684.70	51.938
685.02	55.910
685.34	53.846
685.67	52.797
685.99	48.625
686.31	53.754
686.63	49.470
686.96	51.429
687.28	54.152
687.60	51.993
687.92	53.382
688.24	53.612
688.56	56.426
688.89	54.772
689.21	61.354
689.53	56.576
689.85	57.206
690.17	53.002
690.49	52.866
690.82	56.542
691.14	55.804
691.46	52.532
691.78	57.028
692.10	56.405
692.42	54.491
692.74	52.905
693.06	54.255
693.39	53.593
693.71	55.677
694.03	55.368
694.35	53.896
694.67	53.547
694.99	56.341
695.31	53.922
695.63	55.742
695.95	58.435
696.27	57.107
696.59	58.031
696.91	61.140
697.23	54.695
697.56	54.797
697.88	51.329
698.20	52.292
698.52	53.763
698.84	56.570
699.16	52.304
699.48	58.670
699.80	56.522
700.12	59.481
700.44	61.008
700.76	59.392
701.08	58.046
701.40	58.939
701.72	59.475
702.04	63.636
702.36	56.374
702.68	58.074
703.00	57.064
703.32	55.851
703.64	56.300
703.96	57.939
704.28	60.756
704.60	61.584
704.91	58.457
705.23	59.824
705.55	64.120
705.87	63.123
706.19	63.251
706.51	55.140
706.83	60.303
707.15	58.543
707.47	55.051
707.79	53.317
708.11	54.566
708.43	50.714
708.74	52.551
709.06	57.662
709.38	53.543
709.70	62.500
710.02	56.973
710.34	54.242
710.66	60.000
710.98	56.250
711.29	56.977
711.61	57.227
711.93	58.654
712.25	60.129
712.57	69.485
712.89	61.592
713.20	58.055
713.52	61.184
713.84	58.228
714.16	56.098
714.48	54.310
714.80	59.878
715.11	54.179
715.43	58.457
715.75	55.942
716.07	58.786
716.39	58.307
716.70	65.116
717.02	64.388
717.34	60.071
717.66	63.806
717.97	64.940
718.29	57.407
718.61	58.394
718.93	60.294
719.24	57.439
719.56	56.271
719.88	57.627
720.20	57.432
720.51	62.021
720.83	60.595
721.15	60.821
721.46	63.121
721.78	60.932
722.10	61.132
722.42	65.414
722.73	62.921
723.05	62.295
723.37	61.538
723.68	61.776
724.00	60.976
724.32	61.290
724.63	61.382
724.95	65.690
725.27	67.611
725.58	63.672
725.90	63.504
726.22	60.755
726.53	55.556
726.85	56.314
727.16	61.210
727.48	57.801
727.80	63.258
728.11	59.058
728.43	57.692
728.74	58.781
729.06	58.029
729.38	64.338
729.69	64.057
730.01	53.925
730.32	59.028
730.64	58.194
730.96	51.485
731.27	60.596
731.59	54.128
731.90	52.187
732.22	53.416
732.53	51.084
732.85	53.526
733.16	55.627
733.48	57.807
733.80	56.494
734.11	59.873
734.43	50.888
734.74	55.429
735.06	52.722
735.37	53.468
735.69	56.051
736.00	56.536
736.32	53.894
736.63	54.952
736.95	54.313
737.26	50.000
737.58	54.194
737.89	55.518
738.21	58.362
738.52	56.071
738.83	57.736
739.15	58.462
739.46	56.569
739.78	52.431
740.09	51.077
740.41	52.258
740.72	51.568
741.04	61.852
741.35	65.833
741.66	65.333
741.98	58.962
742.29	65.550
742.61	56.466
742.92	62.896
743.23	63.248
743.55	60.400
743.86	57.456
744.18	66.372
744.49	66.029
744.80	65.258
745.12	64.091
745.43	57.709
745.74	65.766
746.06	59.174
746.37	61.883
746.68	62.896
747.00	64.815
747.31	64.286
747.62	58.850
747.94	62.115
748.25	56.596
748.56	62.115
748.88	61.386
749.19	73.500
749.50	66.047
749.82	58.130
750.13	59.592
750.44	53.285
750.75	54.035
751.07	58.521
751.38	54.007
751.69	60.650
752.01	60.902
752.32	52.347
752.63	56.028
752.94	58.607
753.26	62.400
753.57	57.724
753.88	59.375
754.19	54.286
754.51	58.333
754.82	49.458
755.13	59.245
755.44	54.511
755.75	56.569
756.07	54.610
756.38	52.920
756.69	53.020
757.00	50.299
757.31	47.774
757.63	48.830
757.94	47.453
758.25	46.814
758.56	47.407
758.87	45.430
759.18	50.000
759.50	49.843
759.81	47.664
760.12	50.000
760.43	50.430
760.74	47.554
761.05	51.695
761.36	50.535
761.67	52.557
761.99	52.484
762.30	54.514
762.61	55.725
762.92	53.906
763.23	53.361
763.54	58.400
763.85	52.344
764.16	59.615
764.47	56.654
764.78	53.004
765.10	46.519
765.41	49.853
765.72	49.401
766.03	53.292
766.34	48.667
766.65	59.574
766.96	60.256
767.27	64.467
767.58	65.625
767.89	63.684
768.20	75.287
768.51	59.898
768.82	61.927
769.13	52.439
769.44	53.846
769.75	55.794
770.06	51.376
770.37	60.181
770.68	63.426
770.99	59.111
771.30	52.869
771.61	60.987
771.92	56.557
772.23	61.345
772.54	62.564
772.85	60.733
773.16	62.234
773.47	67.935
773.78	67.005
774.09	64.881
774.39	66.667
774.70	64.815
775.01	78.986
775.32	81.046
775.63	67.763
775.94	73.381
776.25	83.465
776.56	82.836
776.87	81.148
777.18	78.906
777.48	82.443
777.79	75.758
778.10	74.074
778.41	78.571
778.72	69.343
779.03	73.826
779.34	67.114
779.65	62.162
779.95	66.258
780.26	72.549
780.57	73.793
780.88	79.687
781.19	75.188
781.50	74.324
781.80	68.553
782.11	62.712
782.42	68.987
782.73	59.509
783.04	77.027
783.34	72.535
783.65	79.452
783.96	74.627
784.27	69.231
784.57	67.626
784.88	72.222
785.19	80.952
785.50	77.358
785.81	76.866
786.11	78.689
786.42	78.295
786.73	79.646
787.04	84.906
787.34	83.036
787.65	78.000
787.96	89.189
788.26	76.033
788.57	86.441
788.88	90.083
789.19	70.833
789.49	78.030
789.80	75.573
790.11	82.857
790.41	104.950
790.72	90.361
791.03	95.652
791.33	94.186
791.64	76.289
791.95	93.069
792.25	93.333
792.56	94.805
792.87	108.974
793.17	113.924
793.48	93.103
793.79	93.103
794.09	101.136
794.40	78.151
794.70	80.882
795.01	65.926
795.32	72.662
795.62	81.890
795.93	77.586
796.23	80.531
796.54	97.647
796.85	97.297
797.15	132.394
797.46	106.061
797.76	96.386
798.07	101.266
798.37	112.308
798.68	121.212
798.99	108.451
799.29	101.299
799.60	88.636
799.90	105.479
800.21	111.940
800.51	110.345
800.82	121.053
801.12	114.754
801.43	112.121
801.73	97.297
802.04	125.397
802.34	101.235
802.65	101.563
802.95	128.814
803.26	131.250
803.56	84.286
803.87	110.769
804.17	108.824
804.48	129.630
804.78	124.138
805.09	110.294
805.39	125.000
805.70	114.286
806.00	122.951
806.30	101.515
806.61	101.220
806.91	88.608
807.22	94.737
807.52	94.030
807.83	119.718
808.13	95.312
808.43	125.000
808.74	93.421
809.04	108.696
809.35	110.448
809.65	109.211
809.95	122.581
810.26	110.169
810.56	115.873
810.86	172.727
811.17	164.286
811.47	145.000
811.77	135.185
812.08	134.545
812.38	154.000
812.69	191.667
812.99	179.545
813.29	148.980
813.59	116.667
813.90	126.531
814.20	125.455
814.50	93.846
814.81	114.706
815.11	136.735
815.41	98.361
815.72	142.857
816.02	156.364
816.32	142.857
816.62	145.000
816.93	168.293
817.23	166.667
817.53	150.000
817.84	178.788
818.14	154.348
818.44	151.111
818.74	205.882
819.04	170.000
819.35	154.286
819.65	208.824
819.95	182.143
820.25	245.000
820.56	176.923
820.86	145.455
821.16	172.093
821.46	187.179
821.76	156.000
822.07	171.429
822.37	162.500
822.67	196.970
822.97	137.255
823.27	225.000
823.57	154.054
823.88	167.500
824.18	233.333
824.48	190.476
824.78	256.000
825.08	220.833
825.38	175.676
825.69	187.805
825.99	254.167
826.29	162.069
826.59	192.105
826.89	184.211
827.19	211.765
827.49	190.323
827.79	129.545
828.09	163.636
828.39	146.809
828.70	144.898
829.00	192.593
829.30	180.645
829.60	162.500
829.90	400.000
830.20	217.857
830.50	256.522
830.80	256.522
831.10	223.333
831.40	240.000
831.70	217.391
832.00	234.615
832.30	196.296
832.60	356.250
832.90	243.333
833.20	471.429
833.50	222.581
833.80	203.448
834.10	231.250
834.40	234.615
834.70	372.222
835.00	323.810
835.30	160.000
835.60	400.000
835.90	227.586
836.20	428.571
836.50	203.448
836.80	284.000
837.10	222.222
837.40	333.333
837.70	317.647
838.00	229.630
838.30	261.905
838.60	319.048
838.90	238.462
839.19	315.000
839.49	414.286
839.79	355.000
840.09	295.000
840.39	300.000
840.69	230.435
840.99	294.444
841.29	590.000
841.59	366.667
841.88	362.500
842.18	206.897
842.48	295.238
842.78	210.000
843.08	265.217
843.38	206.250
843.68	883.333
843.97	253.846
844.27	237.931
844.57	333.333
844.87	443.750
845.17	203.704
845.47	1733.333
845.76	433.333
846.06	335.294
846.36	687.500
846.66	335.714
846.96	362.500
847.25	481.818
847.55	463.636
847.85	260.870
848.15	560.000
848.44	414.286
848.74	300.000
849.04	335.294
849.34	510.000
849.63	210.526
849.93	463.636
850.23	1060.000
850.53	392.857
850.82	2750.000
851.12	-4700.000
851.42	5600.000
851.71	315.000
852.01	-1466.667
852.31	279.167
852.61	1633.333
852.90	252.381
853.20	252.000
853.50	335.294
853.79	271.429
854.09	270.833
854.39	356.250
854.68	175.676
854.98	167.742
855.28	196.667
855.57	241.379
855.87	222.222
856.17	263.158
856.46	306.667
856.76	329.412
857.05	231.034
857.35	241.667
857.65	360.000
857.94	239.130
858.24	230.769
858.53	300.000
858.83	281.818
859.13	360.000
859.42	0.000
859.72	600.000
860.01	481.818
860.31	254.545
860.60	336.842
860.90	260.870
861.20	633.333
861.49	566.667
861.79	-5000.000
862.08	675.000
862.38	257.143
862.67	423.077
862.97	352.941
863.26	577.778
863.56	322.222
863.85	416.667
864.15	575.000
864.44	406.667
864.74	900.000
865.03	762.500
865.33	294.737
865.62	436.364
865.92	423.077
866.21	400.000
866.51	0.000
866.80	600.000
867.10	1160.000
867.39	469.231
867.69	481.818
867.98	278.947
868.27	563.636
868.57	352.632
868.86	-4900.000
869.16	406.250
869.45	2450.000
869.75	-4300.000
870.04	550.000
870.33	728.571
870.63	1025.000
870.92	3000.000
871.22	757.143
871.51	376.471
871.80	276.190
872.10	371.429
>>>>>End Processed Spectral Data<<<<<
