SpectraSuite Data File
++++++++++++++++++++++++++++++++++++
Date: Wed May 13 19:49:36 PDT 2015
User: schluterlab
Dark Spectrum Present: Yes
Reference Spectrum Present: Yes
Number of Sampled Component Spectra: 1
Spectrometers: USB2E3373
Integration Time (usec): 3000 (USB2E3373)
Spectra Averaged: 3 (USB2E3373)
Boxcar Smoothing: 0 (USB2E3373)
Correct for Electrical Dark: No (USB2E3373)
Strobe/Lamp Enabled: No (USB2E3373)
Correct for Detector Non-linearity: No (USB2E3373)
Correct for Stray Light: No (USB2E3373)
Number of Pixels in Processed Spectrum: 2048
>>>>>Begin Processed Spectral Data<<<<<
178.53	0.000
178.91	-1300.000
179.29	-1300.000
179.67	-255.556
180.04	-1300.000
180.42	2400.000
180.80	1080.000
181.18	-1075.000
181.56	585.714
181.94	0.000
182.31	-742.857
182.69	2033.333
183.07	-625.000
183.45	-533.333
183.83	581.818
184.20	-460.000
184.58	2550.000
184.96	4800.000
185.34	-720.000
185.72	-675.000
186.09	-2250.000
186.47	2500.000
186.85	2550.000
187.23	5700.000
187.61	-1700.000
187.98	1225.000
188.36	490.909
188.74	518.182
189.12	-1020.000
189.49	580.000
189.87	-4000.000
190.25	-1350.000
190.63	464.286
191.00	423.077
191.38	950.000
191.76	-1100.000
192.14	1450.000
192.51	550.000
192.89	883.333
193.27	537.500
193.65	-1100.000
194.02	520.000
194.40	920.000
194.78	660.000
195.15	600.000
195.53	620.000
195.91	-1900.000
196.29	362.500
196.66	321.053
197.04	-310.000
197.42	0.000
197.79	700.000
198.17	-5000.000
198.55	642.857
198.92	875.000
199.30	1120.000
199.68	0.000
200.05	316.667
200.43	885.714
200.81	5300.000
201.18	1833.333
201.56	-1500.000
201.94	577.778
202.31	600.000
202.69	525.000
203.07	590.000
203.44	0.000
203.82	1300.000
204.19	828.571
204.57	457.143
204.95	750.000
205.32	1666.667
205.70	581.818
206.08	428.571
206.45	2750.000
206.83	368.750
207.20	850.000
207.58	780.000
207.96	416.667
208.33	775.000
208.71	-816.667
209.08	814.286
209.46	644.444
209.84	527.273
210.21	-1400.000
210.59	1550.000
210.96	-512.500
211.34	2500.000
211.71	620.000
212.09	733.333
212.46	0.000
212.84	1766.667
213.22	1525.000
213.59	-5400.000
213.97	866.667
214.34	785.714
214.72	618.182
215.09	1020.000
215.47	-2100.000
215.84	-2750.000
216.22	1933.333
216.59	400.000
216.97	1375.000
217.34	518.182
217.72	-900.000
218.09	0.000
218.47	-5100.000
218.84	744.444
219.22	742.857
219.59	2066.667
219.97	-542.857
220.34	1080.000
220.72	-1600.000
221.09	471.429
221.47	1475.000
221.84	-966.667
222.22	0.000
222.59	1450.000
222.97	-1950.000
223.34	1100.000
223.72	500.000
224.09	1200.000
224.46	1800.000
224.84	-5500.000
225.21	-1140.000
225.59	-4500.000
225.96	730.000
226.34	290.000
226.71	3250.000
227.08	725.000
227.46	520.000
227.83	-1250.000
228.21	-2300.000
228.58	700.000
228.95	-2750.000
229.33	-2250.000
229.70	1666.667
230.08	1014.286
230.45	-920.000
230.82	408.333
231.20	866.667
231.57	757.143
231.95	425.000
232.32	245.455
232.69	481.818
233.07	685.714
233.44	369.231
233.81	-1700.000
234.19	352.632
234.56	516.667
234.93	350.000
235.31	490.909
235.68	384.615
236.05	364.286
236.43	212.121
236.80	331.579
237.17	5700.000
237.55	257.143
237.92	225.000
238.29	309.524
238.67	200.000
239.04	241.379
239.41	150.000
239.79	136.957
240.16	147.619
240.53	145.455
240.91	121.569
241.28	104.000
241.65	126.000
242.02	124.638
242.40	104.839
242.77	88.333
243.14	86.022
243.51	92.135
243.89	78.824
244.26	74.444
244.63	68.817
245.00	74.468
245.38	73.267
245.75	69.159
246.12	68.807
246.49	72.263
246.87	73.600
247.24	73.846
247.61	69.286
247.98	58.170
248.36	58.784
248.73	53.503
249.10	63.057
249.47	57.062
249.84	54.545
250.22	50.802
250.59	52.071
250.96	48.990
251.33	50.237
251.70	55.446
252.08	47.143
252.45	45.740
252.82	44.348
253.19	48.085
253.56	45.490
253.94	43.568
254.31	44.531
254.68	49.231
255.05	43.173
255.42	41.870
255.79	44.853
256.16	44.765
256.54	40.636
256.91	41.637
257.28	41.727
257.65	41.254
258.02	42.857
258.39	41.325
258.76	40.803
259.14	36.012
259.51	39.210
259.88	37.578
260.25	38.973
260.62	41.040
260.99	40.994
261.36	42.342
261.73	38.395
262.10	36.337
262.47	41.690
262.85	37.047
263.22	35.897
263.59	39.886
263.96	39.011
264.33	38.642
264.70	36.316
265.07	37.084
265.44	36.869
265.81	34.793
266.18	36.935
266.55	33.902
266.92	36.118
267.29	34.259
267.66	35.780
268.03	35.455
268.40	35.981
268.77	33.174
269.14	34.234
269.51	32.957
269.88	36.364
270.25	34.989
270.62	32.584
270.99	38.280
271.36	31.760
271.73	35.280
272.10	32.826
272.47	32.688
272.84	33.333
273.21	32.495
273.58	34.061
273.95	32.285
274.32	33.471
274.69	31.906
275.06	33.858
275.43	35.532
275.80	31.463
276.17	32.994
276.54	32.432
276.91	31.818
277.28	33.398
277.65	34.429
278.02	31.884
278.39	32.422
278.76	33.818
279.13	31.887
279.50	29.795
279.87	31.673
280.23	32.735
280.60	31.528
280.97	28.835
281.34	31.327
281.71	32.182
282.08	32.438
282.45	30.909
282.82	29.840
283.19	29.055
283.56	32.281
283.92	29.442
284.29	32.981
284.66	28.312
285.03	30.018
285.40	30.810
285.77	31.650
286.14	28.152
286.51	30.333
286.87	30.256
287.24	29.642
287.61	28.732
287.98	27.435
288.35	28.368
288.72	28.037
289.08	29.890
289.45	26.524
289.82	28.455
290.19	25.118
290.56	27.871
290.93	25.529
291.29	27.301
291.66	26.991
292.03	26.890
292.40	27.460
292.77	25.740
293.13	26.418
293.50	26.531
293.87	25.926
294.24	24.444
294.60	25.328
294.97	25.436
295.34	25.811
295.71	25.568
296.08	24.501
296.44	24.897
296.81	24.439
297.18	25.203
297.55	22.823
297.91	23.351
298.28	25.301
298.65	23.760
299.02	23.057
299.38	22.178
299.75	21.698
300.12	21.839
300.48	23.625
300.85	22.441
301.22	22.420
301.59	21.338
301.95	22.796
302.32	23.620
302.69	22.820
303.05	21.455
303.42	22.346
303.79	21.178
304.15	21.678
304.52	20.742
304.89	21.370
305.25	22.158
305.62	21.518
305.99	21.251
306.35	20.582
306.72	21.861
307.09	22.531
307.45	20.721
307.82	20.759
308.19	22.517
308.55	21.467
308.92	21.375
309.29	19.113
309.65	20.042
310.02	21.247
310.38	20.645
310.75	20.063
311.12	21.290
311.48	20.899
311.85	21.488
312.22	20.916
312.58	20.998
312.95	22.281
313.31	21.650
313.68	21.310
314.05	23.373
314.41	21.910
314.78	21.148
315.14	22.642
315.51	22.657
315.87	22.772
316.24	22.642
316.61	22.320
316.97	23.092
317.34	21.526
317.70	23.996
318.07	23.580
318.43	24.462
318.80	23.805
319.16	22.976
319.53	24.484
319.89	25.905
320.26	26.000
320.62	27.282
320.99	27.273
321.35	28.586
321.72	28.542
322.08	30.109
322.45	29.055
322.81	29.360
323.18	29.480
323.54	28.571
323.91	30.472
324.27	29.732
324.64	32.060
325.00	32.552
325.37	33.576
325.73	33.573
326.10	33.186
326.46	34.498
326.83	35.807
327.19	35.525
327.56	36.672
327.92	37.970
328.29	37.711
328.65	38.306
329.01	38.899
329.38	40.333
329.74	37.581
330.11	39.962
330.47	40.496
330.84	41.636
331.20	39.617
331.56	42.294
331.93	41.574
332.29	41.437
332.66	40.885
333.02	42.322
333.38	42.999
333.75	42.424
334.11	41.904
334.48	42.680
334.84	44.210
335.20	43.727
335.57	43.518
335.93	42.232
336.29	45.055
336.66	43.463
337.02	42.896
337.38	43.796
337.75	44.207
338.11	45.031
338.47	43.554
338.84	44.821
339.20	43.578
339.56	44.617
339.93	44.636
340.29	44.022
340.65	45.009
341.02	43.543
341.38	45.374
341.74	44.825
342.11	44.105
342.47	44.229
342.83	45.205
343.20	45.195
343.56	44.229
343.92	46.053
344.28	43.963
344.65	45.228
345.01	42.508
345.37	44.597
345.73	44.332
346.10	44.757
346.46	46.271
346.82	46.376
347.19	45.113
347.55	45.320
347.91	45.712
348.27	46.836
348.63	46.321
349.00	46.117
349.36	45.402
349.72	45.549
350.08	44.895
350.45	46.216
350.81	46.710
351.17	46.677
351.53	45.536
351.89	45.215
352.26	46.803
352.62	45.870
352.98	46.191
353.34	47.658
353.70	45.827
354.07	46.371
354.43	45.556
354.79	46.098
355.15	46.129
355.51	46.843
355.87	48.653
356.24	47.801
356.60	46.512
356.96	49.477
357.32	45.462
357.68	47.244
358.04	48.535
358.40	48.377
358.77	48.122
359.13	46.882
359.49	46.824
359.85	46.667
360.21	48.166
360.57	48.872
360.93	46.923
361.29	47.921
361.66	46.904
362.02	48.134
362.38	48.973
362.74	49.330
363.10	48.927
363.46	49.376
363.82	48.526
364.18	48.899
364.54	50.594
364.90	49.504
365.26	50.221
365.62	50.402
365.98	49.452
366.35	49.355
366.71	49.530
367.07	50.692
367.43	52.177
367.79	51.249
368.15	51.293
368.51	50.872
368.87	51.820
369.23	51.646
369.59	52.281
369.95	52.206
370.31	51.638
370.67	51.522
371.03	53.633
371.39	52.697
371.75	52.794
372.11	51.778
372.47	54.619
372.83	54.035
373.19	52.384
373.55	54.915
373.91	55.670
374.27	53.127
374.63	53.527
374.99	55.367
375.35	54.361
375.71	55.243
376.07	55.007
376.42	55.983
376.78	56.262
377.14	54.545
377.50	56.159
377.86	54.455
378.22	56.574
378.58	55.702
378.94	56.003
379.30	55.980
379.66	57.424
380.02	57.494
380.38	56.406
380.74	57.023
381.09	57.824
381.45	58.943
381.81	59.029
382.17	58.153
382.53	58.428
382.89	59.321
383.25	60.350
383.61	60.533
383.97	60.350
384.32	58.203
384.68	59.170
385.04	60.295
385.40	60.991
385.76	60.872
386.12	61.010
386.48	60.352
386.83	62.797
387.19	62.338
387.55	61.039
387.91	61.911
388.27	61.864
388.62	62.754
388.98	61.794
389.34	63.016
389.70	61.987
390.06	64.005
390.42	62.776
390.77	63.041
391.13	65.029
391.49	64.404
391.85	62.954
392.20	64.606
392.56	65.152
392.92	64.450
393.28	64.024
393.64	65.647
393.99	64.203
394.35	64.950
394.71	65.307
395.07	64.673
395.42	66.255
395.78	64.885
396.14	66.232
396.50	66.291
396.85	66.879
397.21	65.105
397.57	66.088
397.92	67.488
398.28	65.415
398.64	68.041
399.00	67.823
399.35	66.610
399.71	67.072
400.07	67.711
400.42	67.730
400.78	68.456
401.14	68.110
401.49	68.179
401.85	69.449
402.21	66.826
402.57	68.538
402.92	68.852
403.28	70.019
403.63	68.998
403.99	70.127
404.35	68.182
404.70	68.945
405.06	68.259
405.42	68.746
405.77	69.257
406.13	69.695
406.49	69.308
406.84	70.230
407.20	69.090
407.55	70.964
407.91	71.867
408.27	72.814
408.62	69.416
408.98	70.956
409.34	71.710
409.69	73.097
410.05	72.057
410.40	72.477
410.76	72.162
411.11	70.627
411.47	71.885
411.83	72.083
412.18	73.222
412.54	73.910
412.89	70.904
413.25	72.491
413.60	73.811
413.96	72.010
414.31	72.539
414.67	75.475
415.03	74.305
415.38	74.162
415.74	74.984
416.09	77.139
416.45	75.234
416.80	76.669
417.16	76.340
417.51	76.510
417.87	74.952
418.22	76.593
418.58	75.985
418.93	76.167
419.29	77.530
419.64	77.330
420.00	76.707
420.35	77.565
420.71	78.063
421.06	77.446
421.42	77.310
421.77	78.587
422.12	78.214
422.48	78.198
422.83	80.839
423.19	78.950
423.54	81.196
423.90	80.290
424.25	81.128
424.61	80.298
424.96	81.516
425.31	81.063
425.67	80.169
426.02	82.971
426.38	82.784
426.73	82.446
427.09	83.465
427.44	83.784
427.79	84.301
428.15	83.571
428.50	83.733
428.85	83.850
429.21	83.876
429.56	84.085
429.92	84.751
430.27	84.508
430.62	83.820
430.98	83.913
431.33	83.763
431.68	86.545
432.04	84.771
432.39	87.550
432.74	89.647
433.10	88.738
433.45	88.047
433.80	88.137
434.16	88.515
434.51	87.526
434.86	88.255
435.22	89.272
435.57	88.875
435.92	90.228
436.28	91.874
436.63	89.294
436.98	90.155
437.34	91.532
437.69	92.065
438.04	91.456
438.39	91.045
438.75	91.342
439.10	90.894
439.45	91.381
439.81	91.722
440.16	91.078
440.51	91.213
440.86	92.936
441.22	92.436
441.57	91.454
441.92	93.603
442.27	91.227
442.63	92.364
442.98	93.239
443.33	93.152
443.68	94.115
444.03	94.143
444.39	92.941
444.74	93.452
445.09	93.261
445.44	93.384
445.79	93.469
446.15	92.800
446.50	93.215
446.85	95.118
447.20	94.442
447.55	95.812
447.91	94.319
448.26	95.437
448.61	95.082
448.96	95.681
449.31	97.863
449.66	95.385
450.02	96.267
450.37	95.862
450.72	95.713
451.07	96.648
451.42	95.319
451.77	98.121
452.12	94.977
452.47	96.455
452.83	98.368
453.18	94.682
453.53	97.279
453.88	96.515
454.23	97.430
454.58	97.335
454.93	99.428
455.28	97.569
455.63	98.362
455.98	99.643
456.34	97.236
456.69	97.120
457.04	98.514
457.39	96.961
457.74	96.460
458.09	96.492
458.44	96.750
458.79	95.662
459.14	97.686
459.49	96.673
459.84	97.230
460.19	97.466
460.54	95.081
460.89	97.312
461.24	97.511
461.59	98.373
461.94	96.917
462.29	96.914
462.64	96.426
462.99	97.788
463.34	98.000
463.69	99.124
464.04	96.638
464.39	95.478
464.74	97.267
465.09	96.261
465.44	95.900
465.79	96.253
466.14	94.527
466.49	97.164
466.84	97.898
467.19	98.491
467.54	99.188
467.89	97.539
468.24	97.150
468.59	98.657
468.94	98.045
469.29	99.293
469.64	98.260
469.99	100.947
470.34	99.472
470.68	99.856
471.03	98.503
471.38	100.764
471.73	98.801
472.08	101.776
472.43	98.241
472.78	98.486
473.13	97.882
473.48	97.441
473.83	98.841
474.17	97.698
474.52	99.194
474.87	98.365
475.22	97.562
475.57	96.722
475.92	97.716
476.27	96.336
476.61	96.415
476.96	97.196
477.31	97.802
477.66	98.961
478.01	95.086
478.36	98.625
478.70	97.196
479.05	98.083
479.40	98.311
479.75	98.627
480.10	96.968
480.45	96.240
480.79	95.509
481.14	96.918
481.49	97.722
481.84	95.702
482.19	97.365
482.53	95.413
482.88	96.510
483.23	97.196
483.58	97.543
483.92	97.516
484.27	93.856
484.62	96.078
484.97	95.388
485.31	94.486
485.66	89.725
486.01	86.514
486.36	83.983
486.70	83.858
487.05	86.333
487.40	89.070
487.75	91.265
488.09	92.326
488.44	93.129
488.79	95.660
489.13	95.951
489.48	95.840
489.83	94.907
490.17	96.054
490.52	96.634
490.87	96.427
491.22	97.090
491.56	95.353
491.91	97.627
492.26	95.269
492.60	95.438
492.95	96.024
493.30	94.673
493.64	96.640
493.99	95.543
494.34	95.513
494.68	96.245
495.03	96.100
495.37	96.045
495.72	97.856
496.07	96.381
496.41	93.451
496.76	95.515
497.11	95.092
497.45	94.783
497.80	96.737
498.14	95.797
498.49	96.293
498.84	94.199
499.18	96.333
499.53	95.774
499.87	94.967
500.22	94.724
500.56	97.476
500.91	95.337
501.26	94.737
501.60	96.251
501.95	93.126
502.29	96.251
502.64	95.764
502.98	94.717
503.33	94.424
503.67	92.993
504.02	94.574
504.36	92.513
504.71	96.825
505.06	94.361
505.40	96.354
505.75	94.455
506.09	94.509
506.44	96.201
506.78	95.860
507.13	97.274
507.47	95.505
507.82	96.606
508.16	96.403
508.51	97.869
508.85	95.879
509.19	97.194
509.54	95.663
509.88	96.291
510.23	96.658
510.57	97.884
510.92	96.634
511.26	95.889
511.61	96.214
511.95	94.311
512.30	96.713
512.64	96.668
512.98	97.964
513.33	96.788
513.67	95.571
514.02	96.916
514.36	98.088
514.70	98.395
515.05	97.546
515.39	96.971
515.74	96.565
516.08	96.478
516.42	97.947
516.77	97.826
517.11	97.614
517.46	99.831
517.80	98.374
518.14	98.726
518.49	99.008
518.83	97.955
519.17	97.633
519.52	96.265
519.86	98.688
520.20	98.092
520.55	100.060
520.89	100.912
521.23	100.724
521.58	98.860
521.92	99.755
522.26	97.804
522.61	100.062
522.95	100.000
523.29	100.365
523.64	99.573
523.98	98.460
524.32	97.829
524.66	98.918
525.01	98.100
525.35	98.699
525.69	97.414
526.04	99.751
526.38	98.475
526.72	98.282
527.06	100.377
527.41	96.225
527.75	99.871
528.09	101.863
528.43	99.108
528.78	98.279
529.12	95.939
529.46	96.448
529.80	97.958
530.15	98.442
530.49	97.354
530.83	96.392
531.17	100.196
531.51	99.611
531.86	98.516
532.20	98.827
532.54	98.206
532.88	96.855
533.22	94.254
533.57	96.728
533.91	94.762
534.25	95.687
534.59	96.156
534.93	95.955
535.27	94.568
535.62	95.177
535.96	96.359
536.30	95.804
536.64	95.750
536.98	96.483
537.32	96.511
537.66	96.800
538.01	95.853
538.35	96.315
538.69	96.873
539.03	93.892
539.37	95.144
539.71	95.010
540.05	95.817
540.39	97.409
540.73	94.114
541.07	96.431
541.42	96.347
541.76	95.161
542.10	95.149
542.44	96.755
542.78	96.509
543.12	93.602
543.46	94.295
543.80	95.511
544.14	94.031
544.48	93.841
544.82	93.778
545.16	95.120
545.50	93.252
545.84	94.892
546.18	95.892
546.52	97.109
546.86	97.388
547.20	95.212
547.54	94.790
547.88	96.046
548.22	92.590
548.56	92.453
548.90	94.430
549.24	95.354
549.58	94.543
549.92	94.918
550.26	97.088
550.60	93.914
550.94	97.394
551.28	96.489
551.62	95.902
551.96	97.053
552.30	94.198
552.64	94.726
552.98	95.119
553.32	93.661
553.66	96.455
554.00	95.264
554.34	94.686
554.68	96.209
555.02	95.910
555.36	94.015
555.69	92.219
556.03	93.203
556.37	94.611
556.71	94.884
557.05	96.008
557.39	94.822
557.73	93.719
558.07	96.882
558.41	97.395
558.75	95.518
559.08	97.614
559.42	99.244
559.76	96.838
560.10	93.148
560.44	94.549
560.78	92.016
561.12	93.272
561.45	91.982
561.79	92.156
562.13	94.702
562.47	94.331
562.81	96.234
563.15	92.241
563.48	92.772
563.82	92.629
564.16	92.544
564.50	91.797
564.84	91.087
565.17	91.892
565.51	93.163
565.85	92.259
566.19	91.046
566.52	93.034
566.86	89.391
567.20	91.097
567.54	89.326
567.88	88.322
568.21	88.201
568.55	85.642
568.89	86.089
569.23	83.734
569.56	82.024
569.90	81.094
570.24	80.553
570.57	79.973
570.91	77.634
571.25	78.073
571.59	77.143
571.92	76.786
572.26	77.874
572.60	77.808
572.93	77.781
573.27	77.551
573.61	76.829
573.95	75.478
574.28	75.126
574.62	74.611
574.96	74.074
575.29	74.054
575.63	74.721
575.97	74.382
576.30	74.827
576.64	75.512
576.98	73.772
577.31	73.614
577.65	72.986
577.98	73.060
578.32	72.121
578.66	72.117
578.99	74.389
579.33	74.219
579.67	74.167
580.00	73.963
580.34	75.581
580.67	74.190
581.01	73.982
581.35	73.226
581.68	71.936
582.02	71.436
582.35	71.501
582.69	71.783
583.02	72.714
583.36	74.176
583.70	74.750
584.03	74.138
584.37	75.626
584.70	75.078
585.04	74.609
585.37	73.509
585.71	73.567
586.04	73.883
586.38	75.862
586.72	75.338
587.05	74.436
587.39	73.958
587.72	74.646
588.06	74.947
588.39	74.266
588.73	75.301
589.06	76.379
589.40	77.677
589.73	77.860
590.07	77.438
590.40	76.580
590.73	79.820
591.07	79.813
591.40	80.135
591.74	80.693
592.07	79.843
592.41	78.834
592.74	78.015
593.08	75.450
593.41	74.438
593.75	73.423
594.08	75.059
594.41	75.362
594.75	77.375
595.08	76.342
595.42	75.622
595.75	76.531
596.09	76.868
596.42	77.917
596.75	78.092
597.09	78.398
597.42	75.843
597.75	78.655
598.09	77.304
598.42	76.847
598.76	76.287
599.09	75.751
599.42	73.690
599.76	75.146
600.09	74.208
600.42	74.543
600.76	74.214
601.09	74.463
601.42	74.886
601.76	75.560
602.09	76.324
602.42	75.239
602.76	76.018
603.09	76.161
603.42	76.103
603.76	74.047
604.09	73.982
604.42	75.703
604.76	75.622
605.09	76.977
605.42	74.989
605.75	75.331
606.09	76.007
606.42	76.093
606.75	74.699
607.09	75.010
607.42	75.267
607.75	73.671
608.08	75.076
608.42	76.020
608.75	75.158
609.08	76.226
609.41	75.631
609.75	76.131
610.08	76.107
610.41	75.047
610.74	76.585
611.07	77.174
611.41	75.908
611.74	77.074
612.07	77.484
612.40	78.437
612.73	77.316
613.07	78.394
613.40	77.304
613.73	76.717
614.06	77.903
614.39	75.878
614.72	75.842
615.06	76.628
615.39	76.115
615.72	74.642
616.05	75.598
616.38	76.765
616.71	78.741
617.05	77.503
617.38	77.571
617.71	78.078
618.04	79.687
618.37	77.705
618.70	78.780
619.03	79.803
619.36	80.991
619.69	80.704
620.03	80.907
620.36	78.944
620.69	81.438
621.02	82.965
621.35	82.224
621.68	82.710
622.01	81.889
622.34	81.241
622.67	80.989
623.00	79.897
623.33	78.771
623.66	80.772
623.99	83.652
624.32	80.100
624.65	80.297
624.99	79.816
625.32	81.318
625.65	81.292
625.98	82.936
626.31	81.182
626.64	82.367
626.97	83.375
627.30	84.123
627.63	83.101
627.96	84.525
628.29	83.640
628.62	86.642
628.95	86.604
629.28	86.131
629.61	85.151
629.94	86.857
630.26	85.701
630.59	83.889
630.92	85.824
631.25	85.390
631.58	86.887
631.91	89.249
632.24	86.814
632.57	87.933
632.90	87.171
633.23	89.485
633.56	91.186
633.89	89.694
634.22	89.217
634.55	91.598
634.88	90.659
635.20	91.995
635.53	91.566
635.86	92.574
636.19	87.529
636.52	87.082
636.85	88.202
637.18	86.982
637.51	88.534
637.83	87.546
638.16	92.327
638.49	91.814
638.82	92.415
639.15	89.375
639.48	87.656
639.81	93.700
640.13	87.240
640.46	90.201
640.79	91.149
641.12	89.271
641.45	94.134
641.77	98.675
642.10	93.713
642.43	94.444
642.76	95.046
643.09	95.552
643.41	92.109
643.74	93.981
644.07	94.512
644.40	93.865
644.73	95.276
645.05	93.819
645.38	91.153
645.71	93.881
646.04	98.837
646.36	97.329
646.69	95.987
647.02	96.088
647.35	96.564
647.67	101.593
648.00	92.520
648.33	94.554
648.66	88.939
648.98	87.406
649.31	88.640
649.64	91.480
649.96	89.866
650.29	92.575
650.62	91.424
650.94	92.545
651.27	94.595
651.60	95.674
651.92	89.617
652.25	89.414
652.58	88.162
652.90	91.469
653.23	88.752
653.56	88.976
653.88	89.699
654.21	89.731
654.54	91.089
654.86	90.031
655.19	82.568
655.52	57.980
655.84	49.155
656.17	63.149
656.49	85.006
656.82	87.736
657.15	67.037
657.47	50.653
657.80	38.960
658.13	41.162
658.45	62.519
658.78	62.882
659.10	66.041
659.43	69.707
659.75	72.443
660.08	81.329
660.41	85.382
660.73	88.310
661.06	94.108
661.38	94.545
661.71	94.615
662.03	95.464
662.36	90.457
662.68	92.169
663.01	92.929
663.33	98.726
663.66	93.277
663.98	93.089
664.31	95.798
664.63	89.879
664.96	88.330
665.28	93.033
665.61	89.279
665.93	91.549
666.26	93.509
666.58	94.142
666.91	96.829
667.23	98.876
667.56	95.248
667.88	94.658
668.21	92.324
668.53	93.492
668.86	91.342
669.18	93.603
669.50	96.739
669.83	93.900
670.15	96.444
670.48	93.464
670.80	96.767
671.13	92.357
671.45	90.213
671.77	93.686
672.10	87.431
672.42	84.629
672.75	82.090
673.07	86.268
673.39	84.810
673.72	87.305
674.04	88.824
674.37	87.767
674.69	89.980
675.01	88.912
675.34	92.402
675.66	93.895
675.98	89.206
676.31	90.966
676.63	90.234
676.95	92.662
677.28	95.093
677.60	89.231
677.92	91.350
678.25	90.965
678.57	86.056
678.89	87.976
679.22	85.658
679.54	87.405
679.86	85.321
680.18	82.111
680.51	84.397
680.83	81.851
681.15	84.906
681.48	86.389
681.80	82.785
682.12	85.249
682.44	82.785
682.77	84.521
683.09	89.270
683.41	90.244
683.73	90.508
684.06	84.504
684.38	79.452
684.70	82.364
685.02	81.051
685.34	80.586
685.67	78.147
685.99	76.460
686.31	78.328
686.63	77.385
686.96	78.929
687.28	78.881
687.60	79.891
687.92	81.901
688.24	83.270
688.56	84.337
688.89	84.440
689.21	84.716
689.53	82.046
689.85	88.027
690.17	80.952
690.49	84.289
690.82	89.720
691.14	84.598
691.46	82.489
691.78	81.526
692.10	82.231
692.42	80.240
692.74	80.705
693.06	84.043
693.39	79.877
693.71	81.004
694.03	82.526
694.35	81.169
694.67	83.066
694.99	84.390
695.31	83.824
695.63	83.971
695.95	85.086
696.27	83.503
696.59	89.119
696.91	85.233
697.23	79.343
697.56	79.104
697.88	74.438
698.20	76.667
698.52	80.000
698.84	78.842
699.16	81.336
699.48	83.610
699.80	83.816
700.12	87.273
700.44	86.207
700.76	88.674
701.08	87.931
701.40	87.430
701.72	88.921
702.04	91.477
702.36	81.586
702.68	91.785
703.00	83.380
703.32	82.447
703.64	86.059
703.96	85.515
704.28	88.663
704.60	87.097
704.91	90.208
705.23	82.991
705.55	91.030
705.87	92.359
706.19	91.519
706.51	85.358
706.83	86.364
707.15	84.594
707.47	79.040
707.79	77.887
708.11	75.342
708.43	75.000
708.74	78.061
709.06	80.000
709.38	80.577
709.70	85.756
710.02	81.899
710.34	82.727
710.66	85.672
710.98	84.943
711.29	86.047
711.61	85.251
711.93	82.692
712.25	89.389
712.57	101.838
712.89	88.235
713.20	80.851
713.52	88.816
713.84	85.443
714.16	81.098
714.48	81.609
714.80	87.538
715.11	81.844
715.43	80.415
715.75	80.870
716.07	85.304
716.39	79.310
716.70	85.382
717.02	87.410
717.34	81.625
717.66	91.418
717.97	93.227
718.29	82.963
718.61	89.416
718.93	89.706
719.24	84.775
719.56	80.678
719.88	85.424
720.20	86.149
720.51	84.321
720.83	88.104
721.15	82.463
721.46	81.560
721.78	87.455
722.10	87.547
722.42	86.090
722.73	82.022
723.05	93.443
723.37	90.688
723.68	88.031
724.00	88.211
724.32	86.290
724.63	84.553
724.95	84.100
725.27	89.879
725.58	86.328
725.90	81.752
726.22	88.302
726.53	79.514
726.85	80.887
727.16	80.427
727.48	81.206
727.80	88.258
728.11	83.696
728.43	80.385
728.74	81.720
729.06	81.387
729.38	81.250
729.69	80.783
730.01	76.451
730.32	78.819
730.64	75.920
730.96	75.578
731.27	77.483
731.59	78.593
731.90	72.303
732.22	77.019
732.53	69.969
732.85	78.526
733.16	72.669
733.48	76.744
733.80	75.325
734.11	78.025
734.43	71.006
734.74	70.000
735.06	68.481
735.37	75.145
735.69	74.522
736.00	83.007
736.32	71.028
736.63	72.524
736.95	75.719
737.26	72.789
737.58	71.613
737.89	74.916
738.21	76.792
738.52	78.214
738.83	75.472
739.15	77.692
739.46	75.912
739.78	71.528
740.09	75.385
740.41	75.161
740.72	73.868
741.04	77.407
741.35	77.500
741.66	87.111
741.98	84.434
742.29	89.952
742.61	82.328
742.92	85.520
743.23	74.359
743.55	78.800
743.86	85.088
744.18	87.611
744.49	85.167
744.80	89.202
745.12	90.909
745.43	79.736
745.74	83.333
746.06	83.028
746.37	84.305
746.68	87.330
747.00	81.481
747.31	89.524
747.62	77.876
747.94	81.938
748.25	75.745
748.56	89.868
748.88	88.614
749.19	90.500
749.50	79.535
749.82	74.797
750.13	73.878
750.44	70.803
750.75	70.526
751.07	72.026
751.38	74.913
751.69	73.646
752.01	75.564
752.32	70.758
752.63	75.532
752.94	75.410
753.26	78.000
753.57	70.732
753.88	80.859
754.19	68.571
754.51	73.611
754.82	68.592
755.13	76.604
755.44	72.556
755.75	71.898
756.07	70.567
756.38	71.168
756.69	72.819
757.00	66.168
757.31	60.237
757.63	66.374
757.94	60.858
758.25	58.333
758.56	59.753
758.87	62.366
759.18	66.667
759.50	61.442
759.81	68.224
760.12	64.687
760.43	62.464
760.74	61.957
761.05	62.429
761.36	60.963
761.67	63.920
761.99	66.460
762.30	68.056
762.61	75.191
762.92	74.609
763.23	74.790
763.54	76.000
763.85	67.969
764.16	70.385
764.47	74.905
764.78	67.845
765.10	62.025
765.41	60.177
765.72	65.269
766.03	63.323
766.34	65.667
766.65	77.021
766.96	75.214
767.27	76.142
767.58	82.812
767.89	82.632
768.20	84.483
768.51	83.249
768.82	72.018
769.13	67.073
769.44	69.636
769.75	71.245
770.06	60.092
770.37	75.566
770.68	75.926
770.99	74.667
771.30	67.623
771.61	78.475
771.92	70.902
772.23	74.790
772.54	78.974
772.85	80.628
773.16	76.064
773.47	85.870
773.78	78.680
774.09	82.143
774.39	85.965
774.70	79.012
775.01	91.304
775.32	84.967
775.63	90.789
775.94	84.173
776.25	96.063
776.56	95.522
776.87	100.820
777.18	95.312
777.48	96.947
777.79	101.515
778.10	89.630
778.41	105.357
778.72	86.861
779.03	87.248
779.34	83.893
779.65	84.459
779.95	83.436
780.26	83.007
780.57	90.345
780.88	98.437
781.19	87.218
781.50	88.514
781.80	76.730
782.11	79.096
782.42	77.848
782.73	75.460
783.04	83.108
783.34	83.099
783.65	86.301
783.96	88.060
784.27	79.021
784.57	85.612
784.88	102.778
785.19	96.032
785.50	99.057
785.81	90.299
786.11	94.262
786.42	82.171
786.73	93.805
787.04	104.717
787.34	98.214
787.65	107.000
787.96	96.396
788.26	93.388
788.57	105.085
788.88	94.215
789.19	80.556
789.49	103.030
789.80	91.603
790.11	106.667
790.41	105.941
790.72	97.590
791.03	106.522
791.33	117.442
791.64	90.722
791.95	98.020
792.25	114.444
792.56	116.883
792.87	130.769
793.17	129.114
793.48	122.989
793.79	109.195
794.09	114.773
794.40	88.235
794.70	84.559
795.01	74.815
795.32	79.856
795.62	86.614
795.93	93.966
796.23	93.805
796.54	102.353
796.85	113.514
797.15	128.169
797.46	128.788
797.76	131.325
798.07	112.658
798.37	127.692
798.68	125.758
798.99	121.127
799.29	119.481
799.60	100.000
799.90	130.137
800.21	132.836
800.51	160.345
800.82	150.877
801.12	139.344
801.43	124.242
801.73	121.622
802.04	146.032
802.34	104.938
802.65	132.812
802.95	149.153
803.26	132.813
803.56	107.143
803.87	124.615
804.17	130.882
804.48	142.593
804.78	131.034
805.09	123.529
805.39	157.692
805.70	126.786
806.00	139.344
806.30	125.758
806.61	113.415
806.91	110.127
807.22	119.737
807.52	116.418
807.83	135.211
808.13	131.250
808.43	128.333
808.74	102.632
809.04	123.188
809.35	128.358
809.65	98.684
809.95	116.129
810.26	145.763
810.56	123.810
810.86	161.364
811.17	200.000
811.47	138.333
811.77	153.704
812.08	147.273
812.38	156.000
812.69	188.889
812.99	175.000
813.29	146.939
813.59	157.143
813.90	161.224
814.20	145.455
814.50	109.231
814.81	139.706
815.11	173.469
815.41	139.344
815.72	200.000
816.02	158.182
816.32	164.286
816.62	165.000
816.93	178.049
817.23	190.476
817.53	170.455
817.84	236.364
818.14	154.348
818.44	155.556
818.74	188.235
819.04	177.500
819.35	197.143
819.65	235.294
819.95	232.143
820.25	250.000
820.56	202.564
820.86	170.455
821.16	174.419
821.46	176.923
821.76	164.000
822.07	185.714
822.37	192.500
822.67	200.000
822.97	156.863
823.27	232.143
823.57	170.270
823.88	180.000
824.18	213.333
824.48	161.905
824.78	224.000
825.08	266.667
825.38	181.081
825.69	175.610
825.99	254.167
826.29	200.000
826.59	200.000
826.89	184.211
827.19	179.412
827.49	225.806
827.79	188.636
828.09	161.364
828.39	159.574
828.70	151.020
829.00	188.889
829.30	245.161
829.60	160.000
829.90	446.667
830.20	250.000
830.50	243.478
830.80	260.870
831.10	223.333
831.40	203.333
831.70	230.435
832.00	261.538
832.30	240.741
832.60	387.500
832.90	273.333
833.20	400.000
833.50	216.129
833.80	248.276
834.10	240.625
834.40	261.538
834.70	294.444
835.00	304.762
835.30	205.714
835.60	469.231
835.90	244.828
836.20	357.143
836.50	241.379
836.80	228.000
837.10	197.222
837.40	309.524
837.70	347.059
838.00	248.148
838.30	261.905
838.60	352.381
838.90	250.000
839.19	320.000
839.49	492.857
839.79	405.000
840.09	340.000
840.39	319.048
840.69	269.565
840.99	344.444
841.29	560.000
841.59	408.333
841.88	443.750
842.18	224.138
842.48	309.524
842.78	220.000
843.08	265.217
843.38	212.500
843.68	1016.667
843.97	253.846
844.27	200.000
844.57	347.619
844.87	375.000
845.17	277.778
845.47	1800.000
845.76	522.222
846.06	376.471
846.36	625.000
846.66	457.143
846.96	325.000
847.25	490.909
847.55	500.000
847.85	317.391
848.15	630.000
848.44	392.857
848.74	300.000
849.04	376.471
849.34	650.000
849.63	315.789
849.93	481.818
850.23	1320.000
850.53	514.286
850.82	2950.000
851.12	-5600.000
851.42	5100.000
851.71	310.000
852.01	-1500.000
852.31	266.667
852.61	2066.667
852.90	314.286
853.20	268.000
853.50	305.882
853.79	347.619
854.09	262.500
854.39	418.750
854.68	200.000
854.98	212.903
855.28	243.333
855.57	248.276
855.87	244.444
856.17	289.474
856.46	360.000
856.76	282.353
857.05	237.931
857.35	266.667
857.65	380.000
857.94	300.000
858.24	226.923
858.53	305.000
858.83	318.182
859.13	366.667
859.42	0.000
859.72	555.556
860.01	500.000
860.31	263.636
860.60	273.684
860.90	252.174
861.20	566.667
861.49	525.000
861.79	-4400.000
862.08	562.500
862.38	323.810
862.67	353.846
862.97	405.882
863.26	644.444
863.56	350.000
863.85	450.000
864.15	712.500
864.44	486.667
864.74	1016.667
865.03	762.500
865.33	373.684
865.62	609.091
865.92	461.538
866.21	483.333
866.51	0.000
866.80	554.545
867.10	1240.000
867.39	484.615
867.69	536.364
867.98	326.316
868.27	472.727
868.57	310.526
868.86	-5100.000
869.16	431.250
869.45	2350.000
869.75	-4100.000
870.04	541.667
870.33	771.429
870.63	1400.000
870.92	2650.000
871.22	800.000
871.51	388.235
871.80	238.095
872.10	421.429
>>>>>End Processed Spectral Data<<<<<
