SpectraSuite Data File
++++++++++++++++++++++++++++++++++++
Date: Wed May 13 19:58:12 PDT 2015
User: schluterlab
Dark Spectrum Present: Yes
Reference Spectrum Present: Yes
Number of Sampled Component Spectra: 1
Spectrometers: USB2E3373
Integration Time (usec): 3000 (USB2E3373)
Spectra Averaged: 3 (USB2E3373)
Boxcar Smoothing: 0 (USB2E3373)
Correct for Electrical Dark: No (USB2E3373)
Strobe/Lamp Enabled: No (USB2E3373)
Correct for Detector Non-linearity: No (USB2E3373)
Correct for Stray Light: No (USB2E3373)
Number of Pixels in Processed Spectrum: 2048
>>>>>Begin Processed Spectral Data<<<<<
178.53	0.000
178.91	-1300.000
179.29	-1000.000
179.67	-183.333
180.04	-1075.000
180.42	1850.000
180.80	740.000
181.18	-800.000
181.56	585.714
181.94	0.000
182.31	-642.857
182.69	1766.667
183.07	-525.000
183.45	-544.444
183.83	472.727
184.20	-390.000
184.58	1900.000
184.96	4200.000
185.34	-920.000
185.72	-537.500
186.09	-2300.000
186.47	3100.000
186.85	2250.000
187.23	3800.000
187.61	-1433.333
187.98	1500.000
188.36	536.364
188.74	472.727
189.12	-840.000
189.49	560.000
189.87	-4600.000
190.25	-1125.000
190.63	364.286
191.00	392.308
191.38	900.000
191.76	-1050.000
192.14	1400.000
192.51	612.500
192.89	933.333
193.27	575.000
193.65	-1100.000
194.02	500.000
194.40	1080.000
194.78	480.000
195.15	483.333
195.53	670.000
195.91	-1950.000
196.29	381.250
196.66	252.632
197.04	-400.000
197.42	0.000
197.79	680.000
198.17	-4400.000
198.55	671.429
198.92	775.000
199.30	900.000
199.68	0.000
200.05	338.889
200.43	685.714
200.81	4100.000
201.18	1766.667
201.56	-1766.667
201.94	433.333
202.31	555.556
202.69	441.667
203.07	520.000
203.44	0.000
203.82	1350.000
204.19	714.286
204.57	435.714
204.95	562.500
205.32	1500.000
205.70	545.455
206.08	350.000
206.45	2600.000
206.83	312.500
207.20	850.000
207.58	800.000
207.96	338.889
208.33	725.000
208.71	-700.000
209.08	800.000
209.46	555.556
209.84	445.455
210.21	-1300.000
210.59	1325.000
210.96	-512.500
211.34	2000.000
211.71	530.000
212.09	750.000
212.46	0.000
212.84	1700.000
213.22	1075.000
213.59	-4600.000
213.97	800.000
214.34	700.000
214.72	536.364
215.09	1000.000
215.47	-2550.000
215.84	-1950.000
216.22	1533.333
216.59	414.286
216.97	1050.000
217.34	454.545
217.72	-683.333
218.09	0.000
218.47	-4400.000
218.84	588.889
219.22	714.286
219.59	1833.333
219.97	-714.286
220.34	1200.000
220.72	-1466.667
221.09	421.429
221.47	1400.000
221.84	-800.000
222.22	0.000
222.59	1375.000
222.97	-2900.000
223.34	1080.000
223.72	423.077
224.09	1140.000
224.46	1800.000
224.84	-5100.000
225.21	-1080.000
225.59	-4300.000
225.96	560.000
226.34	365.000
226.71	2350.000
227.08	637.500
227.46	600.000
227.83	-1000.000
228.21	-2100.000
228.58	611.111
228.95	-1950.000
229.33	-2350.000
229.70	1800.000
230.08	728.571
230.45	-780.000
230.82	441.667
231.20	700.000
231.57	628.571
231.95	458.333
232.32	227.273
232.69	418.182
233.07	700.000
233.44	369.231
233.81	-1733.333
234.19	342.105
234.56	416.667
234.93	408.333
235.31	381.818
235.68	300.000
236.05	335.714
236.43	157.576
236.80	247.368
237.17	4800.000
237.55	242.857
237.92	192.857
238.29	271.429
238.67	154.839
239.04	186.207
239.41	147.222
239.79	117.391
240.16	128.571
240.53	120.455
240.91	100.000
241.28	108.000
241.65	84.000
242.02	91.304
242.40	83.871
242.77	98.333
243.14	75.269
243.51	78.652
243.89	63.529
244.26	60.000
244.63	59.140
245.00	59.574
245.38	66.337
245.75	58.879
246.12	49.541
246.49	53.285
246.87	56.000
247.24	56.154
247.61	52.857
247.98	45.752
248.36	37.838
248.73	50.955
249.10	46.497
249.47	35.028
249.84	44.920
250.22	43.316
250.59	42.604
250.96	40.404
251.33	39.810
251.70	41.584
252.08	33.333
252.45	30.493
252.82	32.609
253.19	35.745
253.56	36.078
253.94	39.004
254.31	33.203
254.68	32.692
255.05	32.841
255.42	31.301
255.79	32.721
256.16	32.130
256.54	28.975
256.91	33.452
257.28	28.417
257.65	28.383
258.02	28.882
258.39	27.445
258.76	27.090
259.14	29.464
259.51	28.571
259.88	23.913
260.25	28.399
260.62	26.879
260.99	25.776
261.36	27.027
261.73	28.653
262.10	27.616
262.47	32.958
262.85	28.134
263.22	26.496
263.59	29.630
263.96	28.571
264.33	26.110
264.70	27.632
265.07	26.598
265.44	28.030
265.81	25.791
266.18	23.618
266.55	22.927
266.92	25.553
267.29	25.000
267.66	24.771
268.03	25.682
268.40	22.664
268.77	21.241
269.14	25.676
269.51	25.508
269.88	25.874
270.25	23.702
270.62	23.820
270.99	27.097
271.36	24.893
271.73	22.196
272.10	21.957
272.47	24.946
272.84	23.593
273.21	24.109
273.58	22.707
273.95	20.964
274.32	22.107
274.69	23.983
275.06	21.260
275.43	22.979
275.80	22.645
276.17	19.552
276.54	20.374
276.91	22.727
277.28	22.266
277.65	21.470
278.02	20.497
278.39	23.633
278.76	19.273
279.13	23.208
279.50	21.974
279.87	23.705
280.23	22.355
280.60	21.663
280.97	20.702
281.34	21.770
281.71	23.818
282.08	21.689
282.45	20.909
282.82	22.380
283.19	19.608
283.56	20.526
283.92	21.489
284.29	20.282
284.66	19.056
285.03	19.711
285.40	20.951
285.77	20.539
286.14	18.998
286.51	20.000
286.87	19.316
287.24	20.195
287.61	20.064
287.98	20.942
288.35	18.384
288.72	19.626
289.08	19.562
289.45	18.946
289.82	20.000
290.19	18.053
290.56	17.917
290.93	16.163
291.29	19.632
291.66	17.404
292.03	18.895
292.40	20.999
292.77	18.195
293.13	18.060
293.50	17.055
293.87	16.889
294.24	17.333
294.60	17.031
294.97	18.605
295.34	17.348
295.71	16.761
296.08	15.812
296.44	16.094
296.81	17.041
297.18	18.428
297.55	13.456
297.91	16.623
298.28	16.867
298.65	18.277
299.02	16.469
299.38	14.741
299.75	14.151
300.12	15.070
300.48	14.875
300.85	17.139
301.22	14.522
301.59	14.646
301.95	13.980
302.32	13.864
302.69	15.890
303.05	15.273
303.42	15.062
303.79	15.176
304.15	14.569
304.52	14.137
304.89	14.634
305.25	14.037
305.62	15.062
305.99	14.522
306.35	14.653
306.72	14.013
307.09	14.428
307.45	14.752
307.82	13.058
308.19	13.687
308.55	14.132
308.92	13.319
309.29	13.305
309.65	13.362
310.02	13.319
310.38	13.871
310.75	12.777
311.12	14.534
311.48	14.420
311.85	13.941
312.22	14.048
312.58	13.410
312.95	14.361
313.31	12.039
313.68	12.994
314.05	14.497
314.41	14.070
314.78	13.092
315.14	13.108
315.51	14.006
315.87	13.366
316.24	13.108
316.61	12.378
316.97	13.796
317.34	12.524
317.70	12.237
318.07	12.897
318.43	13.209
318.80	13.590
319.16	12.806
319.53	13.227
319.89	14.000
320.26	13.300
320.62	14.286
320.99	14.242
321.35	13.232
321.72	13.860
322.08	14.314
322.45	14.726
322.81	14.244
323.18	13.680
323.54	13.729
323.91	14.811
324.27	12.620
324.64	12.022
325.00	13.165
325.37	14.741
325.73	13.914
326.10	13.592
326.46	13.441
326.83	14.582
327.19	14.091
327.56	14.024
327.92	14.261
328.29	14.907
328.65	13.076
329.01	12.906
329.38	14.246
329.74	14.497
330.11	13.478
330.47	13.682
330.84	15.717
331.20	13.843
331.56	14.771
331.93	13.426
332.29	13.931
332.66	15.044
333.02	13.803
333.38	14.182
333.75	15.152
334.11	14.235
334.48	14.463
334.84	14.154
335.20	14.000
335.57	13.599
335.93	13.571
336.29	13.370
336.66	13.436
337.02	13.394
337.38	13.796
337.75	13.904
338.11	13.876
338.47	13.812
338.84	15.032
339.20	12.202
339.56	14.507
339.93	14.091
340.29	13.678
340.65	14.617
341.02	13.351
341.38	14.146
341.74	13.333
342.11	13.624
342.47	13.656
342.83	13.442
343.20	13.680
343.56	13.311
343.92	13.158
344.28	13.776
344.65	14.273
345.01	14.394
345.37	12.350
345.73	13.367
346.10	13.214
346.46	14.492
346.82	13.921
347.19	12.531
347.55	12.479
347.91	12.945
348.27	13.394
348.63	13.127
349.00	12.136
349.36	13.136
349.72	13.873
350.08	12.642
350.45	12.856
350.81	12.916
351.17	12.561
351.53	12.531
351.89	11.799
352.26	13.575
352.62	13.472
352.98	12.561
353.34	12.983
353.70	12.602
354.07	12.661
354.43	12.857
354.79	11.504
355.15	12.131
355.51	13.669
355.87	12.653
356.24	12.052
356.60	11.949
356.96	12.389
357.32	12.183
357.68	12.205
358.04	12.431
358.40	12.985
358.77	11.894
359.13	12.944
359.49	12.157
359.85	10.476
360.21	11.324
360.57	13.463
360.93	12.615
361.29	13.757
361.66	11.687
362.02	12.761
362.38	12.624
362.74	12.351
363.10	11.547
363.46	11.739
363.82	12.623
364.18	11.894
364.54	12.704
364.90	12.535
365.26	12.132
365.62	13.221
365.98	11.249
366.35	10.888
366.71	12.364
367.07	11.799
367.43	12.627
367.79	12.348
368.15	11.710
368.51	11.337
368.87	11.991
369.23	11.558
369.59	12.020
369.95	11.324
370.31	11.752
370.67	10.290
371.03	12.734
371.39	12.026
371.75	11.250
372.11	11.238
372.47	13.343
372.83	11.239
373.19	11.127
373.55	11.382
373.91	13.108
374.27	11.821
374.63	11.273
374.99	12.288
375.35	10.886
375.71	11.103
376.07	12.140
376.42	11.486
376.78	12.061
377.14	11.737
377.50	11.391
377.86	11.370
378.22	11.884
378.58	10.589
378.94	11.565
379.30	10.305
379.66	11.294
380.02	11.302
380.38	11.050
380.74	11.405
381.09	10.819
381.45	11.494
381.81	11.548
382.17	11.146
382.53	10.943
382.89	11.235
383.25	10.444
383.61	11.524
383.97	11.382
384.32	11.416
384.68	11.400
385.04	11.002
385.40	10.526
385.76	11.425
386.12	10.751
386.48	11.202
386.83	10.840
387.19	11.688
387.55	10.513
387.91	10.157
388.27	10.546
388.62	11.494
388.98	10.627
389.34	11.202
389.70	10.668
390.06	11.153
390.42	11.414
390.77	11.069
391.13	11.040
391.49	11.802
391.85	10.121
392.20	10.221
392.56	10.859
392.92	10.359
393.28	9.941
393.64	10.911
393.99	10.996
394.35	11.042
394.71	10.916
395.07	10.966
395.42	11.125
395.78	11.832
396.14	10.987
396.50	11.905
396.85	10.362
397.21	10.419
397.57	10.973
397.92	10.817
398.28	10.314
398.64	10.992
399.00	10.744
399.35	10.547
399.71	10.069
400.07	10.940
400.42	10.675
400.78	11.520
401.14	10.244
401.49	10.388
401.85	11.010
402.21	10.120
402.57	11.104
402.92	10.467
403.28	10.931
403.63	10.582
403.99	10.255
404.35	11.030
404.70	10.671
405.06	10.716
405.42	10.917
405.77	9.771
406.13	11.005
406.49	10.704
406.84	11.164
407.20	9.811
407.55	10.849
407.91	10.800
408.27	10.593
408.62	10.596
408.98	10.723
409.34	10.271
409.69	10.839
410.05	11.090
410.40	10.887
410.76	10.693
411.11	10.977
411.47	10.607
411.83	11.118
412.18	10.946
412.54	10.897
412.89	10.964
413.25	10.685
413.60	10.624
413.96	10.322
414.31	10.632
414.67	11.407
415.03	11.788
415.38	11.147
415.74	11.061
416.09	11.430
416.45	10.776
416.80	11.104
417.16	12.466
417.51	11.679
417.87	10.726
418.22	10.726
418.58	11.556
418.93	11.671
419.29	10.567
419.64	11.902
420.00	11.585
420.35	11.478
420.71	11.237
421.06	10.382
421.42	10.877
421.77	11.155
422.12	10.107
422.48	10.200
422.83	11.357
423.19	10.994
423.54	10.911
423.90	10.957
424.25	10.776
424.61	11.071
424.96	11.370
425.31	10.631
425.67	10.562
426.02	10.400
426.38	11.233
426.73	10.474
427.09	11.246
427.44	10.178
427.79	10.063
428.15	11.131
428.50	10.884
428.85	11.383
429.21	11.375
429.56	11.042
429.92	10.267
430.27	10.079
430.62	10.036
430.98	10.898
431.33	11.186
431.68	10.733
432.04	10.011
432.39	10.680
432.74	11.011
433.10	11.149
433.45	10.845
433.80	10.144
434.16	10.417
434.51	10.737
434.86	11.060
435.22	10.561
435.57	11.003
435.92	11.235
436.28	11.388
436.63	10.982
436.98	10.647
437.34	11.747
437.69	10.793
438.04	10.455
438.39	11.761
438.75	11.447
439.10	10.447
439.45	11.629
439.81	10.816
440.16	11.011
440.51	11.482
440.86	11.233
441.22	11.290
441.57	11.359
441.92	10.747
442.27	10.926
442.63	11.006
442.98	11.775
443.33	10.870
443.68	10.738
444.03	11.127
444.39	10.759
444.74	10.227
445.09	10.997
445.44	11.372
445.79	11.529
446.15	11.540
446.50	11.901
446.85	10.791
447.20	10.862
447.55	11.446
447.91	10.811
448.26	11.297
448.61	11.588
448.96	11.683
449.31	11.980
449.66	12.043
450.02	11.142
450.37	11.791
450.72	11.393
451.07	11.944
451.42	10.881
451.77	11.861
452.12	11.201
452.47	11.381
452.83	11.888
453.18	11.736
453.53	12.183
453.88	11.695
454.23	11.775
454.58	11.993
454.93	12.206
455.28	11.658
455.63	11.711
455.98	12.500
456.34	12.312
456.69	11.772
457.04	11.950
457.39	12.098
457.74	11.492
458.09	12.248
458.44	12.201
458.79	11.659
459.14	11.738
459.49	12.434
459.84	11.524
460.19	11.137
460.54	11.863
460.89	11.794
461.24	11.900
461.59	12.667
461.94	11.529
462.29	12.878
462.64	11.423
462.99	11.841
463.34	13.133
463.69	12.883
464.04	12.986
464.39	11.942
464.74	12.181
465.09	12.063
465.44	11.856
465.79	11.465
466.14	12.151
466.49	12.013
466.84	12.493
467.19	12.975
467.54	12.813
467.89	12.665
468.24	12.333
468.59	12.882
468.94	12.584
469.29	13.111
469.64	13.387
469.99	12.652
470.34	12.880
470.68	12.572
471.03	12.381
471.38	13.829
471.73	14.057
472.08	13.421
472.43	13.065
472.78	12.903
473.13	12.580
473.48	13.733
473.83	12.683
474.17	12.259
474.52	12.841
474.87	12.434
475.22	12.652
475.57	12.359
475.92	12.268
476.27	12.232
476.61	12.741
476.96	12.205
477.31	12.297
477.66	12.199
478.01	12.493
478.36	12.427
478.70	12.150
479.05	11.821
479.40	13.153
479.75	12.761
480.10	11.431
480.45	11.899
480.79	11.515
481.14	12.035
481.49	12.008
481.84	11.751
482.19	12.222
482.53	11.881
482.88	11.913
483.23	12.150
483.58	12.420
483.92	12.371
484.27	11.329
484.62	11.466
484.97	11.707
485.31	11.062
485.66	9.857
486.01	9.027
486.36	8.830
486.70	8.821
487.05	9.562
487.40	9.653
487.75	10.487
488.09	10.767
488.44	10.707
488.79	11.971
489.13	12.147
489.48	11.582
489.83	11.394
490.17	12.144
490.52	12.179
490.87	12.212
491.22	12.233
491.56	12.483
491.91	12.750
492.26	12.494
492.60	12.581
492.95	12.208
493.30	12.897
493.64	12.692
493.99	12.674
494.34	12.350
494.68	12.454
495.03	12.359
495.37	12.890
495.72	12.183
496.07	13.039
496.41	11.814
496.76	12.005
497.11	12.742
497.45	12.250
497.80	12.284
498.14	12.899
498.49	12.390
498.84	12.752
499.18	12.333
499.53	13.058
499.87	12.349
500.22	12.765
500.56	13.495
500.91	12.404
501.26	12.470
501.60	12.909
501.95	12.695
502.29	12.324
502.64	12.942
502.98	12.249
503.33	12.340
503.67	12.251
504.02	12.629
504.36	12.962
504.71	12.799
505.06	12.771
505.40	13.466
505.75	12.874
506.09	12.828
506.44	12.876
506.78	13.736
507.13	13.579
507.47	14.040
507.82	13.475
508.16	13.121
508.51	13.749
508.85	13.009
509.19	12.653
509.54	13.367
509.88	13.241
510.23	13.676
510.57	14.241
510.92	13.931
511.26	13.823
511.61	14.471
511.95	13.987
512.30	12.831
512.64	14.240
512.98	14.630
513.33	13.758
513.67	13.394
514.02	14.286
514.36	14.637
514.70	14.721
515.05	13.553
515.39	15.087
515.74	14.245
516.08	15.316
516.42	15.483
516.77	15.050
517.11	14.817
517.46	14.842
517.80	15.215
518.14	14.418
518.49	14.469
518.83	14.545
519.17	14.896
519.52	14.884
519.86	14.546
520.20	15.954
520.55	15.619
520.89	14.720
521.23	15.802
521.58	14.946
521.92	15.248
522.26	15.497
522.61	15.452
522.95	15.163
523.29	15.886
523.64	16.098
523.98	15.712
524.32	15.199
524.66	15.514
525.01	16.054
525.35	15.118
525.69	15.086
526.04	16.075
526.38	15.375
526.72	15.706
527.06	16.133
527.41	15.099
527.75	15.563
528.09	15.222
528.43	15.360
528.78	15.181
529.12	14.970
529.46	15.983
529.80	15.718
530.15	15.389
530.49	15.692
530.83	16.329
531.17	16.645
531.51	15.953
531.86	16.000
532.20	17.014
532.54	16.400
532.88	16.367
533.22	15.865
533.57	15.432
533.91	15.774
534.25	15.978
534.59	15.863
534.93	15.051
535.27	16.053
535.62	15.568
535.96	15.568
536.30	15.194
536.64	16.033
536.98	15.926
537.32	15.734
537.66	16.800
538.01	16.129
538.35	15.708
538.69	16.401
539.03	15.530
539.37	15.783
539.71	13.999
540.05	15.294
540.39	15.216
540.73	16.235
541.07	17.067
541.42	15.982
541.76	16.839
542.10	16.171
542.44	16.026
542.78	17.062
543.12	16.123
543.46	16.525
543.80	16.461
544.14	14.827
544.48	16.063
544.82	15.715
545.16	16.265
545.50	14.974
545.84	15.524
546.18	16.027
546.52	16.173
546.86	16.357
547.20	16.183
547.54	15.965
547.88	16.709
548.22	15.629
548.56	15.597
548.90	15.365
549.24	14.815
549.58	16.576
549.92	16.484
550.26	16.903
550.60	17.220
550.94	17.183
551.28	16.679
551.62	17.541
551.96	16.140
552.30	16.860
552.64	17.512
552.98	16.814
553.32	16.049
553.66	17.110
554.00	16.609
554.34	16.011
554.68	17.954
555.02	16.855
555.36	16.493
555.69	16.509
556.03	16.689
556.37	16.849
556.71	17.121
557.05	16.807
557.39	17.985
557.73	16.796
558.07	16.534
558.41	16.932
558.75	17.120
559.08	17.673
559.42	16.553
559.76	17.426
560.10	15.989
560.44	16.143
560.78	15.835
561.12	16.953
561.45	16.688
561.79	15.227
562.13	16.834
562.47	16.462
562.81	17.155
563.15	15.987
563.48	16.578
563.82	16.765
564.16	15.435
564.50	15.365
564.84	15.740
565.17	16.088
565.51	15.655
565.85	16.244
566.19	15.466
566.52	16.276
566.86	15.190
567.20	15.330
567.54	15.753
567.88	14.014
568.21	14.709
568.55	14.055
568.89	13.521
569.23	13.547
569.56	12.429
569.90	12.604
570.24	12.020
570.57	12.037
570.91	11.248
571.25	11.921
571.59	11.694
571.92	11.204
572.26	11.179
572.60	11.592
572.93	11.664
573.27	11.683
573.61	11.614
573.95	11.395
574.28	10.628
574.62	10.423
574.96	10.585
575.29	10.572
575.63	10.874
575.97	11.091
576.30	11.312
576.64	10.614
576.98	10.233
577.31	10.328
577.65	10.076
577.98	9.891
578.32	10.008
578.66	10.273
578.99	10.477
579.33	10.821
579.67	10.265
580.00	10.405
580.34	10.536
580.67	10.518
581.01	10.322
581.35	9.757
581.68	10.192
582.02	9.655
582.35	9.494
582.69	9.949
583.02	10.107
583.36	10.560
583.70	10.989
584.03	10.867
584.37	11.252
584.70	10.841
585.04	10.494
585.37	10.275
585.71	10.597
586.04	10.727
586.38	10.397
586.72	10.881
587.05	10.921
587.39	10.923
587.72	10.848
588.06	10.699
588.39	11.358
588.73	11.088
589.06	11.873
589.40	11.279
589.73	11.827
590.07	12.028
590.40	11.984
590.73	12.490
591.07	13.268
591.40	13.370
591.74	13.333
592.07	13.133
592.41	12.857
592.74	11.648
593.08	11.626
593.41	11.515
593.75	10.962
594.08	11.364
594.41	12.372
594.75	12.348
595.08	11.918
595.42	12.049
595.75	12.179
596.09	12.730
596.42	12.770
596.75	13.128
597.09	13.377
597.42	12.563
597.75	13.540
598.09	13.087
598.42	13.015
598.76	12.606
599.09	11.821
599.42	11.317
599.76	11.969
600.09	11.475
600.42	12.126
600.76	11.607
601.09	11.694
601.42	12.139
601.76	12.258
602.09	12.213
602.42	12.699
602.76	12.696
603.09	12.470
603.42	12.378
603.76	12.424
604.09	12.214
604.42	12.923
604.76	12.822
605.09	12.888
605.42	12.569
605.75	12.376
606.09	12.322
606.42	12.219
606.75	12.899
607.09	12.976
607.42	13.136
607.75	12.616
608.08	12.809
608.42	14.074
608.75	12.849
609.08	13.182
609.41	12.946
609.75	13.149
610.08	12.959
610.41	13.361
610.74	13.482
611.07	13.439
611.41	14.082
611.74	14.178
612.07	13.923
612.40	14.638
612.73	14.211
613.07	14.116
613.40	13.744
613.73	12.900
614.06	13.656
614.39	14.473
614.72	14.842
615.06	14.653
615.39	13.907
615.72	14.008
616.05	13.663
616.38	13.952
616.71	15.083
617.05	15.018
617.38	14.672
617.71	14.895
618.04	15.325
618.37	14.666
618.70	15.930
619.03	16.250
619.36	16.158
619.69	15.775
620.03	16.827
620.36	16.310
620.69	16.438
621.02	16.888
621.35	16.601
621.68	15.888
622.01	16.873
622.34	16.793
622.67	16.578
623.00	16.654
623.33	15.654
623.66	16.655
623.99	16.716
624.32	16.690
624.65	16.384
624.99	16.572
625.32	16.293
625.65	17.431
625.98	16.526
626.31	17.729
626.64	18.367
626.97	18.953
627.30	17.041
627.63	18.212
627.96	18.755
628.29	17.935
628.62	19.122
628.95	20.849
629.28	18.796
629.61	19.798
629.94	19.905
630.26	18.398
630.59	19.828
630.92	19.540
631.25	18.954
631.58	19.720
631.91	19.168
632.24	19.304
632.57	21.091
632.90	20.833
633.23	21.029
633.56	23.051
633.89	22.763
634.22	21.226
634.55	22.485
634.88	22.275
635.20	22.581
635.53	23.133
635.86	23.639
636.19	22.118
636.52	21.684
636.85	21.535
637.18	20.507
637.51	23.286
637.83	19.852
638.16	22.890
638.49	23.678
638.82	21.492
639.15	22.750
639.48	24.190
639.81	24.263
640.13	23.047
640.46	22.416
640.79	23.778
641.12	21.871
641.45	23.743
641.77	24.890
642.10	23.392
642.43	24.925
642.76	23.994
643.09	24.080
643.41	22.458
643.74	24.846
644.07	23.476
644.40	24.693
644.73	25.827
645.05	25.990
645.38	26.540
645.71	26.731
646.04	25.415
646.36	29.215
646.69	28.261
647.02	26.871
647.35	28.694
647.67	26.372
648.00	26.667
648.33	24.752
648.66	24.848
648.98	24.888
649.31	23.019
649.64	21.824
649.96	23.696
650.29	25.750
650.62	24.919
650.94	23.987
651.27	27.027
651.60	26.456
651.92	26.677
652.25	26.547
652.58	25.857
652.90	24.487
653.23	22.650
653.56	25.039
653.88	25.198
654.21	26.540
654.54	24.422
654.86	25.078
655.19	22.838
655.52	12.134
655.84	7.595
656.17	9.111
656.49	11.854
656.82	12.273
657.15	9.718
657.47	7.510
657.80	6.040
658.13	6.305
658.45	9.878
658.78	10.323
659.10	11.416
659.43	12.423
659.75	13.042
660.08	15.633
660.41	17.784
660.73	21.347
661.06	23.408
661.38	26.182
661.71	28.846
662.03	27.416
662.36	27.038
662.68	27.912
663.01	26.869
663.33	28.025
663.66	30.462
663.98	30.022
664.31	28.361
664.63	27.733
664.96	25.956
665.28	30.943
665.61	26.706
665.93	28.571
666.26	26.978
666.58	31.799
666.91	28.330
667.23	28.764
667.56	25.702
667.88	33.547
668.21	27.719
668.53	29.935
668.86	26.407
669.18	30.064
669.50	29.565
669.83	31.373
670.15	30.889
670.48	29.194
670.80	29.957
671.13	28.662
671.45	28.511
671.77	28.310
672.10	24.954
672.42	24.912
672.75	24.212
673.07	24.824
673.39	24.231
673.72	25.781
674.04	28.627
674.37	24.660
674.69	26.380
675.01	25.941
675.34	31.828
675.66	29.263
675.98	28.310
676.31	30.882
676.63	29.936
676.95	29.140
677.28	27.103
677.60	31.429
677.92	29.958
678.25	28.542
678.57	26.892
678.89	25.651
679.22	25.737
679.54	29.389
679.86	29.174
680.18	26.834
680.51	24.823
680.83	27.758
681.15	27.547
681.48	27.410
681.80	24.371
682.12	25.287
682.44	23.791
682.77	28.717
683.09	30.687
683.41	28.825
683.73	30.684
684.06	31.198
684.38	25.440
684.70	28.488
685.02	25.516
685.34	24.542
685.67	23.427
685.99	23.196
686.31	23.891
686.63	23.498
686.96	22.500
687.28	26.354
687.60	21.377
687.92	26.874
688.24	23.954
688.56	26.104
688.89	27.801
689.21	29.694
689.53	29.436
689.85	29.268
690.17	28.157
690.49	28.025
690.82	28.271
691.14	26.339
691.46	26.160
691.78	24.297
692.10	25.620
692.42	29.541
692.74	23.651
693.06	25.532
693.39	25.873
693.71	25.764
694.03	26.737
694.35	26.407
694.67	28.604
694.99	29.512
695.31	29.657
695.63	27.990
695.95	30.562
696.27	28.934
696.59	30.052
696.91	31.347
697.23	25.587
697.56	26.013
697.88	25.358
698.20	25.833
698.52	24.731
698.84	26.281
699.16	28.341
699.48	26.841
699.80	30.435
700.12	32.987
700.44	32.095
700.76	29.282
701.08	31.897
701.40	33.240
701.72	34.694
702.04	35.227
702.36	30.595
702.68	30.595
703.00	31.302
703.32	29.255
703.64	32.708
703.96	29.805
704.28	30.814
704.60	34.311
704.91	32.938
705.23	35.484
705.55	37.874
705.87	36.545
706.19	33.569
706.51	33.956
706.83	34.848
707.15	33.894
707.47	27.525
707.79	28.501
708.11	28.082
708.43	26.905
708.74	25.255
709.06	28.831
709.38	30.709
709.70	31.686
710.02	33.234
710.34	31.212
710.66	33.134
710.98	32.102
711.29	31.395
711.61	34.218
711.93	31.090
712.25	31.511
712.57	36.029
712.89	34.256
713.20	35.866
713.52	37.500
713.84	31.646
714.16	33.841
714.48	32.471
714.80	37.386
715.11	31.988
715.43	29.970
715.75	31.304
716.07	32.907
716.39	32.288
716.70	35.216
717.02	39.928
717.34	37.102
717.66	34.701
717.97	41.833
718.29	39.630
718.61	33.942
718.93	37.868
719.24	35.986
719.56	35.593
719.88	33.220
720.20	37.500
720.51	32.056
720.83	34.944
721.15	30.597
721.46	29.433
721.78	36.201
722.10	32.075
722.42	37.594
722.73	33.333
723.05	36.885
723.37	35.223
723.68	34.749
724.00	36.179
724.32	36.290
724.63	34.553
724.95	35.983
725.27	39.271
725.58	41.406
725.90	36.861
726.22	33.208
726.53	30.903
726.85	31.058
727.16	37.722
727.48	34.397
727.80	36.364
728.11	30.797
728.43	33.462
728.74	34.767
729.06	33.212
729.38	41.544
729.69	36.299
730.01	33.106
730.32	28.125
730.64	33.110
730.96	30.693
731.27	33.444
731.59	32.110
731.90	31.487
732.22	30.745
732.53	26.316
732.85	28.205
733.16	30.225
733.48	34.551
733.80	30.195
734.11	30.573
734.43	29.586
734.74	25.143
735.06	27.794
735.37	30.636
735.69	28.025
736.00	31.046
736.32	30.841
736.63	29.073
736.95	29.712
737.26	27.211
737.58	30.323
737.89	37.124
738.21	35.154
738.52	32.143
738.83	31.698
739.15	33.846
739.46	35.036
739.78	32.292
740.09	33.538
740.41	31.613
740.72	32.056
741.04	36.296
741.35	35.833
741.66	40.444
741.98	36.321
742.29	43.062
742.61	43.534
742.92	38.009
743.23	41.453
743.55	39.600
743.86	41.228
744.18	42.035
744.49	41.148
744.80	47.887
745.12	40.909
745.43	33.921
745.74	45.495
746.06	44.495
746.37	39.013
746.68	39.367
747.00	44.444
747.31	45.238
747.62	37.611
747.94	34.361
748.25	34.468
748.56	42.291
748.88	44.059
749.19	47.000
749.50	40.465
749.82	36.585
750.13	36.327
750.44	32.482
750.75	35.088
751.07	34.084
751.38	31.359
751.69	31.408
752.01	28.947
752.32	33.574
752.63	33.333
752.94	36.475
753.26	36.400
753.57	36.585
753.88	37.109
754.19	36.786
754.51	32.639
754.82	31.047
755.13	32.830
755.44	36.466
755.75	30.657
756.07	32.270
756.38	29.197
756.69	31.544
757.00	29.042
757.31	26.706
757.63	29.825
757.94	24.665
758.25	29.412
758.56	24.691
758.87	26.882
759.18	29.697
759.50	28.213
759.81	32.087
760.12	25.000
760.43	30.086
760.74	24.728
761.05	27.401
761.36	25.668
761.67	29.830
761.99	30.124
762.30	30.556
762.61	39.313
762.92	34.766
763.23	39.916
763.54	40.400
763.85	30.859
764.16	34.231
764.47	33.840
764.78	31.095
765.10	29.114
765.41	28.909
765.72	25.150
766.03	28.213
766.34	30.000
766.65	37.447
766.96	36.325
767.27	44.670
767.58	46.875
767.89	42.632
768.20	44.828
768.51	38.071
768.82	39.908
769.13	35.772
769.44	33.603
769.75	33.476
770.06	32.110
770.37	39.819
770.68	41.667
770.99	36.444
771.30	32.377
771.61	35.874
771.92	36.885
772.23	39.076
772.54	39.487
772.85	41.361
773.16	43.085
773.47	44.022
773.78	43.147
774.09	38.690
774.39	39.766
774.70	45.062
775.01	48.551
775.32	50.980
775.63	48.684
775.94	53.237
776.25	56.693
776.56	51.493
776.87	54.918
777.18	60.156
777.48	61.832
777.79	50.000
778.10	61.481
778.41	59.821
778.72	49.635
779.03	50.336
779.34	53.020
779.65	37.838
779.95	46.626
780.26	52.941
780.57	60.000
780.88	56.250
781.19	53.383
781.50	50.676
781.80	49.057
782.11	39.548
782.42	38.608
782.73	39.877
783.04	40.541
783.34	50.000
783.65	54.110
783.96	52.239
784.27	53.846
784.57	47.482
784.88	51.852
785.19	54.762
785.50	58.491
785.81	58.955
786.11	54.098
786.42	65.116
786.73	58.407
787.04	58.491
787.34	64.286
787.65	63.000
787.96	62.162
788.26	53.719
788.57	55.085
788.88	55.372
789.19	56.944
789.49	59.848
789.80	61.069
790.11	80.952
790.41	66.337
790.72	59.036
791.03	67.391
791.33	72.093
791.64	65.979
791.95	71.287
792.25	77.778
792.56	75.325
792.87	83.333
793.17	94.937
793.48	82.759
793.79	73.563
794.09	70.455
794.40	55.462
794.70	58.088
795.01	50.370
795.32	48.921
795.62	50.394
795.93	57.759
796.23	55.752
796.54	69.412
796.85	71.622
797.15	92.958
797.46	84.848
797.76	78.313
798.07	78.481
798.37	69.231
798.68	86.364
798.99	92.958
799.29	77.922
799.60	78.409
799.90	80.822
800.21	80.597
800.51	112.069
800.82	107.018
801.12	96.721
801.43	96.970
801.73	79.730
802.04	103.175
802.34	96.296
802.65	96.875
802.95	98.305
803.26	100.000
803.56	77.143
803.87	87.692
804.17	92.647
804.48	105.556
804.78	74.138
805.09	98.529
805.39	101.923
805.70	96.429
806.00	109.836
806.30	93.939
806.61	71.951
806.91	69.620
807.22	81.579
807.52	68.657
807.83	92.958
808.13	100.000
808.43	110.000
808.74	77.632
809.04	95.652
809.35	97.015
809.65	78.947
809.95	109.677
810.26	108.475
810.56	96.825
810.86	138.636
811.17	138.095
811.47	118.333
811.77	107.407
812.08	121.818
812.38	126.000
812.69	147.222
812.99	150.000
813.29	132.653
813.59	97.619
813.90	136.735
814.20	103.636
814.50	78.462
814.81	107.353
815.11	108.163
815.41	100.000
815.72	147.619
816.02	120.000
816.32	119.048
816.62	147.500
816.93	141.463
817.23	150.000
817.53	136.364
817.84	154.545
818.14	139.130
818.44	120.000
818.74	167.647
819.04	152.500
819.35	188.571
819.65	170.588
819.95	200.000
820.25	220.000
820.56	146.154
820.86	127.273
821.16	132.558
821.46	100.000
821.76	144.000
822.07	142.857
822.37	132.500
822.67	160.606
822.97	113.725
823.27	175.000
823.57	154.054
823.88	162.500
824.18	170.000
824.48	159.524
824.78	196.000
825.08	187.500
825.38	151.351
825.69	129.268
825.99	250.000
826.29	179.310
826.59	165.789
826.89	176.316
827.19	188.235
827.49	174.194
827.79	145.455
828.09	129.545
828.39	134.043
828.70	120.408
829.00	137.037
829.30	183.871
829.60	130.000
829.90	333.333
830.20	192.857
830.50	195.652
830.80	252.174
831.10	190.000
831.40	193.333
831.70	230.435
832.00	238.462
832.30	229.630
832.60	306.250
832.90	213.333
833.20	364.286
833.50	180.645
833.80	172.414
834.10	175.000
834.40	257.692
834.70	261.111
835.00	304.762
835.30	180.000
835.60	323.077
835.90	175.862
836.20	400.000
836.50	213.793
836.80	164.000
837.10	163.889
837.40	252.381
837.70	394.118
838.00	214.815
838.30	238.095
838.60	266.667
838.90	234.615
839.19	305.000
839.49	385.714
839.79	300.000
840.09	295.000
840.39	228.571
840.69	239.130
840.99	283.333
841.29	520.000
841.59	383.333
841.88	287.500
842.18	168.966
842.48	295.238
842.78	203.333
843.08	226.087
843.38	181.250
843.68	850.000
843.97	215.385
844.27	189.655
844.57	295.238
844.87	362.500
845.17	222.222
845.47	1533.333
845.76	511.111
846.06	288.235
846.36	412.500
846.66	335.714
846.96	325.000
847.25	409.091
847.55	436.364
847.85	239.130
848.15	520.000
848.44	328.571
848.74	305.556
849.04	270.588
849.34	470.000
849.63	247.368
849.93	436.364
850.23	920.000
850.53	421.429
850.82	2000.000
851.12	-5300.000
851.42	4400.000
851.71	260.000
852.01	-1166.667
852.31	233.333
852.61	1733.333
852.90	271.429
853.20	256.000
853.50	323.529
853.79	242.857
854.09	200.000
854.39	306.250
854.68	181.081
854.98	151.613
855.28	163.333
855.57	213.793
855.87	229.630
856.17	247.368
856.46	246.667
856.76	270.588
857.05	217.241
857.35	241.667
857.65	366.667
857.94	273.913
858.24	234.615
858.53	230.000
858.83	240.909
859.13	320.000
859.42	0.000
859.72	522.222
860.01	481.818
860.31	250.000
860.60	236.842
860.90	195.652
861.20	566.667
861.49	441.667
861.79	-5200.000
862.08	750.000
862.38	261.905
862.67	353.846
862.97	335.294
863.26	511.111
863.56	233.333
863.85	341.667
864.15	637.500
864.44	366.667
864.74	983.333
865.03	687.500
865.33	284.211
865.62	463.636
865.92	376.923
866.21	341.667
866.51	0.000
866.80	418.182
867.10	1020.000
867.39	438.462
867.69	463.636
867.98	310.526
868.27	481.818
868.57	289.474
868.86	-4200.000
869.16	256.250
869.45	1650.000
869.75	-3700.000
870.04	441.667
870.33	500.000
870.63	1100.000
870.92	2050.000
871.22	728.571
871.51	317.647
871.80	200.000
872.10	400.000
>>>>>End Processed Spectral Data<<<<<
