SpectraSuite Data File
++++++++++++++++++++++++++++++++++++
Date: Wed May 13 19:57:15 PDT 2015
User: schluterlab
Dark Spectrum Present: Yes
Reference Spectrum Present: Yes
Number of Sampled Component Spectra: 1
Spectrometers: USB2E3373
Integration Time (usec): 3000 (USB2E3373)
Spectra Averaged: 3 (USB2E3373)
Boxcar Smoothing: 0 (USB2E3373)
Correct for Electrical Dark: No (USB2E3373)
Strobe/Lamp Enabled: No (USB2E3373)
Correct for Detector Non-linearity: No (USB2E3373)
Correct for Stray Light: No (USB2E3373)
Number of Pixels in Processed Spectrum: 2048
>>>>>Begin Processed Spectral Data<<<<<
178.53	0.000
178.91	-1075.000
179.29	-1250.000
179.67	-177.778
180.04	-1150.000
180.42	2500.000
180.80	1080.000
181.18	-1125.000
181.56	728.571
181.94	0.000
182.31	-757.143
182.69	1833.333
183.07	-625.000
183.45	-611.111
183.83	527.273
184.20	-350.000
184.58	2400.000
184.96	5900.000
185.34	-1040.000
185.72	-537.500
186.09	-2200.000
186.47	2450.000
186.85	2450.000
187.23	4600.000
187.61	-1266.667
187.98	1375.000
188.36	590.909
188.74	563.636
189.12	-1000.000
189.49	560.000
189.87	-5500.000
190.25	-925.000
190.63	414.286
191.00	423.077
191.38	700.000
191.76	-925.000
192.14	1200.000
192.51	675.000
192.89	900.000
193.27	750.000
193.65	-1225.000
194.02	400.000
194.40	860.000
194.78	630.000
195.15	550.000
195.53	630.000
195.91	-2100.000
196.29	387.500
196.66	331.579
197.04	-290.000
197.42	0.000
197.79	650.000
198.17	-5400.000
198.55	671.429
198.92	812.500
199.30	980.000
199.68	0.000
200.05	333.333
200.43	785.714
200.81	5400.000
201.18	1733.333
201.56	-1466.667
201.94	544.444
202.31	633.333
202.69	458.333
203.07	570.000
203.44	0.000
203.82	1150.000
204.19	757.143
204.57	514.286
204.95	637.500
205.32	1500.000
205.70	554.545
206.08	371.429
206.45	2600.000
206.83	362.500
207.20	950.000
207.58	860.000
207.96	344.444
208.33	700.000
208.71	-850.000
209.08	814.286
209.46	677.778
209.84	427.273
210.21	-1400.000
210.59	1375.000
210.96	-500.000
211.34	2350.000
211.71	650.000
212.09	916.667
212.46	0.000
212.84	1666.667
213.22	1300.000
213.59	-4500.000
213.97	866.667
214.34	785.714
214.72	545.455
215.09	1080.000
215.47	-2250.000
215.84	-2550.000
216.22	1866.667
216.59	442.857
216.97	1450.000
217.34	481.818
217.72	-816.667
218.09	0.000
218.47	-5300.000
218.84	566.667
219.22	628.571
219.59	1200.000
219.97	-685.714
220.34	1100.000
220.72	-1666.667
221.09	407.143
221.47	1425.000
221.84	-900.000
222.22	0.000
222.59	1550.000
222.97	-2400.000
223.34	1140.000
223.72	430.769
224.09	1140.000
224.46	2300.000
224.84	-4900.000
225.21	-1040.000
225.59	-4600.000
225.96	600.000
226.34	300.000
226.71	2150.000
227.08	762.500
227.46	500.000
227.83	-850.000
228.21	-2800.000
228.58	611.111
228.95	-2400.000
229.33	-2000.000
229.70	1700.000
230.08	971.429
230.45	-800.000
230.82	491.667
231.20	683.333
231.57	671.429
231.95	550.000
232.32	227.273
232.69	390.909
233.07	728.571
233.44	369.231
233.81	-1533.333
234.19	268.421
234.56	433.333
234.93	483.333
235.31	536.364
235.68	330.769
236.05	428.571
236.43	193.939
236.80	242.105
237.17	4600.000
237.55	266.667
237.92	192.857
238.29	238.095
238.67	180.645
239.04	189.655
239.41	152.778
239.79	119.565
240.16	145.238
240.53	140.909
240.91	123.529
241.28	100.000
241.65	108.000
242.02	102.899
242.40	87.097
242.77	91.667
243.14	83.871
243.51	76.404
243.89	75.294
244.26	66.667
244.63	72.043
245.00	68.085
245.38	70.297
245.75	75.701
246.12	70.642
246.49	61.314
246.87	68.000
247.24	57.692
247.61	56.429
247.98	63.399
248.36	45.270
248.73	47.134
249.10	51.592
249.47	49.718
249.84	41.711
250.22	42.246
250.59	49.112
250.96	48.990
251.33	43.602
251.70	48.515
252.08	43.333
252.45	40.359
252.82	40.870
253.19	42.553
253.56	45.882
253.94	42.324
254.31	41.797
254.68	40.769
255.05	38.745
255.42	34.553
255.79	38.603
256.16	39.711
256.54	35.689
256.91	42.705
257.28	34.532
257.65	33.993
258.02	36.335
258.39	32.808
258.76	34.448
259.14	32.143
259.51	36.778
259.88	30.745
260.25	37.160
260.62	36.705
260.99	34.472
261.36	34.535
261.73	33.811
262.10	31.977
262.47	37.746
262.85	32.591
263.22	30.199
263.59	35.897
263.96	32.418
264.33	32.376
264.70	35.526
265.07	35.294
265.44	34.091
265.81	31.387
266.18	33.668
266.55	30.976
266.92	33.661
267.29	32.176
267.66	32.339
268.03	29.773
268.40	28.972
268.77	28.640
269.14	30.856
269.51	28.894
269.88	32.401
270.25	27.765
270.62	31.236
270.99	32.903
271.36	32.189
271.73	28.972
272.10	30.870
272.47	31.828
272.84	27.706
273.21	28.931
273.58	29.258
273.95	28.092
274.32	26.446
274.69	28.480
275.06	27.165
275.43	27.234
275.80	27.856
276.17	28.717
276.54	28.482
276.91	29.644
277.28	24.023
277.65	31.335
278.02	26.708
278.39	28.125
278.76	28.364
279.13	28.679
279.50	29.795
279.87	26.494
280.23	27.545
280.60	25.919
280.97	26.987
281.34	28.496
281.71	26.727
282.08	27.447
282.45	23.636
282.82	25.577
283.19	25.668
283.56	28.070
283.92	27.750
284.29	23.986
284.66	26.679
285.03	26.401
285.40	25.352
285.77	26.094
286.14	25.561
286.51	25.167
286.87	24.274
287.24	27.199
287.61	25.361
287.98	24.026
288.35	25.515
288.72	26.168
289.08	23.787
289.45	25.865
289.82	26.179
290.19	23.548
290.56	23.737
290.93	22.810
291.29	24.080
291.66	22.861
292.03	24.855
292.40	23.495
292.77	21.893
293.13	22.836
293.50	24.052
293.87	22.963
294.24	23.852
294.60	22.853
294.97	23.256
295.34	22.990
295.71	23.011
296.08	22.507
296.44	22.008
296.81	21.004
297.18	22.764
297.55	18.470
297.91	21.768
298.28	23.561
298.65	21.279
299.02	20.949
299.38	20.983
299.75	20.620
300.12	20.690
300.48	20.875
300.85	19.852
301.22	20.764
301.59	19.192
301.95	20.907
302.32	22.080
302.69	20.191
303.05	20.000
303.42	20.988
303.79	19.932
304.15	18.998
304.52	18.656
304.89	19.861
305.25	20.302
305.62	21.065
305.99	21.251
306.35	20.134
306.72	20.628
307.09	20.422
307.45	20.833
307.82	19.085
308.19	21.082
308.55	20.820
308.92	21.375
309.29	20.908
309.65	19.194
310.02	20.719
310.38	21.935
310.75	20.697
311.12	21.290
311.48	22.048
311.85	21.698
312.22	22.581
312.58	21.310
312.95	24.287
313.31	20.971
313.68	22.661
314.05	23.964
314.41	23.417
314.78	22.759
315.14	23.337
315.51	24.511
315.87	25.149
316.24	25.124
316.61	24.269
316.97	23.777
317.34	24.560
317.70	25.048
318.07	26.949
318.43	28.278
318.80	28.585
319.16	28.154
319.53	27.767
319.89	29.905
320.26	30.800
320.62	30.159
320.99	31.111
321.35	31.010
321.72	32.341
322.08	32.478
322.45	34.229
322.81	35.174
323.18	34.393
323.54	34.787
323.91	37.075
324.27	36.329
324.64	35.974
325.00	38.323
325.37	38.944
325.73	39.856
326.10	38.747
326.46	40.412
326.83	41.329
327.19	41.845
327.56	43.118
327.92	43.482
328.29	45.075
328.65	45.488
329.01	45.397
329.38	47.826
329.74	46.076
330.11	46.843
330.47	45.914
330.84	47.886
331.20	48.179
331.56	48.899
331.93	49.167
332.29	48.358
332.66	49.027
333.02	48.812
333.38	49.684
333.75	49.643
334.11	49.822
334.48	49.512
334.84	49.173
335.20	49.727
335.57	49.773
335.93	50.179
336.29	49.359
336.66	50.947
337.02	50.226
337.38	51.574
337.75	51.426
338.11	51.119
338.47	50.645
338.84	51.787
339.20	50.092
339.56	52.464
339.93	50.909
340.29	50.725
340.65	50.624
341.02	51.047
341.38	53.203
341.74	52.018
342.11	51.092
342.47	51.366
342.83	50.942
343.20	51.515
343.56	49.705
343.92	49.298
344.28	51.956
344.65	51.591
345.01	50.673
345.37	49.485
345.73	51.607
346.10	49.275
346.46	51.441
346.82	50.741
347.19	50.459
347.55	50.985
347.91	51.699
348.27	51.109
348.63	51.338
349.00	49.676
349.36	50.411
349.72	50.361
350.08	50.810
350.45	50.366
350.81	49.959
351.17	51.783
351.53	51.188
351.89	50.578
352.26	50.197
352.62	50.441
352.98	49.838
353.34	49.384
353.70	50.818
354.07	50.887
354.43	49.286
354.79	49.879
355.15	49.401
355.51	50.440
355.87	50.286
356.24	50.163
356.60	48.757
356.96	50.603
357.32	50.940
357.68	51.181
358.04	50.594
358.40	50.435
358.77	50.861
359.13	49.092
359.49	50.353
359.85	49.921
360.21	51.116
360.57	50.428
360.93	51.077
361.29	49.358
361.66	49.381
362.02	49.403
362.38	49.658
362.74	50.744
363.10	49.075
363.46	49.523
363.82	50.567
364.18	49.780
364.54	50.223
364.90	50.850
365.26	50.515
365.62	51.424
365.98	48.649
366.35	48.352
366.71	50.470
367.07	50.401
367.43	50.435
367.79	50.607
368.15	49.353
368.51	50.145
368.87	51.106
369.23	50.037
369.59	50.978
369.95	50.294
370.31	50.285
370.67	48.986
371.03	51.910
371.39	49.563
371.75	50.809
372.11	49.573
372.47	50.293
372.83	51.945
373.19	50.939
373.55	50.924
373.91	52.356
374.27	49.691
374.63	51.782
374.99	51.342
375.35	50.454
375.71	50.240
376.07	51.029
376.42	52.132
376.78	50.431
377.14	49.661
377.50	50.596
377.86	48.537
378.22	50.632
378.58	49.561
378.94	48.523
379.30	50.254
379.66	51.904
380.02	49.324
380.38	50.334
380.74	50.120
381.09	50.733
381.45	50.830
381.81	50.614
382.17	51.911
382.53	50.252
382.89	50.617
383.25	50.969
383.61	51.239
383.97	50.031
384.32	51.279
384.68	51.053
385.04	50.215
385.40	50.774
385.76	50.491
386.12	52.526
386.48	51.353
386.83	51.764
387.19	51.763
387.55	49.969
387.91	51.149
388.27	51.196
388.62	51.321
388.98	50.737
389.34	50.939
389.70	49.908
390.06	50.760
390.42	51.427
390.77	50.763
391.13	52.202
391.49	51.396
391.85	50.987
392.20	50.599
392.56	50.316
392.92	50.853
393.28	48.817
393.64	49.700
393.99	50.275
394.35	50.310
394.71	49.122
395.07	49.844
395.42	49.567
395.78	51.527
396.14	49.845
396.50	51.566
396.85	50.159
397.21	50.678
397.57	49.287
397.92	50.060
398.28	48.767
398.64	49.403
399.00	49.860
399.35	49.351
399.71	48.843
400.07	49.438
400.42	49.264
400.78	50.000
401.14	49.634
401.49	50.090
401.85	49.062
402.21	48.743
402.57	49.105
402.92	49.496
403.28	49.219
403.63	48.082
403.99	49.427
404.35	48.364
404.70	48.141
405.06	48.631
405.42	48.347
405.77	48.000
406.13	47.178
406.49	48.433
406.84	47.844
407.20	47.636
407.55	48.245
407.91	49.600
408.27	48.117
408.62	48.043
408.98	48.346
409.34	48.032
409.69	47.161
410.05	47.274
410.40	46.789
410.76	47.611
411.11	46.200
411.47	47.093
411.83	47.526
412.18	47.310
412.54	47.447
412.89	47.590
413.25	47.344
413.60	47.993
413.96	45.962
414.31	46.841
414.67	47.148
415.03	47.351
415.38	47.294
415.74	46.431
416.09	47.877
416.45	46.252
416.80	46.662
417.16	46.448
417.51	47.777
417.87	46.564
418.22	47.192
418.58	46.804
418.93	47.113
419.29	45.130
419.64	46.348
420.00	46.098
420.35	45.623
420.71	46.683
421.06	45.465
421.42	45.380
421.77	45.684
422.12	44.694
422.48	45.008
422.83	45.661
423.19	45.746
423.54	45.850
423.90	44.580
424.25	45.059
424.61	44.583
424.96	45.364
425.31	45.515
425.67	43.596
426.02	43.314
426.38	44.322
426.73	45.114
427.09	45.167
427.44	45.198
427.79	44.681
428.15	45.179
428.50	43.359
428.85	44.815
429.21	42.904
429.56	43.598
429.92	42.828
430.27	43.545
430.62	43.779
430.98	43.643
431.33	42.474
431.68	43.403
432.04	43.930
432.39	43.632
432.74	43.387
433.10	43.067
433.45	43.265
433.80	43.016
434.16	43.429
434.51	42.000
434.86	43.044
435.22	43.913
435.57	43.100
435.92	43.300
436.28	44.365
436.63	42.881
436.98	42.473
437.34	42.934
437.69	43.699
438.04	42.664
438.39	42.269
438.75	43.347
439.10	43.073
439.45	42.739
439.81	42.840
440.16	41.558
440.51	41.652
440.86	43.080
441.22	41.880
441.57	42.516
441.92	42.272
442.27	41.819
442.63	42.391
442.98	43.042
443.33	41.413
443.68	41.766
444.03	41.581
444.39	41.091
444.74	42.045
445.09	41.456
445.44	39.694
445.79	40.475
446.15	40.021
446.50	40.926
446.85	41.264
447.20	39.878
447.55	41.262
447.91	41.092
448.26	40.289
448.61	40.475
448.96	41.362
449.31	40.607
449.66	40.068
450.02	39.666
450.37	40.533
450.72	40.778
451.07	40.524
451.42	38.906
451.77	41.398
452.12	39.838
452.47	40.547
452.83	39.918
453.18	38.570
453.53	41.126
453.88	39.338
454.23	40.048
454.58	39.491
454.93	41.068
455.28	38.840
455.63	39.988
455.98	40.595
456.34	40.201
456.69	39.324
457.04	40.248
457.39	39.568
457.74	39.814
458.09	38.298
458.44	39.225
458.79	37.744
459.14	38.488
459.49	38.295
459.84	38.338
460.19	38.067
460.54	36.806
460.89	38.453
461.24	37.826
461.59	39.047
461.94	36.868
462.29	38.160
462.64	37.524
462.99	36.760
463.34	38.800
463.69	37.836
464.04	37.797
464.39	38.609
464.74	37.433
465.09	36.550
465.44	36.399
465.79	38.031
466.14	36.125
466.49	36.763
466.84	37.245
467.19	36.934
467.54	37.375
467.89	36.555
468.24	37.522
468.59	37.241
468.94	36.347
469.29	36.825
469.64	38.220
469.99	37.415
470.34	36.790
470.68	37.356
471.03	37.551
471.38	37.248
471.73	37.175
472.08	36.974
472.43	35.741
472.78	36.735
473.13	36.393
473.48	36.205
473.83	36.524
474.17	35.345
474.52	35.670
474.87	36.486
475.22	36.042
475.57	34.551
475.92	35.210
476.27	34.724
476.61	35.080
476.96	36.064
477.31	34.118
477.66	35.011
478.01	34.553
478.36	35.325
478.70	34.579
479.05	34.292
479.40	34.135
479.75	35.486
480.10	33.350
480.45	33.841
480.79	33.158
481.14	34.344
481.49	34.362
481.84	33.425
482.19	34.075
482.53	33.028
482.88	34.062
483.23	34.019
483.58	33.621
483.92	33.833
484.27	31.547
484.62	32.284
484.97	33.307
485.31	32.534
485.66	30.728
486.01	29.919
486.36	29.568
486.70	29.173
487.05	29.973
487.40	31.154
487.75	31.024
488.09	31.695
488.44	31.654
488.79	32.622
489.13	32.429
489.48	32.300
489.83	32.499
490.17	32.310
490.52	32.640
490.87	31.660
491.22	31.651
491.56	31.663
491.91	31.596
492.26	32.292
492.60	31.751
492.95	31.946
493.30	31.682
493.64	32.011
493.99	31.012
494.34	31.267
494.68	32.784
495.03	31.814
495.37	31.177
495.72	31.676
496.07	32.251
496.41	30.310
496.76	31.354
497.11	30.527
497.45	31.206
497.80	30.566
498.14	30.773
498.49	31.171
498.84	31.304
499.18	31.238
499.53	30.959
499.87	31.034
500.22	31.135
500.56	31.214
500.91	30.192
501.26	30.062
501.60	30.992
501.95	30.385
502.29	30.928
502.64	30.680
502.98	30.528
503.33	30.302
503.67	30.116
504.02	30.543
504.36	30.276
504.71	29.751
505.06	30.169
505.40	30.092
505.75	29.749
506.09	29.883
506.44	30.686
506.78	30.102
507.13	30.136
507.47	30.101
507.82	30.547
508.16	29.838
508.51	29.782
508.85	29.394
509.19	28.878
509.54	29.235
509.88	29.212
510.23	29.049
510.57	30.341
510.92	30.192
511.26	28.880
511.61	29.461
511.95	29.541
512.30	29.692
512.64	29.554
512.98	28.992
513.33	29.497
513.67	28.282
514.02	27.976
514.36	29.383
514.70	29.386
515.05	29.169
515.39	28.940
515.74	28.773
516.08	29.178
516.42	29.023
516.77	29.822
517.11	28.357
517.46	29.797
517.80	29.210
518.14	28.605
518.49	29.230
518.83	28.523
519.17	28.695
519.52	29.485
519.86	28.180
520.20	29.133
520.55	28.785
520.89	29.319
521.23	29.735
521.58	28.571
521.92	30.006
522.26	28.554
522.61	29.283
522.95	29.036
523.29	29.215
523.64	28.841
523.98	29.082
524.32	28.770
524.66	28.743
525.01	28.799
525.35	29.368
525.69	28.510
526.04	28.785
526.38	28.005
526.72	27.730
527.06	28.562
527.41	27.723
527.75	28.810
528.09	29.544
528.43	28.808
528.78	28.457
529.12	28.061
529.46	28.720
529.80	28.156
530.15	28.411
530.49	27.015
530.83	28.481
531.17	28.329
531.51	28.664
531.86	28.516
532.20	28.748
532.54	27.675
532.88	27.856
533.22	27.920
533.57	27.346
533.91	27.935
534.25	27.825
534.59	27.639
534.93	27.008
535.27	27.218
535.62	27.473
535.96	27.433
536.30	27.082
536.64	27.173
536.98	28.069
537.32	26.662
537.66	28.067
538.01	27.847
538.35	27.149
538.69	27.888
539.03	27.810
539.37	27.796
539.71	25.988
540.05	27.712
540.39	27.043
540.73	26.520
541.07	26.606
541.42	27.136
541.76	27.613
542.10	27.943
542.44	27.815
542.78	27.404
543.12	26.615
543.46	26.885
543.80	27.131
544.14	26.573
544.48	27.619
544.82	26.042
545.16	25.960
545.50	26.028
545.84	26.546
546.18	26.599
546.52	27.185
546.86	26.529
547.20	26.905
547.54	26.453
547.88	27.105
548.22	26.401
548.56	26.352
548.90	26.120
549.24	25.993
549.58	26.398
549.92	26.923
550.26	27.060
550.60	26.625
550.94	26.338
551.28	25.311
551.62	27.534
551.96	25.614
552.30	26.621
552.64	26.234
552.98	25.898
553.32	27.444
553.66	26.858
554.00	26.218
554.34	26.570
554.68	26.681
555.02	25.882
555.36	24.913
555.69	25.169
556.03	26.245
556.37	25.375
556.71	25.375
557.05	25.770
557.39	25.752
557.73	25.406
558.07	25.816
558.41	25.326
558.75	26.231
559.08	26.174
559.42	26.228
559.76	26.176
560.10	25.482
560.44	26.275
560.78	24.484
561.12	25.132
561.45	25.684
561.79	23.995
562.13	25.084
562.47	25.546
562.81	25.105
563.15	24.749
563.48	25.066
563.82	25.310
564.16	24.787
564.50	24.479
564.84	23.831
565.17	24.646
565.51	25.048
565.85	25.381
566.19	25.485
566.52	25.269
566.86	24.292
567.20	23.939
567.54	24.258
567.88	24.335
568.21	23.968
568.55	23.256
568.89	23.006
569.23	22.594
569.56	23.077
569.90	22.981
570.24	22.031
570.57	21.557
570.91	21.526
571.25	21.773
571.59	21.767
571.92	21.976
572.26	21.577
572.60	22.042
572.93	21.469
573.27	21.769
573.61	21.552
573.95	21.628
574.28	21.106
574.62	21.016
574.96	20.836
575.29	20.781
575.63	21.494
575.97	20.828
576.30	21.243
576.64	20.697
576.98	20.929
577.31	20.933
577.65	20.760
577.98	20.426
578.32	20.572
578.66	20.755
578.99	20.703
579.33	20.649
579.67	20.238
580.00	20.882
580.34	21.025
580.67	20.823
581.01	20.846
581.35	20.168
581.68	20.253
582.02	20.238
582.35	20.289
582.69	20.447
583.02	20.423
583.36	20.752
583.70	20.779
584.03	21.029
584.37	21.291
584.70	20.873
585.04	20.939
585.37	20.573
585.71	20.583
586.04	20.150
586.38	21.029
586.72	20.851
587.05	20.130
587.39	20.501
587.72	20.433
588.06	20.678
588.39	20.768
588.73	21.531
589.06	21.876
589.40	21.347
589.73	21.471
590.07	21.495
590.40	21.118
590.73	21.194
591.07	22.833
591.40	21.721
591.74	22.294
592.07	21.640
592.41	21.331
592.74	20.000
593.08	20.819
593.41	20.437
593.75	20.581
594.08	20.784
594.41	21.103
594.75	20.961
595.08	21.260
595.42	21.226
595.75	20.477
596.09	21.292
596.42	21.690
596.75	21.528
597.09	21.948
597.42	20.320
597.75	21.389
598.09	21.348
598.42	20.833
598.76	20.754
599.09	20.448
599.42	20.852
599.76	20.974
600.09	20.073
600.42	20.088
600.76	20.679
601.09	19.818
601.42	20.434
601.76	20.949
602.09	21.067
602.42	21.338
602.76	20.234
603.09	21.282
603.42	20.734
603.76	20.732
604.09	20.977
604.42	20.832
604.76	21.341
605.09	20.446
605.42	20.992
605.75	21.316
606.09	20.618
606.42	20.351
606.75	20.614
607.09	20.176
607.42	20.881
607.75	20.675
608.08	20.452
608.42	21.156
608.75	21.235
609.08	20.722
609.41	21.133
609.75	20.819
610.08	21.112
610.41	20.345
610.74	20.719
611.07	21.245
611.41	21.148
611.74	21.217
612.07	22.205
612.40	22.141
612.73	21.474
613.07	21.983
613.40	22.012
613.73	20.399
614.06	21.344
614.39	20.975
614.72	20.737
615.06	21.008
615.39	20.594
615.72	21.370
616.05	20.787
616.38	21.456
616.71	21.912
617.05	22.320
617.38	21.587
617.71	21.141
618.04	21.815
618.37	20.816
618.70	21.593
619.03	22.039
619.36	21.453
619.69	21.690
620.03	21.978
620.36	22.193
620.69	21.712
621.02	21.608
621.35	22.788
621.68	21.807
622.01	21.827
622.34	22.088
622.67	22.357
623.00	21.570
623.33	21.229
623.66	21.658
623.99	21.723
624.32	22.397
624.65	21.893
624.99	21.246
625.32	21.723
625.65	21.713
625.98	22.444
626.31	22.317
626.64	22.367
626.97	21.862
627.30	22.444
627.63	22.888
627.96	22.708
628.29	23.447
628.62	22.964
628.95	23.396
629.28	23.175
629.61	24.198
629.94	22.000
630.26	23.260
630.59	23.260
630.92	23.180
631.25	23.001
631.58	22.623
631.91	23.834
632.24	24.051
632.57	23.190
632.90	23.794
633.23	24.385
633.56	24.294
633.89	25.255
634.22	23.610
634.55	25.325
634.88	23.952
635.20	24.373
635.53	25.422
635.86	23.762
636.19	24.000
636.52	25.836
636.85	23.940
637.18	23.618
637.51	25.650
637.83	21.948
638.16	25.064
638.49	25.315
638.82	23.262
639.15	23.125
639.48	23.441
639.81	24.799
640.13	25.391
640.46	24.430
640.79	25.495
641.12	23.521
641.45	24.581
641.77	26.068
642.10	27.193
642.43	25.375
642.76	26.471
643.09	26.840
643.41	24.431
643.74	25.772
644.07	27.439
644.40	27.607
644.73	27.244
645.05	26.941
645.38	25.750
645.71	25.604
646.04	27.409
646.36	29.215
646.69	28.428
647.02	25.340
647.35	27.835
647.67	23.540
648.00	27.154
648.33	25.413
648.66	24.848
648.98	27.136
649.31	25.112
649.64	26.158
649.96	23.696
650.29	25.592
650.62	25.243
650.94	27.715
651.27	26.351
651.60	28.785
651.92	26.198
652.25	24.267
652.58	28.349
652.90	25.908
653.23	22.804
653.56	24.252
653.88	25.990
654.21	26.066
654.54	23.927
654.86	23.988
655.19	22.162
655.52	16.497
655.84	14.133
656.17	18.426
656.49	25.337
656.82	26.057
657.15	20.073
657.47	15.063
657.80	11.587
658.13	12.201
658.45	18.408
658.78	18.493
659.10	19.688
659.43	20.626
659.75	21.259
660.08	22.848
660.41	24.953
660.73	26.938
661.06	26.115
661.38	28.364
661.71	28.462
662.03	27.416
662.36	25.845
662.68	26.707
663.01	26.667
663.33	26.964
663.66	29.202
663.98	26.566
664.31	27.941
664.63	25.911
664.96	27.968
665.28	26.844
665.61	26.316
665.93	28.571
666.26	27.992
666.58	27.406
666.91	28.330
667.23	26.292
667.56	25.918
667.88	27.137
668.21	27.719
668.53	26.030
668.86	28.355
669.18	30.490
669.50	28.261
669.83	31.373
670.15	28.000
670.48	27.669
670.80	28.017
671.13	28.875
671.45	25.957
671.77	27.291
672.10	26.617
672.42	23.852
672.75	24.876
673.07	25.176
673.39	25.316
673.72	24.219
674.04	26.275
674.37	26.214
674.69	26.994
675.01	26.151
675.34	29.569
675.66	30.316
675.98	28.717
676.31	27.941
676.63	31.635
676.95	26.834
677.28	29.206
677.60	25.495
677.92	27.848
678.25	27.105
678.57	28.486
678.89	24.850
679.22	25.933
679.54	26.527
679.86	25.321
680.18	25.045
680.51	26.596
680.83	24.733
681.15	29.057
681.48	27.410
681.80	23.404
682.12	24.521
682.44	24.178
682.77	24.847
683.09	25.966
683.41	28.825
683.73	27.373
684.06	27.273
684.38	26.810
684.70	25.194
685.02	26.079
685.34	24.542
685.67	25.000
685.99	23.024
686.31	21.843
686.63	24.382
686.96	25.000
687.28	25.090
687.60	23.551
687.92	23.766
688.24	27.757
688.56	25.703
688.89	27.801
689.21	29.913
689.53	26.305
689.85	28.825
690.17	26.708
690.49	28.875
690.82	27.336
691.14	26.786
691.46	24.262
691.78	26.305
692.10	27.273
692.42	27.745
692.74	23.859
693.06	26.596
693.39	26.489
693.71	27.948
694.03	25.263
694.35	26.190
694.67	28.375
694.99	27.073
695.31	29.902
695.63	29.665
695.95	29.095
696.27	23.350
696.59	27.720
696.91	28.756
697.23	25.587
697.56	27.292
697.88	23.108
698.20	25.833
698.52	26.667
698.84	26.949
699.16	26.959
699.48	28.741
699.80	29.469
700.12	31.429
700.44	30.769
700.76	29.834
701.08	31.609
701.40	28.492
701.72	32.362
702.04	31.818
702.36	26.062
702.68	30.028
703.00	26.039
703.32	25.798
703.64	29.223
703.96	30.362
704.28	28.779
704.60	33.724
704.91	28.783
705.23	31.672
705.55	30.565
705.87	31.229
706.19	30.389
706.51	34.268
706.83	30.606
707.15	27.731
707.47	28.535
707.79	28.747
708.11	26.256
708.43	26.667
708.74	27.041
709.06	29.091
709.38	25.722
709.70	31.977
710.02	28.487
710.34	29.697
710.66	30.149
710.98	30.398
711.29	31.105
711.61	33.923
711.93	28.846
712.25	32.154
712.57	30.515
712.89	29.758
713.20	31.915
713.52	32.895
713.84	27.848
714.16	33.232
714.48	31.609
714.80	32.827
715.11	29.971
715.43	30.861
715.75	28.696
716.07	31.310
716.39	29.154
716.70	32.226
717.02	32.734
717.34	30.742
717.66	38.433
717.97	36.255
718.29	34.815
718.61	34.672
718.93	33.088
719.24	31.142
719.56	34.576
719.88	30.508
720.20	34.797
720.51	35.889
720.83	29.740
721.15	30.597
721.46	31.915
721.78	36.201
722.10	33.962
722.42	30.451
722.73	31.461
723.05	36.066
723.37	34.008
723.68	33.205
724.00	31.707
724.32	34.677
724.63	34.959
724.95	34.728
725.27	36.842
725.58	34.766
725.90	32.847
726.22	33.962
726.53	32.292
726.85	33.788
727.16	31.673
727.48	35.461
727.80	34.091
728.11	33.333
728.43	29.231
728.74	31.541
729.06	35.401
729.38	35.294
729.69	32.384
730.01	29.693
730.32	30.903
730.64	32.441
730.96	27.063
731.27	31.788
731.59	32.110
731.90	30.904
732.22	29.814
732.53	28.173
732.85	31.090
733.16	31.511
733.48	29.568
733.80	31.818
734.11	28.981
734.43	35.503
734.74	28.000
735.06	26.934
735.37	27.746
735.69	32.803
736.00	32.353
736.32	33.645
736.63	30.351
736.95	33.227
737.26	29.252
737.58	29.677
737.89	34.114
738.21	31.399
738.52	30.000
738.83	33.962
739.15	33.462
739.46	32.117
739.78	34.028
740.09	31.385
740.41	29.032
740.72	30.314
741.04	35.926
741.35	36.250
741.66	36.444
741.98	38.208
742.29	39.713
742.61	45.259
742.92	34.389
743.23	34.188
743.55	37.200
743.86	34.649
744.18	42.920
744.49	36.842
744.80	40.376
745.12	39.545
745.43	33.921
745.74	41.892
746.06	38.073
746.37	42.601
746.68	34.842
747.00	41.204
747.31	38.095
747.62	35.398
747.94	37.445
748.25	31.489
748.56	34.361
748.88	39.109
749.19	39.000
749.50	38.140
749.82	35.772
750.13	26.122
750.44	29.927
750.75	30.877
751.07	34.405
751.38	30.662
751.69	32.852
752.01	35.338
752.32	31.047
752.63	29.787
752.94	32.787
753.26	38.000
753.57	32.927
753.88	34.375
754.19	31.786
754.51	35.764
754.82	28.881
755.13	30.943
755.44	34.211
755.75	31.752
756.07	26.241
756.38	29.927
756.69	32.550
757.00	29.641
757.31	27.893
757.63	29.532
757.94	27.078
758.25	24.265
758.56	22.716
758.87	24.731
759.18	33.636
759.50	29.467
759.81	26.480
760.12	29.687
760.43	30.659
760.74	29.348
761.05	28.814
761.36	24.599
761.67	28.125
761.99	30.124
762.30	35.764
762.61	30.153
762.92	37.500
763.23	33.193
763.54	38.400
763.85	27.344
764.16	33.462
764.47	37.262
764.78	31.095
765.10	27.532
765.41	30.678
765.72	31.138
766.03	28.527
766.34	28.000
766.65	36.596
766.96	35.043
767.27	40.102
767.58	38.542
767.89	38.947
768.20	43.103
768.51	37.563
768.82	39.908
769.13	31.707
769.44	36.437
769.75	33.047
770.06	33.945
770.37	39.367
770.68	38.889
770.99	34.222
771.30	33.607
771.61	37.220
771.92	32.377
772.23	41.597
772.54	35.897
772.85	43.979
773.16	40.426
773.47	39.130
773.78	43.655
774.09	36.905
774.39	43.275
774.70	46.296
775.01	42.029
775.32	50.980
775.63	43.421
775.94	44.604
776.25	47.244
776.56	51.493
776.87	47.541
777.18	59.375
777.48	58.015
777.79	53.788
778.10	55.556
778.41	63.393
778.72	43.066
779.03	48.322
779.34	46.980
779.65	45.946
779.95	49.693
780.26	48.366
780.57	53.103
780.88	62.500
781.19	51.128
781.50	63.514
781.80	49.057
782.11	40.678
782.42	44.304
782.73	47.239
783.04	39.865
783.34	52.113
783.65	52.055
783.96	52.985
784.27	44.755
784.57	49.640
784.88	52.778
785.19	53.968
785.50	55.660
785.81	60.448
786.11	47.541
786.42	52.713
786.73	47.788
787.04	65.094
787.34	58.929
787.65	59.000
787.96	57.658
788.26	52.066
788.57	65.254
788.88	59.504
789.19	50.000
789.49	59.848
789.80	57.252
790.11	70.476
790.41	57.426
790.72	73.494
791.03	68.478
791.33	63.953
791.64	64.948
791.95	59.406
792.25	63.333
792.56	68.831
792.87	82.051
793.17	98.734
793.48	85.057
793.79	80.460
794.09	75.000
794.40	54.622
794.70	53.676
795.01	48.889
795.32	53.237
795.62	53.543
795.93	57.759
796.23	62.832
796.54	65.882
796.85	67.568
797.15	90.141
797.46	84.848
797.76	84.337
798.07	78.481
798.37	76.923
798.68	74.242
798.99	71.831
799.29	79.221
799.60	76.136
799.90	86.301
800.21	80.597
800.51	96.552
800.82	100.000
801.12	95.082
801.43	86.364
801.73	90.541
802.04	100.000
802.34	88.889
802.65	98.437
802.95	91.525
803.26	107.813
803.56	74.286
803.87	81.538
804.17	95.588
804.48	127.778
804.78	94.828
805.09	92.647
805.39	100.000
805.70	110.714
806.00	113.115
806.30	90.909
806.61	71.951
806.91	79.747
807.22	76.316
807.52	76.119
807.83	78.873
808.13	106.250
808.43	106.667
808.74	80.263
809.04	76.812
809.35	82.090
809.65	77.632
809.95	101.613
810.26	91.525
810.56	104.762
810.86	134.091
811.17	133.333
811.47	108.333
811.77	101.852
812.08	110.909
812.38	114.000
812.69	119.444
812.99	163.636
813.29	112.245
813.59	121.429
813.90	116.327
814.20	103.636
814.50	83.077
814.81	98.529
815.11	116.327
815.41	95.082
815.72	126.190
816.02	116.364
816.32	140.476
816.62	97.500
816.93	156.098
817.23	135.714
817.53	118.182
817.84	157.576
818.14	130.435
818.44	128.889
818.74	147.059
819.04	145.000
819.35	125.714
819.65	138.235
819.95	178.571
820.25	265.000
820.56	158.974
820.86	131.818
821.16	162.791
821.46	115.385
821.76	152.000
822.07	148.571
822.37	157.500
822.67	166.667
822.97	113.725
823.27	242.857
823.57	170.270
823.88	180.000
824.18	156.667
824.48	142.857
824.78	232.000
825.08	191.667
825.38	172.973
825.69	124.390
825.99	208.333
826.29	158.621
826.59	152.632
826.89	131.579
827.19	185.294
827.49	187.097
827.79	145.455
828.09	136.364
828.39	125.532
828.70	122.449
829.00	159.259
829.30	174.194
829.60	135.000
829.90	346.667
830.20	200.000
830.50	191.304
830.80	234.783
831.10	196.667
831.40	186.667
831.70	165.217
832.00	223.077
832.30	200.000
832.60	243.750
832.90	183.333
833.20	400.000
833.50	180.645
833.80	237.931
834.10	184.375
834.40	211.538
834.70	277.778
835.00	314.286
835.30	171.429
835.60	269.231
835.90	186.207
836.20	321.429
836.50	227.586
836.80	188.000
837.10	188.889
837.40	252.381
837.70	329.412
838.00	192.593
838.30	242.857
838.60	300.000
838.90	207.692
839.19	300.000
839.49	335.714
839.79	290.000
840.09	255.000
840.39	233.333
840.69	247.826
840.99	266.667
841.29	460.000
841.59	366.667
841.88	418.750
842.18	203.448
842.48	271.429
842.78	200.000
843.08	213.043
843.38	181.250
843.68	750.000
843.97	180.769
844.27	189.655
844.57	271.429
844.87	331.250
845.17	240.741
845.47	1333.333
845.76	422.222
846.06	300.000
846.36	612.500
846.66	285.714
846.96	287.500
847.25	418.182
847.55	390.909
847.85	260.870
848.15	490.000
848.44	385.714
848.74	283.333
849.04	300.000
849.34	530.000
849.63	252.632
849.93	445.455
850.23	860.000
850.53	364.286
850.82	2150.000
851.12	-4000.000
851.42	4700.000
851.71	245.000
852.01	-1233.333
852.31	233.333
852.61	1666.667
852.90	295.238
853.20	208.000
853.50	323.529
853.79	233.333
854.09	187.500
854.39	318.750
854.68	167.568
854.98	193.548
855.28	170.000
855.57	193.103
855.87	262.963
856.17	236.842
856.46	266.667
856.76	305.882
857.05	175.862
857.35	183.333
857.65	366.667
857.94	265.217
858.24	215.385
858.53	295.000
858.83	254.545
859.13	366.667
859.42	0.000
859.72	600.000
860.01	309.091
860.31	272.727
860.60	310.526
860.90	234.783
861.20	544.444
861.49	500.000
861.79	-4900.000
862.08	725.000
862.38	304.762
862.67	361.538
862.97	352.941
863.26	566.667
863.56	294.444
863.85	366.667
864.15	525.000
864.44	366.667
864.74	783.333
865.03	600.000
865.33	263.158
865.62	527.273
865.92	384.615
866.21	408.333
866.51	0.000
866.80	463.636
867.10	980.000
867.39	453.846
867.69	436.364
867.98	326.316
868.27	454.545
868.57	289.474
868.86	-3400.000
869.16	312.500
869.45	1950.000
869.75	-4400.000
870.04	441.667
870.33	628.571
870.63	775.000
870.92	2750.000
871.22	942.857
871.51	317.647
871.80	238.095
872.10	385.714
>>>>>End Processed Spectral Data<<<<<
