SpectraSuite Data File
++++++++++++++++++++++++++++++++++++
Date: Wed May 13 19:45:03 PDT 2015
User: schluterlab
Dark Spectrum Present: Yes
Reference Spectrum Present: Yes
Number of Sampled Component Spectra: 1
Spectrometers: USB2E3373
Integration Time (usec): 3000 (USB2E3373)
Spectra Averaged: 3 (USB2E3373)
Boxcar Smoothing: 0 (USB2E3373)
Correct for Electrical Dark: No (USB2E3373)
Strobe/Lamp Enabled: No (USB2E3373)
Correct for Detector Non-linearity: No (USB2E3373)
Correct for Stray Light: No (USB2E3373)
Number of Pixels in Processed Spectrum: 2048
>>>>>Begin Processed Spectral Data<<<<<
178.53	0.000
178.91	-1350.000
179.29	-1075.000
179.67	-250.000
180.04	-1275.000
180.42	2550.000
180.80	1060.000
181.18	-1375.000
181.56	700.000
181.94	0.000
182.31	-757.143
182.69	1600.000
183.07	-625.000
183.45	-566.667
183.83	527.273
184.20	-500.000
184.58	2300.000
184.96	5800.000
185.34	-840.000
185.72	-512.500
186.09	-2350.000
186.47	2500.000
186.85	2450.000
187.23	5700.000
187.61	-1866.667
187.98	1550.000
188.36	563.636
188.74	554.545
189.12	-980.000
189.49	550.000
189.87	-5400.000
190.25	-1250.000
190.63	457.143
191.00	376.923
191.38	783.333
191.76	-1125.000
192.14	1475.000
192.51	750.000
192.89	866.667
193.27	500.000
193.65	-950.000
194.02	450.000
194.40	1100.000
194.78	480.000
195.15	541.667
195.53	670.000
195.91	-2150.000
196.29	443.750
196.66	363.158
197.04	-470.000
197.42	0.000
197.79	720.000
198.17	-5400.000
198.55	657.143
198.92	687.500
199.30	940.000
199.68	0.000
200.05	350.000
200.43	871.429
200.81	4500.000
201.18	1633.333
201.56	-1833.333
201.94	644.444
202.31	533.333
202.69	433.333
203.07	620.000
203.44	0.000
203.82	1400.000
204.19	828.571
204.57	435.714
204.95	675.000
205.32	1700.000
205.70	600.000
206.08	364.286
206.45	2600.000
206.83	331.250
207.20	900.000
207.58	760.000
207.96	294.444
208.33	700.000
208.71	-816.667
209.08	728.571
209.46	533.333
209.84	463.636
210.21	-1333.333
210.59	1325.000
210.96	-562.500
211.34	2600.000
211.71	630.000
212.09	800.000
212.46	0.000
212.84	1700.000
213.22	1375.000
213.59	-4500.000
213.97	966.667
214.34	885.714
214.72	618.182
215.09	1020.000
215.47	-2250.000
215.84	-2750.000
216.22	1833.333
216.59	442.857
216.97	1250.000
217.34	409.091
217.72	-750.000
218.09	0.000
218.47	-5900.000
218.84	588.889
219.22	728.571
219.59	1466.667
219.97	-657.143
220.34	1060.000
220.72	-2033.333
221.09	414.286
221.47	1425.000
221.84	-1033.333
222.22	0.000
222.59	1500.000
222.97	-2250.000
223.34	1300.000
223.72	446.154
224.09	1000.000
224.46	2200.000
224.84	-3500.000
225.21	-1100.000
225.59	-4700.000
225.96	660.000
226.34	315.000
226.71	3350.000
227.08	600.000
227.46	520.000
227.83	-1225.000
228.21	-2050.000
228.58	600.000
228.95	-2150.000
229.33	-1700.000
229.70	1766.667
230.08	642.857
230.45	-820.000
230.82	433.333
231.20	866.667
231.57	714.286
231.95	525.000
232.32	240.909
232.69	381.818
233.07	671.429
233.44	369.231
233.81	-1633.333
234.19	305.263
234.56	433.333
234.93	450.000
235.31	418.182
235.68	338.462
236.05	407.143
236.43	160.606
236.80	236.842
237.17	5000.000
237.55	209.524
237.92	210.714
238.29	242.857
238.67	177.419
239.04	172.414
239.41	166.667
239.79	108.696
240.16	126.190
240.53	134.091
240.91	84.314
241.28	100.000
241.65	100.000
242.02	89.855
242.40	80.645
242.77	78.333
243.14	68.817
243.51	84.270
243.89	54.118
244.26	57.778
244.63	58.065
245.00	50.000
245.38	58.416
245.75	45.794
246.12	45.872
246.49	51.095
246.87	50.400
247.24	46.923
247.61	40.714
247.98	45.098
248.36	31.757
248.73	35.032
249.10	43.949
249.47	30.508
249.84	41.176
250.22	34.225
250.59	34.911
250.96	36.364
251.33	32.227
251.70	35.644
252.08	31.905
252.45	31.390
252.82	26.957
253.19	31.064
253.56	25.490
253.94	28.216
254.31	30.078
254.68	28.462
255.05	29.889
255.42	23.577
255.79	25.368
256.16	28.520
256.54	24.382
256.91	24.199
257.28	17.986
257.65	25.413
258.02	24.845
258.39	21.136
258.76	21.070
259.14	23.512
259.51	20.973
259.88	20.186
260.25	17.825
260.62	22.832
260.99	21.739
261.36	22.823
261.73	21.490
262.10	18.605
262.47	20.282
262.85	22.841
263.22	16.809
263.59	24.217
263.96	17.582
264.33	20.888
264.70	20.789
265.07	22.251
265.44	21.465
265.81	17.518
266.18	18.844
266.55	20.732
266.92	20.639
267.29	20.602
267.66	18.349
268.03	19.318
268.40	18.692
268.77	16.945
269.14	19.820
269.51	19.187
269.88	20.746
270.25	16.027
270.62	17.079
270.99	20.215
271.36	18.455
271.73	16.589
272.10	16.304
272.47	17.849
272.84	17.316
273.21	17.400
273.58	16.157
273.95	17.191
274.32	17.562
274.69	17.131
275.06	17.323
275.43	18.511
275.80	17.836
276.17	16.497
276.54	17.672
276.91	16.206
277.28	14.258
277.65	17.215
278.02	14.700
278.39	17.187
278.76	16.727
279.13	17.170
279.50	15.829
279.87	14.542
280.23	16.766
280.60	15.861
280.97	17.006
281.34	14.690
281.71	16.909
282.08	17.466
282.45	16.000
282.82	14.210
283.19	15.330
283.56	14.737
283.92	16.751
284.29	16.049
284.66	15.245
285.03	14.105
285.40	13.908
285.77	15.488
286.14	14.335
286.51	14.667
286.87	14.188
287.24	14.332
287.61	13.965
287.98	15.097
288.35	15.848
288.72	14.953
289.08	15.180
289.45	14.003
289.82	15.447
290.19	14.914
290.56	13.323
290.93	13.142
291.29	14.571
291.66	14.012
292.03	14.244
292.40	15.125
292.77	11.391
293.13	13.582
293.50	14.140
293.87	12.148
294.24	12.444
294.60	11.645
294.97	12.500
295.34	14.810
295.71	13.068
296.08	12.536
296.44	11.967
296.81	11.096
297.18	13.008
297.55	10.026
297.91	11.873
298.28	11.245
298.65	12.663
299.02	11.726
299.38	11.155
299.75	11.051
300.12	11.750
300.48	11.625
300.85	11.467
301.22	10.064
301.59	11.490
301.95	11.839
302.32	11.168
302.69	13.262
303.05	11.879
303.42	11.358
303.79	11.552
304.15	11.072
304.52	11.008
304.89	11.266
305.25	11.369
305.62	11.778
305.99	11.924
306.35	10.179
306.72	10.987
307.09	11.099
307.45	12.050
307.82	10.268
308.19	11.479
308.55	11.435
308.92	11.278
309.29	10.665
309.65	10.074
310.02	11.416
310.38	11.398
310.75	10.032
311.12	11.771
311.48	12.121
311.85	12.159
312.22	11.759
312.58	10.915
312.95	12.038
313.31	11.165
313.68	12.682
314.05	14.004
314.41	12.864
314.78	13.092
315.14	12.810
315.51	12.770
315.87	13.465
316.24	14.002
316.61	13.353
316.97	14.286
317.34	13.503
317.70	15.296
318.07	14.918
318.43	15.558
318.80	15.745
319.16	14.878
319.53	15.572
319.89	16.857
320.26	17.700
320.62	17.560
320.99	17.273
321.35	17.475
321.72	19.507
322.08	19.348
322.45	19.403
322.81	19.186
323.18	20.906
323.54	20.872
323.91	20.660
324.27	21.702
324.64	20.130
325.00	19.657
325.37	21.474
325.73	22.531
326.10	23.301
326.46	22.133
326.83	24.763
327.19	23.484
327.56	23.606
327.92	23.185
328.29	24.845
328.65	26.059
329.01	26.625
329.38	25.439
329.74	26.131
330.11	27.427
330.47	26.171
330.84	26.930
331.20	26.776
331.56	26.606
331.93	26.944
332.29	26.886
332.66	27.699
333.02	25.594
333.38	28.184
333.75	27.184
334.11	27.313
334.48	27.684
334.84	28.309
335.20	27.818
335.57	27.017
335.93	27.143
336.29	26.832
336.66	28.494
337.02	27.602
337.38	28.148
337.75	27.629
338.11	27.753
338.47	27.901
338.84	28.048
339.20	27.339
339.56	29.015
339.93	27.455
340.29	28.170
340.65	27.629
341.02	27.138
341.38	28.470
341.74	27.193
342.11	28.384
342.47	27.048
342.83	27.654
343.20	27.965
343.56	28.644
343.92	27.895
344.28	28.231
344.65	28.633
345.01	28.367
345.37	27.616
345.73	27.665
346.10	28.303
346.46	27.373
346.82	29.077
347.19	26.817
347.55	27.586
347.91	28.398
348.27	29.581
348.63	29.097
349.00	27.508
349.36	27.504
349.72	28.148
350.08	26.742
350.45	28.804
350.81	27.539
351.17	28.363
351.53	28.829
351.89	27.888
352.26	28.335
352.62	28.308
352.98	28.606
353.34	28.595
353.70	28.887
354.07	27.823
354.43	27.778
354.79	26.951
355.15	28.651
355.51	29.576
355.87	28.980
356.24	28.502
356.60	27.426
356.96	29.123
357.32	28.209
357.68	28.976
358.04	28.662
358.40	28.187
358.77	29.343
359.13	29.045
359.49	29.333
359.85	26.667
360.21	28.389
360.57	29.805
360.93	29.000
361.29	28.118
361.66	26.703
362.02	29.552
362.38	29.354
362.74	29.911
363.10	28.053
363.46	29.054
363.82	29.101
364.18	29.515
364.54	30.238
364.90	28.895
365.26	29.412
365.62	29.072
365.98	29.145
366.35	29.728
366.71	30.369
367.07	29.497
367.43	30.116
367.79	30.050
368.15	30.891
368.51	28.997
368.87	30.407
369.23	29.773
369.59	30.340
369.95	29.485
370.31	30.413
370.67	29.638
371.03	32.135
371.39	31.706
371.75	31.765
372.11	30.156
372.47	31.818
372.83	31.916
373.19	30.202
373.55	30.820
373.91	32.327
374.27	32.096
374.63	31.200
374.99	32.486
375.35	31.752
375.71	31.666
376.07	32.236
376.42	31.568
376.78	31.809
377.14	32.632
377.50	32.914
377.86	31.383
378.22	31.353
378.58	30.702
378.94	32.055
379.30	31.934
379.66	33.249
380.02	32.310
380.38	31.694
380.74	32.953
381.09	33.985
381.45	33.620
381.81	33.170
382.17	34.076
382.53	32.767
382.89	34.815
383.25	34.209
383.61	34.263
383.97	34.334
384.32	33.500
384.68	34.263
385.04	33.620
385.40	33.932
385.76	34.767
386.12	35.363
386.48	35.179
386.83	35.728
387.19	34.818
387.55	35.374
387.91	34.401
388.27	35.316
388.62	35.526
388.98	36.425
389.34	36.671
389.70	36.481
390.06	36.058
390.42	36.381
390.77	36.323
391.13	36.503
391.49	37.817
391.85	37.365
392.20	35.899
392.56	37.437
392.92	38.081
393.28	36.864
393.64	38.189
393.99	37.141
394.35	37.903
394.71	39.084
395.07	37.321
395.42	39.308
395.78	39.249
396.14	39.106
396.50	39.850
396.85	40.051
397.21	38.656
397.57	38.748
397.92	39.303
398.28	38.341
398.64	39.606
399.00	39.619
399.35	39.707
399.71	39.641
400.07	39.858
400.42	41.043
400.78	40.048
401.14	41.341
401.49	42.030
401.85	41.198
402.21	40.419
402.57	41.456
402.92	41.551
403.28	42.286
403.63	42.265
403.99	41.975
404.35	42.182
404.70	42.266
405.06	42.516
405.42	43.231
405.77	41.886
406.13	42.551
406.49	43.465
406.84	43.178
407.20	42.849
407.55	43.906
407.91	44.600
408.27	44.990
408.62	44.070
408.98	45.159
409.34	44.465
409.69	45.871
410.05	45.477
410.40	44.404
410.76	44.982
411.11	45.296
411.47	46.518
411.83	45.754
412.18	46.073
412.54	46.638
412.89	47.048
413.25	46.812
413.60	46.881
413.96	46.448
414.31	48.177
414.67	48.923
415.03	47.351
415.38	48.260
415.74	48.424
416.09	49.771
416.45	49.665
416.80	49.504
417.16	49.196
417.51	49.701
417.87	48.812
418.22	49.716
418.58	50.742
418.93	50.307
419.29	50.477
419.64	51.134
420.00	50.854
420.35	49.797
420.71	51.285
421.06	50.239
421.42	50.468
421.77	51.177
422.12	50.983
422.48	51.700
422.83	52.825
423.19	51.105
423.54	52.002
423.90	51.652
424.25	51.424
424.61	51.964
424.96	53.353
425.31	53.322
425.67	51.798
426.02	53.257
426.38	53.968
426.73	53.540
427.09	52.523
427.44	53.076
427.79	53.364
428.15	54.048
428.50	52.955
428.85	55.542
429.21	53.451
429.56	53.292
429.92	53.850
430.27	54.071
430.62	53.303
430.98	54.177
431.33	53.814
431.68	53.351
432.04	53.514
432.39	54.940
432.74	54.279
433.10	54.952
433.45	55.743
433.80	55.820
434.16	54.647
434.51	55.053
434.86	54.504
435.22	56.142
435.57	56.231
435.92	55.705
436.28	56.465
436.63	57.064
436.98	55.695
437.34	57.782
437.69	56.126
438.04	56.886
438.39	57.373
438.75	57.467
439.10	57.430
439.45	57.497
439.81	57.764
440.16	56.465
440.51	56.473
440.86	58.193
441.22	56.785
441.57	57.113
441.92	57.472
442.27	57.804
442.63	56.925
442.98	58.873
443.33	56.467
443.68	57.563
444.03	57.052
444.39	56.816
444.74	58.442
445.09	57.790
445.44	57.900
445.79	57.249
446.15	56.644
446.50	56.812
446.85	58.479
447.20	56.757
447.55	59.129
447.91	59.239
448.26	57.707
448.61	59.186
448.96	58.084
449.31	58.099
449.66	57.963
450.02	58.273
450.37	57.880
450.72	58.263
451.07	58.135
451.42	57.508
451.77	59.190
452.12	58.025
452.47	59.453
452.83	59.732
453.18	58.802
453.53	60.977
453.88	59.835
454.23	59.653
454.58	59.176
454.93	60.140
455.28	59.601
455.63	59.466
455.98	61.310
456.34	59.925
456.69	59.674
457.04	60.681
457.39	58.971
457.74	58.561
458.09	59.574
458.44	59.179
458.79	59.653
459.14	60.384
459.49	58.144
459.84	58.393
460.19	57.985
460.54	57.350
460.89	60.395
461.24	59.138
461.59	59.849
461.94	59.125
462.29	61.009
462.64	59.221
462.99	59.011
463.34	60.200
463.69	59.787
464.04	59.304
464.39	58.551
464.74	59.239
465.09	59.469
465.44	57.784
465.79	58.166
466.14	58.292
466.49	59.010
466.84	59.895
467.19	59.203
467.54	59.937
467.89	58.764
468.24	59.511
468.59	61.111
468.94	57.911
469.29	59.576
469.64	60.442
469.99	60.893
470.34	60.172
470.68	61.063
471.03	60.136
471.38	62.752
471.73	61.825
472.08	62.105
472.43	60.302
472.78	61.027
473.13	59.692
473.48	61.236
473.83	59.817
474.17	58.867
474.52	60.546
474.87	59.895
475.22	60.766
475.57	59.162
475.92	59.267
476.27	58.174
476.61	60.618
476.96	59.593
477.31	58.974
477.66	59.683
478.01	59.017
478.36	60.391
478.70	58.619
479.05	60.490
479.40	59.621
479.75	59.939
480.10	59.394
480.45	58.115
480.79	58.098
481.14	59.736
481.49	59.658
481.84	58.802
482.19	59.246
482.53	58.303
482.88	59.376
483.23	59.346
483.58	58.644
483.92	59.841
484.27	57.342
484.62	58.621
484.97	58.415
485.31	58.904
485.66	56.244
486.01	55.380
486.36	53.271
486.70	53.459
487.05	53.992
487.40	55.567
487.75	55.668
488.09	56.021
488.44	56.371
488.79	58.047
489.13	57.219
489.48	58.524
489.83	58.610
490.17	59.535
490.52	59.477
490.87	58.797
491.22	58.799
491.56	58.907
491.91	59.981
492.26	59.486
492.60	58.986
492.95	59.074
493.30	59.299
493.64	60.569
493.99	58.682
494.34	59.389
494.68	60.531
495.03	59.680
495.37	60.168
495.72	59.649
496.07	59.814
496.41	58.053
496.76	59.147
497.11	58.847
497.45	60.224
497.80	60.365
498.14	59.179
498.49	59.122
498.84	60.403
499.18	58.476
499.53	58.642
499.87	59.320
500.22	59.114
500.56	61.117
500.91	59.663
501.26	58.464
501.60	60.228
501.95	59.487
502.29	59.653
502.64	59.823
502.98	59.420
503.33	57.770
503.67	59.397
504.02	59.214
504.36	59.803
504.71	59.502
505.06	60.627
505.40	59.358
505.75	58.968
506.09	59.427
506.44	61.125
506.78	60.010
507.13	61.686
507.47	59.899
507.82	60.638
508.16	60.588
508.51	60.528
508.85	59.384
509.19	61.276
509.54	60.102
509.88	61.257
510.23	59.897
510.57	62.332
510.92	60.901
511.26	59.455
511.61	60.840
511.95	59.864
512.30	60.127
512.64	61.204
512.98	62.272
513.33	62.259
513.67	60.085
514.02	60.552
514.36	62.370
514.70	62.203
515.05	62.632
515.39	61.862
515.74	62.500
516.08	62.884
516.42	61.432
516.77	62.486
517.11	61.987
517.46	62.302
517.80	63.763
518.14	61.494
518.49	63.711
518.83	62.784
519.17	63.395
519.52	62.818
519.86	61.323
520.20	62.543
520.55	64.512
520.89	63.625
521.23	64.415
521.58	63.385
521.92	63.686
522.26	61.684
522.61	64.237
522.95	64.088
523.29	64.090
523.64	63.476
523.98	64.202
524.32	63.088
524.66	63.560
525.01	62.929
525.35	63.011
525.69	63.424
526.04	64.237
526.38	63.636
526.72	63.129
527.06	65.223
527.41	62.748
527.75	63.859
528.09	66.024
528.43	64.245
528.78	63.553
529.12	62.970
529.46	64.483
529.80	64.913
530.15	63.427
530.49	62.708
530.83	64.620
531.17	66.319
531.51	65.175
531.86	64.903
532.20	65.385
532.54	64.510
532.88	65.212
533.22	64.647
533.57	63.272
533.91	63.937
534.25	62.697
534.59	63.575
534.93	63.236
535.27	62.945
535.62	63.065
535.96	63.340
536.30	64.272
536.64	65.615
536.98	65.428
537.32	64.055
537.66	64.400
538.01	64.055
538.35	63.478
538.69	65.348
539.03	63.353
539.37	63.195
539.71	63.513
540.05	64.837
540.39	64.651
540.73	64.424
541.07	66.126
541.42	65.819
541.76	63.742
542.10	64.360
542.44	65.894
542.78	65.679
543.12	63.212
543.46	65.180
543.80	64.671
544.14	63.864
544.48	65.270
544.82	63.695
545.16	63.565
545.50	63.689
545.84	63.642
546.18	65.118
546.52	64.969
546.86	66.392
547.20	64.801
547.54	64.529
547.88	64.987
548.22	62.453
548.56	62.956
548.90	63.828
549.24	64.781
549.58	65.348
549.92	65.041
550.26	66.761
550.60	65.560
550.94	65.845
551.28	66.203
551.62	65.852
551.96	64.772
552.30	66.826
552.64	64.165
552.98	64.203
553.32	65.745
553.66	64.554
554.00	65.889
554.34	63.699
554.68	66.237
555.02	64.669
555.36	64.440
555.69	63.194
556.03	65.343
556.37	65.075
556.71	63.097
557.05	64.636
557.39	64.381
557.73	64.926
558.07	65.772
558.41	65.412
558.75	65.393
559.08	65.697
559.42	66.667
559.76	66.250
560.10	64.954
560.44	66.108
560.78	64.870
561.12	65.172
561.45	63.885
561.79	64.865
562.13	64.588
562.47	65.710
562.81	64.923
563.15	63.411
563.48	64.390
563.82	63.731
564.16	62.982
564.50	62.305
564.84	63.843
565.17	62.677
565.51	63.450
565.85	62.563
566.19	62.555
566.52	63.965
566.86	62.508
567.20	62.441
567.54	62.900
567.88	61.488
568.21	61.005
568.55	61.173
568.89	61.138
569.23	58.422
569.56	58.097
569.90	57.057
570.24	56.799
570.57	56.137
570.91	55.171
571.25	55.960
571.59	55.287
571.92	55.213
572.26	54.882
572.60	55.345
572.93	55.262
573.27	55.250
573.61	55.528
573.95	54.625
574.28	54.221
574.62	54.397
574.96	53.787
575.29	53.492
575.63	53.354
575.97	53.345
576.30	54.063
576.64	53.955
576.98	53.670
577.31	53.304
577.65	52.682
577.98	52.996
578.32	52.681
578.66	53.040
578.99	53.161
579.33	52.917
579.67	52.615
580.00	53.105
580.34	53.465
580.67	52.423
581.01	52.845
581.35	52.383
581.68	52.018
582.02	51.513
582.35	51.863
582.69	52.265
583.02	51.936
583.36	53.470
583.70	52.947
584.03	53.631
584.37	53.333
584.70	53.370
585.04	52.226
585.37	52.260
585.71	52.491
586.04	52.573
586.38	54.284
586.72	52.969
587.05	53.002
587.39	52.744
587.72	52.976
588.06	53.175
588.39	53.388
588.73	53.359
589.06	54.222
589.40	54.613
589.73	54.910
590.07	55.125
590.40	55.133
590.73	55.933
591.07	55.840
591.40	57.402
591.74	56.234
592.07	55.541
592.41	55.643
592.74	54.007
593.08	54.264
593.41	53.527
593.75	53.186
594.08	53.000
594.41	54.118
594.75	54.159
595.08	53.185
595.42	53.765
595.75	54.879
596.09	54.825
596.42	54.892
596.75	55.424
597.09	55.758
597.42	53.499
597.75	54.765
598.09	54.652
598.42	54.768
598.76	54.033
599.09	53.858
599.42	52.620
599.76	52.782
600.09	52.532
600.42	53.068
600.76	52.893
601.09	52.459
601.42	53.767
601.76	53.055
602.09	53.676
602.42	54.299
602.76	53.930
603.09	53.462
603.42	53.651
603.76	53.011
604.09	53.819
604.42	53.934
604.76	54.323
605.09	53.779
605.42	52.843
605.75	53.767
606.09	52.948
606.42	53.903
606.75	52.966
607.09	53.077
607.42	54.129
607.75	52.532
608.08	53.495
608.42	54.460
608.75	53.111
609.08	53.747
609.41	53.832
609.75	54.169
610.08	53.676
610.41	53.492
610.74	54.494
611.07	53.755
611.41	53.091
611.74	55.053
612.07	54.969
612.40	54.879
612.73	55.579
613.07	55.119
613.40	54.766
613.73	54.274
614.06	55.000
614.39	53.749
614.72	54.211
615.06	53.729
615.39	54.777
615.72	53.016
616.05	53.535
616.38	53.530
616.71	56.413
617.05	56.596
617.38	56.645
617.71	56.036
618.04	56.010
618.37	54.524
618.70	56.129
619.03	56.711
619.36	55.669
619.69	57.817
620.03	58.310
620.36	56.952
620.69	57.466
621.02	58.776
621.35	57.557
621.68	58.100
622.01	58.282
622.34	57.867
622.67	58.023
623.00	56.787
623.33	56.612
623.66	57.613
623.99	57.953
624.32	57.561
624.65	56.638
624.99	56.516
625.32	58.364
625.65	58.527
625.98	57.494
626.31	57.154
626.64	59.184
626.97	59.102
627.30	58.853
627.63	59.147
627.96	59.798
628.29	59.230
628.62	60.293
628.95	61.415
629.28	61.131
629.61	60.770
629.94	61.048
630.26	59.485
630.59	58.818
630.92	58.333
631.25	60.217
631.58	61.161
631.91	62.373
632.24	60.549
632.57	60.126
632.90	61.184
633.23	64.094
633.56	63.503
633.89	64.100
634.22	62.543
634.55	65.325
634.88	62.395
635.20	64.636
635.53	62.410
635.86	65.347
636.19	63.294
636.52	61.707
636.85	61.512
637.18	60.369
637.51	62.057
637.83	60.543
638.16	63.171
638.49	64.106
638.82	63.338
639.15	63.000
639.48	63.965
639.81	65.952
640.13	64.062
640.46	64.430
640.79	61.162
641.12	62.724
641.45	65.642
641.77	67.305
642.10	66.082
642.43	65.766
642.76	66.563
643.09	68.558
643.41	64.947
643.74	68.981
644.07	64.329
644.40	65.644
644.73	66.772
645.05	67.829
645.38	64.297
645.71	66.345
646.04	64.452
646.36	68.614
646.69	68.562
647.02	67.007
647.35	69.072
647.67	68.673
648.00	65.366
648.33	62.871
648.66	63.182
648.98	64.018
649.31	61.136
649.64	63.229
649.96	63.487
650.29	60.821
650.62	64.401
650.94	62.561
651.27	68.074
651.60	64.393
651.92	61.182
652.25	61.564
652.58	64.174
652.90	65.719
653.23	60.247
653.56	63.307
653.88	63.708
654.21	63.823
654.54	64.026
654.86	63.084
655.19	58.514
655.52	39.928
655.84	36.299
656.17	47.720
656.49	64.429
656.82	65.957
657.15	49.449
657.47	36.821
657.80	28.323
658.13	29.241
658.45	42.648
658.78	42.324
659.10	43.737
659.43	44.929
659.75	47.075
660.08	51.456
660.41	55.680
660.73	59.975
661.06	60.191
661.38	66.000
661.71	65.385
662.03	66.864
662.36	64.016
662.68	62.450
663.01	65.657
663.33	67.091
663.66	66.807
663.98	66.739
664.31	65.966
664.63	63.968
664.96	63.179
665.28	67.008
665.61	62.963
665.93	63.581
666.26	63.083
666.58	65.690
666.91	66.385
667.23	67.416
667.56	64.363
667.88	65.385
668.21	66.951
668.53	63.774
668.86	64.719
669.18	68.443
669.50	66.522
669.83	69.499
670.15	68.222
670.48	64.052
670.80	67.026
671.13	64.119
671.45	65.532
671.77	62.729
672.10	60.444
672.42	58.834
672.75	58.209
673.07	58.979
673.39	58.590
673.72	62.695
674.04	61.765
674.37	60.388
674.69	61.145
675.01	61.925
675.34	61.191
675.66	64.000
675.98	60.285
676.31	61.975
676.63	63.482
676.95	62.264
677.28	66.355
677.60	65.275
677.92	65.823
678.25	63.860
678.57	64.542
678.89	62.325
679.22	60.904
679.54	62.405
679.86	60.734
680.18	56.708
680.51	57.624
680.83	58.007
681.15	60.943
681.48	59.357
681.80	58.414
682.12	59.770
682.44	58.027
682.77	62.933
683.09	65.021
683.41	64.523
683.73	58.278
684.06	61.777
684.38	59.883
684.70	60.271
685.02	57.598
685.34	56.960
685.67	56.469
685.99	55.155
686.31	56.485
686.63	53.710
686.96	57.500
687.28	54.874
687.60	55.797
687.92	57.038
688.24	56.654
688.56	59.237
688.89	61.203
689.21	60.262
689.53	59.290
689.85	63.193
690.17	57.971
690.49	59.023
690.82	65.187
691.14	58.929
691.46	56.329
691.78	60.442
692.10	57.231
692.42	56.687
692.74	57.261
693.06	58.085
693.39	57.700
693.71	61.135
694.03	60.000
694.35	56.494
694.67	55.149
694.99	63.171
695.31	59.069
695.63	58.612
695.95	58.680
696.27	61.675
696.59	59.326
696.91	59.845
697.23	59.390
697.56	56.290
697.88	53.988
698.20	56.667
698.52	56.774
698.84	56.793
699.16	57.143
699.48	57.482
699.80	59.903
700.12	62.597
700.44	66.048
700.76	63.260
701.08	62.069
701.40	62.570
701.72	64.431
702.04	69.318
702.36	62.323
702.68	64.589
703.00	63.712
703.32	60.372
703.64	58.713
703.96	61.838
704.28	60.756
704.60	60.117
704.91	65.579
705.23	63.636
705.55	68.771
705.87	70.432
706.19	72.085
706.51	62.305
706.83	61.818
707.15	58.543
707.47	58.586
707.79	60.197
708.11	52.055
708.43	55.476
708.74	53.571
709.06	55.844
709.38	55.906
709.70	63.372
710.02	58.160
710.34	60.909
710.66	66.567
710.98	56.534
711.29	60.174
711.61	60.177
711.93	62.500
712.25	64.630
712.57	65.074
712.89	64.706
713.20	59.271
713.52	64.474
713.84	60.759
714.16	62.500
714.48	53.448
714.80	65.957
715.11	57.061
715.43	54.599
715.75	60.870
716.07	58.786
716.39	58.621
716.70	62.791
717.02	67.986
717.34	60.424
717.66	62.687
717.97	69.721
718.29	60.370
718.61	61.314
718.93	67.647
719.24	65.398
719.56	55.593
719.88	56.271
720.20	61.486
720.51	61.324
720.83	65.799
721.15	63.806
721.46	64.894
721.78	64.158
722.10	66.415
722.42	62.406
722.73	61.798
723.05	63.934
723.37	62.753
723.68	66.409
724.00	60.163
724.32	62.903
724.63	68.699
724.95	60.669
725.27	62.753
725.58	61.719
725.90	64.599
726.22	60.755
726.53	55.556
726.85	58.703
727.16	60.854
727.48	60.638
727.80	59.848
728.11	57.246
728.43	63.077
728.74	58.065
729.06	64.599
729.38	62.868
729.69	61.566
730.01	55.290
730.32	56.597
730.64	50.502
730.96	54.455
731.27	61.258
731.59	57.492
731.90	52.478
732.22	51.863
732.53	55.418
732.85	54.808
733.16	52.412
733.48	56.478
733.80	57.468
734.11	55.414
734.43	55.030
734.74	48.857
735.06	49.284
735.37	53.468
735.69	56.051
736.00	59.477
736.32	52.648
736.63	53.994
736.95	53.994
737.26	48.639
737.58	52.581
737.89	58.863
738.21	58.020
738.52	60.000
738.83	56.226
739.15	57.692
739.46	58.394
739.78	59.375
740.09	53.538
740.41	54.839
740.72	56.794
741.04	59.259
741.35	60.833
741.66	70.222
741.98	64.151
742.29	72.249
742.61	66.379
742.92	57.014
743.23	59.829
743.55	62.000
743.86	57.895
744.18	68.142
744.49	65.550
744.80	63.380
745.12	67.727
745.43	59.031
745.74	63.063
746.06	67.890
746.37	64.574
746.68	70.588
747.00	62.963
747.31	74.762
747.62	59.735
747.94	57.709
748.25	56.170
748.56	63.436
748.88	65.842
749.19	65.500
749.50	65.116
749.82	61.382
750.13	58.776
750.44	51.095
750.75	55.789
751.07	53.698
751.38	51.916
751.69	56.679
752.01	54.511
752.32	51.625
752.63	55.319
752.94	59.426
753.26	66.000
753.57	53.252
753.88	59.375
754.19	53.929
754.51	54.861
754.82	50.903
755.13	55.472
755.44	54.887
755.75	54.015
756.07	52.837
756.38	51.095
756.69	54.027
757.00	45.210
757.31	47.181
757.63	47.076
757.94	44.772
758.25	43.627
758.56	42.469
758.87	43.280
759.18	50.909
759.50	47.335
759.81	47.975
760.12	50.312
760.43	51.289
760.74	45.652
761.05	48.588
761.36	42.246
761.67	50.284
761.99	50.000
762.30	55.903
762.61	52.672
762.92	54.297
763.23	57.983
763.54	54.400
763.85	49.609
764.16	56.538
764.47	56.274
764.78	49.117
765.10	48.101
765.41	46.018
765.72	46.407
766.03	49.216
766.34	48.333
766.65	56.596
766.96	59.402
767.27	59.391
767.58	63.542
767.89	60.000
768.20	66.667
768.51	62.944
768.82	60.092
769.13	53.252
769.44	50.607
769.75	56.223
770.06	59.633
770.37	58.824
770.68	56.944
770.99	55.111
771.30	53.279
771.61	64.574
771.92	52.869
772.23	57.983
772.54	55.897
772.85	57.592
773.16	62.234
773.47	66.304
773.78	62.437
774.09	63.690
774.39	67.836
774.70	67.284
775.01	65.942
775.32	69.935
775.63	66.447
775.94	69.065
776.25	87.402
776.56	78.358
776.87	73.770
777.18	75.781
777.48	74.809
777.79	74.242
778.10	80.741
778.41	81.250
778.72	62.774
779.03	64.430
779.34	70.470
779.65	65.541
779.95	60.123
780.26	66.013
780.57	66.897
780.88	82.812
781.19	72.932
781.50	62.838
781.80	70.440
782.11	59.887
782.42	64.557
782.73	66.258
783.04	65.541
783.34	74.648
783.65	78.767
783.96	72.388
784.27	67.133
784.57	56.835
784.88	79.630
785.19	72.222
785.50	70.755
785.81	76.119
786.11	78.689
786.42	64.341
786.73	79.646
787.04	83.962
787.34	75.893
787.65	78.000
787.96	73.874
788.26	58.678
788.57	74.576
788.88	71.074
789.19	63.889
789.49	72.727
789.80	72.519
790.11	91.429
790.41	88.119
790.72	92.771
791.03	92.391
791.33	80.233
791.64	79.381
791.95	78.218
792.25	85.556
792.56	102.597
792.87	101.282
793.17	106.329
793.48	108.046
793.79	79.310
794.09	96.591
794.40	74.790
794.70	67.647
795.01	60.741
795.32	68.345
795.62	64.567
795.93	70.690
796.23	74.336
796.54	78.824
796.85	102.703
797.15	118.310
797.46	109.091
797.76	101.205
798.07	96.203
798.37	90.769
798.68	104.545
798.99	88.732
799.29	85.714
799.60	81.818
799.90	106.849
800.21	108.955
800.51	98.276
800.82	117.544
801.12	114.754
801.43	127.273
801.73	91.892
802.04	111.111
802.34	92.593
802.65	100.000
802.95	116.949
803.26	117.188
803.56	95.714
803.87	101.538
804.17	111.765
804.48	127.778
804.78	110.345
805.09	107.353
805.39	121.154
805.70	141.071
806.00	111.475
806.30	87.879
806.61	79.268
806.91	86.076
807.22	101.316
807.52	89.552
807.83	109.859
808.13	98.437
808.43	128.333
808.74	97.368
809.04	110.145
809.35	116.418
809.65	84.211
809.95	135.484
810.26	101.695
810.56	93.651
810.86	156.818
811.17	152.381
811.47	110.000
811.77	107.407
812.08	132.727
812.38	130.000
812.69	205.556
812.99	154.545
813.29	148.980
813.59	119.048
813.90	138.776
814.20	136.364
814.50	104.615
814.81	102.941
815.11	116.327
815.41	113.115
815.72	150.000
816.02	127.273
816.32	140.476
816.62	135.000
816.93	146.341
817.23	173.810
817.53	150.000
817.84	157.576
818.14	136.957
818.44	146.667
818.74	197.059
819.04	150.000
819.35	174.286
819.65	167.647
819.95	203.571
820.25	270.000
820.56	184.615
820.86	159.091
821.16	153.488
821.46	161.538
821.76	126.000
822.07	177.143
822.37	175.000
822.67	184.848
822.97	125.490
823.27	235.714
823.57	162.162
823.88	175.000
824.18	240.000
824.48	161.905
824.78	196.000
825.08	200.000
825.38	148.649
825.69	117.073
825.99	250.000
826.29	158.621
826.59	160.526
826.89	176.316
827.19	182.353
827.49	232.258
827.79	179.545
828.09	131.818
828.39	104.255
828.70	136.735
829.00	229.630
829.30	180.645
829.60	150.000
829.90	326.667
830.20	221.429
830.50	247.826
830.80	182.609
831.10	230.000
831.40	183.333
831.70	226.087
832.00	234.615
832.30	222.222
832.60	381.250
832.90	220.000
833.20	414.286
833.50	203.226
833.80	193.103
834.10	203.125
834.40	250.000
834.70	288.889
835.00	314.286
835.30	174.286
835.60	384.615
835.90	203.448
836.20	385.714
836.50	206.897
836.80	196.000
837.10	194.444
837.40	261.905
837.70	329.412
838.00	214.815
838.30	261.905
838.60	304.762
838.90	261.538
839.19	295.000
839.49	464.286
839.79	295.000
840.09	230.000
840.39	276.190
840.69	260.870
840.99	316.667
841.29	530.000
841.59	366.667
841.88	400.000
842.18	200.000
842.48	290.476
842.78	196.667
843.08	230.435
843.38	206.250
843.68	1033.333
843.97	250.000
844.27	179.310
844.57	328.571
844.87	387.500
845.17	207.407
845.47	1666.667
845.76	444.444
846.06	323.529
846.36	562.500
846.66	371.429
846.96	375.000
847.25	463.636
847.55	490.909
847.85	247.826
848.15	580.000
848.44	400.000
848.74	294.444
849.04	323.529
849.34	560.000
849.63	268.421
849.93	454.545
850.23	1020.000
850.53	400.000
850.82	2350.000
851.12	-5000.000
851.42	4300.000
851.71	320.000
852.01	-1566.667
852.31	254.167
852.61	1733.333
852.90	295.238
853.20	224.000
853.50	352.941
853.79	261.905
854.09	225.000
854.39	325.000
854.68	183.784
854.98	206.452
855.28	193.333
855.57	241.379
855.87	251.852
856.17	289.474
856.46	273.333
856.76	311.765
857.05	220.690
857.35	195.833
857.65	360.000
857.94	273.913
858.24	192.308
858.53	295.000
858.83	295.455
859.13	380.000
859.42	0.000
859.72	588.889
860.01	481.818
860.31	254.545
860.60	257.895
860.90	230.435
861.20	522.222
861.49	475.000
861.79	-5600.000
862.08	750.000
862.38	252.381
862.67	369.231
862.97	364.706
863.26	566.667
863.56	250.000
863.85	433.333
864.15	687.500
864.44	420.000
864.74	1016.667
865.03	687.500
865.33	315.789
865.62	427.273
865.92	484.615
866.21	433.333
866.51	0.000
866.80	554.545
867.10	1120.000
867.39	453.846
867.69	481.818
867.98	289.474
868.27	527.273
868.57	273.684
868.86	-5000.000
869.16	375.000
869.45	2350.000
869.75	-4900.000
870.04	466.667
870.33	900.000
870.63	1250.000
870.92	2700.000
871.22	585.714
871.51	317.647
871.80	266.667
872.10	357.143
>>>>>End Processed Spectral Data<<<<<
