SpectraSuite Data File
++++++++++++++++++++++++++++++++++++
Date: Wed May 13 19:21:26 PDT 2015
User: schluterlab
Dark Spectrum Present: Yes
Reference Spectrum Present: Yes
Number of Sampled Component Spectra: 1
Spectrometers: USB2E3373
Integration Time (usec): 3000 (USB2E3373)
Spectra Averaged: 3 (USB2E3373)
Boxcar Smoothing: 0 (USB2E3373)
Correct for Electrical Dark: No (USB2E3373)
Strobe/Lamp Enabled: No (USB2E3373)
Correct for Detector Non-linearity: No (USB2E3373)
Correct for Stray Light: No (USB2E3373)
Number of Pixels in Processed Spectrum: 2048
>>>>>Begin Processed Spectral Data<<<<<
178.53	0.000
178.91	-1650.000
179.29	-1500.000
179.67	-277.778
180.04	-1500.000
180.42	2850.000
180.80	1180.000
181.18	-1300.000
181.56	857.143
181.94	0.000
182.31	-700.000
182.69	1933.333
183.07	-612.500
183.45	-555.556
183.83	554.545
184.20	-410.000
184.58	3000.000
184.96	6700.000
185.34	-1040.000
185.72	-687.500
186.09	-2700.000
186.47	2800.000
186.85	3000.000
187.23	6500.000
187.61	-1900.000
187.98	1475.000
188.36	627.273
188.74	563.636
189.12	-1100.000
189.49	680.000
189.87	-4800.000
190.25	-1500.000
190.63	557.143
191.00	492.308
191.38	916.667
191.76	-1125.000
192.14	1475.000
192.51	700.000
192.89	966.667
193.27	625.000
193.65	-1600.000
194.02	490.000
194.40	960.000
194.78	620.000
195.15	491.667
195.53	690.000
195.91	-2350.000
196.29	437.500
196.66	321.053
197.04	-470.000
197.42	0.000
197.79	630.000
198.17	-5500.000
198.55	700.000
198.92	825.000
199.30	1160.000
199.68	0.000
200.05	377.778
200.43	871.429
200.81	5400.000
201.18	1933.333
201.56	-1966.667
201.94	633.333
202.31	677.778
202.69	566.667
203.07	660.000
203.44	0.000
203.82	1200.000
204.19	728.571
204.57	542.857
204.95	737.500
205.32	1733.333
205.70	490.909
206.08	442.857
206.45	3000.000
206.83	406.250
207.20	1016.667
207.58	1000.000
207.96	355.556
208.33	787.500
208.71	-1000.000
209.08	900.000
209.46	755.556
209.84	481.818
210.21	-1866.667
210.59	1550.000
210.96	-612.500
211.34	2600.000
211.71	680.000
212.09	750.000
212.46	0.000
212.84	1500.000
213.22	1550.000
213.59	-6000.000
213.97	916.667
214.34	914.286
214.72	590.909
215.09	1260.000
215.47	-2150.000
215.84	-2750.000
216.22	1666.667
216.59	500.000
216.97	1350.000
217.34	509.091
217.72	-833.333
218.09	0.000
218.47	-5800.000
218.84	833.333
219.22	785.714
219.59	1933.333
219.97	-685.714
220.34	980.000
220.72	-2000.000
221.09	457.143
221.47	1775.000
221.84	-1066.667
222.22	0.000
222.59	1650.000
222.97	-2700.000
223.34	1200.000
223.72	507.692
224.09	1140.000
224.46	2250.000
224.84	-5200.000
225.21	-1240.000
225.59	-5100.000
225.96	640.000
226.34	370.000
226.71	2500.000
227.08	750.000
227.46	620.000
227.83	-1175.000
228.21	-2400.000
228.58	600.000
228.95	-3050.000
229.33	-2350.000
229.70	1700.000
230.08	1042.857
230.45	-1000.000
230.82	441.667
231.20	883.333
231.57	642.857
231.95	491.667
232.32	295.455
232.69	581.818
233.07	800.000
233.44	384.615
233.81	-1800.000
234.19	347.368
234.56	500.000
234.93	483.333
235.31	500.000
235.68	415.385
236.05	400.000
236.43	196.970
236.80	289.474
237.17	5700.000
237.55	271.429
237.92	203.571
238.29	300.000
238.67	177.419
239.04	231.034
239.41	172.222
239.79	141.304
240.16	157.143
240.53	147.727
240.91	113.725
241.28	126.000
241.65	116.000
242.02	92.754
242.40	96.774
242.77	110.000
243.14	79.570
243.51	80.899
243.89	76.471
244.26	60.000
244.63	65.591
245.00	69.149
245.38	61.386
245.75	58.879
246.12	69.725
246.49	62.774
246.87	66.400
247.24	73.846
247.61	50.714
247.98	53.595
248.36	49.324
248.73	45.223
249.10	50.955
249.47	48.023
249.84	47.594
250.22	46.524
250.59	44.379
250.96	42.424
251.33	46.919
251.70	48.020
252.08	40.000
252.45	39.013
252.82	40.435
253.19	37.447
253.56	37.647
253.94	43.568
254.31	36.328
254.68	38.077
255.05	35.793
255.42	34.146
255.79	33.456
256.16	36.823
256.54	34.982
256.91	30.249
257.28	31.655
257.65	33.003
258.02	31.988
258.39	30.915
258.76	31.104
259.14	31.845
259.51	30.699
259.88	27.640
260.25	29.003
260.62	32.659
260.99	28.571
261.36	33.634
261.73	29.513
262.10	25.000
262.47	33.803
262.85	28.969
263.22	27.066
263.59	31.339
263.96	26.099
264.33	27.154
264.70	26.053
265.07	29.156
265.44	25.758
265.81	24.088
266.18	27.387
266.55	24.878
266.92	26.290
267.29	25.694
267.66	27.752
268.03	25.000
268.40	24.766
268.77	24.821
269.14	25.000
269.51	26.862
269.88	25.175
270.25	22.573
270.62	24.719
270.99	26.452
271.36	24.678
271.73	22.897
272.10	23.261
272.47	24.516
272.84	23.593
273.21	23.899
273.58	22.052
273.95	23.270
274.32	22.314
274.69	23.126
275.06	21.654
275.43	22.979
275.80	25.251
276.17	21.996
276.54	23.077
276.91	23.518
277.28	19.531
277.65	22.824
278.02	20.290
278.39	24.023
278.76	22.364
279.13	22.264
279.50	20.857
279.87	23.705
280.23	21.557
280.60	20.503
280.97	20.702
281.34	20.000
281.71	21.636
282.08	22.841
282.45	21.091
282.82	19.893
283.19	21.034
283.56	22.982
283.92	20.643
284.29	19.929
284.66	21.234
285.03	18.987
285.40	19.366
285.77	19.192
286.14	19.516
286.51	21.000
286.87	22.222
287.24	22.801
287.61	19.422
287.98	18.669
288.35	20.127
288.72	19.470
289.08	20.188
289.45	18.781
289.82	18.699
290.19	18.210
290.56	18.377
290.93	17.069
291.29	19.172
291.66	17.552
292.03	19.767
292.40	19.971
292.77	17.456
293.13	19.254
293.50	18.659
293.87	17.333
294.24	16.741
294.60	16.739
294.97	17.878
295.34	19.605
295.71	18.466
296.08	17.236
296.44	16.781
296.81	15.324
297.18	17.751
297.55	14.776
297.91	15.831
298.28	16.332
298.65	15.666
299.02	16.601
299.38	15.272
299.75	14.555
300.12	16.603
300.48	14.750
300.85	15.413
301.22	14.522
301.59	15.657
301.95	14.484
302.32	14.634
302.69	15.173
303.05	14.424
303.42	15.062
303.79	14.949
304.15	13.986
304.52	14.137
304.89	13.821
305.25	15.081
305.62	14.836
305.99	14.758
306.35	14.541
306.72	15.247
307.09	15.871
307.45	16.329
307.82	14.286
308.19	15.673
308.55	16.073
308.92	13.856
309.29	14.150
309.65	13.362
310.02	15.433
310.38	12.903
310.75	15.206
311.12	13.920
311.48	15.361
311.85	15.199
312.22	14.464
312.58	13.617
312.95	15.100
313.31	14.175
313.68	14.033
314.05	17.061
314.41	15.276
314.78	15.509
315.14	15.889
315.51	16.272
315.87	14.950
316.24	15.889
316.61	15.984
316.97	15.656
317.34	14.481
317.70	16.252
318.07	17.324
318.43	16.341
318.80	17.151
319.16	17.043
319.53	17.448
319.89	18.857
320.26	18.500
320.62	17.560
320.99	18.283
321.35	17.374
321.72	19.199
322.08	19.743
322.45	20.995
322.81	19.186
323.18	19.942
323.54	19.295
323.91	21.132
324.27	20.459
324.64	20.783
325.00	20.559
325.37	22.202
325.73	22.442
326.10	22.065
326.46	22.401
326.83	22.692
327.19	22.972
327.56	22.213
327.92	23.360
328.29	24.490
328.65	22.928
329.01	23.736
329.38	23.959
329.74	25.023
330.11	24.128
330.47	26.171
330.84	24.632
331.20	24.226
331.56	25.229
331.93	24.259
332.29	24.933
332.66	26.195
333.02	24.771
333.38	26.016
333.75	25.223
334.11	26.423
334.48	25.821
334.84	25.827
335.20	26.000
335.57	24.479
335.93	24.911
336.29	24.267
336.66	25.248
337.02	24.434
337.38	26.574
337.75	23.708
338.11	24.530
338.47	26.151
338.84	25.481
339.20	26.422
339.56	25.912
339.93	24.182
340.29	25.543
340.65	26.025
341.02	27.138
341.38	26.423
341.74	25.965
342.11	27.074
342.47	25.815
342.83	25.685
343.20	26.061
343.56	25.105
343.92	25.175
344.28	26.020
344.65	26.397
345.01	26.010
345.37	25.815
345.73	26.565
346.10	26.002
346.46	25.763
346.82	26.194
347.19	26.734
347.55	24.302
347.91	26.214
348.27	26.376
348.63	24.749
349.00	25.243
349.36	24.795
349.72	25.100
350.08	25.284
350.45	26.282
350.81	25.183
351.17	25.770
351.53	25.880
351.89	24.917
352.26	25.099
352.62	26.464
352.98	25.851
353.34	25.883
353.70	24.877
354.07	26.532
354.43	25.000
354.79	26.066
355.15	25.938
355.51	25.340
355.87	26.939
356.24	25.977
356.60	24.379
356.96	26.066
357.32	26.738
357.68	25.827
358.04	26.603
358.40	26.762
358.77	25.509
359.13	25.493
359.49	25.725
359.85	25.556
360.21	25.997
360.57	26.381
360.93	26.385
361.29	25.397
361.66	25.697
362.02	26.343
362.38	26.160
362.74	25.818
363.10	25.537
363.46	25.825
363.82	25.321
364.18	26.652
364.54	26.226
364.90	27.125
365.26	26.544
365.62	26.150
365.98	25.785
366.35	25.501
366.71	26.826
367.07	26.220
367.43	26.488
367.79	26.552
368.15	27.371
368.51	25.145
368.87	26.838
369.23	26.554
369.59	27.371
369.95	26.103
370.31	27.350
370.67	27.319
371.03	27.790
371.39	27.697
371.75	27.353
372.11	26.743
372.47	27.639
372.83	27.666
373.19	27.312
373.55	28.455
373.91	28.056
374.27	26.735
374.63	27.055
374.99	27.119
375.35	27.704
375.71	27.279
376.07	28.601
376.42	27.510
376.78	27.966
377.14	27.205
377.50	28.079
377.86	26.795
378.22	28.382
378.58	27.130
378.94	27.467
379.30	27.926
379.66	28.046
380.02	28.194
380.38	27.687
380.74	28.691
381.09	28.423
381.45	28.703
381.81	27.826
382.17	28.917
382.53	27.673
382.89	29.753
383.25	28.705
383.61	29.554
383.97	29.143
384.32	28.883
384.68	28.439
385.04	28.888
385.40	28.607
385.76	29.054
386.12	28.756
386.48	29.893
386.83	30.148
387.19	30.056
387.55	29.623
387.91	29.565
388.27	29.430
388.62	30.240
388.98	29.300
389.34	29.662
389.70	30.043
390.06	30.545
390.42	31.258
390.77	29.835
391.13	30.823
391.49	30.838
391.85	30.490
392.20	30.284
392.56	30.303
392.92	31.842
393.28	30.414
393.64	31.115
393.99	30.483
394.35	30.211
394.71	30.740
395.07	30.654
395.42	31.582
395.78	30.534
396.14	30.975
396.50	31.015
396.85	32.994
397.21	31.381
397.57	30.936
397.92	32.091
398.28	31.334
398.64	31.481
399.00	31.673
399.35	31.077
399.71	31.655
400.07	32.111
400.42	31.963
400.78	32.207
401.14	32.317
401.49	32.955
401.85	31.639
402.21	31.856
402.57	32.326
402.92	33.480
403.28	32.480
403.63	32.426
403.99	32.038
404.35	32.061
404.70	32.074
405.06	32.033
405.42	33.125
405.77	32.686
406.13	32.167
406.49	33.353
406.84	34.259
407.20	33.333
407.55	33.121
407.91	33.800
408.27	33.440
408.62	33.414
408.98	33.517
409.34	33.518
409.69	34.387
410.05	34.015
410.40	34.067
410.76	33.333
411.11	33.172
411.47	32.396
411.83	33.842
412.18	34.323
412.54	33.686
412.89	33.554
413.25	33.943
413.60	34.404
413.96	34.001
414.31	34.569
414.67	34.728
415.03	34.238
415.38	35.567
415.74	35.241
416.09	35.075
416.45	35.141
416.80	35.757
417.16	37.064
417.51	35.501
417.87	34.811
418.22	34.574
418.58	36.088
418.93	34.644
419.29	36.346
419.64	36.461
420.00	34.634
420.35	35.188
420.71	35.923
421.06	36.456
421.42	36.199
421.77	34.865
422.12	34.307
422.48	34.539
422.83	35.993
423.19	35.856
423.54	35.752
423.90	36.000
424.25	36.237
424.61	36.131
424.96	36.443
425.31	35.936
425.67	34.831
426.02	35.886
426.38	37.424
426.73	36.396
427.09	35.866
427.44	36.515
427.79	35.998
428.15	38.155
428.50	36.805
428.85	37.187
429.21	36.334
429.56	37.014
429.92	36.135
430.27	36.594
430.62	36.150
430.98	37.571
431.33	36.237
431.68	37.435
432.04	36.688
432.39	37.065
432.74	37.403
433.10	36.842
433.45	38.542
433.80	37.805
434.16	37.500
434.51	37.263
434.86	36.716
435.22	39.077
435.57	37.143
435.92	38.561
436.28	38.731
436.63	37.196
436.98	38.065
437.34	37.984
437.69	37.865
438.04	37.718
438.39	38.388
438.75	38.175
439.10	38.380
439.45	37.898
439.81	38.912
440.16	38.171
440.51	38.723
440.86	38.506
441.22	37.430
441.57	38.270
441.92	38.843
442.27	37.783
442.63	37.862
442.98	38.817
443.33	38.859
443.68	37.171
444.03	38.458
444.39	37.488
444.74	38.582
445.09	37.898
445.44	38.054
445.79	38.545
446.15	38.751
446.50	38.288
446.85	38.232
447.20	38.399
447.55	38.973
447.91	37.893
448.26	38.731
448.61	38.383
448.96	40.089
449.31	39.145
449.66	39.055
450.02	38.607
450.37	38.889
450.72	38.861
451.07	38.513
451.42	38.176
451.77	39.284
452.12	37.471
452.47	39.117
452.83	38.986
453.18	38.386
453.53	40.012
453.88	38.925
454.23	38.972
454.58	38.764
454.93	39.860
455.28	39.401
455.63	38.410
455.98	39.821
456.34	38.568
456.69	39.574
457.04	40.186
457.39	39.100
457.74	39.234
458.09	38.298
458.44	36.773
458.79	37.636
459.14	38.488
459.49	39.872
459.84	37.396
460.19	38.126
460.54	37.789
460.89	38.453
461.24	39.830
461.59	38.524
461.94	38.964
462.29	39.347
462.64	39.183
462.99	39.102
463.34	40.067
463.69	38.086
464.04	38.435
464.39	38.261
464.74	38.324
465.09	38.721
465.44	38.006
465.79	38.814
466.14	37.712
466.49	37.709
466.84	37.011
467.19	37.719
467.54	38.500
467.89	39.376
468.24	38.162
468.59	38.889
468.94	38.363
469.29	38.496
469.64	39.491
469.99	38.972
470.34	38.639
470.68	39.655
471.03	37.687
471.38	39.055
471.73	39.174
472.08	39.079
472.43	38.003
472.78	38.315
473.13	39.089
473.48	37.890
473.83	38.537
474.17	38.519
474.52	37.779
474.87	39.113
475.22	38.479
475.57	37.668
475.92	38.078
476.27	37.711
476.61	37.617
476.96	37.823
477.31	37.206
477.66	37.801
478.01	37.742
478.36	38.340
478.70	37.435
479.05	37.913
479.40	38.332
479.75	37.265
480.10	37.525
480.45	36.792
480.79	36.407
481.14	37.720
481.49	38.064
481.84	37.540
482.19	37.392
482.53	36.927
482.88	36.622
483.23	37.991
483.58	36.215
483.92	37.723
484.27	36.035
484.62	35.647
484.97	36.500
485.31	36.918
485.66	34.661
486.01	33.622
486.36	32.114
486.70	32.357
487.05	33.130
487.40	34.346
487.75	34.885
488.09	35.578
488.44	34.790
488.79	36.347
489.13	37.319
489.48	35.726
489.83	36.340
490.17	37.396
490.52	36.404
490.87	36.092
491.22	35.516
491.56	35.900
491.91	35.598
492.26	36.059
492.60	36.452
492.95	35.454
493.30	35.654
493.64	35.884
493.99	36.072
494.34	35.476
494.68	36.859
495.03	35.667
495.37	36.389
495.72	36.696
496.07	36.705
496.41	34.602
496.76	35.356
497.11	35.389
497.45	35.352
497.80	35.173
498.14	35.700
498.49	35.707
498.84	36.433
499.18	35.714
499.53	35.185
499.87	35.461
500.22	35.422
500.56	36.602
500.91	35.288
501.26	35.277
501.60	36.023
501.95	34.968
502.29	35.239
502.64	35.475
502.98	35.437
503.33	35.375
503.67	34.896
504.02	35.267
504.36	35.423
504.71	35.125
505.06	34.795
505.40	34.225
505.75	33.944
506.09	35.326
506.44	34.632
506.78	35.314
507.13	34.831
507.47	35.657
507.82	36.069
508.16	34.954
508.51	35.667
508.85	34.459
509.19	35.612
509.54	34.592
509.88	35.600
510.23	36.144
510.57	36.017
510.92	35.008
511.26	35.406
511.61	35.062
511.95	35.334
512.30	34.889
512.64	36.002
512.98	35.477
513.33	35.385
513.67	34.792
514.02	34.903
514.36	35.773
514.70	34.975
515.05	35.137
515.39	34.661
515.74	34.459
516.08	35.495
516.42	35.572
516.77	35.006
517.11	34.184
517.46	35.779
517.80	35.947
518.14	34.395
518.49	35.706
518.83	35.398
519.17	35.681
519.52	34.805
519.86	35.710
520.20	35.434
520.55	35.727
520.89	35.645
521.23	34.680
521.58	36.014
521.92	35.701
522.26	33.984
522.61	34.455
522.95	35.789
523.29	34.327
523.64	35.183
523.98	34.812
524.32	34.801
524.66	34.336
525.01	34.681
525.35	34.387
525.69	34.113
526.04	35.514
526.38	34.838
526.72	35.215
527.06	35.028
527.41	33.973
527.75	35.820
528.09	35.067
528.43	35.564
528.78	35.587
529.12	33.818
529.46	34.231
529.80	35.520
530.15	34.330
530.49	33.846
530.83	34.304
531.17	35.836
531.51	35.538
531.86	34.839
532.20	35.267
532.54	35.426
532.88	34.531
533.22	33.916
533.57	34.136
533.91	33.474
534.25	34.508
534.59	34.533
534.93	32.600
535.27	33.675
535.62	33.516
535.96	34.589
536.30	33.121
536.64	33.162
536.98	33.975
537.32	33.311
537.66	34.133
538.01	34.694
538.35	33.743
538.69	34.461
539.03	33.333
539.37	33.546
539.71	32.728
540.05	33.725
540.39	34.153
540.73	32.600
541.07	34.199
541.42	34.377
541.76	33.742
542.10	33.376
542.44	33.775
542.78	34.190
543.12	33.397
543.46	33.443
543.80	34.027
544.14	33.504
544.48	32.952
544.82	32.649
545.16	33.442
545.50	32.905
545.84	32.661
546.18	33.064
546.52	33.861
546.86	32.921
547.20	33.918
547.54	33.534
547.88	33.418
548.22	32.877
548.56	32.767
548.90	32.778
549.24	31.852
549.58	31.719
549.92	33.242
550.26	34.162
550.60	33.748
550.94	33.239
551.28	32.334
551.62	33.717
551.96	32.702
552.30	32.218
552.64	33.333
552.98	32.814
553.32	32.367
553.66	32.175
554.00	33.013
554.34	32.505
554.68	32.690
555.02	32.581
555.36	32.220
555.69	31.597
556.03	32.167
556.37	32.128
556.71	31.583
557.05	32.633
557.39	32.120
557.73	32.181
558.07	33.067
558.41	32.562
558.75	33.652
559.08	32.662
559.42	33.107
559.76	32.941
560.10	31.549
560.44	32.145
560.78	31.271
561.12	30.937
561.45	31.226
561.79	30.982
562.13	31.321
562.47	31.694
562.81	31.939
563.15	30.368
563.48	31.366
563.82	31.507
564.16	30.543
564.50	30.599
564.84	30.657
565.17	29.858
565.51	30.799
565.85	30.901
566.19	29.681
566.52	30.652
566.86	30.500
567.20	30.366
567.54	29.795
567.88	29.060
568.21	30.476
568.55	29.019
568.89	29.232
569.23	28.699
569.56	27.530
569.90	27.170
570.24	26.911
570.57	26.862
570.91	26.147
571.25	26.374
571.59	26.215
571.92	26.094
572.26	26.401
572.60	26.126
572.93	26.357
573.27	26.264
573.61	26.075
573.95	25.711
574.28	25.829
574.62	25.073
574.96	25.114
575.29	25.121
575.63	25.483
575.97	25.254
576.30	25.119
576.64	25.499
576.98	25.304
577.31	24.769
577.65	25.255
577.98	24.568
578.32	24.464
578.66	24.654
578.99	24.880
579.33	24.861
579.67	24.690
580.00	24.814
580.34	25.059
580.67	24.533
581.01	24.736
581.35	24.238
581.68	24.158
582.02	23.579
582.35	23.960
582.69	23.972
583.02	24.147
583.36	24.971
583.70	25.075
584.03	25.313
584.37	25.797
584.70	25.287
585.04	24.633
585.37	24.534
585.71	24.671
586.04	24.740
586.38	25.000
586.72	25.352
587.05	24.966
587.39	23.958
587.72	24.452
588.06	25.107
588.39	24.911
588.73	24.641
589.06	25.335
589.40	25.993
589.73	26.118
590.07	25.552
590.40	25.100
590.73	26.503
591.07	26.862
591.40	25.559
591.74	26.494
592.07	25.436
592.41	25.672
592.74	24.906
593.08	24.684
593.41	24.138
593.75	24.047
594.08	24.941
594.41	24.567
594.75	24.399
595.08	24.911
595.42	24.939
595.75	25.071
596.09	25.272
596.42	25.265
596.75	25.496
597.09	25.758
597.42	24.199
597.75	26.089
598.09	25.261
598.42	25.215
598.76	24.726
599.09	23.983
599.42	24.381
599.76	24.451
600.09	23.862
600.42	23.886
600.76	24.000
601.09	24.226
601.42	24.277
601.76	23.947
602.09	24.822
602.42	24.960
602.76	25.232
603.09	24.351
603.42	24.912
603.76	24.771
604.09	24.583
604.42	24.582
604.76	24.968
605.09	24.115
605.42	24.412
605.75	24.421
606.09	23.953
606.42	24.765
606.75	24.471
607.09	24.320
607.42	24.219
607.75	23.586
608.08	23.665
608.42	24.697
608.75	23.940
609.08	24.329
609.41	24.845
609.75	24.107
610.08	24.364
610.41	23.650
610.74	24.456
611.07	24.308
611.41	24.534
611.74	25.138
612.07	25.207
612.40	25.289
612.73	25.842
613.07	25.808
613.40	25.276
613.73	24.017
614.06	24.516
614.39	24.856
614.72	24.316
615.06	25.578
615.39	24.469
615.72	24.387
616.05	24.030
616.38	24.847
616.71	25.534
617.05	25.206
617.38	25.496
617.71	25.526
618.04	25.841
618.37	24.246
618.70	26.198
619.03	26.513
619.36	25.866
619.69	26.056
620.03	26.511
620.36	25.735
620.69	25.616
621.02	27.139
621.35	25.529
621.68	25.467
622.01	25.929
622.34	26.097
622.67	26.692
623.00	26.045
623.33	25.089
623.66	26.019
623.99	25.920
624.32	25.606
624.65	25.494
624.99	24.858
625.32	24.475
625.65	26.071
625.98	26.595
626.31	26.750
626.64	26.612
626.97	26.683
627.30	25.270
627.63	27.810
627.96	28.259
628.29	26.422
628.62	28.271
628.95	28.585
629.28	27.190
629.61	27.498
629.94	28.857
630.26	26.501
630.59	27.073
630.92	27.969
631.25	27.345
631.58	26.326
631.91	28.093
632.24	26.793
632.57	28.856
632.90	28.618
633.23	29.083
633.56	30.056
633.89	29.558
634.22	28.490
634.55	29.112
634.88	27.545
635.20	30.108
635.53	28.072
635.86	30.941
636.19	28.353
636.52	28.258
636.85	28.637
637.18	26.037
637.51	28.605
637.83	25.771
638.16	28.517
638.49	29.471
638.82	28.824
639.15	27.750
639.48	29.052
639.81	30.965
640.13	27.995
640.46	29.933
640.79	29.987
641.12	27.648
641.45	28.771
641.77	31.075
642.10	28.801
642.43	28.829
642.76	28.638
643.09	30.061
643.41	31.563
643.74	30.247
644.07	31.098
644.40	31.288
644.73	30.709
645.05	32.964
645.38	31.438
645.71	29.952
646.04	30.233
646.36	33.222
646.69	32.441
647.02	31.633
647.35	32.131
647.67	31.327
648.00	29.919
648.33	30.858
648.66	30.758
648.98	29.685
649.31	28.999
649.64	29.895
649.96	29.508
650.29	29.384
650.62	29.612
650.94	31.118
651.27	32.432
651.60	30.116
651.92	29.553
652.25	28.664
652.58	30.685
652.90	30.490
653.23	29.430
653.56	29.449
653.88	29.794
654.21	32.070
654.54	29.043
654.86	28.660
655.19	26.081
655.52	18.290
655.84	14.790
656.17	18.867
656.49	26.109
656.82	26.948
657.15	20.946
657.47	15.691
657.80	12.401
658.13	13.192
658.45	19.795
658.78	20.294
659.10	21.564
659.43	23.111
659.75	24.207
660.08	26.013
660.41	29.981
660.73	30.496
661.06	30.255
661.38	33.636
661.71	32.115
662.03	32.742
662.36	29.821
662.68	30.120
663.01	32.929
663.33	33.333
663.66	34.664
663.98	31.533
664.31	32.773
664.63	29.150
664.96	29.779
665.28	33.607
665.61	30.409
665.93	29.577
666.26	30.223
666.58	31.799
666.91	32.558
667.23	33.034
667.56	31.533
667.88	31.838
668.21	32.623
668.53	31.887
668.86	32.900
669.18	34.755
669.50	33.261
669.83	33.987
670.15	33.556
670.48	33.115
670.80	31.897
671.13	32.059
671.45	31.277
671.77	31.976
672.10	32.532
672.42	29.505
672.75	29.851
673.07	29.049
673.39	28.391
673.72	28.320
674.04	28.039
674.37	28.738
674.69	29.652
675.01	28.033
675.34	34.908
675.66	33.263
675.98	32.179
676.31	29.622
676.63	33.970
676.95	30.818
677.28	31.075
677.60	33.626
677.92	32.700
678.25	29.363
678.57	29.283
678.89	32.665
679.22	27.505
679.54	29.962
679.86	30.826
680.18	28.086
680.51	27.837
680.83	30.783
681.15	29.811
681.48	29.679
681.80	30.174
682.12	29.502
682.44	28.433
682.77	29.124
683.09	31.974
683.41	31.264
683.73	30.684
684.06	29.752
684.38	29.746
684.70	29.070
685.02	30.394
685.34	29.121
685.67	26.923
685.99	27.320
686.31	26.280
686.63	27.385
686.96	28.571
687.28	26.715
687.60	28.261
687.92	28.336
688.24	30.418
688.56	29.719
688.89	33.195
689.21	31.878
689.53	29.645
689.85	32.151
690.17	29.814
690.49	33.333
690.82	32.009
691.14	30.580
691.46	28.059
691.78	29.518
692.10	29.132
692.42	29.341
692.74	28.423
693.06	28.723
693.39	32.033
693.71	30.349
694.03	31.368
694.35	30.952
694.67	30.664
694.99	33.659
695.31	31.618
695.63	32.536
695.95	30.807
696.27	28.426
696.59	32.642
696.91	31.606
697.23	31.925
697.56	29.851
697.88	26.176
698.20	28.333
698.52	30.323
698.84	30.067
699.16	30.645
699.48	29.929
699.80	30.918
700.12	32.727
700.44	33.156
700.76	33.425
701.08	32.759
701.40	34.358
701.72	36.152
702.04	38.636
702.36	31.728
702.68	34.278
703.00	33.241
703.32	32.713
703.64	32.172
703.96	32.591
704.28	34.884
704.60	34.897
704.91	34.125
705.23	30.792
705.55	36.213
705.87	38.870
706.19	40.989
706.51	36.449
706.83	33.030
707.15	32.493
707.47	29.293
707.79	32.678
708.11	30.822
708.43	28.333
708.74	30.102
709.06	32.727
709.38	33.858
709.70	35.465
710.02	31.751
710.34	31.515
710.66	32.537
710.98	34.943
711.29	34.302
711.61	35.103
711.93	35.256
712.25	33.762
712.57	35.662
712.89	35.986
713.20	35.562
713.52	35.526
713.84	33.861
714.16	32.317
714.48	33.333
714.80	38.602
715.11	34.294
715.43	31.751
715.75	31.014
716.07	33.227
716.39	37.304
716.70	39.203
717.02	36.331
717.34	38.516
717.66	40.672
717.97	41.434
718.29	36.296
718.61	39.416
718.93	36.765
719.24	37.370
719.56	33.559
719.88	38.644
720.20	36.486
720.51	37.282
720.83	37.546
721.15	36.940
721.46	32.624
721.78	36.559
722.10	38.868
722.42	38.722
722.73	38.202
723.05	37.705
723.37	38.462
723.68	36.680
724.00	39.837
724.32	39.919
724.63	42.276
724.95	37.238
725.27	43.725
725.58	41.016
725.90	38.686
726.22	36.226
726.53	34.028
726.85	39.249
727.16	41.637
727.48	36.170
727.80	40.909
728.11	36.232
728.43	40.385
728.74	37.993
729.06	43.066
729.38	40.809
729.69	35.943
730.01	34.130
730.32	32.986
730.64	31.773
730.96	33.663
731.27	34.106
731.59	30.581
731.90	33.528
732.22	33.540
732.53	32.817
732.85	34.936
733.16	35.048
733.48	33.555
733.80	35.714
734.11	35.350
734.43	35.207
734.74	28.857
735.06	30.086
735.37	35.260
735.69	32.803
736.00	39.542
736.32	36.449
736.63	32.588
736.95	34.185
737.26	26.190
737.58	28.710
737.89	37.458
738.21	35.154
738.52	33.571
738.83	31.698
739.15	41.154
739.46	35.401
739.78	37.500
740.09	31.077
740.41	37.419
740.72	32.753
741.04	37.037
741.35	38.750
741.66	48.444
741.98	38.208
742.29	44.976
742.61	43.966
742.92	36.652
743.23	42.735
743.55	35.200
743.86	39.035
744.18	41.593
744.49	37.321
744.80	42.254
745.12	46.364
745.43	39.207
745.74	34.234
746.06	43.119
746.37	46.188
746.68	40.724
747.00	48.148
747.31	50.476
747.62	36.726
747.94	40.529
748.25	40.000
748.56	43.612
748.88	42.574
749.19	44.500
749.50	45.581
749.82	38.618
750.13	39.592
750.44	32.847
750.75	38.947
751.07	36.977
751.38	37.631
751.69	32.852
752.01	36.842
752.32	32.130
752.63	31.560
752.94	38.934
753.26	42.000
753.57	35.366
753.88	40.234
754.19	35.000
754.51	39.236
754.82	29.964
755.13	36.981
755.44	34.211
755.75	35.401
756.07	31.915
756.38	35.766
756.69	35.235
757.00	29.641
757.31	30.267
757.63	30.117
757.94	29.223
758.25	26.225
758.56	28.395
758.87	28.495
759.18	31.212
759.50	30.094
759.81	28.660
760.12	30.000
760.43	30.946
760.74	28.261
761.05	32.203
761.36	28.877
761.67	30.966
761.99	29.503
762.30	37.847
762.61	35.115
762.92	35.937
763.23	36.134
763.54	37.600
763.85	35.156
764.16	37.308
764.47	41.065
764.78	29.682
765.10	31.329
765.41	30.678
765.72	32.934
766.03	34.169
766.34	31.000
766.65	40.000
766.96	38.889
767.27	37.563
767.58	46.354
767.89	46.842
768.20	47.701
768.51	40.102
768.82	36.239
769.13	32.520
769.44	39.676
769.75	35.193
770.06	31.651
770.37	43.439
770.68	41.667
770.99	36.000
771.30	36.885
771.61	42.601
771.92	36.885
772.23	40.756
772.54	42.564
772.85	43.979
773.16	40.957
773.47	45.652
773.78	51.269
774.09	48.810
774.39	51.462
774.70	42.593
775.01	53.623
775.32	55.556
775.63	53.289
775.94	53.237
776.25	55.118
776.56	57.463
776.87	57.377
777.18	57.031
777.48	58.015
777.79	56.818
778.10	57.778
778.41	59.821
778.72	54.745
779.03	57.047
779.34	48.322
779.65	52.703
779.95	47.853
780.26	56.863
780.57	50.345
780.88	68.750
781.19	58.647
781.50	55.405
781.80	48.428
782.11	43.503
782.42	51.266
782.73	44.172
783.04	56.081
783.34	55.634
783.65	56.164
783.96	55.224
784.27	51.049
784.57	54.676
784.88	53.704
785.19	57.143
785.50	66.981
785.81	62.687
786.11	66.393
786.42	58.140
786.73	62.832
787.04	64.151
787.34	65.179
787.65	69.000
787.96	64.865
788.26	55.372
788.57	71.186
788.88	59.504
789.19	51.389
789.49	71.212
789.80	61.069
790.11	66.667
790.41	67.327
790.72	65.060
791.03	83.696
791.33	81.395
791.64	71.134
791.95	70.297
792.25	73.333
792.56	77.922
792.87	94.872
793.17	91.139
793.48	85.057
793.79	83.908
794.09	80.682
794.40	68.908
794.70	55.147
795.01	46.667
795.32	48.921
795.62	55.118
795.93	55.172
796.23	61.947
796.54	71.765
796.85	72.973
797.15	104.225
797.46	84.848
797.76	89.157
798.07	88.608
798.37	93.846
798.68	87.879
798.99	90.141
799.29	89.610
799.60	79.545
799.90	97.260
800.21	95.522
800.51	110.345
800.82	110.526
801.12	109.836
801.43	106.061
801.73	89.189
802.04	112.698
802.34	91.358
802.65	106.250
802.95	120.339
803.26	103.125
803.56	84.286
803.87	80.000
804.17	97.059
804.48	125.926
804.78	112.069
805.09	91.176
805.39	117.308
805.70	125.000
806.00	126.230
806.30	104.545
806.61	91.463
806.91	68.354
807.22	92.105
807.52	82.090
807.83	92.958
808.13	90.625
808.43	96.667
808.74	86.842
809.04	102.899
809.35	97.015
809.65	89.474
809.95	112.903
810.26	115.254
810.56	101.587
810.86	118.182
811.17	142.857
811.47	123.333
811.77	118.519
812.08	120.000
812.38	132.000
812.69	161.111
812.99	165.909
813.29	136.735
813.59	133.333
813.90	144.898
814.20	100.000
814.50	98.462
814.81	98.529
815.11	138.776
815.41	124.590
815.72	157.143
816.02	123.636
816.32	157.143
816.62	162.500
816.93	146.341
817.23	159.524
817.53	143.182
817.84	190.909
818.14	130.435
818.44	133.333
818.74	182.353
819.04	147.500
819.35	185.714
819.65	200.000
819.95	210.714
820.25	270.000
820.56	184.615
820.86	170.455
821.16	158.140
821.46	130.769
821.76	142.000
822.07	180.000
822.37	175.000
822.67	169.697
822.97	127.451
823.27	185.714
823.57	151.351
823.88	157.500
824.18	223.333
824.48	169.048
824.78	296.000
825.08	225.000
825.38	197.297
825.69	139.024
825.99	204.167
826.29	196.552
826.59	171.053
826.89	173.684
827.19	194.118
827.49	174.194
827.79	168.182
828.09	136.364
828.39	140.426
828.70	142.857
829.00	181.481
829.30	183.871
829.60	152.500
829.90	400.000
830.20	214.286
830.50	226.087
830.80	273.913
831.10	220.000
831.40	216.667
831.70	247.826
832.00	246.154
832.30	196.296
832.60	343.750
832.90	233.333
833.20	464.286
833.50	219.355
833.80	203.448
834.10	228.125
834.40	234.615
834.70	361.111
835.00	338.095
835.30	168.571
835.60	346.154
835.90	227.586
836.20	335.714
836.50	186.207
836.80	204.000
837.10	191.667
837.40	209.524
837.70	352.941
838.00	218.519
838.30	276.190
838.60	338.095
838.90	230.769
839.19	275.000
839.49	400.000
839.79	355.000
840.09	320.000
840.39	314.286
840.69	252.174
840.99	338.889
841.29	500.000
841.59	375.000
841.88	356.250
842.18	182.759
842.48	319.048
842.78	213.333
843.08	247.826
843.38	218.750
843.68	966.667
843.97	250.000
844.27	203.448
844.57	395.238
844.87	368.750
845.17	244.444
845.47	1566.667
845.76	577.778
846.06	329.412
846.36	650.000
846.66	414.286
846.96	350.000
847.25	563.636
847.55	427.273
847.85	282.609
848.15	540.000
848.44	407.143
848.74	294.444
849.04	347.059
849.34	570.000
849.63	252.632
849.93	454.545
850.23	1100.000
850.53	442.857
850.82	2600.000
851.12	-5500.000
851.42	4600.000
851.71	310.000
852.01	-1566.667
852.31	237.500
852.61	2133.333
852.90	309.524
853.20	276.000
853.50	329.412
853.79	304.762
854.09	250.000
854.39	412.500
854.68	191.892
854.98	212.903
855.28	213.333
855.57	220.690
855.87	229.630
856.17	263.158
856.46	300.000
856.76	311.765
857.05	217.241
857.35	237.500
857.65	406.667
857.94	252.174
858.24	219.231
858.53	300.000
858.83	290.909
859.13	393.333
859.42	0.000
859.72	644.444
860.01	572.727
860.31	304.545
860.60	352.632
860.90	252.174
861.20	577.778
861.49	525.000
861.79	-5600.000
862.08	712.500
862.38	300.000
862.67	438.462
862.97	341.176
863.26	666.667
863.56	305.556
863.85	375.000
864.15	562.500
864.44	380.000
864.74	900.000
865.03	625.000
865.33	347.368
865.62	527.273
865.92	423.077
866.21	441.667
866.51	0.000
866.80	472.727
867.10	1340.000
867.39	453.846
867.69	545.455
867.98	326.316
868.27	463.636
868.57	331.579
868.86	-4900.000
869.16	400.000
869.45	2750.000
869.75	-5500.000
870.04	466.667
870.33	714.286
870.63	1100.000
870.92	2750.000
871.22	1014.286
871.51	400.000
871.80	276.190
872.10	457.143
>>>>>End Processed Spectral Data<<<<<
