SpectraSuite Data File
++++++++++++++++++++++++++++++++++++
Date: Wed May 13 19:31:58 PDT 2015
User: schluterlab
Dark Spectrum Present: Yes
Reference Spectrum Present: Yes
Number of Sampled Component Spectra: 1
Spectrometers: USB2E3373
Integration Time (usec): 3000 (USB2E3373)
Spectra Averaged: 3 (USB2E3373)
Boxcar Smoothing: 0 (USB2E3373)
Correct for Electrical Dark: No (USB2E3373)
Strobe/Lamp Enabled: No (USB2E3373)
Correct for Detector Non-linearity: No (USB2E3373)
Correct for Stray Light: No (USB2E3373)
Number of Pixels in Processed Spectrum: 2048
>>>>>Begin Processed Spectral Data<<<<<
178.53	0.000
178.91	-1275.000
179.29	-1300.000
179.67	-227.778
180.04	-1475.000
180.42	2550.000
180.80	960.000
181.18	-1225.000
181.56	700.000
181.94	0.000
182.31	-714.286
182.69	1900.000
183.07	-650.000
183.45	-566.667
183.83	545.455
184.20	-540.000
184.58	2500.000
184.96	5900.000
185.34	-920.000
185.72	-725.000
186.09	-2600.000
186.47	2750.000
186.85	2650.000
187.23	5600.000
187.61	-1700.000
187.98	1300.000
188.36	609.091
188.74	554.545
189.12	-840.000
189.49	600.000
189.87	-5100.000
190.25	-950.000
190.63	450.000
191.00	492.308
191.38	916.667
191.76	-1225.000
192.14	1550.000
192.51	675.000
192.89	1050.000
193.27	725.000
193.65	-1250.000
194.02	530.000
194.40	1080.000
194.78	550.000
195.15	550.000
195.53	630.000
195.91	-2300.000
196.29	337.500
196.66	278.947
197.04	-310.000
197.42	0.000
197.79	680.000
198.17	-5700.000
198.55	771.429
198.92	837.500
199.30	1160.000
199.68	0.000
200.05	344.444
200.43	814.286
200.81	5100.000
201.18	1766.667
201.56	-1766.667
201.94	688.889
202.31	577.778
202.69	566.667
203.07	670.000
203.44	0.000
203.82	1350.000
204.19	900.000
204.57	421.429
204.95	750.000
205.32	1666.667
205.70	545.455
206.08	414.286
206.45	2550.000
206.83	356.250
207.20	866.667
207.58	760.000
207.96	316.667
208.33	687.500
208.71	-916.667
209.08	871.429
209.46	700.000
209.84	518.182
210.21	-1433.333
210.59	1475.000
210.96	-475.000
211.34	2650.000
211.71	600.000
212.09	916.667
212.46	0.000
212.84	1666.667
213.22	1425.000
213.59	-4500.000
213.97	916.667
214.34	1000.000
214.72	572.727
215.09	1080.000
215.47	-2450.000
215.84	-3200.000
216.22	2066.667
216.59	457.143
216.97	1325.000
217.34	463.636
217.72	-650.000
218.09	0.000
218.47	-4900.000
218.84	711.111
219.22	842.857
219.59	1800.000
219.97	-642.857
220.34	1220.000
220.72	-1800.000
221.09	435.714
221.47	1375.000
221.84	-1016.667
222.22	0.000
222.59	1550.000
222.97	-2450.000
223.34	1240.000
223.72	500.000
224.09	980.000
224.46	2450.000
224.84	-5300.000
225.21	-1080.000
225.59	-5400.000
225.96	690.000
226.34	330.000
226.71	3250.000
227.08	737.500
227.46	500.000
227.83	-1175.000
228.21	-2900.000
228.58	622.222
228.95	-2500.000
229.33	-2400.000
229.70	1600.000
230.08	942.857
230.45	-1000.000
230.82	491.667
231.20	916.667
231.57	785.714
231.95	408.333
232.32	222.727
232.69	436.364
233.07	771.429
233.44	400.000
233.81	-1666.667
234.19	268.421
234.56	441.667
234.93	408.333
235.31	563.636
235.68	353.846
236.05	400.000
236.43	215.152
236.80	268.421
237.17	4500.000
237.55	347.619
237.92	250.000
238.29	271.429
238.67	180.645
239.04	234.483
239.41	147.222
239.79	128.261
240.16	145.238
240.53	147.727
240.91	115.686
241.28	134.000
241.65	136.000
242.02	104.348
242.40	111.290
242.77	103.333
243.14	88.172
243.51	88.764
243.89	83.529
244.26	82.222
244.63	87.097
245.00	88.298
245.38	82.178
245.75	76.636
246.12	61.468
246.49	67.153
246.87	70.400
247.24	66.154
247.61	72.857
247.98	57.516
248.36	56.757
248.73	59.236
249.10	62.420
249.47	50.847
249.84	50.802
250.22	52.406
250.59	53.846
250.96	53.030
251.33	56.872
251.70	55.941
252.08	53.810
252.45	46.188
252.82	44.783
253.19	45.106
253.56	47.059
253.94	45.228
254.31	48.828
254.68	45.000
255.05	43.911
255.42	45.935
255.79	40.809
256.16	45.126
256.54	38.869
256.91	43.772
257.28	39.568
257.65	42.244
258.02	38.509
258.39	38.486
258.76	37.124
259.14	37.798
259.51	36.778
259.88	34.161
260.25	40.785
260.62	38.728
260.99	37.578
261.36	39.940
261.73	40.115
262.10	38.081
262.47	38.592
262.85	35.933
263.22	37.607
263.59	39.316
263.96	33.791
264.33	36.031
264.70	36.579
265.07	39.898
265.44	37.121
265.81	32.603
266.18	36.432
266.55	34.634
266.92	37.101
267.29	34.491
267.66	35.092
268.03	35.227
268.40	35.748
268.77	31.265
269.14	35.135
269.51	33.409
269.88	33.800
270.25	36.343
270.62	33.034
270.99	36.774
271.36	33.906
271.73	33.879
272.10	32.826
272.47	33.978
272.84	35.281
273.21	33.333
273.58	32.533
273.95	28.512
274.32	29.959
274.69	32.976
275.06	31.299
275.43	36.383
275.80	32.064
276.17	32.587
276.54	32.225
276.91	32.411
277.28	31.445
277.65	30.754
278.02	31.884
278.39	31.445
278.76	29.818
279.13	34.717
279.50	32.216
279.87	32.271
280.23	30.938
280.60	31.335
280.97	31.238
281.34	31.858
281.71	30.364
282.08	29.750
282.45	28.545
282.82	29.840
283.19	27.807
283.56	30.175
283.92	29.949
284.29	29.277
284.66	28.312
285.03	30.018
285.40	30.106
285.77	28.788
286.14	29.879
286.51	28.167
286.87	28.547
287.24	30.293
287.61	27.608
287.98	28.571
288.35	29.635
288.72	28.037
289.08	30.047
289.45	28.007
289.82	29.431
290.19	28.414
290.56	28.178
290.93	26.586
291.29	25.920
291.66	27.434
292.03	29.215
292.40	28.341
292.77	26.479
293.13	24.776
293.50	28.571
293.87	26.370
294.24	25.630
294.60	24.454
294.97	26.453
295.34	27.221
295.71	26.562
296.08	25.926
296.44	24.347
296.81	24.967
297.18	26.965
297.55	24.538
297.91	24.934
298.28	26.640
298.65	25.587
299.02	24.638
299.38	25.100
299.75	25.337
300.12	24.521
300.48	24.125
300.85	24.661
301.22	23.822
301.59	22.475
301.95	25.063
302.32	24.904
302.69	24.373
303.05	23.758
303.42	24.074
303.79	24.236
304.15	23.660
304.52	23.523
304.89	23.577
305.25	23.898
305.62	24.349
305.99	25.738
306.35	23.602
306.72	24.215
307.09	24.417
307.45	25.676
307.82	23.214
308.19	24.503
308.55	24.380
308.92	25.349
309.29	24.182
309.65	22.587
310.02	24.736
310.38	25.699
310.75	25.554
311.12	25.998
311.48	25.601
311.85	25.681
312.22	24.766
312.58	26.195
312.95	25.871
313.31	24.466
313.68	25.572
314.05	26.331
314.41	25.930
314.78	25.680
315.14	24.727
315.51	25.953
315.87	26.733
316.24	25.919
316.61	25.536
316.97	24.070
317.34	25.832
317.70	26.577
318.07	27.623
318.43	27.299
318.80	26.992
319.16	27.119
319.53	26.735
319.89	26.476
320.26	27.900
320.62	27.480
320.99	27.879
321.35	28.889
321.72	27.823
322.08	28.924
322.45	29.851
322.81	29.457
323.18	29.961
323.54	29.128
323.91	29.811
324.27	29.828
324.64	29.730
325.00	28.674
325.37	30.027
325.73	31.059
326.10	30.627
326.46	30.108
326.83	31.061
327.19	31.426
327.56	30.575
327.92	31.234
328.29	32.564
328.65	32.689
329.01	31.498
329.38	31.175
329.74	32.410
330.11	33.553
330.47	31.589
330.84	32.445
331.20	30.601
331.56	31.651
331.93	32.500
332.29	31.322
332.66	32.389
333.02	32.176
333.38	32.520
333.75	31.996
334.11	31.851
334.48	32.653
334.84	32.721
335.20	30.909
335.57	30.734
335.93	30.714
336.29	31.502
336.66	31.380
337.02	30.588
337.38	31.759
337.75	30.481
338.11	30.618
338.47	29.926
338.84	31.806
339.20	30.642
339.56	32.391
339.93	30.000
340.29	30.072
340.65	31.373
341.02	31.937
341.38	30.783
341.74	29.825
342.11	30.917
342.47	30.573
342.83	31.079
343.20	30.130
343.56	30.160
343.92	30.439
344.28	31.037
344.65	30.439
345.01	30.471
345.37	29.331
345.73	30.034
346.10	30.009
346.46	29.322
346.82	30.066
347.19	29.490
347.55	28.982
347.91	30.906
348.27	31.635
348.63	31.104
349.00	29.126
349.36	29.803
349.72	29.671
350.08	28.768
350.45	30.838
350.81	29.569
351.17	31.361
351.53	29.648
351.89	29.043
352.26	30.624
352.62	29.511
352.98	28.606
353.34	28.348
353.70	28.396
354.07	29.516
354.43	29.444
354.79	29.606
355.15	29.609
355.51	29.816
355.87	29.388
356.24	29.642
356.60	28.468
356.96	28.801
357.32	28.618
357.68	28.819
358.04	29.216
358.40	29.533
358.77	29.264
359.13	28.256
359.49	29.020
359.85	27.460
360.21	28.628
360.57	29.650
360.93	30.615
361.29	28.647
361.66	29.102
362.02	30.149
362.38	28.897
362.74	29.315
363.10	28.645
363.46	27.953
363.82	28.723
364.18	28.488
364.54	29.346
364.90	29.320
365.26	29.485
365.62	29.657
365.98	28.780
366.35	28.223
366.71	29.356
367.07	28.842
367.43	29.028
367.79	30.121
368.15	29.741
368.51	28.779
368.87	29.265
369.23	28.530
369.59	29.254
369.95	29.044
370.31	28.704
370.67	28.261
371.03	29.738
371.39	29.082
371.75	29.632
372.11	29.090
372.47	29.985
372.83	30.692
373.19	29.552
373.55	29.194
373.91	30.560
374.27	28.454
374.63	29.745
374.99	30.014
375.35	28.472
375.71	29.472
376.07	29.973
376.42	29.161
376.78	28.827
377.14	28.901
377.50	30.728
377.86	27.859
378.22	29.646
378.58	28.008
378.94	28.221
379.30	28.753
379.66	28.997
380.02	29.853
380.38	27.869
380.74	28.271
381.09	29.340
381.45	29.932
381.81	29.914
382.17	29.936
382.53	29.182
382.89	30.309
383.25	29.456
383.61	30.979
383.97	29.518
384.32	28.322
384.68	28.563
385.04	28.519
385.40	28.359
385.76	28.194
386.12	28.886
386.48	28.634
386.83	30.212
387.19	30.612
387.55	29.190
387.91	28.900
388.27	29.614
388.62	29.133
388.98	28.133
389.34	29.787
389.70	29.430
390.06	29.214
390.42	28.340
390.77	29.008
391.13	29.419
391.49	28.617
391.85	28.262
392.20	27.823
392.56	28.977
392.92	29.311
393.28	28.402
393.64	28.897
393.99	28.345
394.35	29.529
394.71	28.858
395.07	28.474
395.42	29.048
395.78	29.326
396.14	29.299
396.50	29.574
396.85	29.498
397.21	28.607
397.57	28.518
397.92	29.327
398.28	27.803
398.64	29.749
399.00	28.931
399.35	28.257
399.71	28.125
400.07	28.326
400.42	29.018
400.78	29.674
401.14	28.232
401.49	28.657
401.85	28.131
402.21	27.725
402.57	28.439
402.92	27.806
403.28	29.232
403.63	29.208
403.99	28.217
404.35	29.576
404.70	28.177
405.06	27.956
405.42	28.447
405.77	27.486
406.13	27.935
406.49	28.267
406.84	28.411
407.20	27.305
407.55	28.845
407.91	28.400
408.27	28.845
408.62	28.236
408.98	27.696
409.34	28.782
409.69	27.484
410.05	28.439
410.40	27.462
410.76	28.017
411.11	28.166
411.47	27.859
411.83	28.283
412.18	26.902
412.54	27.771
412.89	28.253
413.25	27.686
413.60	28.968
413.96	27.990
414.31	28.190
414.67	28.200
415.03	28.344
415.38	28.995
415.74	28.875
416.09	29.393
416.45	28.246
416.80	27.958
417.16	28.485
417.51	28.932
417.87	27.810
418.22	28.644
418.58	28.599
418.93	29.177
419.29	28.835
419.64	28.841
420.00	28.780
420.35	28.116
420.71	28.691
421.06	28.282
421.42	28.363
421.77	28.812
422.12	28.523
422.48	27.955
422.83	30.052
423.19	29.337
423.54	28.845
423.90	29.565
424.25	29.146
424.61	28.929
424.96	29.854
425.31	28.571
425.67	28.933
426.02	29.429
426.38	30.586
426.73	29.549
427.09	29.848
427.44	28.982
427.79	29.040
428.15	30.357
428.50	30.310
428.85	30.036
429.21	29.763
429.56	28.771
429.92	29.089
430.27	28.947
430.62	29.135
430.98	29.632
431.33	29.485
431.68	29.162
432.04	28.754
432.39	30.897
432.74	29.922
433.10	30.051
433.45	30.729
433.80	29.157
434.16	29.861
434.51	29.842
434.86	31.129
435.22	30.072
435.57	30.274
435.92	30.544
436.28	31.079
436.63	30.464
436.98	30.109
437.34	31.067
437.69	31.389
438.04	30.129
438.39	30.507
438.75	32.249
439.10	30.503
439.45	31.287
439.81	30.634
440.16	29.814
440.51	31.107
440.86	32.137
441.22	30.812
441.57	30.892
441.92	30.553
442.27	30.893
442.63	30.332
442.98	30.986
443.33	31.087
443.68	30.821
444.03	31.235
444.39	30.526
444.74	32.035
445.09	31.213
445.44	31.438
445.79	31.766
446.15	30.916
446.50	30.641
446.85	30.884
447.20	31.158
447.55	31.267
447.91	30.833
448.26	31.553
448.61	31.374
448.96	31.617
449.31	32.621
449.66	31.626
450.02	31.142
450.37	31.463
450.72	31.810
451.07	31.140
451.42	31.307
451.77	32.648
452.12	31.005
452.47	31.779
452.83	30.886
453.18	32.213
453.53	32.715
453.88	31.837
454.23	31.500
454.58	32.950
454.93	33.566
455.28	32.294
455.63	32.767
455.98	33.393
456.34	32.224
456.69	31.997
457.04	31.641
457.39	31.853
457.74	30.354
458.09	31.742
458.44	32.098
458.79	30.965
459.14	31.490
459.49	31.465
459.84	31.357
460.19	31.408
460.54	31.481
460.89	31.377
461.24	31.815
461.59	33.411
461.94	32.306
462.29	32.760
462.64	32.865
462.99	32.661
463.34	32.800
463.69	33.333
464.04	32.232
464.39	32.290
464.74	31.848
465.09	32.207
465.44	30.914
465.79	31.935
466.14	31.472
466.49	31.646
466.84	32.107
467.19	31.261
467.54	33.438
467.89	32.593
468.24	32.635
468.59	32.967
468.94	31.827
469.29	32.841
469.64	33.534
469.99	32.815
470.34	34.016
470.68	34.267
471.03	33.061
471.38	33.148
471.73	32.978
472.08	33.487
472.43	32.538
472.78	33.509
473.13	32.221
473.48	33.208
473.83	33.049
474.17	32.047
474.52	33.127
474.87	33.333
475.22	33.372
475.57	32.832
475.92	31.864
476.27	32.807
476.61	32.874
476.96	32.380
477.31	32.287
477.66	32.823
478.01	32.671
478.36	33.792
478.70	31.880
479.05	32.748
479.40	32.497
479.75	32.994
480.10	32.903
480.45	32.556
480.79	32.394
481.14	32.339
481.49	33.033
481.84	32.647
482.19	32.485
482.53	32.706
482.88	32.992
483.23	33.131
483.58	33.121
483.92	32.709
484.27	31.547
484.62	32.586
484.97	32.046
485.31	32.363
485.66	30.678
486.01	29.164
486.36	29.004
486.70	28.258
487.05	29.635
487.40	30.312
487.75	31.079
488.09	32.059
488.44	32.088
488.79	33.273
489.13	32.888
489.48	32.830
489.83	32.110
490.17	32.310
490.52	32.507
490.87	32.564
491.22	32.378
491.56	32.756
491.91	32.294
492.26	32.522
492.60	32.350
492.95	31.291
493.30	31.963
493.64	31.965
493.99	32.405
494.34	32.886
494.68	32.463
495.03	32.566
495.37	32.480
495.72	32.797
496.07	33.132
496.41	31.327
496.76	32.498
497.11	32.418
497.45	32.231
497.80	32.917
498.14	31.787
498.49	33.366
498.84	33.221
499.18	32.000
499.53	32.194
499.87	32.060
500.22	32.407
500.56	33.058
500.91	32.308
501.26	32.954
501.60	32.843
501.95	32.264
502.29	33.271
502.64	32.449
502.98	32.585
503.33	31.856
503.67	32.622
504.02	31.993
504.36	32.288
504.71	33.122
505.06	33.108
505.40	32.718
505.75	32.112
506.09	32.362
506.44	33.547
506.78	32.830
507.13	33.115
507.47	33.687
507.82	33.688
508.16	33.891
508.51	33.942
508.85	33.069
509.19	34.133
509.54	33.776
509.88	32.818
510.23	33.676
510.57	34.469
510.92	34.127
511.26	33.505
511.61	32.988
511.95	32.933
512.30	33.722
512.64	34.283
512.98	34.298
513.33	34.154
513.67	33.351
514.02	34.199
514.36	34.844
514.70	34.034
515.05	34.746
515.39	34.885
515.74	34.516
516.08	35.551
516.42	35.350
516.77	35.284
517.11	35.183
517.46	35.609
517.80	35.308
518.14	34.163
518.49	34.831
518.83	35.511
519.17	35.797
519.52	35.314
519.86	35.596
520.20	36.243
520.55	35.727
520.89	36.922
521.23	36.068
521.58	35.594
521.92	36.558
522.26	35.631
522.61	36.698
522.95	35.114
523.29	35.727
523.64	36.037
523.98	36.537
524.32	36.068
524.66	36.500
525.01	35.662
525.35	35.936
525.69	35.160
526.04	36.324
526.38	35.448
526.72	35.521
527.06	36.723
527.41	34.963
527.75	36.592
528.09	36.545
528.43	36.265
528.78	36.202
529.12	35.576
529.46	37.048
529.80	36.757
530.15	36.698
530.49	36.492
530.83	37.658
531.17	39.034
531.51	37.678
531.86	36.774
532.20	36.441
532.54	36.771
532.88	35.751
533.22	35.228
533.57	35.679
533.91	36.484
534.25	36.148
534.59	35.692
534.93	35.336
535.27	35.365
535.62	35.653
535.96	35.719
536.30	35.728
536.64	35.995
536.98	35.435
537.32	35.616
537.66	36.867
538.01	36.866
538.35	36.134
538.69	36.311
539.03	35.283
539.37	35.016
539.71	34.608
540.05	36.667
540.39	35.548
540.73	35.317
541.07	36.924
541.42	36.399
541.76	36.581
542.10	35.705
542.44	36.026
542.78	36.298
543.12	35.189
543.46	36.590
543.80	35.719
544.14	35.944
544.48	36.317
544.82	35.536
545.16	36.565
545.50	35.154
545.84	36.089
546.18	36.566
546.52	35.994
546.86	37.663
547.20	36.682
547.54	36.540
547.88	36.097
548.22	34.807
548.56	34.780
548.90	34.827
549.24	35.488
549.58	34.925
549.92	36.058
550.26	36.080
550.60	36.307
550.94	36.197
551.28	35.918
551.62	35.802
551.96	36.491
552.30	36.177
552.64	35.565
552.98	35.864
553.32	35.806
553.66	35.992
554.00	35.484
554.34	35.887
554.68	36.338
555.02	35.614
555.36	35.351
555.69	34.506
556.03	35.801
556.37	35.675
556.71	35.334
557.05	34.944
557.39	34.990
557.73	34.439
558.07	35.388
558.41	35.094
558.75	35.342
559.08	35.272
559.42	36.281
559.76	35.809
560.10	35.046
560.44	34.801
560.78	34.597
561.12	34.037
561.45	35.528
561.79	34.674
562.13	33.736
562.47	34.836
562.81	35.216
563.15	35.251
563.48	34.947
563.82	34.638
564.16	34.140
564.50	33.789
564.84	34.324
565.17	34.492
565.51	33.546
565.85	34.010
566.19	33.125
566.52	33.629
566.86	34.298
567.20	34.198
567.54	33.619
567.88	32.645
568.21	32.434
568.55	33.316
568.89	32.588
569.23	31.774
569.56	31.215
569.90	30.415
570.24	30.104
570.57	30.432
570.91	29.573
571.25	29.710
571.59	29.926
571.92	30.040
572.26	30.329
572.60	30.360
572.93	29.775
573.27	30.228
573.61	30.039
573.95	29.509
574.28	28.970
574.62	29.397
574.96	29.008
575.29	29.025
575.63	29.167
575.97	29.237
576.30	29.687
576.64	28.810
576.98	28.804
577.31	29.506
577.65	29.316
577.98	28.709
578.32	28.495
578.66	28.910
578.99	28.532
579.33	29.170
579.67	28.728
580.00	28.938
580.34	29.378
580.67	29.000
581.01	29.098
581.35	28.493
581.68	28.826
582.02	28.267
582.35	28.029
582.69	28.520
583.02	28.709
583.36	29.444
583.70	29.246
584.03	29.728
584.37	30.092
584.70	29.676
585.04	29.623
585.37	29.334
585.71	28.971
586.04	29.017
586.38	29.911
586.72	30.130
587.05	29.503
587.39	28.918
587.72	28.807
588.06	29.055
588.39	29.355
588.73	29.745
589.06	29.729
589.40	30.236
589.73	30.271
590.07	30.463
590.40	30.398
590.73	30.367
591.07	31.013
591.40	30.873
591.74	31.255
592.07	30.977
592.41	30.839
592.74	29.139
593.08	28.714
593.41	29.484
593.75	28.576
594.08	29.199
594.41	29.092
594.75	29.649
595.08	29.707
595.42	30.053
595.75	29.238
596.09	29.741
596.42	31.041
596.75	30.984
597.09	30.866
597.42	29.132
597.75	30.574
598.09	30.174
598.42	29.467
598.76	29.023
599.09	29.152
599.42	28.894
599.76	29.063
600.09	28.634
600.42	29.072
600.76	28.786
601.09	29.107
601.42	29.490
601.76	29.905
602.09	29.091
602.42	30.295
602.76	30.310
603.09	29.780
603.42	29.832
603.76	29.764
604.09	29.042
604.42	28.781
604.76	30.493
605.09	29.314
605.42	29.628
605.75	29.512
606.09	28.752
606.42	29.342
606.75	29.490
607.09	29.594
607.42	29.525
607.75	28.354
608.08	28.789
608.42	29.762
608.75	28.449
609.08	29.371
609.41	29.700
609.75	28.776
610.08	29.783
610.41	28.631
610.74	30.322
611.07	30.237
611.41	28.705
611.74	30.367
612.07	29.658
612.40	30.010
612.73	29.579
613.07	30.442
613.40	29.805
613.73	28.736
614.06	30.591
614.39	29.628
614.72	29.632
615.06	29.464
615.39	29.618
615.72	29.601
616.05	29.399
616.38	30.684
616.71	30.523
617.05	30.271
617.38	30.547
617.71	29.790
618.04	30.168
618.37	29.864
618.70	30.803
619.03	31.447
619.36	31.840
619.69	30.915
620.03	31.319
620.36	30.682
620.69	30.548
621.02	30.678
621.35	31.950
621.68	30.919
622.01	32.663
622.34	31.997
622.67	30.722
623.00	30.814
623.33	29.450
623.66	31.237
623.99	31.591
624.32	30.670
624.65	30.791
624.99	29.391
625.32	29.978
625.65	31.480
625.98	31.975
626.31	30.949
626.64	31.510
626.97	32.170
627.30	30.673
627.63	31.911
627.96	32.464
628.29	32.021
628.62	33.120
628.95	31.792
629.28	32.117
629.61	32.447
629.94	32.476
630.26	31.554
630.59	32.602
630.92	30.843
631.25	30.997
631.58	32.633
631.91	33.367
632.24	31.857
632.57	32.844
632.90	33.443
633.23	31.096
633.56	35.254
633.89	32.843
634.22	33.371
634.55	34.675
634.88	31.257
635.20	34.409
635.53	32.169
635.86	35.396
636.19	32.824
636.52	33.449
636.85	33.677
637.18	32.604
637.51	34.870
637.83	31.319
638.16	34.910
638.49	34.635
638.82	34.640
639.15	35.625
639.48	34.414
639.81	32.976
640.13	35.286
640.46	35.570
640.79	36.724
641.12	31.912
641.45	35.475
641.77	37.261
642.10	34.064
642.43	34.685
642.76	35.759
643.09	38.650
643.41	34.143
643.74	35.802
644.07	35.976
644.40	35.583
644.73	35.276
645.05	36.450
645.38	34.439
645.71	35.749
646.04	35.880
646.36	38.397
646.69	38.294
647.02	34.184
647.35	37.801
647.67	37.522
648.00	34.959
648.33	34.488
648.66	33.030
648.98	34.333
649.31	33.931
649.64	33.333
649.96	35.320
650.29	35.229
650.62	34.304
650.94	35.818
651.27	36.318
651.60	38.103
651.92	34.665
652.25	35.342
652.58	34.112
652.90	36.177
653.23	33.898
653.56	32.756
653.88	37.084
654.21	36.177
654.54	35.974
654.86	34.268
655.19	31.892
655.52	22.236
655.84	19.394
656.17	25.439
656.49	34.357
656.82	35.766
657.15	27.909
657.47	20.918
657.80	16.168
658.13	16.771
658.45	25.646
658.78	26.971
659.10	28.118
659.43	30.599
659.75	31.755
660.08	35.000
660.41	37.896
660.73	38.374
661.06	35.828
661.38	38.364
661.71	36.923
662.03	37.870
662.36	36.978
662.68	35.743
663.01	37.778
663.33	36.730
663.66	36.345
663.98	38.229
664.31	36.345
664.63	36.842
664.96	35.815
665.28	36.475
665.61	37.037
665.93	36.620
666.26	37.728
666.58	37.657
666.91	38.901
667.23	36.180
667.56	37.365
667.88	37.607
668.21	37.740
668.53	38.612
668.86	36.147
669.18	39.232
669.50	38.043
669.83	39.869
670.15	39.778
670.48	36.601
670.80	37.069
671.13	33.546
671.45	37.021
671.77	35.031
672.10	36.414
672.42	33.922
672.75	34.163
673.07	34.331
673.39	35.081
673.72	34.180
674.04	36.667
674.37	35.146
674.69	34.765
675.01	37.029
675.34	39.014
675.66	39.579
675.98	36.253
676.31	33.824
676.63	37.792
676.95	37.107
677.28	35.748
677.60	39.121
677.92	37.764
678.25	35.729
678.57	34.661
678.89	35.671
679.22	37.917
679.54	34.733
679.86	36.514
680.18	33.810
680.51	33.865
680.83	35.943
681.15	35.094
681.48	36.673
681.80	34.623
682.12	34.291
682.44	32.882
682.77	38.086
683.09	38.412
683.41	39.911
683.73	37.969
684.06	35.331
684.38	32.290
684.70	36.047
685.02	34.522
685.34	33.883
685.67	31.469
685.99	29.038
686.31	34.300
686.63	31.625
686.96	33.214
687.28	33.574
687.60	34.239
687.92	34.186
688.24	33.080
688.56	34.538
688.89	37.344
689.21	35.371
689.53	35.073
689.85	37.251
690.17	33.126
690.49	35.456
690.82	36.682
691.14	33.482
691.46	33.544
691.78	36.145
692.10	35.744
692.42	35.529
692.74	35.685
693.06	34.894
693.39	34.497
693.71	35.808
694.03	34.526
694.35	37.446
694.67	36.156
694.99	37.561
695.31	36.275
695.63	33.971
695.95	37.897
696.27	36.548
696.59	38.601
696.91	37.824
697.23	33.099
697.56	35.394
697.88	30.675
698.20	33.958
698.52	32.688
698.84	34.298
699.16	37.558
699.48	35.867
699.80	35.266
700.12	43.377
700.44	40.318
700.76	35.359
701.08	39.655
701.40	38.268
701.72	38.484
702.04	44.034
702.36	35.411
702.68	38.527
703.00	37.673
703.32	37.500
703.64	38.338
703.96	37.883
704.28	38.081
704.60	38.416
704.91	39.169
705.23	39.296
705.55	42.857
705.87	47.176
706.19	42.756
706.51	42.368
706.83	40.606
707.15	41.457
707.47	34.091
707.79	38.821
708.11	36.073
708.43	34.524
708.74	32.398
709.06	37.922
709.38	37.533
709.70	42.151
710.02	39.763
710.34	39.394
710.66	40.597
710.98	38.352
711.29	38.953
711.61	41.298
711.93	36.859
712.25	43.087
712.57	46.691
712.89	45.329
713.20	39.818
713.52	43.421
713.84	39.241
714.16	38.110
714.48	39.655
714.80	42.553
715.11	40.346
715.43	39.763
715.75	36.522
716.07	39.936
716.39	40.439
716.70	38.538
717.02	38.849
717.34	43.816
717.66	46.269
717.97	43.825
718.29	42.222
718.61	40.511
718.93	43.382
719.24	43.253
719.56	38.305
719.88	43.051
720.20	43.581
720.51	38.676
720.83	44.238
721.15	39.552
721.46	39.362
721.78	38.710
722.10	42.264
722.42	44.737
722.73	44.195
723.05	43.852
723.37	40.486
723.68	44.402
724.00	44.309
724.32	39.516
724.63	43.089
724.95	44.770
725.27	48.178
725.58	45.703
725.90	45.620
726.22	38.868
726.53	38.542
726.85	43.686
727.16	41.993
727.48	38.298
727.80	43.182
728.11	39.493
728.43	41.538
728.74	38.351
729.06	47.080
729.38	44.485
729.69	43.772
730.01	40.956
730.32	41.667
730.64	42.140
730.96	38.944
731.27	41.060
731.59	37.615
731.90	41.983
732.22	34.472
732.53	35.604
732.85	39.744
733.16	38.264
733.48	40.532
733.80	40.584
734.11	38.535
734.43	39.349
734.74	36.857
735.06	35.244
735.37	39.595
735.69	35.032
736.00	40.196
736.32	38.629
736.63	41.214
736.95	40.575
737.26	35.374
737.58	36.129
737.89	36.789
738.21	45.392
738.52	42.143
738.83	40.377
739.15	41.154
739.46	44.161
739.78	43.403
740.09	38.462
740.41	40.000
740.72	35.540
741.04	41.111
741.35	37.500
741.66	45.778
741.98	46.226
742.29	45.933
742.61	48.707
742.92	42.081
743.23	47.009
743.55	44.000
743.86	46.930
744.18	49.115
744.49	47.368
744.80	53.521
745.12	50.455
745.43	46.256
745.74	46.847
746.06	46.789
746.37	43.498
746.68	43.891
747.00	48.148
747.31	52.381
747.62	38.938
747.94	44.934
748.25	38.723
748.56	46.696
748.88	47.525
749.19	47.500
749.50	46.512
749.82	42.276
750.13	39.592
750.44	40.511
750.75	37.895
751.07	42.765
751.38	40.418
751.69	36.823
752.01	43.609
752.32	38.267
752.63	40.780
752.94	42.213
753.26	46.800
753.57	39.837
753.88	45.312
754.19	38.214
754.51	44.792
754.82	36.823
755.13	40.000
755.44	43.609
755.75	39.051
756.07	36.879
756.38	36.861
756.69	38.926
757.00	34.431
757.31	37.685
757.63	35.965
757.94	32.172
758.25	33.824
758.56	31.852
758.87	34.677
759.18	36.364
759.50	39.185
759.81	38.318
760.12	33.125
760.43	36.676
760.74	33.152
761.05	33.898
761.36	29.679
761.67	36.364
761.99	36.957
762.30	36.111
762.61	38.168
762.92	39.453
763.23	43.277
763.54	39.600
763.85	37.891
764.16	39.231
764.47	42.966
764.78	39.576
765.10	35.127
765.41	34.808
765.72	38.024
766.03	33.542
766.34	37.667
766.65	45.532
766.96	46.154
767.27	50.254
767.58	46.354
767.89	50.000
768.20	51.724
768.51	52.284
768.82	45.872
769.13	36.992
769.44	42.105
769.75	44.635
770.06	40.367
770.37	47.511
770.68	40.741
770.99	44.889
771.30	35.246
771.61	45.740
771.92	42.623
772.23	43.277
772.54	46.667
772.85	47.644
773.16	52.128
773.47	55.435
773.78	47.208
774.09	50.000
774.39	50.877
774.70	54.938
775.01	61.594
775.32	55.556
775.63	50.658
775.94	53.957
776.25	60.630
776.56	65.672
776.87	70.492
777.18	63.281
777.48	68.702
777.79	58.333
778.10	62.963
778.41	68.750
778.72	54.745
779.03	63.087
779.34	53.691
779.65	52.703
779.95	60.736
780.26	60.131
780.57	56.552
780.88	67.188
781.19	57.895
781.50	58.108
781.80	55.346
782.11	55.367
782.42	49.367
782.73	50.307
783.04	55.405
783.34	63.380
783.65	67.123
783.96	61.194
784.27	55.944
784.57	51.799
784.88	58.333
785.19	71.429
785.50	77.358
785.81	69.403
786.11	63.934
786.42	65.891
786.73	69.027
787.04	79.245
787.34	62.500
787.65	77.000
787.96	63.964
788.26	60.331
788.57	74.576
788.88	69.421
789.19	57.639
789.49	68.939
789.80	65.649
790.11	72.381
790.41	79.208
790.72	80.723
791.03	78.261
791.33	75.581
791.64	83.505
791.95	74.257
792.25	74.444
792.56	87.013
792.87	92.308
793.17	101.266
793.48	86.207
793.79	73.563
794.09	80.682
794.40	67.227
794.70	66.912
795.01	58.519
795.32	56.115
795.62	63.780
795.93	68.966
796.23	63.717
796.54	77.647
796.85	81.081
797.15	100.000
797.46	87.879
797.76	92.771
798.07	93.671
798.37	84.615
798.68	84.848
798.99	88.732
799.29	79.221
799.60	78.409
799.90	90.411
800.21	101.493
800.51	115.517
800.82	128.070
801.12	100.000
801.43	112.121
801.73	95.946
802.04	101.587
802.34	91.358
802.65	109.375
802.95	110.169
803.26	114.063
803.56	97.143
803.87	81.538
804.17	107.353
804.48	100.000
804.78	87.931
805.09	108.824
805.39	130.769
805.70	85.714
806.00	127.869
806.30	93.939
806.61	87.805
806.91	68.354
807.22	80.263
807.52	88.060
807.83	87.324
808.13	106.250
808.43	96.667
808.74	78.947
809.04	110.145
809.35	100.000
809.65	102.632
809.95	109.677
810.26	86.441
810.56	112.698
810.86	147.727
811.17	145.238
811.47	115.000
811.77	111.111
812.08	123.636
812.38	124.000
812.69	172.222
812.99	161.364
813.29	134.694
813.59	123.810
813.90	128.571
814.20	112.727
814.50	92.308
814.81	108.824
815.11	136.735
815.41	104.918
815.72	145.238
816.02	125.455
816.32	114.286
816.62	115.000
816.93	129.268
817.23	140.476
817.53	131.818
817.84	154.545
818.14	128.261
818.44	135.556
818.74	200.000
819.04	137.500
819.35	162.857
819.65	200.000
819.95	228.571
820.25	225.000
820.56	164.103
820.86	134.091
821.16	151.163
821.46	153.846
821.76	140.000
822.07	174.286
822.37	127.500
822.67	148.485
822.97	145.098
823.27	264.286
823.57	135.135
823.88	170.000
824.18	223.333
824.48	161.905
824.78	212.000
825.08	220.833
825.38	175.676
825.69	151.220
825.99	204.167
826.29	203.448
826.59	160.526
826.89	157.895
827.19	179.412
827.49	203.226
827.79	150.000
828.09	136.364
828.39	127.660
828.70	140.816
829.00	203.704
829.30	161.290
829.60	142.500
829.90	286.667
830.20	178.571
830.50	234.783
830.80	239.130
831.10	200.000
831.40	180.000
831.70	204.348
832.00	280.769
832.30	196.296
832.60	318.750
832.90	250.000
833.20	435.714
833.50	196.774
833.80	193.103
834.10	200.000
834.40	203.846
834.70	322.222
835.00	338.095
835.30	220.000
835.60	353.846
835.90	200.000
836.20	378.571
836.50	231.034
836.80	184.000
837.10	172.222
837.40	266.667
837.70	288.235
838.00	218.519
838.30	261.905
838.60	347.619
838.90	257.692
839.19	265.000
839.49	457.143
839.79	355.000
840.09	280.000
840.39	338.095
840.69	273.913
840.99	272.222
841.29	460.000
841.59	358.333
841.88	356.250
842.18	206.897
842.48	285.714
842.78	196.667
843.08	269.565
843.38	178.125
843.68	850.000
843.97	246.154
844.27	231.034
844.57	319.048
844.87	312.500
845.17	266.667
845.47	1466.667
845.76	533.333
846.06	329.412
846.36	562.500
846.66	450.000
846.96	393.750
847.25	463.636
847.55	445.455
847.85	221.739
848.15	450.000
848.44	371.429
848.74	261.111
849.04	317.647
849.34	580.000
849.63	321.053
849.93	536.364
850.23	1120.000
850.53	528.571
850.82	2850.000
851.12	-4500.000
851.42	5500.000
851.71	305.000
852.01	-1433.333
852.31	266.667
852.61	1533.333
852.90	304.762
853.20	268.000
853.50	311.765
853.79	261.905
854.09	279.167
854.39	343.750
854.68	200.000
854.98	245.161
855.28	206.667
855.57	224.138
855.87	244.444
856.17	236.842
856.46	260.000
856.76	282.353
857.05	200.000
857.35	245.833
857.65	353.333
857.94	282.609
858.24	273.077
858.53	265.000
858.83	231.818
859.13	360.000
859.42	0.000
859.72	588.889
860.01	518.182
860.31	304.545
860.60	336.842
860.90	252.174
861.20	488.889
861.49	516.667
861.79	-4800.000
862.08	662.500
862.38	328.571
862.67	400.000
862.97	352.941
863.26	644.444
863.56	238.889
863.85	466.667
864.15	625.000
864.44	406.667
864.74	750.000
865.03	687.500
865.33	278.947
865.62	427.273
865.92	476.923
866.21	350.000
866.51	0.000
866.80	445.455
867.10	1080.000
867.39	430.769
867.69	472.727
867.98	326.316
868.27	545.455
868.57	326.316
868.86	-4400.000
869.16	431.250
869.45	2100.000
869.75	-4500.000
870.04	475.000
870.33	742.857
870.63	1275.000
870.92	2650.000
871.22	857.143
871.51	329.412
871.80	257.143
872.10	492.857
>>>>>End Processed Spectral Data<<<<<
