SpectraSuite Data File
++++++++++++++++++++++++++++++++++++
Date: Wed May 13 19:35:35 PDT 2015
User: schluterlab
Dark Spectrum Present: Yes
Reference Spectrum Present: Yes
Number of Sampled Component Spectra: 1
Spectrometers: USB2E3373
Integration Time (usec): 3000 (USB2E3373)
Spectra Averaged: 3 (USB2E3373)
Boxcar Smoothing: 0 (USB2E3373)
Correct for Electrical Dark: No (USB2E3373)
Strobe/Lamp Enabled: No (USB2E3373)
Correct for Detector Non-linearity: No (USB2E3373)
Correct for Stray Light: No (USB2E3373)
Number of Pixels in Processed Spectrum: 2048
>>>>>Begin Processed Spectral Data<<<<<
178.53	0.000
178.91	-1300.000
179.29	-1475.000
179.67	-288.889
180.04	-1425.000
180.42	2750.000
180.80	1120.000
181.18	-1225.000
181.56	714.286
181.94	0.000
182.31	-685.714
182.69	1733.333
183.07	-650.000
183.45	-588.889
183.83	609.091
184.20	-450.000
184.58	2900.000
184.96	5600.000
185.34	-1020.000
185.72	-662.500
186.09	-2850.000
186.47	3350.000
186.85	2350.000
187.23	5300.000
187.61	-1866.667
187.98	1500.000
188.36	527.273
188.74	590.909
189.12	-940.000
189.49	600.000
189.87	-5000.000
190.25	-1475.000
190.63	478.571
191.00	469.231
191.38	966.667
191.76	-1375.000
192.14	1575.000
192.51	650.000
192.89	983.333
193.27	587.500
193.65	-1250.000
194.02	580.000
194.40	1140.000
194.78	610.000
195.15	591.667
195.53	570.000
195.91	-3050.000
196.29	456.250
196.66	352.632
197.04	-450.000
197.42	0.000
197.79	670.000
198.17	-4900.000
198.55	842.857
198.92	837.500
199.30	1220.000
199.68	0.000
200.05	300.000
200.43	728.571
200.81	4200.000
201.18	1966.667
201.56	-1600.000
201.94	588.889
202.31	677.778
202.69	466.667
203.07	510.000
203.44	0.000
203.82	1400.000
204.19	842.857
204.57	478.571
204.95	787.500
205.32	1466.667
205.70	545.455
206.08	414.286
206.45	2550.000
206.83	362.500
207.20	966.667
207.58	820.000
207.96	400.000
208.33	737.500
208.71	-916.667
209.08	785.714
209.46	666.667
209.84	545.455
210.21	-1666.667
210.59	1500.000
210.96	-575.000
211.34	3000.000
211.71	680.000
212.09	866.667
212.46	0.000
212.84	2000.000
213.22	1550.000
213.59	-6400.000
213.97	883.333
214.34	900.000
214.72	672.727
215.09	1160.000
215.47	-2550.000
215.84	-2800.000
216.22	2000.000
216.59	414.286
216.97	1175.000
217.34	427.273
217.72	-766.667
218.09	0.000
218.47	-5700.000
218.84	622.222
219.22	742.857
219.59	1933.333
219.97	-828.571
220.34	1240.000
220.72	-2033.333
221.09	478.571
221.47	1550.000
221.84	-1100.000
222.22	0.000
222.59	1725.000
222.97	-2600.000
223.34	1180.000
223.72	423.077
224.09	1120.000
224.46	2800.000
224.84	-5600.000
225.21	-1100.000
225.59	-6000.000
225.96	690.000
226.34	330.000
226.71	3500.000
227.08	762.500
227.46	530.000
227.83	-1100.000
228.21	-2500.000
228.58	688.889
228.95	-2550.000
229.33	-2600.000
229.70	2066.667
230.08	757.143
230.45	-880.000
230.82	483.333
231.20	883.333
231.57	671.429
231.95	575.000
232.32	259.091
232.69	500.000
233.07	771.429
233.44	369.231
233.81	-2200.000
234.19	352.632
234.56	600.000
234.93	508.333
235.31	527.273
235.68	476.923
236.05	364.286
236.43	212.121
236.80	336.842
237.17	5700.000
237.55	295.238
237.92	239.286
238.29	309.524
238.67	222.581
239.04	244.828
239.41	194.444
239.79	156.522
240.16	185.714
240.53	156.818
240.91	131.373
241.28	174.000
241.65	146.000
242.02	137.681
242.40	130.645
242.77	133.333
243.14	100.000
243.51	120.225
243.89	110.588
244.26	107.778
244.63	115.054
245.00	103.191
245.38	109.901
245.75	85.981
246.12	99.083
246.49	97.080
246.87	101.600
247.24	84.615
247.61	84.286
247.98	83.007
248.36	79.054
248.73	81.529
249.10	83.439
249.47	74.011
249.84	75.401
250.22	75.936
250.59	80.473
250.96	83.838
251.33	72.986
251.70	74.752
252.08	72.857
252.45	69.058
252.82	70.000
253.19	69.787
253.56	69.804
253.94	71.784
254.31	63.281
254.68	69.615
255.05	67.897
255.42	70.325
255.79	69.118
256.16	67.509
256.54	63.958
256.91	61.210
257.28	63.669
257.65	63.036
258.02	65.528
258.39	58.675
258.76	68.227
259.14	62.798
259.51	62.918
259.88	58.075
260.25	60.121
260.62	60.116
260.99	62.422
261.36	65.766
261.73	61.605
262.10	63.953
262.47	61.127
262.85	59.610
263.22	58.689
263.59	62.393
263.96	58.791
264.33	58.747
264.70	59.211
265.07	58.568
265.44	59.848
265.81	53.041
266.18	59.045
266.55	58.780
266.92	62.654
267.29	59.722
267.66	57.339
268.03	57.273
268.40	57.477
268.77	59.189
269.14	55.180
269.51	54.853
269.88	57.110
270.25	57.788
270.62	58.652
270.99	57.634
271.36	53.433
271.73	58.879
272.10	55.000
272.47	55.484
272.84	55.411
273.21	55.136
273.58	54.148
273.95	54.927
274.32	55.372
274.69	57.816
275.06	52.756
275.43	55.957
275.80	54.709
276.17	53.360
276.54	56.757
276.91	55.336
277.28	53.516
277.65	53.772
278.02	55.694
278.39	55.469
278.76	53.818
279.13	54.151
279.50	52.514
279.87	53.187
280.23	56.088
280.60	54.159
280.97	53.235
281.34	54.867
281.71	52.000
282.08	57.774
282.45	52.545
282.82	53.286
283.19	50.624
283.56	52.105
283.92	53.638
284.29	51.675
284.66	51.906
285.03	51.356
285.40	52.289
285.77	52.862
286.14	49.396
286.51	49.500
286.87	49.231
287.24	51.629
287.61	51.043
287.98	47.890
288.35	47.861
288.72	47.040
289.08	49.609
289.45	48.764
289.82	47.480
290.19	45.526
290.56	43.798
290.93	42.296
291.29	45.552
291.66	45.870
292.03	46.512
292.40	47.430
292.77	43.787
293.13	43.731
293.50	45.918
293.87	43.556
294.24	44.593
294.60	41.048
294.97	42.151
295.34	44.993
295.71	42.756
296.08	40.883
296.44	42.228
296.81	41.083
297.18	43.225
297.55	38.654
297.91	39.710
298.28	41.767
298.65	38.773
299.02	41.502
299.38	41.567
299.75	38.679
300.12	38.314
300.48	38.625
300.85	38.101
301.22	38.344
301.59	39.015
301.95	38.917
302.32	39.024
302.69	39.068
303.05	37.333
303.42	36.790
303.79	37.033
304.15	36.014
304.52	35.689
304.89	37.282
305.25	36.195
305.62	36.806
305.99	37.780
306.35	36.689
306.72	38.004
307.09	36.071
307.45	36.937
307.82	35.714
308.19	38.190
308.55	35.383
308.92	37.272
309.29	36.008
309.65	37.010
310.02	35.518
310.38	35.914
310.75	35.586
311.12	35.517
311.48	35.946
311.85	35.535
312.22	36.004
312.58	35.239
312.95	36.853
313.31	34.854
313.68	36.383
314.05	36.785
314.41	35.578
314.78	36.254
315.14	34.657
315.51	37.075
315.87	36.139
316.24	35.353
316.61	34.990
316.97	35.225
317.34	36.106
317.70	36.807
318.07	37.055
318.43	37.769
318.80	37.582
319.16	37.476
319.53	36.304
319.89	36.857
320.26	38.900
320.62	37.897
320.99	39.596
321.35	38.889
321.72	39.014
322.08	39.882
322.45	39.701
322.81	40.504
323.18	40.270
323.54	40.074
323.91	39.906
324.27	39.866
324.64	41.286
325.00	40.938
325.37	40.491
325.73	42.370
326.10	41.041
326.46	42.384
326.83	42.968
327.19	42.784
327.56	43.554
327.92	42.957
328.29	43.301
328.65	44.475
329.01	43.141
329.38	43.941
329.74	43.306
330.11	44.581
330.47	45.455
330.84	45.588
331.20	44.171
331.56	43.578
331.93	45.463
332.29	43.478
332.66	45.664
333.02	44.516
333.38	44.715
333.75	44.385
334.11	44.573
334.48	45.519
334.84	45.404
335.20	44.091
335.57	43.699
335.93	42.589
336.29	45.696
336.66	45.266
337.02	44.163
337.38	43.981
337.75	43.850
338.11	45.121
338.47	45.304
338.84	45.921
339.20	44.679
339.56	45.803
339.93	45.182
340.29	43.659
340.65	44.831
341.02	46.510
341.38	45.819
341.74	44.298
342.11	46.026
342.47	45.286
342.83	43.493
343.20	45.108
343.56	43.724
343.92	45.351
344.28	44.813
344.65	44.626
345.01	43.098
345.37	43.997
345.73	44.162
346.10	45.183
346.46	44.153
346.82	44.234
347.19	44.027
347.55	44.417
347.91	44.984
348.27	45.275
348.63	45.485
349.00	42.718
349.36	44.581
349.72	43.144
350.08	42.382
350.45	44.264
350.81	44.598
351.17	45.624
351.53	44.308
351.89	43.234
352.26	44.830
352.62	44.106
352.98	44.489
353.34	43.714
353.70	44.926
354.07	44.194
354.43	44.127
354.79	44.811
355.15	43.735
355.51	45.164
355.87	44.653
356.24	44.870
356.60	44.587
356.96	45.374
357.32	46.607
357.68	44.961
358.04	44.260
358.40	43.547
358.77	43.349
359.13	44.515
359.49	43.137
359.85	44.127
360.21	45.215
360.57	44.903
360.93	44.385
361.29	43.840
361.66	43.421
362.02	44.328
362.38	45.932
362.74	44.940
363.10	43.671
363.46	46.001
363.82	45.503
364.18	43.686
364.54	45.914
364.90	44.830
365.26	44.265
365.62	45.069
365.98	44.047
366.35	43.625
366.71	46.349
367.07	45.302
367.43	45.428
367.79	44.682
368.15	46.911
368.51	44.913
368.87	46.538
369.23	45.574
369.59	45.112
369.95	44.926
370.31	44.658
370.67	44.420
371.03	45.993
371.39	47.230
371.75	46.250
372.11	44.310
372.47	46.701
372.83	46.542
373.19	45.159
373.55	45.750
373.91	47.054
374.27	44.192
374.63	47.345
374.99	47.387
375.35	45.848
375.71	47.087
376.07	47.668
376.42	47.455
376.78	47.184
377.14	47.015
377.50	47.682
377.86	46.476
378.22	46.903
378.58	45.677
378.94	46.700
379.30	47.901
379.66	47.970
380.02	47.666
380.38	46.873
380.74	47.419
381.09	47.861
381.45	47.634
381.81	48.280
382.17	48.917
382.53	47.925
382.89	48.580
383.25	48.843
383.61	50.372
383.97	48.405
384.32	49.470
384.68	48.823
385.04	47.941
385.40	48.421
385.76	49.017
386.12	49.547
386.48	50.031
386.83	49.262
387.19	51.082
387.55	49.103
387.91	50.121
388.27	48.498
388.62	50.645
388.98	48.894
389.34	51.502
389.70	49.663
390.06	51.774
390.42	52.205
390.77	51.336
391.13	52.648
391.49	51.713
391.85	51.496
392.20	51.987
392.56	51.389
392.92	53.502
393.28	51.657
393.64	52.758
393.99	51.985
394.35	52.357
394.71	52.133
395.07	51.900
395.42	53.337
395.78	52.799
396.14	53.445
396.50	55.201
396.85	53.210
397.21	53.021
397.57	53.503
397.92	54.327
398.28	53.139
398.64	53.584
399.00	53.609
399.35	53.299
399.71	54.456
400.07	55.293
400.42	54.969
400.78	55.489
401.14	55.488
401.49	55.761
401.85	55.354
402.21	54.731
402.57	55.521
402.92	56.116
403.28	56.527
403.63	57.116
403.99	55.860
404.35	56.182
404.70	55.995
405.06	56.436
405.42	57.455
405.77	57.143
406.13	57.223
406.49	55.884
406.84	57.708
407.20	57.033
407.55	58.839
407.91	59.800
408.27	58.966
408.62	58.218
408.98	58.824
409.34	59.840
409.69	57.871
410.05	59.480
410.40	59.511
410.76	58.662
411.11	59.228
411.47	58.978
411.83	59.316
412.18	59.431
412.54	60.834
412.89	60.301
413.25	60.567
413.60	60.593
413.96	60.474
414.31	60.085
414.67	61.787
415.03	62.715
415.38	61.405
415.74	62.444
416.09	63.096
416.45	63.454
416.80	61.996
417.16	62.802
417.51	64.300
417.87	62.556
418.22	63.659
418.58	63.525
418.93	62.715
419.29	63.972
419.64	64.169
420.00	63.293
420.35	63.594
420.71	65.033
421.06	64.857
421.42	63.860
421.77	64.798
422.12	64.121
422.48	63.411
422.83	65.405
423.19	65.470
423.54	65.641
423.90	65.101
424.25	66.052
424.61	64.583
424.96	66.706
425.31	65.116
425.67	65.056
426.02	66.000
426.38	68.071
426.73	66.998
427.09	67.112
427.44	66.647
427.79	68.028
428.15	66.964
428.50	66.589
428.85	67.998
429.21	67.421
429.56	67.703
429.92	67.086
430.27	66.733
430.62	67.640
430.98	67.255
431.33	66.804
431.68	68.482
432.04	66.773
432.39	68.875
432.74	69.539
433.10	69.892
433.45	70.612
433.80	69.956
434.16	68.376
434.51	68.105
434.86	69.954
435.22	69.817
435.57	70.030
435.92	69.514
436.28	70.759
436.63	69.757
436.98	70.063
437.34	70.364
437.69	71.179
438.04	72.794
438.39	71.403
438.75	71.702
439.10	70.894
439.45	71.488
439.81	70.997
440.16	70.356
440.51	71.002
440.86	72.611
441.22	71.190
441.57	71.178
441.92	72.416
442.27	70.883
442.63	71.195
442.98	73.690
443.33	71.793
443.68	71.760
444.03	72.035
444.39	73.272
444.74	72.673
445.09	71.806
445.44	72.936
445.79	72.885
446.15	72.419
446.50	72.321
446.85	72.765
447.20	71.902
447.55	73.814
447.91	73.138
448.26	74.513
448.61	74.392
448.96	73.200
449.31	74.859
449.66	73.776
450.02	73.036
450.37	73.583
450.72	73.717
451.07	73.370
451.42	71.307
451.77	74.809
452.12	74.192
452.47	72.823
452.83	74.883
453.18	73.839
453.53	75.325
453.88	74.011
454.23	73.640
454.58	74.379
454.93	75.270
455.28	75.062
455.63	73.908
455.98	75.179
456.34	73.744
456.69	75.955
457.04	74.799
457.39	74.459
457.74	74.289
458.09	74.238
458.44	74.230
458.79	73.427
459.14	74.661
459.49	75.015
459.84	73.740
460.19	73.306
460.54	72.106
460.89	74.218
461.24	74.560
461.59	74.433
461.94	73.674
462.29	74.896
462.64	75.495
462.99	73.910
463.34	76.200
463.69	73.296
464.04	72.812
464.39	73.275
464.74	73.203
465.09	74.608
465.44	73.629
465.79	73.602
466.14	72.085
466.49	72.191
466.84	72.971
467.19	71.817
467.54	73.500
467.89	73.409
468.24	73.415
468.59	73.932
468.94	73.366
469.29	75.771
469.64	75.100
469.99	76.455
470.34	76.156
470.68	74.641
471.03	76.395
471.38	75.817
471.73	75.083
472.08	76.447
472.43	72.927
472.78	74.457
473.13	73.941
473.48	73.283
473.83	75.976
474.17	72.309
474.52	74.194
474.87	74.197
475.22	72.780
475.57	72.918
475.92	74.190
476.27	73.055
476.61	73.249
476.96	74.601
477.31	73.626
477.66	74.179
478.01	72.504
478.36	74.511
478.70	73.364
479.05	74.334
479.40	73.644
479.75	74.174
480.10	73.559
480.45	72.870
480.79	71.906
481.14	73.141
481.49	73.612
481.84	72.702
482.19	73.285
482.53	71.972
482.88	72.452
483.23	73.832
483.58	72.884
483.92	73.383
484.27	70.893
484.62	72.155
484.97	70.319
485.31	72.671
485.66	70.379
486.01	68.755
486.36	66.774
486.70	66.051
487.05	68.448
487.40	69.101
487.75	69.277
488.09	70.883
488.44	71.281
488.79	73.165
489.13	73.147
489.48	72.308
489.83	72.076
490.17	71.986
490.52	70.416
490.87	71.642
491.22	72.169
491.56	70.797
491.91	71.568
492.26	71.704
492.60	71.060
492.95	71.656
493.30	71.355
493.64	71.675
493.99	70.056
494.34	71.878
494.68	71.841
495.03	71.805
495.37	71.801
495.72	72.222
496.07	72.390
496.41	70.310
496.76	72.471
497.11	71.409
497.45	71.961
497.80	71.737
498.14	71.546
498.49	71.415
498.84	70.326
499.18	71.190
499.53	71.510
499.87	71.622
500.22	70.466
500.56	72.379
500.91	71.683
501.26	71.124
501.60	72.188
501.95	69.615
502.29	70.900
502.64	72.020
502.98	70.827
503.33	69.790
503.67	69.977
504.02	70.440
504.36	70.005
504.71	71.177
505.06	70.361
505.40	70.977
505.75	69.769
506.09	70.117
506.44	71.781
506.78	70.287
507.13	72.337
507.47	71.263
507.82	72.492
508.16	71.429
508.51	73.212
508.85	70.457
509.19	71.480
509.54	71.327
509.88	70.685
510.23	71.620
510.57	72.497
510.92	71.724
511.26	71.069
511.61	71.214
511.95	70.459
512.30	71.315
512.64	71.037
512.98	72.454
513.33	71.681
513.67	69.424
514.02	71.050
514.36	72.365
514.70	71.555
515.05	72.337
515.39	72.070
515.74	72.297
516.08	71.604
516.42	71.476
516.77	71.851
517.11	71.920
517.46	72.235
517.80	72.822
518.14	70.990
518.49	71.762
518.83	72.386
519.17	70.670
519.52	71.420
519.86	71.192
520.20	72.023
520.55	72.531
520.89	73.358
521.23	72.376
521.58	72.869
521.92	73.484
522.26	70.348
522.61	74.268
522.95	72.376
523.29	71.637
523.64	71.768
523.98	72.951
524.32	71.713
524.66	71.497
525.01	71.262
525.35	72.367
525.69	71.429
526.04	73.333
526.38	71.080
526.72	70.920
527.06	72.316
527.41	71.101
527.75	72.797
528.09	73.988
528.43	71.765
528.78	70.621
529.12	70.061
529.46	71.647
529.80	72.896
530.15	71.464
530.49	70.831
530.83	71.962
531.17	73.433
531.51	73.671
531.86	72.000
532.20	73.403
532.54	72.197
532.88	72.015
533.22	71.393
533.57	70.309
533.91	70.199
534.25	70.838
534.59	72.178
534.93	70.077
535.27	70.308
535.62	70.085
535.96	72.881
536.30	71.392
536.64	72.891
536.98	72.329
537.32	72.021
537.66	72.667
538.01	72.943
538.35	71.881
538.69	72.623
539.03	70.435
539.37	72.077
539.71	71.355
540.05	72.810
540.39	71.761
540.73	71.087
541.07	72.485
541.42	71.494
541.76	72.323
542.10	70.893
542.44	73.642
542.78	72.596
543.12	70.569
543.46	71.082
543.80	71.958
544.14	70.796
544.48	72.063
544.82	71.007
545.16	71.893
545.50	70.694
545.84	72.312
546.18	71.852
546.52	74.260
546.86	72.509
547.20	72.016
547.54	71.677
547.88	71.429
548.22	70.735
548.56	70.755
548.90	69.846
549.24	73.737
549.58	72.033
549.92	72.940
550.26	74.290
550.60	71.024
550.94	72.817
551.28	72.860
551.62	72.322
551.96	71.439
552.30	73.584
552.64	71.400
552.98	72.881
553.32	71.477
553.66	72.256
554.00	72.272
554.34	71.360
554.68	73.534
555.02	71.298
555.36	73.138
555.69	70.568
556.03	72.880
556.37	71.760
556.71	71.555
557.05	72.199
557.39	72.498
557.73	71.771
558.07	73.024
558.41	73.010
558.75	72.888
559.08	72.110
559.42	75.132
559.76	72.647
560.10	72.377
560.44	71.349
560.78	70.126
561.12	71.174
561.45	71.252
561.79	70.666
562.13	71.160
562.47	73.429
562.81	73.710
563.15	71.505
563.48	72.082
563.82	70.320
564.16	71.550
564.50	70.898
564.84	69.848
565.17	71.750
565.51	73.227
565.85	69.924
566.19	70.632
566.52	70.678
566.86	68.957
567.20	70.460
567.54	70.205
567.88	69.147
568.21	69.471
568.55	69.110
568.89	69.844
569.23	67.602
569.56	66.599
569.90	66.491
570.24	66.380
570.57	66.202
570.91	65.029
571.25	64.886
571.59	65.214
571.92	65.438
572.26	66.147
572.60	66.036
572.93	65.007
573.27	65.661
573.61	64.685
573.95	65.711
574.28	64.045
574.62	64.383
574.96	62.915
575.29	63.385
575.63	64.329
575.97	64.436
576.30	64.233
576.64	63.760
576.98	64.609
577.31	64.348
577.65	63.887
577.98	64.214
578.32	62.530
578.66	63.103
578.99	63.638
579.33	64.149
579.67	63.245
580.00	63.798
580.34	64.665
580.67	64.051
581.01	64.133
581.35	63.817
581.68	62.302
582.02	62.988
582.35	62.929
582.69	63.616
583.02	63.716
583.36	64.837
583.70	64.860
584.03	65.726
584.37	65.850
584.70	64.969
585.04	63.527
585.37	63.537
585.71	64.168
586.04	63.518
586.38	64.943
586.72	65.286
587.05	64.195
587.39	64.248
587.72	64.416
588.06	64.781
588.39	64.225
588.73	64.887
589.06	65.659
589.40	65.657
589.73	65.892
590.07	65.694
590.40	65.765
590.73	65.886
591.07	67.766
591.40	66.934
591.74	67.273
592.07	66.187
592.41	65.771
592.74	64.232
593.08	63.857
593.41	64.568
593.75	63.086
594.08	64.197
594.41	64.086
594.75	65.656
595.08	65.569
595.42	65.674
595.75	64.708
596.09	65.790
596.42	65.933
596.75	65.640
597.09	66.017
597.42	64.966
597.75	65.632
598.09	65.435
598.42	64.734
598.76	64.289
599.09	63.778
599.42	63.828
599.76	64.788
600.09	63.315
600.42	63.148
600.76	63.143
601.09	62.623
601.42	64.498
601.76	63.643
602.09	65.573
602.42	65.685
602.76	65.699
603.09	64.477
603.42	64.467
603.76	64.405
604.09	64.327
604.42	64.492
604.76	64.445
605.09	64.482
605.42	64.044
605.75	64.818
606.09	63.074
606.42	64.610
606.75	64.206
607.09	63.374
607.42	64.484
607.75	62.363
608.08	63.265
608.42	64.455
608.75	62.894
609.08	63.182
609.41	64.826
609.75	65.507
610.08	64.420
610.41	64.246
610.74	64.853
611.07	65.415
611.41	64.426
611.74	64.656
612.07	64.855
612.40	65.740
612.73	64.421
613.07	64.763
613.40	64.350
613.73	64.394
614.06	65.376
614.39	63.293
614.72	63.579
615.06	63.971
615.39	64.703
615.72	63.037
616.05	64.327
616.38	65.370
616.71	66.271
617.05	65.783
617.38	64.702
617.71	65.526
618.04	65.925
618.37	64.636
618.70	66.335
619.03	66.382
619.36	65.445
619.69	66.056
620.03	67.582
620.36	66.444
620.69	66.164
621.02	66.593
621.35	67.737
621.68	66.822
622.01	67.724
622.34	65.582
622.67	66.540
623.00	65.297
623.33	65.046
623.66	66.905
623.99	65.464
624.32	65.193
624.65	64.619
624.99	64.377
625.32	65.315
625.65	65.515
625.98	67.410
626.31	66.874
626.64	67.918
626.97	68.163
627.30	66.750
627.63	66.776
627.96	67.704
628.29	67.279
628.62	67.063
628.95	69.057
629.28	66.423
629.61	67.186
629.94	67.429
630.26	65.968
630.59	66.921
630.92	66.188
631.25	65.943
631.58	66.567
631.91	67.444
632.24	65.084
632.57	66.317
632.90	68.860
633.23	67.785
633.56	68.249
633.89	68.403
634.22	67.196
634.55	69.941
634.88	70.898
635.20	69.654
635.53	71.205
635.86	69.307
636.19	67.059
636.52	67.935
636.85	66.323
637.18	65.553
637.51	67.258
637.83	64.365
638.16	71.483
638.49	68.136
638.82	69.785
639.15	68.500
639.48	67.706
639.81	70.777
640.13	69.792
640.46	67.383
640.79	66.446
641.12	66.713
641.45	68.855
641.77	72.754
642.10	70.468
642.43	70.270
642.76	71.981
643.09	69.018
643.41	73.141
643.74	71.451
644.07	68.293
644.40	70.859
644.73	69.449
645.05	70.998
645.38	67.773
645.71	70.531
646.04	71.429
646.36	72.120
646.69	71.405
647.02	69.218
647.35	71.993
647.67	71.504
648.00	68.455
648.33	71.782
648.66	65.909
648.98	68.666
649.31	67.115
649.64	65.022
649.96	67.064
650.29	67.930
650.62	68.447
650.94	67.423
651.27	72.297
651.60	69.884
651.92	68.051
652.25	68.567
652.58	68.847
652.90	68.878
653.23	67.180
653.56	69.449
653.88	70.206
654.21	68.404
654.54	70.462
654.86	67.290
655.19	65.135
655.52	49.253
655.84	46.809
656.17	61.034
656.49	82.291
656.82	84.790
657.15	64.976
657.47	49.007
657.80	38.086
658.13	39.739
658.45	59.726
658.78	59.873
659.10	61.760
659.43	64.874
659.75	67.218
660.08	71.392
660.41	74.302
660.73	73.571
661.06	73.248
661.38	72.545
661.71	72.500
662.03	71.400
662.36	66.998
662.68	68.072
663.01	69.091
663.33	73.036
663.66	69.748
663.98	72.570
664.31	69.958
664.63	70.243
664.96	69.014
665.28	70.492
665.61	66.082
665.93	65.795
666.26	67.546
666.58	72.176
666.91	70.613
667.23	74.831
667.56	67.603
667.88	69.017
668.21	68.230
668.53	68.980
668.86	69.697
669.18	70.362
669.50	67.609
669.83	71.460
670.15	70.000
670.48	66.667
670.80	69.612
671.13	69.002
671.45	65.532
671.77	67.210
672.10	65.989
672.42	65.901
672.75	63.350
673.07	63.556
673.39	65.823
673.72	65.039
674.04	67.451
674.37	66.602
674.69	67.076
675.01	68.410
675.34	66.324
675.66	70.105
675.98	66.191
676.31	65.336
676.63	67.516
676.95	66.247
677.28	68.925
677.60	66.374
677.92	66.245
678.25	65.503
678.57	67.928
678.89	65.130
679.22	63.261
679.54	66.221
679.86	63.303
680.18	65.474
680.51	61.702
680.83	65.658
681.15	67.170
681.48	66.919
681.80	64.603
682.12	63.793
682.44	61.896
682.77	64.358
683.09	71.459
683.41	67.406
683.73	66.225
684.06	64.669
684.38	62.231
684.70	65.116
685.02	66.041
685.34	64.652
685.67	61.713
685.99	61.340
686.31	61.604
686.63	59.717
686.96	63.571
687.28	63.718
687.60	60.507
687.92	60.512
688.24	61.977
688.56	68.474
688.89	66.598
689.21	68.996
689.53	62.630
689.85	68.071
690.17	63.561
690.49	62.208
690.82	65.888
691.14	60.714
691.46	66.456
691.78	63.855
692.10	63.017
692.42	62.475
692.74	60.581
693.06	64.681
693.39	62.423
693.71	69.214
694.03	64.000
694.35	63.853
694.67	62.243
694.99	69.512
695.31	63.480
695.63	65.550
695.95	66.259
696.27	63.452
696.59	65.803
696.91	69.171
697.23	57.512
697.56	59.915
697.88	59.100
698.20	62.083
698.52	62.366
698.84	62.361
699.16	61.060
699.48	65.558
699.80	63.043
700.12	70.130
700.44	68.435
700.76	70.994
701.08	69.253
701.40	68.994
701.72	67.930
702.04	70.739
702.36	63.456
702.68	68.555
703.00	65.928
703.32	60.372
703.64	64.611
703.96	64.624
704.28	66.570
704.60	68.915
704.91	68.843
705.23	64.223
705.55	70.432
705.87	70.432
706.19	70.671
706.51	66.044
706.83	67.576
707.15	65.546
707.47	66.919
707.79	64.373
708.11	60.502
708.43	61.190
708.74	62.500
709.06	66.234
709.38	63.517
709.70	67.733
710.02	69.436
710.34	64.545
710.66	65.672
710.98	65.341
711.29	66.860
711.61	67.552
711.93	62.821
712.25	63.666
712.57	72.059
712.89	69.204
713.20	63.526
713.52	66.118
713.84	62.658
714.16	65.244
714.48	66.092
714.80	67.477
715.11	66.859
715.43	62.018
715.75	64.058
716.07	67.412
716.39	66.458
716.70	68.439
717.02	69.784
717.34	67.845
717.66	70.896
717.97	72.908
718.29	62.963
718.61	69.343
718.93	67.279
719.24	68.166
719.56	62.712
719.88	61.695
720.20	69.595
720.51	64.111
720.83	68.773
721.15	70.522
721.46	67.021
721.78	72.401
722.10	68.679
722.42	69.173
722.73	64.045
723.05	72.541
723.37	70.445
723.68	68.726
724.00	70.732
724.32	68.548
724.63	71.951
724.95	75.314
725.27	66.397
725.58	69.531
725.90	69.708
726.22	67.925
726.53	64.236
726.85	67.235
727.16	64.057
727.48	66.312
727.80	67.803
728.11	66.304
728.43	68.077
728.74	65.233
729.06	71.898
729.38	69.485
729.69	67.260
730.01	63.481
730.32	65.972
730.64	63.880
730.96	62.376
731.27	63.245
731.59	61.468
731.90	60.933
732.22	65.528
732.53	60.681
732.85	65.705
733.16	64.630
733.48	63.787
733.80	61.688
734.11	61.783
734.43	62.722
734.74	57.714
735.06	61.605
735.37	63.006
735.69	57.325
736.00	65.033
736.32	61.371
736.63	62.300
736.95	62.939
737.26	62.245
737.58	63.226
737.89	61.873
738.21	63.823
738.52	62.857
738.83	62.264
739.15	61.923
739.46	64.964
739.78	61.458
740.09	57.538
740.41	64.194
740.72	59.233
741.04	66.667
741.35	69.167
741.66	72.444
741.98	63.208
742.29	75.120
742.61	69.828
742.92	69.683
743.23	70.513
743.55	63.600
743.86	67.544
744.18	71.681
744.49	67.943
744.80	70.423
745.12	73.182
745.43	65.198
745.74	72.523
746.06	67.890
746.37	69.507
746.68	65.611
747.00	67.130
747.31	70.000
747.62	66.814
747.94	67.841
748.25	64.681
748.56	67.401
748.88	74.752
749.19	76.000
749.50	64.651
749.82	57.317
750.13	62.041
750.44	66.788
750.75	70.175
751.07	62.379
751.38	64.460
751.69	60.289
752.01	64.662
752.32	61.011
752.63	62.766
752.94	68.443
753.26	68.000
753.57	60.163
753.88	68.359
754.19	61.786
754.51	62.847
754.82	62.816
755.13	64.528
755.44	64.286
755.75	64.964
756.07	58.511
756.38	63.504
756.69	62.416
757.00	56.886
757.31	56.380
757.63	56.140
757.94	53.619
758.25	53.922
758.56	55.309
758.87	55.645
759.18	58.788
759.50	57.367
759.81	56.386
760.12	57.187
760.43	59.599
760.74	54.620
761.05	59.040
761.36	57.219
761.67	55.398
761.99	58.385
762.30	65.278
762.61	61.832
762.92	58.984
763.23	66.807
763.54	62.400
763.85	64.844
764.16	60.769
764.47	64.259
764.78	61.131
765.10	57.278
765.41	56.932
765.72	58.683
766.03	61.129
766.34	61.333
766.65	69.362
766.96	65.812
767.27	76.650
767.58	67.708
767.89	77.368
768.20	75.287
768.51	60.914
768.82	69.725
769.13	62.195
769.44	60.729
769.75	62.232
770.06	63.761
770.37	63.801
770.68	65.278
770.99	63.111
771.30	58.197
771.61	70.404
771.92	65.574
772.23	68.487
772.54	70.769
772.85	76.963
773.16	71.809
773.47	65.217
773.78	72.589
774.09	71.429
774.39	66.082
774.70	74.691
775.01	81.159
775.32	72.549
775.63	76.316
775.94	83.453
776.25	85.039
776.56	77.612
776.87	83.607
777.18	75.000
777.48	88.550
777.79	83.333
778.10	80.741
778.41	82.143
778.72	70.073
779.03	75.168
779.34	76.510
779.65	73.649
779.95	74.233
780.26	75.163
780.57	72.414
780.88	91.406
781.19	73.684
781.50	83.784
781.80	81.761
782.11	72.316
782.42	72.152
782.73	69.325
783.04	73.649
783.34	85.915
783.65	82.192
783.96	87.313
784.27	79.021
784.57	78.417
784.88	78.704
785.19	90.476
785.50	97.170
785.81	80.597
786.11	86.066
786.42	82.171
786.73	88.496
787.04	99.057
787.34	98.214
787.65	101.000
787.96	83.784
788.26	82.645
788.57	93.220
788.88	89.256
789.19	73.611
789.49	83.333
789.80	74.809
790.11	110.476
790.41	113.861
790.72	91.566
791.03	98.913
791.33	108.140
791.64	91.753
791.95	99.010
792.25	110.000
792.56	100.000
792.87	117.949
793.17	112.658
793.48	104.598
793.79	98.851
794.09	106.818
794.40	73.109
794.70	77.206
795.01	77.778
795.32	83.453
795.62	75.591
795.93	84.483
796.23	92.035
796.54	108.235
796.85	104.054
797.15	114.085
797.46	119.697
797.76	101.205
798.07	103.797
798.37	116.923
798.68	121.212
798.99	122.535
799.29	107.792
799.60	87.500
799.90	116.438
800.21	117.910
800.51	134.483
800.82	140.351
801.12	122.951
801.43	118.182
801.73	95.946
802.04	130.159
802.34	106.173
802.65	117.187
802.95	128.814
803.26	129.688
803.56	98.571
803.87	116.923
804.17	122.059
804.48	151.852
804.78	124.138
805.09	116.176
805.39	148.077
805.70	133.929
806.00	129.508
806.30	119.697
806.61	108.537
806.91	106.329
807.22	100.000
807.52	114.925
807.83	122.535
808.13	118.750
808.43	121.667
808.74	92.105
809.04	117.391
809.35	119.403
809.65	106.579
809.95	150.000
810.26	125.424
810.56	122.222
810.86	181.818
811.17	190.476
811.47	123.333
811.77	133.333
812.08	140.000
812.38	156.000
812.69	177.778
812.99	154.545
813.29	165.306
813.59	114.286
813.90	157.143
814.20	132.727
814.50	100.000
814.81	120.588
815.11	163.265
815.41	121.311
815.72	180.952
816.02	158.182
816.32	164.286
816.62	132.500
816.93	160.976
817.23	171.429
817.53	170.455
817.84	218.182
818.14	171.739
818.44	135.556
818.74	205.882
819.04	167.500
819.35	185.714
819.65	220.588
819.95	214.286
820.25	270.000
820.56	210.256
820.86	170.455
821.16	165.116
821.46	182.051
821.76	158.000
822.07	220.000
822.37	185.000
822.67	206.061
822.97	127.451
823.27	235.714
823.57	159.459
823.88	182.500
824.18	183.333
824.48	159.524
824.78	208.000
825.08	216.667
825.38	208.108
825.69	151.220
825.99	233.333
826.29	241.379
826.59	200.000
826.89	197.368
827.19	197.059
827.49	225.806
827.79	152.273
828.09	154.545
828.39	144.681
828.70	134.694
829.00	222.222
829.30	187.097
829.60	155.000
829.90	326.667
830.20	207.143
830.50	230.435
830.80	239.130
831.10	223.333
831.40	216.667
831.70	243.478
832.00	253.846
832.30	211.111
832.60	406.250
832.90	270.000
833.20	450.000
833.50	222.581
833.80	224.138
834.10	221.875
834.40	238.462
834.70	372.222
835.00	357.143
835.30	205.714
835.60	415.385
835.90	237.931
836.20	364.286
836.50	237.931
836.80	252.000
837.10	183.333
837.40	290.476
837.70	335.294
838.00	218.519
838.30	276.190
838.60	328.571
838.90	269.231
839.19	300.000
839.49	485.714
839.79	350.000
840.09	290.000
840.39	328.571
840.69	256.522
840.99	311.111
841.29	520.000
841.59	466.667
841.88	412.500
842.18	237.931
842.48	295.238
842.78	230.000
843.08	334.783
843.38	187.500
843.68	983.333
843.97	303.846
844.27	206.897
844.57	323.810
844.87	418.750
845.17	229.630
845.47	1500.000
845.76	722.222
846.06	347.059
846.36	625.000
846.66	457.143
846.96	350.000
847.25	518.182
847.55	536.364
847.85	230.435
848.15	620.000
848.44	435.714
848.74	277.778
849.04	364.706
849.34	590.000
849.63	300.000
849.93	536.364
850.23	1080.000
850.53	521.429
850.82	2800.000
851.12	-5700.000
851.42	4900.000
851.71	340.000
852.01	-1666.667
852.31	250.000
852.61	2066.667
852.90	314.286
853.20	236.000
853.50	335.294
853.79	285.714
854.09	266.667
854.39	356.250
854.68	205.405
854.98	232.258
855.28	226.667
855.57	203.448
855.87	248.148
856.17	326.316
856.46	326.667
856.76	341.176
857.05	196.552
857.35	287.500
857.65	380.000
857.94	260.870
858.24	234.615
858.53	320.000
858.83	268.182
859.13	413.333
859.42	0.000
859.72	588.889
860.01	500.000
860.31	277.273
860.60	268.421
860.90	256.522
861.20	622.222
861.49	550.000
861.79	-5000.000
862.08	700.000
862.38	271.429
862.67	400.000
862.97	352.941
863.26	600.000
863.56	377.778
863.85	500.000
864.15	687.500
864.44	480.000
864.74	950.000
865.03	737.500
865.33	326.316
865.62	445.455
865.92	476.923
866.21	425.000
866.51	0.000
866.80	409.091
867.10	1220.000
867.39	469.231
867.69	445.455
867.98	305.263
868.27	618.182
868.57	326.316
868.86	-5100.000
869.16	387.500
869.45	2550.000
869.75	-4500.000
870.04	483.333
870.33	785.714
870.63	1100.000
870.92	2900.000
871.22	628.571
871.51	417.647
871.80	247.619
872.10	414.286
>>>>>End Processed Spectral Data<<<<<
