SpectraSuite Data File
++++++++++++++++++++++++++++++++++++
Date: Tue May 12 19:44:26 PDT 2015
User: schluterlab
Dark Spectrum Present: Yes
Reference Spectrum Present: Yes
Number of Sampled Component Spectra: 1
Spectrometers: USB2E3373
Integration Time (usec): 3000 (USB2E3373)
Spectra Averaged: 3 (USB2E3373)
Boxcar Smoothing: 0 (USB2E3373)
Correct for Electrical Dark: No (USB2E3373)
Strobe/Lamp Enabled: No (USB2E3373)
Correct for Detector Non-linearity: No (USB2E3373)
Correct for Stray Light: No (USB2E3373)
Number of Pixels in Processed Spectrum: 2048
>>>>>Begin Processed Spectral Data<<<<<
178.53	0.000
178.91	-100.000
179.29	-216.667
179.67	200.000
180.04	0.000
180.42	-240.000
180.80	-366.667
181.18	800.000
181.56	-150.000
181.94	150.000
182.31	1600.000
182.69	-57.143
183.07	0.000
183.45	233.333
183.83	260.000
184.20	166.667
184.58	400.000
184.96	166.667
185.34	-100.000
185.72	-28.571
186.09	-150.000
186.47	-2300.000
186.85	140.000
187.23	58.333
187.61	-157.143
187.98	-260.000
188.36	750.000
188.74	-225.000
189.12	-155.556
189.49	-50.000
189.87	175.000
190.25	144.444
190.63	533.333
191.00	280.000
191.38	-300.000
191.76	440.000
192.14	0.000
192.51	-50.000
192.89	-80.000
193.27	-80.000
193.65	-133.333
194.02	-33.333
194.40	300.000
194.78	0.000
195.15	-257.143
195.53	433.333
195.91	-0.000
196.29	-350.000
196.66	-133.333
197.04	-114.286
197.42	140.000
197.79	-37.500
198.17	-83.333
198.55	200.000
198.92	-144.444
199.30	650.000
199.68	-275.000
200.05	-750.000
200.43	-27.778
200.81	-41.667
201.18	433.333
201.56	-800.000
201.94	-1400.000
202.31	-25.000
202.69	-22.222
203.07	-108.333
203.44	-225.000
203.82	0.000
204.19	300.000
204.57	-700.000
204.95	172.727
205.32	40.000
205.70	375.000
206.08	100.000
206.45	-200.000
206.83	1700.000
207.20	-144.444
207.58	23.077
207.96	133.333
208.33	733.333
208.71	166.667
209.08	850.000
209.46	0.000
209.84	200.000
210.21	-533.333
210.59	400.000
210.96	233.333
211.34	-275.000
211.71	1200.000
212.09	80.000
212.46	-150.000
212.84	-175.000
213.22	28.571
213.59	50.000
213.97	0.000
214.34	-100.000
214.72	100.000
215.09	400.000
215.47	13.333
215.84	-125.000
216.22	-900.000
216.59	500.000
216.97	-33.333
217.34	-83.333
217.72	-11.111
218.09	400.000
218.47	-52.632
218.84	-162.500
219.22	0.000
219.59	-110.000
219.97	-70.000
220.34	266.667
220.72	118.182
221.09	-750.000
221.47	0.000
221.84	500.000
222.22	-450.000
222.59	-400.000
222.97	-8.696
223.34	120.000
223.72	342.857
224.09	-66.667
224.46	153.846
224.84	-66.667
225.21	-850.000
225.59	-200.000
225.96	45.000
226.34	300.000
226.71	190.000
227.08	-84.615
227.46	-28.571
227.83	-75.000
228.21	-950.000
228.58	150.000
228.95	0.000
229.33	-6.250
229.70	-183.333
230.08	-111.111
230.45	-366.667
230.82	-1700.000
231.20	-14.286
231.57	-460.000
231.95	-300.000
232.32	155.556
232.69	-800.000
233.07	18.750
233.44	-37.500
233.81	9.677
234.19	-280.000
234.56	-50.000
234.93	-183.333
235.31	14.815
235.68	0.000
236.05	-23.077
236.43	-26.316
236.80	-63.636
237.17	-121.429
237.55	-60.000
237.92	16.279
238.29	-12.903
238.67	17.857
239.04	8.571
239.41	1.961
239.79	10.000
240.16	-10.000
240.53	-24.138
240.91	9.589
241.28	-4.225
241.65	12.500
242.02	-7.018
242.40	2.667
242.77	11.579
243.14	12.941
243.51	3.226
243.89	0.952
244.26	9.259
244.63	6.122
245.00	3.571
245.38	4.202
245.75	12.712
246.12	14.844
246.49	11.200
246.87	6.557
247.24	-3.521
247.61	8.609
247.98	11.236
248.36	15.723
248.73	6.250
249.10	6.667
249.47	6.250
249.84	8.122
250.22	9.375
250.59	3.371
250.96	11.818
251.33	15.566
251.70	11.009
252.08	12.987
252.45	11.020
252.82	8.017
253.19	12.062
253.56	13.725
253.94	12.602
254.31	14.748
254.68	12.500
255.05	15.232
255.42	5.818
255.79	17.881
256.16	13.542
256.54	13.636
256.91	15.064
257.28	12.662
257.65	6.230
258.02	16.517
258.39	12.689
258.76	13.150
259.14	12.059
259.51	14.930
259.88	13.545
260.25	11.932
260.62	10.955
260.99	11.142
261.36	11.207
261.73	12.533
262.10	11.172
262.47	11.846
262.85	16.967
263.22	8.602
263.59	15.550
263.96	12.010
264.33	10.512
264.70	12.285
265.07	12.069
265.44	15.222
265.81	13.976
266.18	13.349
266.55	14.524
266.92	13.616
267.29	14.444
267.66	12.500
268.03	14.624
268.40	10.526
268.77	12.027
269.14	11.555
269.51	12.217
269.88	12.393
270.25	11.603
270.62	14.076
270.99	13.895
271.36	12.141
271.73	12.708
272.10	11.826
272.47	13.000
272.84	11.465
273.21	12.317
273.58	11.020
273.95	12.550
274.32	15.861
274.69	12.329
275.06	14.634
275.43	10.600
275.80	13.576
276.17	13.241
276.54	13.498
276.91	14.395
277.28	14.700
277.65	10.586
278.02	12.500
278.39	14.519
278.76	12.104
279.13	13.059
279.50	14.260
279.87	13.585
280.23	12.204
280.60	11.484
280.97	12.478
281.34	12.712
281.71	11.368
282.08	13.059
282.45	10.935
282.82	10.438
283.19	12.626
283.56	13.140
283.92	11.690
284.29	11.506
284.66	11.150
285.03	8.405
285.40	11.333
285.77	11.658
286.14	12.203
286.51	11.897
286.87	13.128
287.24	9.455
287.61	11.111
287.98	13.459
288.35	12.093
288.72	11.774
289.08	9.906
289.45	11.544
289.82	9.938
290.19	10.303
290.56	10.709
290.93	11.817
291.29	12.199
291.66	11.657
292.03	12.626
292.40	11.799
292.77	10.933
293.13	9.985
293.50	10.744
293.87	10.125
294.24	10.253
294.60	11.339
294.97	9.280
295.34	10.137
295.71	11.096
296.08	10.109
296.44	11.331
296.81	9.573
297.18	9.702
297.55	9.925
297.91	9.010
298.28	9.335
298.65	9.961
299.02	11.097
299.38	9.311
299.75	9.653
300.12	9.113
300.48	10.563
300.85	7.090
301.22	8.413
301.59	9.367
301.95	8.537
302.32	9.721
302.69	7.253
303.05	9.799
303.42	10.628
303.79	7.978
304.15	10.079
304.52	9.385
304.89	9.470
305.25	9.404
305.62	9.659
305.99	9.518
306.35	8.501
306.72	10.131
307.09	9.249
307.45	8.954
307.82	8.431
308.19	10.121
308.55	9.177
308.92	8.898
309.29	9.100
309.65	8.978
310.02	9.224
310.38	8.742
310.75	7.992
311.12	8.545
311.48	9.353
311.85	8.308
312.22	8.678
312.58	9.466
312.95	8.624
313.31	8.850
313.68	9.335
314.05	10.228
314.41	8.448
314.78	8.643
315.14	9.109
315.51	9.335
315.87	9.570
316.24	9.496
316.61	9.417
316.97	8.627
317.34	9.282
317.70	7.750
318.07	9.547
318.43	10.113
318.80	8.106
319.16	8.481
319.53	8.868
319.89	8.523
320.26	9.440
320.62	9.981
320.99	9.898
321.35	9.783
321.72	10.808
322.08	9.307
322.45	9.270
322.81	10.049
323.18	10.259
323.54	10.711
323.91	10.152
324.27	9.740
324.64	9.653
325.00	9.099
325.37	11.061
325.73	9.672
326.10	10.420
326.46	10.154
326.83	9.763
327.19	11.004
327.56	11.317
327.92	9.635
328.29	10.663
328.65	12.053
329.01	10.917
329.38	11.295
329.74	12.349
330.11	11.090
330.47	11.080
330.84	11.090
331.20	10.536
331.56	9.340
331.93	10.522
332.29	9.713
332.66	11.392
333.02	11.328
333.38	12.040
333.75	11.070
334.11	11.031
334.48	9.928
334.84	10.235
335.20	10.564
335.57	11.353
335.93	11.814
336.29	10.878
336.66	11.202
337.02	11.967
337.38	10.094
337.75	11.273
338.11	11.121
338.47	10.864
338.84	11.694
339.20	11.824
339.56	9.413
339.93	10.450
340.29	11.423
340.65	9.589
341.02	9.743
341.38	10.591
341.74	10.854
342.11	10.875
342.47	10.577
342.83	10.321
343.20	10.875
343.56	11.276
343.92	10.149
344.28	9.262
344.65	10.103
345.01	10.889
345.37	10.598
345.73	10.594
346.10	10.199
346.46	10.354
346.82	10.110
347.19	11.186
347.55	10.544
347.91	10.893
348.27	10.025
348.63	9.853
349.00	10.601
349.36	10.635
349.72	10.263
350.08	10.065
350.45	10.496
350.81	10.322
351.17	9.390
351.53	9.984
351.89	9.585
352.26	9.268
352.62	10.630
352.98	10.628
353.34	10.944
353.70	9.959
354.07	10.544
354.43	9.015
354.79	10.164
355.15	9.766
355.51	10.758
355.87	9.242
356.24	11.683
356.60	9.015
356.96	9.400
357.32	10.370
357.68	9.865
358.04	9.643
358.40	11.457
358.77	10.522
359.13	10.602
359.49	9.600
359.85	10.631
360.21	8.882
360.57	9.250
360.93	10.293
361.29	9.268
361.66	9.385
362.02	9.498
362.38	10.956
362.74	10.377
363.10	10.784
363.46	9.932
363.82	9.495
364.18	8.630
364.54	10.000
364.90	9.111
365.26	10.060
365.62	9.614
365.98	10.345
366.35	9.153
366.71	10.082
367.07	10.406
367.43	8.592
367.79	8.721
368.15	8.821
368.51	9.813
368.87	10.499
369.23	9.841
369.59	10.147
369.95	8.644
370.31	9.015
370.67	9.248
371.03	10.449
371.39	9.894
371.75	9.955
372.11	9.407
372.47	9.206
372.83	10.080
373.19	8.584
373.55	10.254
373.91	9.470
374.27	10.302
374.63	9.278
374.99	9.151
375.35	9.071
375.71	9.971
376.07	9.894
376.42	9.889
376.78	8.711
377.14	9.707
377.50	9.850
377.86	10.167
378.22	9.181
378.58	10.132
378.94	10.085
379.30	8.945
379.66	9.283
380.02	9.663
380.38	9.288
380.74	10.131
381.09	8.895
381.45	10.476
381.81	9.247
382.17	9.577
382.53	9.730
382.89	8.467
383.25	9.575
383.61	8.646
383.97	9.617
384.32	9.161
384.68	10.026
385.04	9.548
385.40	8.946
385.76	9.361
386.12	9.175
386.48	9.459
386.83	9.677
387.19	10.026
387.55	9.909
387.91	8.598
388.27	9.725
388.62	9.132
388.98	9.288
389.34	9.239
389.70	9.487
390.06	10.231
390.42	8.452
390.77	9.792
391.13	9.629
391.49	9.299
391.85	9.647
392.20	8.977
392.56	8.055
392.92	9.524
393.28	9.216
393.64	8.423
393.99	8.312
394.35	8.825
394.71	9.470
395.07	9.416
395.42	8.571
395.78	8.669
396.14	8.794
396.50	10.543
396.85	8.394
397.21	8.409
397.57	9.546
397.92	9.351
398.28	9.293
398.64	8.063
399.00	8.996
399.35	8.851
399.71	8.802
400.07	8.956
400.42	10.192
400.78	9.725
401.14	9.280
401.49	9.432
401.85	9.905
402.21	9.264
402.57	9.079
402.92	8.101
403.28	9.493
403.63	9.231
403.99	8.983
404.35	8.599
404.70	9.626
405.06	9.361
405.42	8.783
405.77	8.740
406.13	8.124
406.49	8.833
406.84	9.651
407.20	8.984
407.55	9.085
407.91	8.951
408.27	9.109
408.62	9.003
408.98	10.039
409.34	9.475
409.69	9.097
410.05	8.614
410.40	8.349
410.76	9.900
411.11	8.468
411.47	9.252
411.83	8.628
412.18	9.228
412.54	10.479
412.89	8.420
413.25	9.279
413.60	9.758
413.96	8.997
414.31	9.050
414.67	9.993
415.03	9.267
415.38	9.331
415.74	9.537
416.09	8.753
416.45	9.908
416.80	8.484
417.16	9.732
417.51	9.646
417.87	9.918
418.22	8.957
418.58	9.468
418.93	9.284
419.29	9.769
419.64	9.753
420.00	9.299
420.35	9.667
420.71	9.859
421.06	9.020
421.42	9.536
421.77	9.562
422.12	8.506
422.48	9.766
422.83	9.179
423.19	10.235
423.54	8.858
423.90	8.653
424.25	10.332
424.61	9.548
424.96	9.889
425.31	9.239
425.67	9.152
426.02	9.193
426.38	9.202
426.73	9.533
427.09	9.127
427.44	9.074
427.79	9.839
428.15	9.448
428.50	9.925
428.85	9.044
429.21	10.281
429.56	8.564
429.92	9.843
430.27	8.907
430.62	10.114
430.98	9.404
431.33	9.399
431.68	9.464
432.04	9.551
432.39	9.566
432.74	9.235
433.10	10.612
433.45	9.373
433.80	8.869
434.16	9.379
434.51	9.643
434.86	9.366
435.22	9.779
435.57	9.301
435.92	8.978
436.28	9.278
436.63	9.720
436.98	9.753
437.34	9.789
437.69	9.877
438.04	9.315
438.39	9.334
438.75	9.969
439.10	10.179
439.45	10.911
439.81	9.524
440.16	10.328
440.51	9.356
440.86	9.533
441.22	9.172
441.57	9.459
441.92	8.669
442.27	10.514
442.63	9.368
442.98	10.269
443.33	9.812
443.68	9.318
444.03	9.639
444.39	9.318
444.74	9.559
445.09	9.799
445.44	9.621
445.79	9.817
446.15	9.329
446.50	9.659
446.85	9.571
447.20	9.190
447.55	9.599
447.91	9.818
448.26	9.970
448.61	10.151
448.96	10.112
449.31	9.825
449.66	9.746
450.02	9.763
450.37	10.632
450.72	9.635
451.07	9.690
451.42	10.408
451.77	9.395
452.12	9.461
452.47	9.011
452.83	9.838
453.18	11.006
453.53	10.777
453.88	10.083
454.23	9.904
454.58	10.640
454.93	9.196
455.28	9.572
455.63	9.357
455.98	10.977
456.34	10.449
456.69	9.885
457.04	10.302
457.39	9.675
457.74	10.367
458.09	9.708
458.44	10.239
458.79	9.541
459.14	10.733
459.49	10.191
459.84	9.988
460.19	10.444
460.54	9.975
460.89	9.706
461.24	9.740
461.59	10.599
461.94	10.191
462.29	9.712
462.64	10.515
462.99	10.007
463.34	10.110
463.69	10.837
464.04	9.301
464.39	10.096
464.74	10.188
465.09	10.611
465.44	10.438
465.79	10.108
466.14	9.905
466.49	11.124
466.84	10.197
467.19	10.591
467.54	9.549
467.89	9.928
468.24	10.354
468.59	10.275
468.94	10.491
469.29	9.758
469.64	10.941
469.99	10.959
470.34	10.255
470.68	11.308
471.03	10.438
471.38	10.471
471.73	10.828
472.08	11.744
472.43	11.480
472.78	9.500
473.13	11.368
473.48	10.373
473.83	10.502
474.17	9.940
474.52	10.516
474.87	10.227
475.22	11.436
475.57	10.106
475.92	10.858
476.27	10.127
476.61	11.407
476.96	10.136
477.31	10.674
477.66	10.691
478.01	9.947
478.36	10.487
478.70	10.704
479.05	10.621
479.40	10.669
479.75	10.039
480.10	11.418
480.45	10.576
480.79	10.016
481.14	10.701
481.49	10.540
481.84	10.707
482.19	10.537
482.53	10.735
482.88	10.676
483.23	11.709
483.58	11.040
483.92	10.804
484.27	10.552
484.62	10.750
484.97	10.677
485.31	10.712
485.66	10.148
486.01	9.963
486.36	9.748
486.70	9.965
487.05	10.218
487.40	9.989
487.75	10.192
488.09	10.150
488.44	10.361
488.79	10.703
489.13	10.515
489.48	10.689
489.83	11.234
490.17	11.299
490.52	10.755
490.87	11.771
491.22	11.391
491.56	10.721
491.91	11.145
492.26	11.372
492.60	11.224
492.95	10.780
493.30	11.082
493.64	11.308
493.99	11.037
494.34	11.556
494.68	10.803
495.03	11.004
495.37	11.657
495.72	11.129
496.07	10.446
496.41	11.018
496.76	11.270
497.11	11.275
497.45	11.452
497.80	11.890
498.14	11.563
498.49	11.479
498.84	10.954
499.18	11.520
499.53	11.267
499.87	11.470
500.22	11.429
500.56	11.931
500.91	12.271
501.26	11.286
501.60	11.825
501.95	11.208
502.29	11.698
502.64	11.697
502.98	11.358
503.33	11.283
503.67	11.588
504.02	11.645
504.36	11.197
504.71	11.755
505.06	11.944
505.40	12.708
505.75	11.848
506.09	11.322
506.44	11.749
506.78	12.366
507.13	11.781
507.47	12.244
507.82	11.830
508.16	11.860
508.51	12.473
508.85	12.582
509.19	12.562
509.54	11.898
509.88	11.450
510.23	12.360
510.57	11.811
510.92	11.281
511.26	11.143
511.61	12.100
511.95	11.857
512.30	12.058
512.64	11.554
512.98	12.699
513.33	11.665
513.67	11.437
514.02	12.260
514.36	12.040
514.70	12.568
515.05	13.293
515.39	13.112
515.74	12.155
516.08	11.739
516.42	12.244
516.77	13.043
517.11	11.743
517.46	12.492
517.80	13.082
518.14	14.105
518.49	13.713
518.83	12.711
519.17	12.468
519.52	12.929
519.86	12.730
520.20	12.357
520.55	12.990
520.89	12.888
521.23	12.959
521.58	12.963
521.92	13.017
522.26	13.127
522.61	13.652
522.95	13.014
523.29	13.698
523.64	12.890
523.98	13.575
524.32	13.064
524.66	13.596
525.01	13.471
525.35	13.338
525.69	12.526
526.04	14.165
526.38	13.365
526.72	13.403
527.06	13.150
527.41	12.757
527.75	13.783
528.09	12.730
528.43	13.536
528.78	12.369
529.12	12.534
529.46	13.488
529.80	12.866
530.15	13.551
530.49	14.365
530.83	12.871
531.17	12.782
531.51	14.133
531.86	14.146
532.20	13.131
532.54	14.173
532.88	13.018
533.22	13.290
533.57	13.310
533.91	13.627
534.25	12.492
534.59	13.205
534.93	12.760
535.27	13.872
535.62	13.437
535.96	13.957
536.30	12.804
536.64	12.518
536.98	13.127
537.32	13.616
537.66	14.150
538.01	14.065
538.35	13.236
538.69	12.668
539.03	12.761
539.37	13.568
539.71	13.333
540.05	13.459
540.39	13.508
540.73	14.799
541.07	13.456
541.42	13.756
541.76	13.597
542.10	13.271
542.44	14.379
542.78	12.757
543.12	12.274
543.46	13.413
543.80	13.796
544.14	13.620
544.48	12.772
544.82	12.704
545.16	13.623
545.50	14.629
545.84	14.192
546.18	13.333
546.52	14.143
546.86	13.849
547.20	13.636
547.54	12.661
547.88	12.749
548.22	13.502
548.56	13.601
548.90	12.842
549.24	13.450
549.58	14.307
549.92	14.511
550.26	13.822
550.60	13.719
550.94	13.968
551.28	14.390
551.62	14.578
551.96	14.297
552.30	13.798
552.64	13.524
552.98	14.264
553.32	13.864
553.66	13.581
554.00	13.822
554.34	13.906
554.68	13.238
555.02	13.889
555.36	13.582
555.69	13.912
556.03	13.599
556.37	14.179
556.71	14.480
557.05	14.219
557.39	14.618
557.73	14.308
558.07	14.867
558.41	13.089
558.75	14.108
559.08	14.894
559.42	13.545
559.76	13.901
560.10	13.936
560.44	13.618
560.78	13.974
561.12	13.148
561.45	14.062
561.79	13.216
562.13	13.640
562.47	13.303
562.81	13.874
563.15	13.004
563.48	13.333
563.82	13.974
564.16	12.990
564.50	14.685
564.84	14.033
565.17	13.805
565.51	14.356
565.85	14.366
566.19	14.266
566.52	14.337
566.86	13.525
567.20	12.774
567.54	13.465
567.88	12.985
568.21	13.834
568.55	12.847
568.89	12.582
569.23	12.952
569.56	12.828
569.90	12.291
570.24	11.939
570.57	11.926
570.91	12.191
571.25	12.397
571.59	11.967
571.92	11.628
572.26	11.786
572.60	11.578
572.93	11.657
573.27	11.908
573.61	12.040
573.95	11.570
574.28	11.338
574.62	11.189
574.96	11.134
575.29	11.719
575.63	10.915
575.97	10.998
576.30	11.596
576.64	11.494
576.98	11.016
577.31	11.455
577.65	11.574
577.98	11.084
578.32	11.135
578.66	10.761
578.99	11.420
579.33	11.199
579.67	11.398
580.00	11.319
580.34	11.642
580.67	11.648
581.01	11.507
581.35	11.086
581.68	10.864
582.02	10.909
582.35	11.168
582.69	11.107
583.02	11.351
583.36	11.216
583.70	11.480
584.03	11.380
584.37	11.362
584.70	11.262
585.04	10.659
585.37	11.730
585.71	11.329
586.04	11.523
586.38	11.223
586.72	11.628
587.05	11.535
587.39	11.628
587.72	11.670
588.06	11.662
588.39	11.540
588.73	11.680
589.06	11.763
589.40	12.073
589.73	12.453
590.07	11.808
590.40	11.665
590.73	12.411
591.07	12.727
591.40	12.471
591.74	12.034
592.07	12.273
592.41	12.324
592.74	12.527
593.08	12.134
593.41	11.656
593.75	12.369
594.08	11.870
594.41	12.095
594.75	12.099
595.08	12.778
595.42	12.054
595.75	12.083
596.09	12.210
596.42	12.262
596.75	12.818
597.09	12.267
597.42	12.858
597.75	12.570
598.09	12.125
598.42	12.636
598.76	12.341
599.09	12.689
599.42	12.116
599.76	12.044
600.09	12.337
600.42	11.914
600.76	11.932
601.09	11.608
601.42	12.560
601.76	12.054
602.09	12.275
602.42	12.115
602.76	12.653
603.09	11.967
603.42	13.118
603.76	12.044
604.09	12.281
604.42	12.409
604.76	11.912
605.09	12.565
605.42	12.749
605.75	12.334
606.09	12.889
606.42	12.073
606.75	12.700
607.09	12.593
607.42	13.034
607.75	11.846
608.08	12.629
608.42	12.609
608.75	12.356
609.08	12.569
609.41	12.805
609.75	12.586
610.08	12.506
610.41	12.723
610.74	13.094
611.07	12.692
611.41	12.366
611.74	13.058
612.07	13.225
612.40	13.426
612.73	13.194
613.07	12.683
613.40	12.651
613.73	12.371
614.06	13.115
614.39	13.181
614.72	13.459
615.06	13.490
615.39	12.760
615.72	12.318
616.05	13.159
616.38	13.345
616.71	12.998
617.05	13.505
617.38	12.645
617.71	12.998
618.04	13.601
618.37	13.996
618.70	13.315
619.03	14.213
619.36	13.991
619.69	12.908
620.03	14.416
620.36	13.983
620.69	13.673
621.02	12.668
621.35	14.213
621.68	14.221
622.01	13.993
622.34	12.898
622.67	15.008
623.00	14.087
623.33	13.780
623.66	13.386
623.99	14.673
624.32	12.629
624.65	13.984
624.99	13.984
625.32	13.428
625.65	13.771
625.98	15.250
626.31	13.766
626.64	15.135
626.97	14.890
627.30	14.815
627.63	14.512
627.96	14.060
628.29	16.061
628.62	14.227
628.95	16.051
629.28	15.702
629.61	15.465
629.94	15.871
630.26	15.063
630.59	17.068
630.92	13.804
631.25	15.978
631.58	14.419
631.91	15.148
632.24	16.923
632.57	15.458
632.90	17.343
633.23	16.903
633.56	15.472
633.89	14.248
634.22	16.923
634.55	16.163
634.88	16.198
635.20	16.712
635.53	18.436
635.86	18.207
636.19	14.598
636.52	15.768
636.85	14.733
637.18	16.580
637.51	16.396
637.83	16.201
638.16	18.777
638.49	15.994
638.82	15.893
639.15	15.143
639.48	15.138
639.81	15.499
640.13	15.008
640.46	17.323
640.79	16.279
641.12	18.605
641.45	17.418
641.77	17.197
642.10	18.404
642.43	18.013
642.76	17.563
643.09	15.052
643.41	15.233
643.74	17.361
644.07	16.049
644.40	18.231
644.73	18.048
645.05	17.176
645.38	18.846
645.71	19.084
646.04	18.959
646.36	16.288
646.69	19.149
647.02	20.508
647.35	19.400
647.67	20.040
648.00	20.777
648.33	16.956
648.66	16.698
648.98	18.814
649.31	15.491
649.64	16.007
649.96	16.554
650.29	14.690
650.62	17.625
650.94	18.854
651.27	15.222
651.60	19.694
651.92	16.031
652.25	12.811
652.58	15.799
652.90	16.192
653.23	15.722
653.56	15.799
653.88	18.066
654.21	16.068
654.54	16.510
654.86	18.345
655.19	13.710
655.52	14.477
655.84	11.388
656.17	11.003
656.49	15.003
656.82	17.156
657.15	13.643
657.47	10.293
657.80	7.861
658.13	6.478
658.45	10.660
658.78	10.707
659.10	10.690
659.43	10.932
659.75	10.512
660.08	11.664
660.41	13.129
660.73	12.881
661.06	15.455
661.38	15.927
661.71	15.755
662.03	17.593
662.36	16.229
662.68	14.868
663.01	17.788
663.33	21.462
663.66	17.943
663.98	18.826
664.31	17.561
664.63	17.431
664.96	16.627
665.28	17.021
665.61	16.589
665.93	18.433
666.26	19.426
666.58	19.495
666.91	21.311
667.23	17.980
667.56	18.519
667.88	17.544
668.21	15.990
668.53	20.558
668.86	16.071
669.18	19.036
669.50	22.365
669.83	19.500
670.15	16.000
670.48	16.792
670.80	19.289
671.13	18.072
671.45	18.112
671.77	21.014
672.10	16.044
672.42	12.550
672.75	15.728
673.07	15.327
673.39	18.093
673.72	15.909
674.04	15.319
674.37	17.321
674.69	19.393
675.01	20.233
675.34	15.196
675.66	17.143
675.98	16.919
676.31	19.395
676.63	14.691
676.95	16.067
677.28	14.604
677.60	19.799
677.92	15.288
678.25	14.617
678.57	15.313
678.89	16.743
679.22	19.037
679.54	13.140
679.86	17.345
680.18	16.318
680.51	14.579
680.83	14.792
681.15	18.083
681.48	18.298
681.80	13.913
682.12	16.488
682.44	14.655
682.77	15.000
683.09	18.137
683.41	18.797
683.73	18.090
684.06	15.228
684.38	13.909
684.70	17.783
685.02	13.853
685.34	11.715
685.67	15.217
685.99	15.569
686.31	15.112
686.63	14.175
686.96	15.244
687.28	15.811
687.60	18.070
687.92	15.401
688.24	15.158
688.56	16.264
688.89	15.753
689.21	13.721
689.53	13.555
689.85	16.456
690.17	13.725
690.49	16.471
690.82	17.199
691.14	14.883
691.46	14.750
691.78	16.268
692.10	15.826
692.42	14.679
692.74	16.351
693.06	14.699
693.39	15.517
693.71	13.953
694.03	12.802
694.35	15.099
694.67	16.794
694.99	18.598
695.31	16.714
695.63	15.135
695.95	14.326
696.27	15.581
696.59	16.320
696.91	15.385
697.23	19.771
697.56	14.508
697.88	15.457
698.20	11.380
698.52	15.385
698.84	13.534
699.16	17.678
699.48	16.492
699.80	14.560
700.12	13.499
700.44	13.569
700.76	17.981
701.08	13.651
701.40	16.447
701.72	16.667
702.04	15.306
702.36	18.361
702.68	15.101
703.00	13.565
703.32	13.473
703.64	19.243
703.96	14.557
704.28	11.972
704.60	19.178
704.91	14.474
705.23	15.789
705.55	15.985
705.87	13.669
706.19	17.928
706.51	14.453
706.83	17.216
707.15	14.237
707.47	14.970
707.79	12.321
708.11	15.873
708.43	14.667
708.74	11.475
709.06	15.951
709.38	14.837
709.70	15.260
710.02	17.133
710.34	13.121
710.66	13.109
710.98	16.434
711.29	18.213
711.61	15.248
711.93	14.607
712.25	16.226
712.57	16.797
712.89	14.694
713.20	15.726
713.52	10.976
713.84	15.693
714.16	19.595
714.48	13.993
714.80	13.131
715.11	16.838
715.43	11.263
715.75	11.930
716.07	14.182
716.39	20.819
716.70	14.000
717.02	13.306
717.34	15.152
717.66	15.455
717.97	12.500
718.29	16.889
718.61	15.315
718.93	10.924
719.24	16.736
719.56	16.518
719.88	14.902
720.20	10.256
720.51	15.351
720.83	18.828
721.15	13.469
721.46	12.658
721.78	18.182
722.10	16.279
722.42	13.478
722.73	10.407
723.05	14.286
723.37	11.312
723.68	11.848
724.00	13.889
724.32	20.561
724.63	15.385
724.95	16.438
725.27	16.901
725.58	17.352
725.90	9.459
726.22	13.100
726.53	12.295
726.85	18.889
727.16	19.838
727.48	21.774
727.80	15.068
728.11	14.222
728.43	13.580
728.74	10.088
729.06	14.410
729.38	17.442
729.69	8.800
730.01	11.297
730.32	12.351
730.64	15.769
730.96	10.811
731.27	7.722
731.59	10.438
731.90	12.171
732.22	13.953
732.53	12.281
732.85	7.042
733.16	12.821
733.48	13.060
733.80	13.091
734.11	15.248
734.43	11.913
734.74	12.461
735.06	17.042
735.37	9.904
735.69	12.676
736.00	11.481
736.32	14.685
736.63	14.074
736.95	11.673
737.26	13.043
737.58	10.584
737.89	14.717
738.21	12.595
738.52	15.984
738.83	15.812
739.15	12.727
739.46	6.757
739.78	10.425
740.09	12.302
740.41	15.909
740.72	13.546
741.04	16.601
741.35	18.386
741.66	9.677
741.98	10.714
742.29	15.544
742.61	9.827
742.92	14.706
743.23	13.930
743.55	17.098
743.86	15.459
744.18	11.000
744.49	8.333
744.80	14.516
745.12	14.872
745.43	20.321
745.74	12.299
746.06	14.368
746.37	10.000
746.68	14.054
747.00	2.210
747.31	14.660
747.62	18.421
747.94	16.038
748.25	17.734
748.56	19.697
748.88	10.929
749.19	20.207
749.50	13.529
749.82	20.000
750.13	12.136
750.44	12.876
750.75	13.200
751.07	6.695
751.38	13.672
751.69	15.873
752.01	14.706
752.32	11.157
752.63	14.410
752.94	13.600
753.26	11.872
753.57	10.427
753.88	12.093
754.19	11.894
754.51	7.531
754.82	11.667
755.13	13.274
755.44	18.182
755.75	12.450
756.07	12.876
756.38	14.226
756.69	18.113
757.00	13.121
757.31	16.263
757.63	12.745
757.94	11.515
758.25	13.095
758.56	8.919
758.87	10.714
759.18	17.445
759.50	14.235
759.81	10.811
760.12	15.302
760.43	11.296
760.74	15.868
761.05	11.859
761.36	12.166
761.67	10.334
761.99	15.050
762.30	15.273
762.61	11.789
762.92	9.333
763.23	14.884
763.54	14.213
763.85	12.670
764.16	13.043
764.47	12.609
764.78	15.726
765.10	10.630
765.41	12.040
765.72	12.375
766.03	11.371
766.34	12.879
766.65	14.453
766.96	9.778
767.27	13.966
767.58	11.950
767.89	20.130
768.20	7.432
768.51	12.644
768.82	15.000
769.13	18.519
769.44	11.792
769.75	11.275
770.06	6.311
770.37	14.362
770.68	12.821
770.99	15.228
771.30	12.887
771.61	8.520
771.92	11.321
772.23	9.135
772.54	11.176
772.85	2.055
773.16	7.097
773.47	7.643
773.78	14.970
774.09	14.474
774.39	6.618
774.70	14.286
775.01	5.385
775.32	4.762
775.63	12.598
775.94	0.000
776.25	11.111
776.56	10.909
776.87	16.239
777.18	14.000
777.48	5.769
777.79	0.926
778.10	-0.943
778.41	9.804
778.72	12.264
779.03	-1.754
779.34	15.966
779.65	7.746
779.95	10.072
780.26	8.871
780.57	10.145
780.88	9.174
781.19	8.333
781.50	0.820
781.80	8.759
782.11	6.410
782.42	-4.828
782.73	11.888
783.04	2.400
783.34	10.400
783.65	10.569
783.96	2.459
784.27	0.840
784.57	9.346
784.88	2.679
785.19	9.278
785.50	8.421
785.81	10.000
786.11	4.950
786.42	-24.706
786.73	15.625
787.04	20.408
787.34	12.963
787.65	15.094
787.96	-1.031
788.26	5.941
788.57	2.609
788.88	-3.670
789.19	10.744
789.49	2.609
789.80	11.207
790.11	-4.878
790.41	19.101
790.72	-4.651
791.03	8.140
791.33	-6.494
791.64	9.756
791.95	6.098
792.25	-6.024
792.56	2.469
792.87	-7.042
793.17	1.205
793.48	4.706
793.79	1.250
794.09	-6.667
794.40	9.783
794.70	13.043
795.01	7.339
795.32	13.386
795.62	12.745
795.93	4.902
796.23	8.081
796.54	-1.163
796.85	-4.348
797.15	12.500
797.46	-6.780
797.76	16.393
798.07	-1.316
798.37	3.226
798.68	10.938
798.99	3.077
799.29	1.515
799.60	-4.348
799.90	8.571
800.21	-8.772
800.51	0.000
800.82	-13.208
801.12	-5.882
801.43	0.000
801.73	-1.613
802.04	14.000
802.34	-22.642
802.65	-10.526
802.95	5.455
803.26	1.887
803.56	4.918
803.87	4.000
804.17	-1.852
804.48	-7.692
804.78	-8.163
805.09	-8.511
805.39	11.864
805.70	-6.250
806.00	-12.500
806.30	6.780
806.61	-6.154
806.91	-3.077
807.22	-6.579
807.52	1.429
807.83	1.724
808.13	16.456
808.43	-6.557
808.74	8.197
809.04	8.108
809.35	0.000
809.65	5.357
809.95	6.780
810.26	-14.286
810.56	0.000
810.86	0.000
811.17	-16.216
811.47	-44.444
811.77	0.000
812.08	-13.636
812.38	-45.833
812.69	2.564
812.99	21.429
813.29	39.130
813.59	-5.714
813.90	-2.381
814.20	-18.182
814.50	6.122
814.81	-7.843
815.11	-6.250
815.41	12.195
815.72	-26.923
816.02	14.894
816.32	6.250
816.62	-12.121
816.93	-42.424
817.23	16.216
817.53	2.941
817.84	17.500
818.14	-32.353
818.44	15.625
818.74	-76.190
819.04	-25.714
819.35	5.714
819.65	20.455
819.95	-7.692
820.25	-61.111
820.56	-24.138
820.86	-50.000
821.16	-17.391
821.46	-4.762
821.76	7.407
822.07	13.043
822.37	-4.082
822.67	20.930
822.97	-4.348
823.27	-19.231
823.57	-18.519
823.88	7.143
824.18	-30.769
824.48	-14.286
824.78	27.273
825.08	-100.000
825.38	0.000
825.69	-83.333
825.99	-3.704
826.29	8.889
826.59	-37.037
826.89	3.704
827.19	0.000
827.49	-18.182
827.79	-59.091
828.09	-31.818
828.39	-17.391
828.70	-11.111
829.00	-21.429
829.30	16.667
829.60	19.355
829.90	-19.231
830.20	-17.949
830.50	-45.455
830.80	-14.286
831.10	-83.333
831.40	-78.571
831.70	-22.222
832.00	17.647
832.30	-26.087
832.60	-33.333
832.90	-127.273
833.20	-16.667
833.50	15.625
833.80	-3.846
834.10	44.000
834.40	20.833
834.70	-22.727
835.00	11.538
835.30	-5.000
835.60	-160.000
835.90	0.000
836.20	35.714
836.50	21.739
836.80	-88.889
837.10	20.000
837.40	-170.000
837.70	-17.391
838.00	-92.857
838.30	1800.000
838.60	40.000
838.90	-340.000
839.19	-66.667
839.49	-950.000
839.79	-35.294
840.09	-133.333
840.39	-7.143
840.69	-55.556
840.99	8.333
841.29	-20.690
841.59	-46.667
841.88	-72.727
842.18	-183.333
842.48	18.750
842.78	-3.846
843.08	-52.941
843.38	-70.000
843.68	-61.538
843.97	-88.235
844.27	-40.000
844.57	20.833
844.87	-18.182
845.17	-42.105
845.47	-50.000
845.76	11.111
846.06	-66.667
846.36	-57.143
846.66	-155.556
846.96	20.000
847.25	-280.000
847.55	-162.500
847.85	6.667
848.15	-350.000
848.44	-63.158
848.74	-13.333
849.04	-5.263
849.34	-200.000
849.63	-133.333
849.93	52.941
850.23	-100.000
850.53	-500.000
850.82	-100.000
851.12	-144.444
851.42	0.000
851.71	-60.000
852.01	-42.857
852.31	-233.333
852.61	-15.385
852.90	-180.000
853.20	-244.444
853.50	-100.000
853.79	-20.000
854.09	-50.000
854.39	-63.158
854.68	-25.000
854.98	-350.000
855.28	-27.778
855.57	-150.000
855.87	5.263
856.17	-31.250
856.46	-7.692
856.76	-13.333
857.05	-62.500
857.35	4.167
857.65	-55.556
857.94	-87.500
858.24	-21.739
858.53	-30.000
858.83	-400.000
859.13	-181.818
859.42	-150.000
859.72	66.667
860.01	15.385
860.31	-80.000
860.60	-312.500
860.90	-200.000
861.20	-233.333
861.49	-400.000
861.79	150.000
862.08	41.935
862.38	-73.684
862.67	23.077
862.97	-110.000
863.26	-66.667
863.56	0.000
863.85	-150.000
864.15	-21.429
864.44	-75.000
864.74	-108.333
865.03	-66.667
865.33	-433.333
865.62	-600.000
865.92	-450.000
866.21	-250.000
866.51	27.273
866.80	-433.333
867.10	-85.714
867.39	0.000
867.69	-50.000
867.98	140.000
868.27	-225.000
868.57	275.000
868.86	-13.333
869.16	-84.615
869.45	800.000
869.75	-66.667
870.04	-125.000
870.33	0.000
870.63	-114.286
870.92	65.217
871.22	-87.500
871.51	500.000
871.80	-18.750
872.10	-133.333
>>>>>End Processed Spectral Data<<<<<
