SpectraSuite Data File
++++++++++++++++++++++++++++++++++++
Date: Wed May 13 19:31:44 PDT 2015
User: schluterlab
Dark Spectrum Present: Yes
Reference Spectrum Present: Yes
Number of Sampled Component Spectra: 1
Spectrometers: USB2E3373
Integration Time (usec): 3000 (USB2E3373)
Spectra Averaged: 3 (USB2E3373)
Boxcar Smoothing: 0 (USB2E3373)
Correct for Electrical Dark: No (USB2E3373)
Strobe/Lamp Enabled: No (USB2E3373)
Correct for Detector Non-linearity: No (USB2E3373)
Correct for Stray Light: No (USB2E3373)
Number of Pixels in Processed Spectrum: 2048
>>>>>Begin Processed Spectral Data<<<<<
178.53	0.000
178.91	-1450.000
179.29	-1375.000
179.67	-261.111
180.04	-1300.000
180.42	2900.000
180.80	1080.000
181.18	-1225.000
181.56	742.857
181.94	0.000
182.31	-757.143
182.69	1900.000
183.07	-650.000
183.45	-566.667
183.83	554.545
184.20	-350.000
184.58	3000.000
184.96	5600.000
185.34	-1160.000
185.72	-725.000
186.09	-2650.000
186.47	2600.000
186.85	2700.000
187.23	5600.000
187.61	-1733.333
187.98	1250.000
188.36	590.909
188.74	527.273
189.12	-1000.000
189.49	550.000
189.87	-4600.000
190.25	-1200.000
190.63	421.429
191.00	415.385
191.38	966.667
191.76	-1225.000
192.14	1525.000
192.51	662.500
192.89	916.667
193.27	562.500
193.65	-1300.000
194.02	540.000
194.40	1060.000
194.78	590.000
195.15	525.000
195.53	740.000
195.91	-2200.000
196.29	368.750
196.66	315.789
197.04	-510.000
197.42	0.000
197.79	680.000
198.17	-5100.000
198.55	600.000
198.92	675.000
199.30	1020.000
199.68	0.000
200.05	383.333
200.43	771.429
200.81	5600.000
201.18	1400.000
201.56	-1366.667
201.94	566.667
202.31	766.667
202.69	425.000
203.07	570.000
203.44	0.000
203.82	1300.000
204.19	771.429
204.57	471.429
204.95	612.500
205.32	1766.667
205.70	509.091
206.08	435.714
206.45	2850.000
206.83	406.250
207.20	1033.333
207.58	740.000
207.96	372.222
208.33	850.000
208.71	-783.333
209.08	857.143
209.46	600.000
209.84	490.909
210.21	-1600.000
210.59	1375.000
210.96	-612.500
211.34	2500.000
211.71	620.000
212.09	866.667
212.46	0.000
212.84	1866.667
213.22	1400.000
213.59	-5100.000
213.97	883.333
214.34	871.429
214.72	645.455
215.09	940.000
215.47	-2300.000
215.84	-2700.000
216.22	1466.667
216.59	400.000
216.97	1550.000
217.34	500.000
217.72	-783.333
218.09	0.000
218.47	-4800.000
218.84	711.111
219.22	857.143
219.59	1500.000
219.97	-700.000
220.34	960.000
220.72	-2000.000
221.09	400.000
221.47	1300.000
221.84	-1033.333
222.22	0.000
222.59	1475.000
222.97	-3300.000
223.34	1020.000
223.72	469.231
224.09	1220.000
224.46	2100.000
224.84	-6100.000
225.21	-980.000
225.59	-6100.000
225.96	590.000
226.34	320.000
226.71	2650.000
227.08	687.500
227.46	540.000
227.83	-1050.000
228.21	-2550.000
228.58	588.889
228.95	-2100.000
229.33	-2350.000
229.70	1833.333
230.08	857.143
230.45	-1060.000
230.82	466.667
231.20	916.667
231.57	614.286
231.95	516.667
232.32	254.545
232.69	481.818
233.07	614.286
233.44	338.462
233.81	-1866.667
234.19	284.211
234.56	500.000
234.93	350.000
235.31	545.455
235.68	353.846
236.05	414.286
236.43	181.818
236.80	326.316
237.17	4500.000
237.55	271.429
237.92	235.714
238.29	295.238
238.67	235.484
239.04	248.276
239.41	191.667
239.79	158.696
240.16	169.048
240.53	172.727
240.91	125.490
241.28	150.000
241.65	136.000
242.02	124.638
242.40	101.613
242.77	115.000
243.14	105.376
243.51	100.000
243.89	97.647
244.26	100.000
244.63	91.398
245.00	92.553
245.38	92.079
245.75	85.981
246.12	78.899
246.49	79.562
246.87	95.200
247.24	87.692
247.61	81.429
247.98	80.392
248.36	75.000
248.73	73.248
249.10	70.064
249.47	73.446
249.84	74.866
250.22	67.914
250.59	69.231
250.96	66.667
251.33	74.408
251.70	71.287
252.08	64.286
252.45	62.780
252.82	61.304
253.19	67.660
253.56	62.353
253.94	64.730
254.31	63.672
254.68	65.769
255.05	62.362
255.42	63.821
255.79	59.926
256.16	62.455
256.54	55.124
256.91	56.940
257.28	56.475
257.65	58.746
258.02	56.522
258.39	56.467
258.76	55.184
259.14	57.440
259.51	54.711
259.88	56.832
260.25	55.891
260.62	53.757
260.99	58.696
261.36	57.958
261.73	52.722
262.10	56.105
262.47	59.718
262.85	52.925
263.22	51.282
263.59	54.701
263.96	56.593
264.33	54.047
264.70	53.421
265.07	50.128
265.44	54.798
265.81	50.365
266.18	55.025
266.55	53.415
266.92	53.563
267.29	53.009
267.66	50.229
268.03	52.500
268.40	51.869
268.77	48.926
269.14	49.550
269.51	51.693
269.88	50.117
270.25	49.887
270.62	52.584
270.99	52.688
271.36	47.425
271.73	52.103
272.10	50.000
272.47	49.892
272.84	48.918
273.21	47.589
273.58	47.817
273.95	45.702
274.32	48.967
274.69	49.679
275.06	49.409
275.43	48.298
275.80	47.495
276.17	47.658
276.54	48.649
276.91	50.000
277.28	44.336
277.65	48.743
278.02	50.725
278.39	49.609
278.76	49.636
279.13	49.811
279.50	47.486
279.87	49.203
280.23	50.299
280.60	46.809
280.97	45.656
281.34	49.558
281.71	47.273
282.08	46.833
282.45	46.182
282.82	44.405
283.19	43.316
283.56	46.842
283.92	47.716
284.29	43.739
284.66	46.279
285.03	43.580
285.40	42.254
285.77	47.980
286.14	45.769
286.51	43.833
286.87	44.786
287.24	45.603
287.61	42.376
287.98	42.857
288.35	42.948
288.72	42.523
289.08	42.410
289.45	43.163
289.82	43.902
290.19	40.031
290.56	42.113
290.93	37.462
291.29	42.331
291.66	40.265
292.03	41.424
292.40	41.410
292.77	40.385
293.13	37.313
293.50	39.942
293.87	39.704
294.24	38.222
294.60	39.592
294.97	37.500
295.34	38.928
295.71	37.784
296.08	37.464
296.44	36.726
296.81	37.120
297.18	38.211
297.55	33.773
297.91	36.807
298.28	36.948
298.65	36.815
299.02	36.891
299.38	36.653
299.75	33.288
300.12	35.377
300.48	33.000
300.85	32.676
301.22	32.484
301.59	34.217
301.95	34.635
302.32	34.531
302.69	34.050
303.05	34.182
303.42	33.827
303.79	32.843
304.15	32.401
304.52	32.097
304.89	31.475
305.25	32.251
305.62	32.843
305.99	32.704
306.35	33.669
306.72	31.726
307.09	32.741
307.45	31.982
307.82	31.250
308.19	31.567
308.55	33.225
308.92	31.579
309.29	31.890
309.65	31.389
310.02	30.550
310.38	31.935
310.75	31.257
311.12	32.549
311.48	31.870
311.85	31.866
312.22	31.113
312.58	32.121
312.95	31.573
313.31	29.223
313.68	31.913
314.05	31.657
314.41	30.955
314.78	30.514
315.14	31.281
315.51	30.793
315.87	30.792
316.24	29.791
316.61	30.312
316.97	29.648
317.34	28.376
317.70	30.497
318.07	29.355
318.43	31.409
318.80	30.740
319.16	30.603
319.53	28.424
319.89	30.952
320.26	30.900
320.62	30.853
320.99	31.111
321.35	31.111
321.72	29.979
322.08	30.898
322.45	32.040
322.81	30.136
323.18	31.985
323.54	30.056
323.91	30.094
324.27	30.593
324.64	29.264
325.00	29.396
325.37	29.663
325.73	30.790
326.10	29.303
326.46	29.749
326.83	29.681
327.19	30.145
327.56	29.007
327.92	30.359
328.29	30.790
328.65	30.295
329.01	27.617
329.38	30.342
329.74	28.532
330.11	28.841
330.47	30.579
330.84	29.504
331.20	27.778
331.56	29.817
331.93	29.630
332.29	29.636
332.66	28.850
333.02	27.697
333.38	29.359
333.75	29.412
334.11	30.160
334.48	29.104
334.84	29.412
335.20	29.364
335.57	28.377
335.93	27.500
336.29	28.571
336.66	28.674
337.02	28.597
337.38	29.074
337.75	27.807
338.11	28.290
338.47	28.177
338.84	28.873
339.20	27.982
339.56	29.927
339.93	27.364
340.29	28.261
340.65	27.718
341.02	27.661
341.38	27.847
341.74	28.947
342.11	27.424
342.47	28.722
342.83	27.140
343.20	28.571
343.56	27.548
343.92	26.930
344.28	27.466
344.65	27.601
345.01	27.778
345.37	26.844
345.73	27.073
346.10	27.195
346.46	26.695
346.82	28.007
347.19	26.817
347.55	25.616
347.91	27.670
348.27	27.691
348.63	26.589
349.00	26.861
349.36	27.422
349.72	26.704
350.08	25.770
350.45	26.932
350.81	26.320
351.17	26.256
351.53	26.699
351.89	25.578
352.26	27.624
352.62	26.223
352.98	26.742
353.34	26.376
353.70	24.877
354.07	26.290
354.43	26.746
354.79	25.503
355.15	25.060
355.51	27.018
355.87	27.102
356.24	25.733
356.60	26.945
356.96	26.307
357.32	26.574
357.68	26.063
358.04	25.970
358.40	25.732
358.77	25.274
359.13	24.862
359.49	25.490
359.85	24.683
360.21	25.439
360.57	25.525
360.93	25.308
361.29	25.624
361.66	25.387
362.02	25.672
362.38	25.703
362.74	25.893
363.10	24.722
363.46	24.798
363.82	25.397
364.18	24.596
364.54	25.854
364.90	25.992
365.26	24.779
365.62	25.347
365.98	24.909
366.35	24.355
366.71	25.163
367.07	24.035
367.43	24.383
367.79	25.054
368.15	26.293
368.51	24.564
368.87	25.125
369.23	25.311
369.59	25.127
369.95	24.632
370.31	24.501
370.67	23.696
371.03	25.393
371.39	24.125
371.75	24.926
372.11	23.115
372.47	24.780
372.83	25.144
373.19	24.494
373.55	24.242
373.91	25.626
374.27	23.918
374.63	24.000
374.99	24.576
375.35	23.726
375.71	24.195
376.07	25.103
376.42	24.484
376.78	24.188
377.14	23.270
377.50	24.437
377.86	23.271
378.22	24.652
378.58	23.434
378.94	23.004
379.30	23.092
379.66	23.477
380.02	24.201
380.38	23.740
380.74	23.349
381.09	23.655
381.45	23.602
381.81	23.280
382.17	24.204
382.53	23.648
382.89	23.148
383.25	23.327
383.61	22.986
383.97	22.577
384.32	24.142
384.68	22.429
385.04	23.602
385.40	23.220
385.76	23.587
386.12	23.510
386.48	24.040
386.83	23.477
387.19	24.428
387.55	23.377
387.91	22.672
388.27	22.563
388.62	23.417
388.98	23.219
389.34	23.342
389.70	23.360
390.06	23.954
390.42	23.411
390.77	22.646
391.13	23.357
391.49	23.477
391.85	22.788
392.20	21.640
392.56	22.348
392.92	23.072
393.28	21.420
393.64	23.201
393.99	23.213
394.35	22.457
394.71	22.773
395.07	22.181
395.42	22.744
395.78	22.964
396.14	22.160
396.50	23.308
396.85	22.378
397.21	22.873
397.57	23.001
397.92	22.837
398.28	21.917
398.64	23.059
399.00	21.936
399.35	22.109
399.71	23.090
400.07	21.999
400.42	23.067
400.78	22.618
401.14	22.195
401.49	21.851
401.85	21.900
402.21	21.916
402.57	22.147
402.92	21.942
403.28	22.174
403.63	22.587
403.99	22.102
404.35	22.545
404.70	21.583
405.06	22.132
405.42	22.832
405.77	21.086
406.13	21.445
406.49	22.354
406.84	22.150
407.20	21.631
407.55	22.846
407.91	22.267
408.27	22.017
408.62	21.011
408.98	21.752
409.34	22.386
409.69	22.839
410.05	22.181
410.40	21.346
410.76	21.804
411.11	21.894
411.47	21.789
411.83	22.847
412.18	21.954
412.54	21.233
412.89	22.410
413.25	21.783
413.60	21.865
413.96	21.433
414.31	22.296
414.67	22.624
415.03	22.384
415.38	22.616
415.74	21.736
416.09	21.620
416.45	22.691
416.80	22.009
417.16	22.587
417.51	22.960
417.87	21.580
418.22	21.767
418.58	22.983
418.93	22.604
419.29	21.897
419.64	22.796
420.00	22.134
420.35	22.029
420.71	22.355
421.06	21.539
421.42	21.170
421.77	21.861
422.12	21.842
422.48	20.939
422.83	22.423
423.19	21.823
423.54	21.706
423.90	22.029
424.25	20.994
424.61	21.369
424.96	21.224
425.31	21.595
425.67	21.067
426.02	21.314
426.38	23.260
426.73	21.767
427.09	21.884
427.44	21.219
427.79	21.507
428.15	21.548
428.50	21.533
428.85	22.765
429.21	20.983
429.56	21.617
429.92	21.238
430.27	20.854
430.62	21.198
430.98	21.277
431.33	20.567
431.68	21.728
432.04	21.086
432.39	21.188
432.74	21.843
433.10	21.845
433.45	22.274
433.80	21.397
434.16	21.581
434.51	21.526
434.86	21.380
435.22	21.345
435.57	22.128
435.92	21.240
436.28	21.590
436.63	22.185
436.98	21.981
437.34	21.646
437.69	22.345
438.04	21.529
438.39	22.149
438.75	22.545
439.10	22.235
439.45	21.665
439.81	22.054
440.16	21.626
440.51	21.500
440.86	21.714
441.22	21.524
441.57	21.815
441.92	21.955
442.27	21.959
442.63	21.696
442.98	22.197
443.33	21.522
443.68	21.890
444.03	21.620
444.39	20.691
444.74	21.591
445.09	21.348
445.44	22.034
445.79	21.969
446.15	22.075
446.50	21.756
446.85	21.069
447.20	21.061
447.55	22.055
447.91	21.953
448.26	21.647
448.61	21.820
448.96	21.262
449.31	21.541
449.66	21.103
450.02	21.114
450.37	21.145
450.72	21.151
451.07	20.841
451.42	21.581
451.77	22.079
452.12	21.536
452.47	22.077
452.83	22.086
453.18	21.577
453.53	22.140
453.88	21.146
454.23	21.339
454.58	22.047
454.93	22.823
455.28	21.322
455.63	21.481
455.98	22.917
456.34	21.482
456.69	22.354
457.04	21.672
457.39	21.917
457.74	21.938
458.09	21.507
458.44	21.893
458.79	21.312
459.14	21.727
459.49	21.950
459.84	21.994
460.19	21.567
460.54	21.181
460.89	22.381
461.24	22.040
461.59	22.196
461.94	22.010
462.29	22.315
462.64	21.251
462.99	21.535
463.34	21.533
463.69	21.701
464.04	21.971
464.39	21.623
464.74	22.400
465.09	20.808
465.44	21.662
465.79	21.532
466.14	21.565
466.49	21.691
466.84	22.650
467.19	22.028
467.54	22.062
467.89	21.729
468.24	22.106
468.59	22.100
468.94	20.709
469.29	21.787
469.64	22.423
469.99	22.869
470.34	22.853
470.68	22.917
471.03	21.701
471.38	21.751
471.73	22.851
472.08	22.961
472.43	22.299
472.78	22.581
473.13	22.208
473.48	22.784
473.83	22.134
474.17	22.962
474.52	22.643
474.87	23.001
475.22	22.287
475.57	21.548
475.92	21.721
476.27	21.702
476.61	22.008
476.96	21.880
477.31	21.926
477.66	22.101
478.01	20.962
478.36	21.946
478.70	20.820
479.05	22.045
479.40	21.750
479.75	21.454
480.10	21.521
480.45	21.514
480.79	20.784
481.14	21.086
481.49	21.357
481.84	21.948
482.19	20.900
482.53	21.330
482.88	21.498
483.23	21.308
483.58	21.110
483.92	21.087
484.27	20.566
484.62	20.474
484.97	20.418
485.31	21.164
485.66	20.649
486.01	19.418
486.36	19.256
486.70	18.411
487.05	19.553
487.40	18.999
487.75	19.715
488.09	19.776
488.44	19.546
488.79	20.398
489.13	20.397
489.48	20.432
489.83	20.328
490.17	21.175
490.52	20.638
490.87	20.534
491.22	20.873
491.56	20.364
491.91	21.033
492.26	20.992
492.60	21.152
492.95	20.486
493.30	21.308
493.64	20.625
493.99	20.845
494.34	21.739
494.68	20.696
495.03	21.945
495.37	20.289
495.72	21.004
496.07	21.671
496.41	21.195
496.76	20.844
497.11	20.801
497.45	20.773
497.80	20.729
498.14	20.676
498.49	21.561
498.84	20.757
499.18	21.286
499.53	20.750
499.87	20.084
500.22	21.055
500.56	20.971
500.91	20.817
501.26	21.147
501.60	21.595
501.95	21.402
502.29	20.665
502.64	21.322
502.98	20.711
503.33	20.521
503.67	20.928
504.02	21.188
504.36	20.496
504.71	21.690
505.06	21.542
505.40	20.467
505.75	20.540
506.09	20.262
506.44	20.375
506.78	20.945
507.13	21.100
507.47	21.717
507.82	21.935
508.16	21.631
508.51	21.715
508.85	20.804
509.19	21.122
509.54	21.531
509.88	21.020
510.23	21.337
510.57	22.033
510.92	22.216
511.26	21.326
511.61	21.473
511.95	21.555
512.30	21.209
512.64	21.279
512.98	22.240
513.33	22.002
513.67	20.864
514.02	20.563
514.36	22.501
514.70	22.247
515.05	21.528
515.39	21.537
515.74	21.847
516.08	22.415
516.42	21.809
516.77	21.906
517.11	21.143
517.46	21.445
517.80	22.184
518.14	21.598
518.49	22.754
518.83	22.841
519.17	21.247
519.52	22.354
519.86	21.791
520.20	22.601
520.55	22.262
520.89	22.141
521.23	21.713
521.58	22.329
521.92	22.903
522.26	21.660
522.61	22.866
522.95	22.038
523.29	22.215
523.64	22.744
523.98	22.551
524.32	22.376
524.66	22.369
525.01	22.365
525.35	21.623
525.69	22.475
526.04	21.931
526.38	22.514
526.72	22.454
527.06	22.724
527.41	20.483
527.75	22.701
528.09	22.800
528.43	23.263
528.78	23.171
529.12	22.121
529.46	22.719
529.80	22.772
530.15	22.866
530.49	21.969
530.83	21.835
531.17	22.585
531.51	23.411
531.86	22.903
532.20	22.621
532.54	23.575
532.88	22.850
533.22	21.799
533.57	22.654
533.91	21.674
534.25	22.296
534.59	22.819
534.93	22.308
535.27	22.450
535.62	21.734
535.96	22.536
536.30	22.568
536.64	22.795
536.98	22.495
537.32	22.317
537.66	22.600
538.01	23.305
538.35	23.335
538.69	23.293
539.03	21.832
539.37	22.428
539.71	21.646
540.05	22.876
540.39	22.791
540.73	22.510
541.07	23.621
541.42	22.831
541.76	22.194
542.10	23.157
542.44	23.179
542.78	23.781
543.12	22.073
543.46	22.951
543.80	22.642
544.14	21.759
544.48	22.159
544.82	22.386
545.16	22.056
545.50	22.622
545.84	22.984
546.18	22.626
546.52	23.125
546.86	22.405
547.20	22.994
547.54	22.645
547.88	22.577
548.22	22.478
548.56	22.138
548.90	22.279
549.24	22.559
549.58	23.397
549.92	22.665
550.26	23.366
550.60	22.822
550.94	23.099
551.28	22.238
551.62	23.293
551.96	21.614
552.30	23.481
552.64	23.867
552.98	21.695
553.32	22.454
553.66	23.586
554.00	23.198
554.34	23.533
554.68	23.391
555.02	22.708
555.36	22.338
555.69	22.869
556.03	22.207
556.37	23.397
556.71	22.169
557.05	23.529
557.39	22.533
557.73	22.442
558.07	23.640
558.41	21.708
558.75	23.365
559.08	22.819
559.42	22.978
559.76	23.529
560.10	22.413
560.44	22.711
560.78	22.422
561.12	23.219
561.45	22.425
561.79	21.885
562.13	22.602
562.47	23.019
562.81	22.524
563.15	22.876
563.48	22.878
563.82	22.896
564.16	22.564
564.50	21.484
564.84	22.377
565.17	22.136
565.51	22.556
565.85	21.891
566.19	21.666
566.52	22.609
566.86	22.122
567.20	22.465
567.54	21.575
567.88	21.510
568.21	22.222
568.55	21.183
568.89	21.790
569.23	21.257
569.56	20.202
569.90	20.642
570.24	20.524
570.57	20.775
570.91	20.136
571.25	20.105
571.59	19.853
571.92	19.700
572.26	20.306
572.60	19.640
572.93	20.000
573.27	20.497
573.61	19.989
573.95	20.103
574.28	19.497
574.62	19.922
574.96	19.307
575.29	19.302
575.63	19.080
575.97	19.344
576.30	19.172
576.64	19.586
576.98	19.349
577.31	19.547
577.65	19.826
577.98	19.461
578.32	18.983
578.66	19.161
578.99	20.132
579.33	19.293
579.67	19.290
580.00	19.252
580.34	19.625
580.67	19.026
581.01	19.541
581.35	19.697
581.68	19.639
582.02	19.486
582.35	19.168
582.69	19.538
583.02	19.293
583.36	19.622
583.70	20.005
584.03	19.645
584.37	19.526
584.70	19.227
585.04	19.667
585.37	19.105
585.71	19.525
586.04	19.642
586.38	19.697
586.72	20.492
587.05	20.103
587.39	19.525
587.72	19.969
588.06	20.037
588.39	20.137
588.73	19.889
589.06	19.757
589.40	20.404
589.73	20.345
590.07	21.210
590.40	20.278
590.73	20.726
591.07	20.635
591.40	20.877
591.74	21.039
592.07	21.379
592.41	20.835
592.74	20.037
593.08	20.753
593.41	20.342
593.75	20.112
594.08	20.516
594.41	20.573
594.75	20.407
595.08	19.685
595.42	21.016
595.75	21.154
596.09	21.066
596.42	20.550
596.75	20.599
597.09	21.515
597.42	20.194
597.75	21.389
598.09	20.739
598.42	20.747
598.76	20.673
599.09	20.639
599.42	20.233
599.76	20.425
600.09	19.927
600.42	20.562
600.76	19.643
601.09	20.219
601.42	20.015
601.76	20.228
602.09	20.237
602.42	21.059
602.76	21.161
603.09	20.928
603.42	21.086
603.76	20.617
604.09	20.628
604.42	20.546
604.76	20.287
605.09	20.620
605.42	20.265
605.75	20.033
606.09	20.821
606.42	20.842
606.75	20.199
607.09	20.971
607.42	20.582
607.75	20.042
608.08	20.408
608.42	20.439
608.75	20.649
609.08	20.259
609.41	21.371
609.75	20.343
610.08	20.641
610.41	20.577
610.74	20.624
611.07	21.591
611.41	20.707
611.74	21.619
612.07	21.636
612.40	21.878
612.73	20.579
613.07	20.905
613.40	21.485
613.73	20.713
614.06	21.667
614.39	20.923
614.72	21.000
615.06	21.271
615.39	21.178
615.72	20.603
616.05	21.478
616.38	21.290
616.71	21.971
617.05	21.967
617.38	22.069
617.71	21.081
618.04	21.755
618.37	21.762
618.70	21.966
619.03	21.908
619.36	22.267
619.69	21.620
620.03	22.390
620.36	22.527
620.69	22.466
621.02	22.419
621.35	22.318
621.68	22.040
622.01	22.368
622.34	21.785
622.67	22.662
623.00	22.450
623.33	23.159
623.66	22.230
623.99	22.901
624.32	22.682
624.65	21.893
624.99	21.955
625.32	22.737
625.65	22.239
625.98	22.521
626.31	22.473
626.64	22.122
626.97	23.857
627.30	21.696
627.63	23.462
627.96	22.792
628.29	22.397
628.62	23.605
628.95	23.774
629.28	23.814
629.61	23.190
629.94	24.095
630.26	22.116
630.59	23.642
630.92	23.084
631.25	22.902
631.58	23.123
631.91	22.819
632.24	24.156
632.57	23.924
632.90	25.000
633.23	24.049
633.56	24.859
633.89	24.349
634.22	24.972
634.55	25.799
634.88	23.114
635.20	24.612
635.53	23.614
635.86	25.000
636.19	24.588
636.52	24.913
636.85	25.086
637.18	23.387
637.51	25.414
637.83	21.825
638.16	24.936
638.49	24.433
638.82	26.802
639.15	25.375
639.48	26.185
639.81	24.263
640.13	26.432
640.46	24.698
640.79	27.213
641.12	24.209
641.45	25.279
641.77	29.161
642.10	27.632
642.43	26.577
642.76	25.697
643.09	25.307
643.41	28.680
643.74	27.932
644.07	26.220
644.40	27.301
644.73	28.189
645.05	28.209
645.38	27.014
645.71	27.053
646.04	28.571
646.36	29.382
646.69	28.930
647.02	27.041
647.35	26.632
647.67	26.549
648.00	28.455
648.33	25.413
648.66	27.424
648.98	28.636
649.31	25.262
649.64	26.308
649.96	24.441
650.29	26.540
650.62	26.214
650.94	26.580
651.27	27.196
651.60	28.453
651.92	26.518
652.25	26.221
652.58	26.480
652.90	27.488
653.23	24.807
653.56	26.457
653.88	28.368
654.21	27.804
654.54	26.238
654.86	27.882
655.19	24.865
655.52	18.111
655.84	16.854
656.17	22.417
656.49	30.072
656.82	30.496
657.15	22.464
657.47	16.115
657.80	12.232
658.13	12.557
658.45	18.408
658.78	18.318
659.10	18.393
659.43	18.924
659.75	20.188
660.08	22.595
660.41	25.233
660.73	27.573
661.06	27.707
661.38	30.727
661.71	27.308
662.03	28.994
662.36	28.032
662.68	28.514
663.01	29.697
663.33	29.299
663.66	30.672
663.98	30.238
664.31	30.252
664.63	25.101
664.96	26.358
665.28	31.967
665.61	27.485
665.93	27.767
666.26	28.195
666.58	28.452
666.91	29.175
667.23	30.112
667.56	28.078
667.88	28.846
668.21	31.343
668.53	28.200
668.86	29.437
669.18	31.770
669.50	33.696
669.83	31.590
670.15	30.000
670.48	29.194
670.80	30.172
671.13	28.025
671.45	28.936
671.77	28.717
672.10	28.096
672.42	27.562
672.75	28.856
673.07	25.528
673.39	26.221
673.72	26.172
674.04	28.039
674.37	28.544
674.69	29.652
675.01	26.151
675.34	29.774
675.66	31.368
675.98	28.106
676.31	29.832
676.63	30.573
676.95	30.398
677.28	30.140
677.60	28.791
677.92	30.591
678.25	30.595
678.57	29.681
678.89	29.259
679.22	27.505
679.54	29.389
679.86	27.523
680.18	24.687
680.51	26.418
680.83	29.181
681.15	27.358
681.48	30.435
681.80	28.046
682.12	27.586
682.44	26.306
682.77	28.921
683.09	31.974
683.41	29.712
683.73	27.594
684.06	30.165
684.38	28.767
684.70	28.682
685.02	27.392
685.34	27.289
685.67	26.748
685.99	26.117
686.31	27.304
686.63	23.675
686.96	27.500
687.28	26.895
687.60	26.087
687.92	26.874
688.24	27.376
688.56	28.916
688.89	30.913
689.21	30.786
689.53	28.601
689.85	31.486
690.17	26.915
690.49	30.998
690.82	30.140
691.14	27.009
691.46	28.059
691.78	29.116
692.10	30.372
692.42	28.343
692.74	28.631
693.06	29.149
693.39	27.926
693.71	27.729
694.03	30.316
694.35	28.139
694.67	28.604
694.99	32.683
695.31	27.941
695.63	29.426
695.95	32.518
696.27	28.934
696.59	27.461
696.91	34.197
697.23	28.169
697.56	30.064
697.88	26.994
698.20	27.500
698.52	30.753
698.84	30.290
699.16	27.419
699.48	30.641
699.80	30.193
700.12	31.169
700.44	30.239
700.76	29.282
701.08	31.034
701.40	31.285
701.72	32.362
702.04	34.659
702.36	30.028
702.68	29.178
703.00	29.363
703.32	30.053
703.64	33.780
703.96	33.148
704.28	30.814
704.60	31.378
704.91	29.080
705.23	36.070
705.55	38.870
705.87	39.535
706.19	30.035
706.51	33.645
706.83	34.848
707.15	30.812
707.47	32.071
707.79	30.221
708.11	32.877
708.43	29.048
708.74	28.061
709.06	32.208
709.38	30.971
709.70	32.558
710.02	33.234
710.34	32.424
710.66	35.224
710.98	35.511
711.29	33.721
711.61	33.923
711.93	33.333
712.25	36.977
712.57	37.500
712.89	37.370
713.20	37.386
713.52	38.816
713.84	36.076
714.16	33.232
714.48	31.322
714.80	38.906
715.11	31.124
715.43	31.157
715.75	32.754
716.07	34.185
716.39	33.542
716.70	34.884
717.02	38.129
717.34	36.042
717.66	38.060
717.97	40.239
718.29	34.444
718.61	39.416
718.93	35.294
719.24	40.138
719.56	32.881
719.88	35.254
720.20	37.162
720.51	37.282
720.83	39.405
721.15	37.313
721.46	37.234
721.78	36.201
722.10	36.226
722.42	38.346
722.73	39.326
723.05	40.984
723.37	39.676
723.68	38.224
724.00	35.366
724.32	33.468
724.63	39.024
724.95	33.891
725.27	42.105
725.58	36.719
725.90	39.416
726.22	38.868
726.53	35.764
726.85	37.201
727.16	33.808
727.48	34.043
727.80	38.258
728.11	37.319
728.43	36.154
728.74	36.559
729.06	40.876
729.38	39.706
729.69	37.011
730.01	32.082
730.32	34.722
730.64	32.107
730.96	33.003
731.27	35.762
731.59	36.086
731.90	32.070
732.22	32.919
732.53	34.985
732.85	35.256
733.16	34.405
733.48	38.206
733.80	32.143
734.11	36.306
734.43	34.615
734.74	32.000
735.06	33.238
735.37	32.081
735.69	31.210
736.00	33.660
736.32	32.087
736.63	30.671
736.95	34.505
737.26	34.014
737.58	34.839
737.89	39.465
738.21	34.130
738.52	33.571
738.83	36.226
739.15	33.462
739.46	40.511
739.78	34.722
740.09	32.923
740.41	35.484
740.72	32.056
741.04	36.296
741.35	37.917
741.66	39.556
741.98	36.321
742.29	42.584
742.61	46.121
742.92	38.462
743.23	39.316
743.55	38.800
743.86	36.404
744.18	44.690
744.49	44.019
744.80	42.254
745.12	45.455
745.43	38.326
745.74	39.189
746.06	43.119
746.37	43.498
746.68	39.819
747.00	40.741
747.31	38.571
747.62	35.841
747.94	35.242
748.25	42.553
748.56	42.731
748.88	41.089
749.19	45.000
749.50	39.070
749.82	37.398
750.13	38.776
750.44	34.307
750.75	32.982
751.07	37.299
751.38	40.418
751.69	36.462
752.01	39.850
752.32	33.574
752.63	37.234
752.94	39.754
753.26	45.200
753.57	33.333
753.88	36.719
754.19	35.714
754.51	37.153
754.82	35.379
755.13	34.340
755.44	39.474
755.75	38.321
756.07	33.333
756.38	34.307
756.69	39.597
757.00	32.934
757.31	32.047
757.63	31.287
757.94	31.903
758.25	30.147
758.56	28.889
758.87	32.258
759.18	36.970
759.50	33.542
759.81	31.153
760.12	34.687
760.43	34.957
760.74	33.967
761.05	32.768
761.36	29.144
761.67	35.511
761.99	34.161
762.30	32.986
762.61	38.550
762.92	35.547
763.23	36.975
763.54	37.200
763.85	36.719
764.16	39.615
764.47	39.163
764.78	33.216
765.10	32.595
765.41	32.743
765.72	32.036
766.03	33.542
766.34	32.000
766.65	40.000
766.96	36.752
767.27	40.102
767.58	45.312
767.89	51.053
768.20	45.977
768.51	44.670
768.82	43.119
769.13	35.366
769.44	38.866
769.75	39.914
770.06	36.697
770.37	44.344
770.68	48.148
770.99	43.556
771.30	36.885
771.61	40.807
771.92	38.525
772.23	44.538
772.54	43.077
772.85	44.503
773.16	49.468
773.47	41.304
773.78	50.254
774.09	42.857
774.39	47.953
774.70	50.617
775.01	55.072
775.32	56.209
775.63	44.737
775.94	48.921
776.25	60.630
776.56	59.701
776.87	53.279
777.18	60.938
777.48	59.542
777.79	56.818
778.10	62.963
778.41	64.286
778.72	48.905
779.03	57.718
779.34	48.322
779.65	47.973
779.95	53.988
780.26	54.902
780.57	59.310
780.88	61.719
781.19	58.647
781.50	53.378
781.80	57.233
782.11	45.763
782.42	40.506
782.73	55.215
783.04	48.649
783.34	52.113
783.65	65.753
783.96	56.716
784.27	55.245
784.57	43.885
784.88	50.926
785.19	59.524
785.50	57.547
785.81	60.448
786.11	57.377
786.42	60.465
786.73	62.832
787.04	60.377
787.34	58.036
787.65	65.000
787.96	65.766
788.26	54.545
788.57	54.237
788.88	72.727
789.19	63.194
789.49	65.152
789.80	58.779
790.11	75.238
790.41	65.347
790.72	67.470
791.03	81.522
791.33	74.419
791.64	81.443
791.95	75.248
792.25	74.444
792.56	88.312
792.87	82.051
793.17	91.139
793.48	81.609
793.79	79.310
794.09	75.000
794.40	62.185
794.70	58.824
795.01	57.037
795.32	56.115
795.62	57.480
795.93	67.241
796.23	63.717
796.54	77.647
796.85	85.135
797.15	104.225
797.46	86.364
797.76	83.133
798.07	87.342
798.37	76.923
798.68	87.879
798.99	77.465
799.29	90.909
799.60	78.409
799.90	84.932
800.21	110.448
800.51	94.828
800.82	117.544
801.12	98.361
801.43	109.091
801.73	81.081
802.04	101.587
802.34	86.420
802.65	101.563
802.95	84.746
803.26	101.563
803.56	82.857
803.87	96.923
804.17	91.176
804.48	153.704
804.78	113.793
805.09	86.765
805.39	113.462
805.70	82.143
806.00	113.115
806.30	103.030
806.61	80.488
806.91	78.481
807.22	88.158
807.52	77.612
807.83	88.732
808.13	106.250
808.43	95.000
808.74	77.632
809.04	113.043
809.35	100.000
809.65	97.368
809.95	114.516
810.26	100.000
810.56	106.349
810.86	152.273
811.17	152.381
811.47	121.667
811.77	109.259
812.08	109.091
812.38	128.000
812.69	122.222
812.99	145.455
813.29	110.204
813.59	111.905
813.90	144.898
814.20	105.455
814.50	87.692
814.81	104.412
815.11	120.408
815.41	106.557
815.72	138.095
816.02	109.091
816.32	119.048
816.62	102.500
816.93	134.146
817.23	157.143
817.53	138.636
817.84	160.606
818.14	130.435
818.44	133.333
818.74	150.000
819.04	135.000
819.35	160.000
819.65	188.235
819.95	171.429
820.25	255.000
820.56	164.103
820.86	154.545
821.16	125.581
821.46	135.897
821.76	120.000
822.07	160.000
822.37	147.500
822.67	163.636
822.97	115.686
823.27	210.714
823.57	162.162
823.88	172.500
824.18	186.667
824.48	154.762
824.78	220.000
825.08	195.833
825.38	162.162
825.69	141.463
825.99	237.500
826.29	200.000
826.59	150.000
826.89	186.842
827.19	155.882
827.49	187.097
827.79	186.364
828.09	138.636
828.39	138.298
828.70	122.449
829.00	181.481
829.30	183.871
829.60	132.500
829.90	320.000
830.20	228.571
830.50	230.435
830.80	208.696
831.10	233.333
831.40	156.667
831.70	221.739
832.00	253.846
832.30	229.630
832.60	343.750
832.90	186.667
833.20	442.857
833.50	196.774
833.80	189.655
834.10	200.000
834.40	234.615
834.70	272.222
835.00	285.714
835.30	182.857
835.60	400.000
835.90	206.897
836.20	328.571
836.50	196.552
836.80	152.000
837.10	216.667
837.40	238.095
837.70	358.824
838.00	229.630
838.30	238.095
838.60	323.810
838.90	207.692
839.19	240.000
839.49	378.571
839.79	320.000
840.09	280.000
840.39	295.238
840.69	247.826
840.99	305.556
841.29	430.000
841.59	333.333
841.88	318.750
842.18	189.655
842.48	285.714
842.78	203.333
843.08	252.174
843.38	171.875
843.68	916.667
843.97	230.769
844.27	186.207
844.57	266.667
844.87	337.500
845.17	225.926
845.47	1500.000
845.76	444.444
846.06	300.000
846.36	475.000
846.66	357.143
846.96	300.000
847.25	336.364
847.55	445.455
847.85	243.478
848.15	510.000
848.44	342.857
848.74	261.111
849.04	341.176
849.34	490.000
849.63	273.684
849.93	445.455
850.23	880.000
850.53	450.000
850.82	2450.000
851.12	-4300.000
851.42	5500.000
851.71	265.000
852.01	-1666.667
852.31	225.000
852.61	1866.667
852.90	238.095
853.20	252.000
853.50	405.882
853.79	276.190
854.09	208.333
854.39	318.750
854.68	194.595
854.98	203.226
855.28	183.333
855.57	217.241
855.87	222.222
856.17	252.632
856.46	293.333
856.76	311.765
857.05	186.207
857.35	245.833
857.65	326.667
857.94	252.174
858.24	246.154
858.53	300.000
858.83	286.364
859.13	326.667
859.42	0.000
859.72	633.333
860.01	554.545
860.31	304.545
860.60	352.632
860.90	221.739
861.20	588.889
861.49	483.333
861.79	-5200.000
862.08	625.000
862.38	261.905
862.67	330.769
862.97	341.176
863.26	566.667
863.56	316.667
863.85	391.667
864.15	637.500
864.44	433.333
864.74	883.333
865.03	687.500
865.33	300.000
865.62	436.364
865.92	392.308
866.21	450.000
866.51	0.000
866.80	463.636
867.10	1080.000
867.39	492.308
867.69	527.273
867.98	294.737
868.27	500.000
868.57	315.789
868.86	-3800.000
869.16	318.750
869.45	2400.000
869.75	-4400.000
870.04	491.667
870.33	671.429
870.63	1325.000
870.92	2800.000
871.22	742.857
871.51	382.353
871.80	285.714
872.10	407.143
>>>>>End Processed Spectral Data<<<<<
