SpectraSuite Data File
++++++++++++++++++++++++++++++++++++
Date: Wed May 13 19:29:16 PDT 2015
User: schluterlab
Dark Spectrum Present: Yes
Reference Spectrum Present: Yes
Number of Sampled Component Spectra: 1
Spectrometers: USB2E3373
Integration Time (usec): 3000 (USB2E3373)
Spectra Averaged: 3 (USB2E3373)
Boxcar Smoothing: 0 (USB2E3373)
Correct for Electrical Dark: No (USB2E3373)
Strobe/Lamp Enabled: No (USB2E3373)
Correct for Detector Non-linearity: No (USB2E3373)
Correct for Stray Light: No (USB2E3373)
Number of Pixels in Processed Spectrum: 2048
>>>>>Begin Processed Spectral Data<<<<<
178.53	0.000
178.91	-1400.000
179.29	-1150.000
179.67	-227.778
180.04	-1200.000
180.42	2550.000
180.80	1040.000
181.18	-1225.000
181.56	714.286
181.94	0.000
182.31	-500.000
182.69	1666.667
183.07	-500.000
183.45	-511.111
183.83	609.091
184.20	-450.000
184.58	2600.000
184.96	5100.000
185.34	-1140.000
185.72	-612.500
186.09	-2450.000
186.47	2850.000
186.85	2650.000
187.23	5100.000
187.61	-1766.667
187.98	1250.000
188.36	554.545
188.74	563.636
189.12	-840.000
189.49	580.000
189.87	-5000.000
190.25	-1250.000
190.63	471.429
191.00	407.692
191.38	950.000
191.76	-1275.000
192.14	1550.000
192.51	612.500
192.89	883.333
193.27	637.500
193.65	-1375.000
194.02	610.000
194.40	900.000
194.78	670.000
195.15	475.000
195.53	730.000
195.91	-2550.000
196.29	368.750
196.66	326.316
197.04	-390.000
197.42	0.000
197.79	560.000
198.17	-5500.000
198.55	814.286
198.92	537.500
199.30	940.000
199.68	0.000
200.05	344.444
200.43	757.143
200.81	4600.000
201.18	1800.000
201.56	-1500.000
201.94	611.111
202.31	633.333
202.69	466.667
203.07	550.000
203.44	0.000
203.82	1125.000
204.19	814.286
204.57	564.286
204.95	650.000
205.32	1833.333
205.70	554.545
206.08	435.714
206.45	2650.000
206.83	450.000
207.20	883.333
207.58	700.000
207.96	300.000
208.33	700.000
208.71	-633.333
209.08	771.429
209.46	588.889
209.84	490.909
210.21	-1533.333
210.59	1500.000
210.96	-612.500
211.34	2500.000
211.71	630.000
212.09	950.000
212.46	0.000
212.84	1866.667
213.22	1300.000
213.59	-4200.000
213.97	983.333
214.34	885.714
214.72	581.818
215.09	1160.000
215.47	-2200.000
215.84	-2500.000
216.22	1666.667
216.59	407.143
216.97	1400.000
217.34	527.273
217.72	-816.667
218.09	0.000
218.47	-5600.000
218.84	800.000
219.22	828.571
219.59	1700.000
219.97	-671.429
220.34	1160.000
220.72	-1866.667
221.09	428.571
221.47	1375.000
221.84	-933.333
222.22	0.000
222.59	1450.000
222.97	-2600.000
223.34	1140.000
223.72	392.308
224.09	1120.000
224.46	2600.000
224.84	-5500.000
225.21	-1100.000
225.59	-4700.000
225.96	650.000
226.34	285.000
226.71	2800.000
227.08	762.500
227.46	550.000
227.83	-1050.000
228.21	-2350.000
228.58	588.889
228.95	-2650.000
229.33	-2850.000
229.70	1600.000
230.08	785.714
230.45	-940.000
230.82	458.333
231.20	866.667
231.57	700.000
231.95	466.667
232.32	245.455
232.69	445.455
233.07	628.571
233.44	400.000
233.81	-1700.000
234.19	384.211
234.56	400.000
234.93	408.333
235.31	509.091
235.68	361.538
236.05	342.857
236.43	190.909
236.80	268.421
237.17	4700.000
237.55	228.571
237.92	217.857
238.29	285.714
238.67	187.097
239.04	251.724
239.41	172.222
239.79	134.783
240.16	157.143
240.53	140.909
240.91	103.922
241.28	124.000
241.65	108.000
242.02	98.551
242.40	100.000
242.77	111.667
243.14	84.946
243.51	78.652
243.89	71.765
244.26	83.333
244.63	74.194
245.00	68.085
245.38	71.287
245.75	68.224
246.12	56.881
246.49	63.504
246.87	62.400
247.24	61.538
247.61	65.714
247.98	58.824
248.36	48.649
248.73	56.051
249.10	54.140
249.47	53.672
249.84	48.663
250.22	48.128
250.59	53.846
250.96	48.485
251.33	50.237
251.70	43.564
252.08	46.667
252.45	44.395
252.82	40.435
253.19	44.681
253.56	43.922
253.94	42.739
254.31	41.797
254.68	42.308
255.05	39.852
255.42	39.837
255.79	39.338
256.16	44.043
256.54	35.689
256.91	41.993
257.28	32.014
257.65	36.304
258.02	35.714
258.39	34.069
258.76	35.786
259.14	35.714
259.51	36.474
259.88	36.335
260.25	36.858
260.62	34.682
260.99	33.851
261.36	38.138
261.73	34.384
262.10	37.209
262.47	37.183
262.85	32.869
263.22	31.624
263.59	37.607
263.96	30.769
264.33	34.987
264.70	32.895
265.07	34.783
265.44	34.343
265.81	33.820
266.18	32.412
266.55	32.439
266.92	35.381
267.29	32.176
267.66	32.110
268.03	30.682
268.40	32.009
268.77	31.742
269.14	31.306
269.51	33.409
269.88	33.100
270.25	30.926
270.62	30.112
270.99	31.398
271.36	32.403
271.73	30.374
272.10	31.522
272.47	33.118
272.84	31.602
273.21	32.075
273.58	29.258
273.95	28.721
274.32	30.579
274.69	31.692
275.06	29.528
275.43	30.000
275.80	32.064
276.17	28.513
276.54	29.522
276.91	27.866
277.28	26.758
277.65	30.368
278.02	27.329
278.39	31.445
278.76	30.182
279.13	30.566
279.50	28.864
279.87	28.685
280.23	30.339
280.60	28.433
280.97	29.205
281.34	28.319
281.71	30.364
282.08	28.215
282.45	27.455
282.82	28.952
283.19	24.955
283.56	28.772
283.92	28.257
284.29	27.160
284.66	27.405
285.03	26.221
285.40	27.817
285.77	28.451
286.14	25.734
286.51	26.333
286.87	26.325
287.24	26.873
287.61	26.485
287.98	23.377
288.35	25.674
288.72	25.857
289.08	24.257
289.45	25.865
289.82	22.764
290.19	24.961
290.56	23.277
290.93	23.112
291.29	23.466
291.66	23.894
292.03	26.890
292.40	24.376
292.77	22.929
293.13	23.881
293.50	24.198
293.87	22.370
294.24	23.556
294.60	21.252
294.97	24.273
295.34	22.003
295.71	22.727
296.08	23.362
296.44	21.458
296.81	20.211
297.18	22.629
297.55	20.712
297.91	21.108
298.28	20.884
298.65	22.585
299.02	21.080
299.38	22.311
299.75	19.946
300.12	20.945
300.48	21.875
300.85	21.332
301.22	20.764
301.59	19.823
301.95	20.781
302.32	21.309
302.69	20.669
303.05	19.394
303.42	20.000
303.79	19.479
304.15	18.182
304.52	20.046
304.89	18.699
305.25	19.374
305.62	20.159
305.99	19.717
306.35	19.016
306.72	19.058
307.09	18.646
307.45	20.495
307.82	17.076
308.19	19.316
308.55	20.173
308.92	19.119
309.29	18.796
309.65	18.558
310.02	19.450
310.38	20.645
310.75	18.374
311.12	20.778
311.48	19.227
311.85	20.231
312.22	19.875
312.58	18.919
312.95	19.747
313.31	17.864
313.68	20.894
314.05	21.499
314.41	20.402
314.78	20.242
315.14	20.159
315.51	21.318
315.87	20.891
316.24	19.364
316.61	20.370
316.97	19.276
317.34	20.059
317.70	21.511
318.07	23.388
318.43	21.820
318.80	23.336
319.16	22.881
319.53	22.420
319.89	24.571
320.26	23.000
320.62	25.397
320.99	25.657
321.35	27.475
321.72	27.413
322.08	29.516
322.45	31.343
322.81	31.008
323.18	31.503
323.54	31.354
323.91	32.547
324.27	33.939
324.64	33.364
325.00	32.552
325.37	37.307
325.73	37.792
326.10	37.952
326.46	38.799
326.83	40.466
327.19	41.161
327.56	43.293
327.92	44.532
328.29	45.164
328.65	46.961
329.01	47.924
329.38	48.196
329.74	49.400
330.11	50.801
330.47	49.954
330.84	51.379
331.20	52.823
331.56	52.569
331.93	53.426
332.29	53.594
332.66	54.602
333.02	54.662
333.38	54.020
333.75	55.437
334.11	54.715
334.48	56.522
334.84	57.261
335.20	58.091
335.57	56.392
335.93	54.554
336.29	56.960
336.66	57.529
337.02	56.561
337.38	58.981
337.75	58.021
338.11	58.997
338.47	60.129
338.84	60.312
339.20	59.725
339.56	61.131
339.93	60.364
340.29	60.145
340.65	60.160
341.02	60.297
341.38	61.388
341.74	60.614
342.11	61.310
342.47	61.322
342.83	60.360
343.20	60.693
343.56	61.163
343.92	62.193
344.28	60.884
344.65	61.909
345.01	59.764
345.37	59.863
345.73	61.844
346.10	63.768
346.46	62.458
346.82	60.873
347.19	61.236
347.55	60.099
347.91	62.460
348.27	63.517
348.63	61.789
349.00	61.974
349.36	62.151
349.72	62.550
350.08	60.535
350.45	61.920
350.81	62.388
351.17	62.156
351.53	62.162
351.89	61.551
352.26	62.589
352.62	62.791
352.98	60.859
353.34	63.106
353.70	62.520
354.07	64.355
354.43	60.873
354.79	61.866
355.15	62.889
355.51	64.588
355.87	64.571
356.24	64.007
356.60	61.828
356.96	63.878
357.32	64.677
357.68	64.094
358.04	63.025
358.40	62.787
358.77	64.397
359.13	63.615
359.49	63.529
359.85	63.413
360.21	65.630
360.57	64.981
360.93	65.154
361.29	64.097
361.66	63.700
362.02	63.582
362.38	64.487
362.74	64.807
363.10	63.583
363.46	64.123
363.82	65.760
364.18	64.611
364.54	65.379
364.90	65.085
365.26	64.853
365.62	66.399
365.98	65.814
366.35	64.327
366.71	65.727
367.07	65.914
367.43	66.981
367.79	65.382
368.15	65.086
368.51	65.044
368.87	65.382
369.23	65.545
369.59	67.415
369.95	66.618
370.31	65.385
370.67	65.870
371.03	68.390
371.39	67.274
371.75	66.691
372.11	65.007
372.47	67.009
372.83	67.939
373.19	67.341
373.55	67.923
373.91	68.409
374.27	65.911
374.63	67.855
374.99	67.232
375.35	65.108
375.71	66.073
376.07	66.255
376.42	67.950
376.78	66.534
377.14	67.707
377.50	68.742
377.86	66.489
378.22	66.751
378.58	66.855
378.94	66.310
379.30	65.776
379.66	68.274
380.02	67.138
380.38	66.120
380.74	67.827
381.09	66.993
381.45	67.548
381.81	66.953
382.17	67.898
382.53	68.050
382.89	67.963
383.25	69.293
383.61	67.720
383.97	67.980
384.32	67.686
384.68	66.976
385.04	68.408
385.40	67.059
385.76	67.629
386.12	68.135
386.48	68.722
386.83	69.660
387.19	69.017
387.55	68.275
387.91	67.412
388.27	66.646
388.62	68.162
388.98	67.260
389.34	68.273
389.70	66.156
390.06	67.807
390.42	69.001
390.77	68.575
391.13	69.751
391.49	68.591
391.85	69.383
392.20	68.707
392.56	69.003
392.92	67.981
393.28	66.805
393.64	68.585
393.99	67.074
394.35	68.176
394.71	66.876
395.07	67.165
395.42	69.839
395.78	68.384
396.14	68.467
396.50	69.173
396.85	67.578
397.21	67.016
397.57	68.196
397.92	66.767
398.28	66.592
398.64	66.368
399.00	66.424
399.35	67.795
399.71	67.535
400.07	66.824
400.42	67.853
400.78	68.637
401.14	67.500
401.49	67.582
401.85	67.272
402.21	65.749
402.57	67.489
402.92	67.718
403.28	68.082
403.63	66.955
403.99	66.369
404.35	66.485
404.70	66.966
405.06	66.278
405.42	68.060
405.77	66.000
406.13	64.108
406.49	67.061
406.84	66.627
407.20	65.780
407.55	67.518
407.91	68.667
408.27	66.688
408.62	67.550
408.98	67.279
409.34	65.621
409.69	66.968
410.05	66.791
410.40	68.257
410.76	65.950
411.11	65.380
411.47	65.240
411.83	66.402
412.18	65.677
412.54	67.435
412.89	65.361
413.25	66.411
413.60	66.523
413.96	64.784
414.31	65.188
414.67	66.033
415.03	66.159
415.38	65.915
415.74	66.817
416.09	67.407
416.45	66.801
416.80	66.953
417.16	66.220
417.51	66.423
417.87	65.703
418.22	66.625
418.58	66.946
418.93	65.356
419.29	66.645
419.64	67.128
420.00	65.366
420.35	63.942
420.71	66.467
421.06	65.155
421.42	65.088
421.77	65.359
422.12	65.300
422.48	66.163
422.83	66.045
423.19	64.309
423.54	66.454
423.90	66.609
424.25	65.438
424.61	65.655
424.96	65.773
425.31	64.784
425.67	64.775
426.02	64.971
426.38	67.888
426.73	65.594
427.09	66.201
427.44	66.130
427.79	66.935
428.15	66.250
428.50	65.652
428.85	65.673
429.21	64.881
429.56	65.111
429.92	64.771
430.27	65.442
430.62	64.721
430.98	64.556
431.33	65.155
431.68	65.707
432.04	64.643
432.39	67.390
432.74	65.949
433.10	67.176
433.45	68.105
433.80	65.188
434.16	66.987
434.51	65.579
434.86	66.135
435.22	67.204
435.57	67.112
435.92	66.179
436.28	67.556
436.63	66.611
436.98	65.655
437.34	67.144
437.69	67.445
438.04	67.510
438.39	66.448
438.75	67.868
439.10	67.207
439.45	67.296
439.81	67.734
440.16	66.460
440.51	67.077
440.86	68.153
441.22	66.296
441.57	66.507
441.92	66.684
442.27	66.631
442.63	67.088
442.98	68.789
443.33	66.522
443.68	65.978
444.03	66.276
444.39	65.774
444.74	66.883
445.09	66.900
445.44	66.539
445.79	67.046
446.15	65.855
446.50	66.613
446.85	66.906
447.20	65.936
447.55	66.443
447.91	66.299
448.26	66.945
448.61	67.270
448.96	67.442
449.31	67.154
449.66	66.010
450.02	66.128
450.37	66.497
450.72	67.061
451.07	66.545
451.42	66.444
451.77	66.236
452.12	66.224
452.47	65.423
452.83	66.259
453.18	66.137
453.53	67.409
453.88	67.750
454.23	66.647
454.58	66.687
454.93	67.769
455.28	66.521
455.63	68.568
455.98	68.988
456.34	67.148
456.69	68.128
457.04	67.430
457.39	66.394
457.74	66.396
458.09	67.568
458.44	67.446
458.79	65.130
459.14	66.704
459.49	66.025
459.84	66.537
460.19	65.115
460.54	65.104
460.89	66.539
461.24	66.060
461.59	68.042
461.94	65.166
462.29	67.537
462.64	66.560
462.99	65.843
463.34	66.533
463.69	66.041
464.04	66.899
464.39	65.565
464.74	66.251
465.09	65.078
465.44	65.208
465.79	64.653
466.14	65.025
466.49	64.016
466.84	65.791
467.19	65.359
467.54	66.188
467.89	64.946
468.24	65.445
468.59	66.972
468.94	65.363
469.29	67.031
469.64	67.135
469.99	66.779
470.34	67.239
470.68	66.379
471.03	66.054
471.38	68.450
471.73	65.290
472.08	66.711
472.43	65.138
472.78	65.569
473.13	65.982
473.48	65.668
473.83	65.793
474.17	63.535
474.52	66.315
474.87	65.207
475.22	64.597
475.57	63.407
475.92	64.525
476.27	64.825
476.61	64.920
476.96	64.541
477.31	64.364
477.66	64.825
478.01	62.729
478.36	64.146
478.70	64.382
479.05	65.122
479.40	64.432
479.75	63.599
480.10	63.419
480.45	63.494
480.79	62.398
481.14	63.699
481.49	64.642
481.84	62.963
482.19	62.971
482.53	63.028
482.88	63.704
483.23	63.925
483.58	62.830
483.92	63.355
484.27	60.915
484.62	61.853
484.97	62.594
485.31	61.610
485.66	58.481
486.01	57.314
486.36	55.575
486.70	56.003
487.05	57.240
487.40	58.223
487.75	59.502
488.09	61.541
488.44	62.375
488.79	64.268
489.13	63.407
489.48	63.010
489.83	62.322
490.17	62.473
490.52	62.267
490.87	63.320
491.22	62.210
491.56	61.093
491.91	61.284
492.26	60.680
492.60	61.475
492.95	61.272
493.30	60.327
493.64	61.736
493.99	61.513
494.34	61.425
494.68	61.401
495.03	61.231
495.37	59.842
495.72	62.329
496.07	61.717
496.41	59.027
496.76	59.279
497.11	61.009
497.45	60.550
497.80	61.996
498.14	61.353
498.49	61.366
498.84	60.978
499.18	60.190
499.53	60.684
499.87	60.764
500.22	59.915
500.56	61.165
500.91	59.760
501.26	59.317
501.60	61.936
501.95	59.624
502.29	60.544
502.64	60.242
502.98	59.420
503.33	60.375
503.67	60.418
504.02	59.869
504.36	59.102
504.71	60.186
505.06	59.614
505.40	60.136
505.75	58.486
506.09	60.107
506.44	60.483
506.78	59.425
507.13	60.172
507.47	60.354
507.82	59.625
508.16	59.929
508.51	59.868
508.85	58.987
509.19	59.949
509.54	59.643
509.88	58.836
510.23	60.000
510.57	60.114
510.92	59.762
511.26	58.839
511.61	58.714
511.95	57.985
512.30	59.014
512.64	59.968
512.98	60.343
513.33	58.940
513.67	58.431
514.02	58.874
514.36	59.039
514.70	59.325
515.05	59.732
515.39	58.777
515.74	59.009
516.08	59.642
516.42	58.935
516.77	59.532
517.11	58.768
517.46	60.102
517.80	59.292
518.14	59.409
518.49	59.393
518.83	57.841
519.17	59.527
519.52	58.630
519.86	57.844
520.20	59.884
520.55	60.323
520.89	59.793
521.23	59.047
521.58	59.784
521.92	58.971
522.26	57.657
522.61	59.190
522.95	58.748
523.29	58.065
523.64	58.171
523.98	58.780
524.32	59.107
524.66	56.705
525.01	56.924
525.35	57.807
525.69	56.712
526.04	58.006
526.38	56.986
526.72	57.239
527.06	59.196
527.41	57.178
527.75	57.814
528.09	59.281
528.43	57.425
528.78	56.915
529.12	57.152
529.46	58.420
529.80	58.045
530.15	58.006
530.49	56.062
530.83	57.025
531.17	58.225
531.51	59.339
531.86	56.839
532.20	57.432
532.54	56.246
532.88	56.033
533.22	55.528
533.57	54.506
533.91	54.907
534.25	55.589
534.59	55.339
534.93	54.253
535.27	55.944
535.62	55.617
535.96	57.753
536.30	56.135
536.64	55.827
536.98	55.607
537.32	54.575
537.66	56.200
538.01	55.300
538.35	54.816
538.69	54.946
539.03	53.866
539.37	54.824
539.71	54.699
540.05	55.556
540.39	55.548
540.73	54.787
541.07	56.132
541.42	55.447
541.76	55.032
542.10	54.787
542.44	54.834
542.78	55.599
543.12	54.319
543.46	54.295
543.80	55.172
544.14	53.273
544.48	54.286
544.82	54.201
545.16	54.327
545.50	53.470
545.84	54.234
546.18	54.411
546.52	54.990
546.86	54.433
547.20	54.619
547.54	54.375
547.88	53.189
548.22	51.930
548.56	52.453
548.90	52.433
549.24	53.535
549.58	52.456
549.92	52.747
550.26	56.250
550.60	53.181
550.94	54.648
551.28	54.206
551.62	54.637
551.96	53.754
552.30	52.355
552.64	54.158
552.98	53.356
553.32	53.203
553.66	53.170
554.00	53.329
554.34	52.450
554.68	54.793
555.02	52.962
555.36	53.027
555.69	51.421
556.03	51.413
556.37	51.842
556.71	52.387
557.05	52.031
557.39	51.714
557.73	52.435
558.07	53.445
558.41	52.822
558.75	53.564
559.08	52.722
559.42	53.893
559.76	53.015
560.10	51.035
560.44	51.642
560.78	51.763
561.12	50.989
561.45	50.391
561.79	51.220
562.13	50.637
562.47	52.732
562.81	51.813
563.15	51.639
563.48	51.393
563.82	50.620
564.16	49.575
564.50	50.977
564.84	48.862
565.17	50.257
565.51	49.393
565.85	49.556
566.19	48.904
566.52	51.108
566.86	48.463
567.20	49.175
567.54	48.516
567.88	48.180
568.21	48.519
568.55	47.321
568.89	47.325
569.23	45.053
569.56	44.899
569.90	45.585
570.24	44.133
570.57	43.353
570.91	43.213
571.25	43.484
571.59	43.211
571.92	43.548
572.26	43.241
572.60	43.664
572.93	43.478
573.27	43.123
573.61	43.132
573.95	42.817
574.28	42.437
574.62	42.323
574.96	41.697
575.29	41.634
575.63	42.226
575.97	42.489
576.30	42.804
576.64	42.077
576.98	42.003
577.31	41.728
577.65	42.128
577.98	41.576
578.32	41.124
578.66	41.300
578.99	41.771
579.33	42.363
579.67	41.644
580.00	41.717
580.34	42.003
580.67	41.456
581.01	42.231
581.35	41.051
581.68	40.655
582.02	40.038
582.35	40.561
582.69	40.440
583.02	40.887
583.36	42.310
583.70	42.807
584.03	43.130
584.37	42.872
584.70	42.476
585.04	41.512
585.37	41.705
585.71	41.377
586.04	41.363
586.38	42.398
586.72	42.392
587.05	41.646
587.39	41.478
587.72	41.587
588.06	41.782
588.39	42.277
588.73	42.006
589.06	42.505
589.40	43.805
589.73	43.259
590.07	42.740
590.40	42.492
590.73	44.028
591.07	44.200
591.40	44.369
591.74	43.766
592.07	43.106
592.41	42.332
592.74	41.723
593.08	41.839
593.41	40.778
593.75	40.912
594.08	41.234
594.41	41.569
594.75	41.774
595.08	40.730
595.42	41.996
595.75	41.097
596.09	42.659
596.42	42.475
596.75	43.943
597.09	42.727
597.42	41.948
597.75	42.561
598.09	42.391
598.42	42.483
598.76	41.184
599.09	41.429
599.42	40.830
599.76	40.922
600.09	40.692
600.42	40.358
600.76	40.357
601.09	40.911
601.42	41.210
601.76	41.480
602.09	41.621
602.42	41.839
602.76	41.798
603.09	41.778
603.42	41.742
603.76	40.663
604.09	40.636
604.42	41.623
604.76	42.261
605.09	40.935
605.42	41.086
605.75	40.935
606.09	41.196
606.42	41.479
606.75	41.518
607.09	41.900
607.42	41.549
607.75	40.253
608.08	41.337
608.42	41.416
608.75	40.757
609.08	41.767
609.41	41.171
609.75	42.115
610.08	41.847
610.41	40.875
610.74	42.148
611.07	42.638
611.41	41.757
611.74	42.232
612.07	42.909
612.40	42.812
612.73	42.474
613.07	43.265
613.40	42.759
613.73	41.793
614.06	41.559
614.39	41.793
614.72	41.526
615.06	42.122
615.39	40.552
615.72	41.769
616.05	41.414
616.38	42.023
616.71	42.458
617.05	43.757
617.38	42.093
617.71	43.423
618.04	43.029
618.37	42.815
618.70	43.995
619.03	45.066
619.36	42.498
619.69	42.958
620.03	43.269
620.36	44.586
620.69	44.863
621.02	44.543
621.35	44.323
621.68	43.769
622.01	44.195
622.34	43.873
622.67	43.194
623.00	42.333
623.33	41.315
623.66	42.673
623.99	42.636
624.32	43.723
624.65	43.432
624.99	43.059
625.32	41.926
625.65	43.727
625.98	44.274
626.31	43.624
626.64	46.694
626.97	44.638
627.30	44.472
627.63	43.642
627.96	43.566
628.29	45.057
628.62	46.203
628.95	46.132
629.28	45.073
629.61	45.188
629.94	46.762
630.26	45.853
630.59	44.042
630.92	44.253
631.25	44.225
631.58	45.045
631.91	46.450
632.24	46.308
632.57	46.275
632.90	46.272
633.23	47.092
633.56	48.588
633.89	45.413
634.22	46.765
634.55	47.811
634.88	47.186
635.20	46.834
635.53	47.108
635.86	47.401
636.19	45.412
636.52	46.367
636.85	46.735
637.18	44.355
637.51	45.745
637.83	45.993
638.16	45.396
638.49	46.348
638.82	47.155
639.15	48.000
639.48	48.878
639.81	46.917
640.13	46.875
640.46	46.846
640.79	47.424
641.12	45.392
641.45	46.508
641.77	48.895
642.10	48.977
642.43	47.748
642.76	49.071
643.09	49.080
643.41	49.014
643.74	50.154
644.07	50.762
644.40	49.540
644.73	50.394
645.05	52.456
645.38	49.447
645.71	51.047
646.04	49.834
646.36	51.586
646.69	52.508
647.02	48.299
647.35	51.031
647.67	53.274
648.00	50.081
648.33	50.000
648.66	45.455
648.98	47.376
649.31	47.235
649.64	46.338
649.96	45.455
650.29	48.499
650.62	48.867
650.94	48.784
651.27	51.182
651.60	48.419
651.92	46.645
652.25	46.580
652.58	45.950
652.90	50.079
653.23	46.841
653.56	46.457
653.88	47.702
654.21	48.341
654.54	49.010
654.86	47.040
655.19	43.514
655.52	30.783
655.84	26.564
656.17	34.576
656.49	47.196
656.82	49.839
657.15	38.933
657.47	29.922
657.80	22.886
658.13	24.725
658.45	37.101
658.78	38.634
659.10	41.068
659.43	42.342
659.75	45.288
660.08	48.481
660.41	52.886
660.73	53.113
661.06	50.159
661.38	51.273
661.71	49.808
662.03	49.704
662.36	49.702
662.68	52.410
663.01	48.687
663.33	49.682
663.66	51.261
663.98	49.892
664.31	49.580
664.63	47.166
664.96	49.296
665.28	52.459
665.61	45.419
665.93	48.692
666.26	48.276
666.58	50.837
666.91	49.683
667.23	53.483
667.56	47.300
667.88	50.000
668.21	51.599
668.53	50.542
668.86	48.918
669.18	51.599
669.50	49.565
669.83	52.941
670.15	50.667
670.48	47.712
670.80	50.647
671.13	46.921
671.45	47.447
671.77	48.473
672.10	46.211
672.42	46.113
672.75	45.108
673.07	47.007
673.39	45.570
673.72	44.336
674.04	49.020
674.37	46.214
674.69	46.626
675.01	48.745
675.34	49.692
675.66	52.421
675.98	48.880
676.31	51.050
676.63	46.921
676.95	48.218
677.28	52.103
677.60	49.231
677.92	50.633
678.25	47.844
678.57	44.223
678.89	45.491
679.22	45.972
679.54	47.519
679.86	44.404
680.18	45.081
680.51	43.617
680.83	43.772
681.15	45.094
681.48	45.558
681.80	45.455
682.12	44.061
682.44	44.294
682.77	46.640
683.09	50.644
683.41	47.450
683.73	47.903
684.06	48.760
684.38	43.249
684.70	46.124
685.02	44.465
685.34	44.322
685.67	43.531
685.99	42.440
686.31	43.515
686.63	40.636
686.96	43.929
687.28	42.960
687.60	44.384
687.92	45.155
688.24	44.297
688.56	46.988
688.89	46.473
689.21	50.655
689.53	46.347
689.85	49.889
690.17	43.064
690.49	46.497
690.82	46.262
691.14	44.866
691.46	45.359
691.78	45.783
692.10	46.074
692.42	44.910
692.74	41.494
693.06	45.532
693.39	45.585
693.71	43.668
694.03	46.316
694.35	43.723
694.67	44.851
694.99	49.024
695.31	47.059
695.63	45.933
695.95	44.988
696.27	50.508
696.59	46.632
696.91	48.705
697.23	38.967
697.56	46.908
697.88	41.104
698.20	46.042
698.52	42.366
698.84	46.548
699.16	47.235
699.48	42.518
699.80	46.860
700.12	51.688
700.44	48.806
700.76	45.580
701.08	48.563
701.40	49.721
701.72	49.854
702.04	53.409
702.36	45.609
702.68	51.275
703.00	48.199
703.32	46.543
703.64	48.794
703.96	49.025
704.28	49.709
704.60	51.320
704.91	47.774
705.23	48.680
705.55	50.166
705.87	52.159
706.19	54.770
706.51	48.598
706.83	48.788
707.15	52.941
707.47	42.929
707.79	47.174
708.11	43.151
708.43	44.048
708.74	42.857
709.06	46.753
709.38	48.819
709.70	50.872
710.02	48.368
710.34	45.455
710.66	50.746
710.98	50.568
711.29	47.965
711.61	49.263
711.93	49.038
712.25	53.376
712.57	52.206
712.89	50.519
713.20	51.368
713.52	47.697
713.84	50.000
714.16	49.695
714.48	44.828
714.80	54.407
715.11	48.703
715.43	42.433
715.75	47.536
716.07	51.438
716.39	45.455
716.70	50.831
717.02	53.957
717.34	50.177
717.66	53.358
717.97	56.972
718.29	51.852
718.61	45.985
718.93	49.265
719.24	51.211
719.56	47.458
719.88	49.492
720.20	52.027
720.51	53.310
720.83	55.390
721.15	49.254
721.46	49.645
721.78	52.688
722.10	48.679
722.42	54.887
722.73	53.558
723.05	51.230
723.37	55.466
723.68	49.035
724.00	50.000
724.32	53.629
724.63	52.033
724.95	53.138
725.27	54.251
725.58	56.641
725.90	47.810
726.22	53.585
726.53	47.569
726.85	49.147
727.16	52.669
727.48	49.645
727.80	52.273
728.11	44.928
728.43	52.308
728.74	48.746
729.06	53.285
729.38	54.044
729.69	52.669
730.01	48.464
730.32	51.389
730.64	49.164
730.96	43.564
731.27	42.053
731.59	45.566
731.90	45.190
732.22	48.447
732.53	43.344
732.85	48.397
733.16	46.624
733.48	48.173
733.80	46.753
734.11	46.497
734.43	45.562
734.74	43.714
735.06	43.553
735.37	47.977
735.69	42.994
736.00	48.039
736.32	46.417
736.63	45.687
736.95	46.006
737.26	45.578
737.58	45.161
737.89	46.823
738.21	45.051
738.52	48.214
738.83	49.057
739.15	46.538
739.46	47.445
739.78	45.833
740.09	43.077
740.41	43.871
740.72	42.509
741.04	49.259
741.35	52.083
741.66	56.889
741.98	51.415
742.29	56.459
742.61	57.759
742.92	54.299
743.23	52.564
743.55	49.200
743.86	51.316
744.18	56.195
744.49	59.809
744.80	59.155
745.12	50.909
745.43	48.899
745.74	50.901
746.06	49.541
746.37	53.363
746.68	56.561
747.00	56.481
747.31	58.571
747.62	50.885
747.94	52.423
748.25	48.085
748.56	52.423
748.88	53.465
749.19	55.500
749.50	53.953
749.82	46.341
750.13	46.122
750.44	48.905
750.75	45.965
751.07	47.267
751.38	47.387
751.69	46.931
752.01	48.496
752.32	45.487
752.63	46.099
752.94	46.721
753.26	47.200
753.57	41.463
753.88	52.734
754.19	45.357
754.51	50.694
754.82	45.126
755.13	46.792
755.44	43.233
755.75	50.000
756.07	41.135
756.38	42.336
756.69	45.973
757.00	40.419
757.31	40.356
757.63	40.058
757.94	39.678
758.25	40.441
758.56	38.519
758.87	38.978
759.18	41.818
759.50	42.320
759.81	43.614
760.12	40.000
760.43	44.699
760.74	38.587
761.05	43.785
761.36	41.979
761.67	46.591
761.99	41.304
762.30	49.653
762.61	43.130
762.92	46.875
763.23	47.899
763.54	53.200
763.85	45.312
764.16	49.231
764.47	48.669
764.78	42.403
765.10	39.557
765.41	41.888
765.72	43.713
766.03	42.633
766.34	44.000
766.65	54.043
766.96	50.855
767.27	54.822
767.58	57.812
767.89	55.263
768.20	55.172
768.51	53.299
768.82	49.541
769.13	43.902
769.44	45.749
769.75	45.064
770.06	50.917
770.37	50.679
770.68	51.852
770.99	48.444
771.30	40.574
771.61	47.534
771.92	50.820
772.23	53.361
772.54	55.897
772.85	54.974
773.16	55.851
773.47	57.065
773.78	56.345
774.09	57.143
774.39	56.725
774.70	57.407
775.01	62.319
775.32	66.667
775.63	63.816
775.94	60.432
776.25	72.441
776.56	60.448
776.87	61.475
777.18	71.875
777.48	70.992
777.79	71.212
778.10	67.407
778.41	61.607
778.72	70.803
779.03	58.389
779.34	61.074
779.65	58.108
779.95	58.896
780.26	60.784
780.57	68.276
780.88	73.437
781.19	63.158
781.50	69.595
781.80	59.748
782.11	53.107
782.42	55.063
782.73	58.282
783.04	58.784
783.34	53.521
783.65	65.753
783.96	68.657
784.27	58.741
784.57	68.345
784.88	50.926
785.19	73.016
785.50	85.849
785.81	64.925
786.11	80.328
786.42	66.667
786.73	64.602
787.04	80.189
787.34	79.464
787.65	83.000
787.96	81.081
788.26	71.074
788.57	78.814
788.88	77.686
789.19	66.667
789.49	80.303
789.80	74.046
790.11	88.571
790.41	82.178
790.72	79.518
791.03	77.174
791.33	90.698
791.64	86.598
791.95	73.267
792.25	85.556
792.56	93.506
792.87	97.436
793.17	107.595
793.48	85.057
793.79	88.506
794.09	87.500
794.40	69.748
794.70	71.324
795.01	60.741
795.32	56.115
795.62	68.504
795.93	68.966
796.23	79.646
796.54	77.647
796.85	82.432
797.15	118.310
797.46	86.364
797.76	80.723
798.07	94.937
798.37	93.846
798.68	109.091
798.99	94.366
799.29	90.909
799.60	95.455
799.90	112.329
800.21	97.015
800.51	124.138
800.82	115.789
801.12	96.721
801.43	110.606
801.73	93.243
802.04	120.635
802.34	98.765
802.65	123.438
802.95	137.288
803.26	117.188
803.56	78.571
803.87	101.538
804.17	104.412
804.48	127.778
804.78	108.621
805.09	100.000
805.39	119.231
805.70	114.286
806.00	111.475
806.30	83.333
806.61	81.707
806.91	92.405
807.22	97.368
807.52	86.567
807.83	104.225
808.13	90.625
808.43	111.667
808.74	93.421
809.04	105.797
809.35	111.940
809.65	96.053
809.95	101.613
810.26	118.644
810.56	100.000
810.86	156.818
811.17	150.000
811.47	123.333
811.77	116.667
812.08	116.364
812.38	148.000
812.69	186.111
812.99	163.636
813.29	122.449
813.59	135.714
813.90	132.653
814.20	125.455
814.50	103.077
814.81	110.294
815.11	128.571
815.41	144.262
815.72	152.381
816.02	140.000
816.32	157.143
816.62	145.000
816.93	146.341
817.23	154.762
817.53	145.455
817.84	190.909
818.14	147.826
818.44	151.111
818.74	179.412
819.04	160.000
819.35	168.571
819.65	200.000
819.95	210.714
820.25	275.000
820.56	166.667
820.86	152.273
821.16	158.140
821.46	148.718
821.76	142.000
822.07	157.143
822.37	172.500
822.67	196.970
822.97	111.765
823.27	200.000
823.57	183.784
823.88	190.000
824.18	213.333
824.48	147.619
824.78	256.000
825.08	208.333
825.38	172.973
825.69	168.293
825.99	241.667
826.29	172.414
826.59	157.895
826.89	150.000
827.19	182.353
827.49	177.419
827.79	152.273
828.09	138.636
828.39	136.170
828.70	122.449
829.00	211.111
829.30	174.194
829.60	162.500
829.90	373.333
830.20	228.571
830.50	234.783
830.80	260.870
831.10	203.333
831.40	176.667
831.70	200.000
832.00	223.077
832.30	259.259
832.60	300.000
832.90	193.333
833.20	450.000
833.50	229.032
833.80	193.103
834.10	212.500
834.40	238.462
834.70	316.667
835.00	319.048
835.30	165.714
835.60	438.462
835.90	217.241
836.20	342.857
836.50	217.241
836.80	224.000
837.10	172.222
837.40	271.429
837.70	376.471
838.00	248.148
838.30	280.952
838.60	261.905
838.90	242.308
839.19	290.000
839.49	421.429
839.79	350.000
840.09	300.000
840.39	309.524
840.69	291.304
840.99	283.333
841.29	560.000
841.59	266.667
841.88	381.250
842.18	210.345
842.48	295.238
842.78	210.000
843.08	265.217
843.38	181.250
843.68	966.667
843.97	257.692
844.27	213.793
844.57	309.524
844.87	356.250
845.17	251.852
845.47	1766.667
845.76	611.111
846.06	276.471
846.36	637.500
846.66	307.143
846.96	393.750
847.25	427.273
847.55	463.636
847.85	313.043
848.15	480.000
848.44	350.000
848.74	277.778
849.04	323.529
849.34	590.000
849.63	236.842
849.93	527.273
850.23	1020.000
850.53	457.143
850.82	2450.000
851.12	-4900.000
851.42	5900.000
851.71	265.000
852.01	-1433.333
852.31	237.500
852.61	1766.667
852.90	342.857
853.20	252.000
853.50	417.647
853.79	290.476
854.09	237.500
854.39	375.000
854.68	194.595
854.98	187.097
855.28	180.000
855.57	244.828
855.87	192.593
856.17	252.632
856.46	300.000
856.76	288.235
857.05	224.138
857.35	237.500
857.65	420.000
857.94	269.565
858.24	269.231
858.53	290.000
858.83	240.909
859.13	380.000
859.42	0.000
859.72	588.889
860.01	500.000
860.31	263.636
860.60	257.895
860.90	273.913
861.20	655.556
861.49	575.000
861.79	-4900.000
862.08	675.000
862.38	252.381
862.67	384.615
862.97	376.471
863.26	600.000
863.56	344.444
863.85	358.333
864.15	575.000
864.44	393.333
864.74	916.667
865.03	675.000
865.33	305.263
865.62	563.636
865.92	392.308
866.21	358.333
866.51	0.000
866.80	572.727
867.10	1160.000
867.39	407.692
867.69	463.636
867.98	321.053
868.27	481.818
868.57	247.368
868.86	-4100.000
869.16	381.250
869.45	2500.000
869.75	-4600.000
870.04	466.667
870.33	685.714
870.63	1425.000
870.92	2450.000
871.22	742.857
871.51	341.176
871.80	266.667
872.10	321.429
>>>>>End Processed Spectral Data<<<<<
