SpectraSuite Data File
++++++++++++++++++++++++++++++++++++
Date: Wed May 13 19:46:48 PDT 2015
User: schluterlab
Dark Spectrum Present: Yes
Reference Spectrum Present: Yes
Number of Sampled Component Spectra: 1
Spectrometers: USB2E3373
Integration Time (usec): 3000 (USB2E3373)
Spectra Averaged: 3 (USB2E3373)
Boxcar Smoothing: 0 (USB2E3373)
Correct for Electrical Dark: No (USB2E3373)
Strobe/Lamp Enabled: No (USB2E3373)
Correct for Detector Non-linearity: No (USB2E3373)
Correct for Stray Light: No (USB2E3373)
Number of Pixels in Processed Spectrum: 2048
>>>>>Begin Processed Spectral Data<<<<<
178.53	0.000
178.91	-1325.000
179.29	-1375.000
179.67	-222.222
180.04	-1125.000
180.42	2900.000
180.80	1020.000
181.18	-1125.000
181.56	600.000
181.94	0.000
182.31	-614.286
182.69	1666.667
183.07	-525.000
183.45	-577.778
183.83	581.818
184.20	-460.000
184.58	2650.000
184.96	6500.000
185.34	-780.000
185.72	-625.000
186.09	-2200.000
186.47	2750.000
186.85	2700.000
187.23	5000.000
187.61	-1700.000
187.98	1275.000
188.36	536.364
188.74	454.545
189.12	-840.000
189.49	540.000
189.87	-4900.000
190.25	-1375.000
190.63	421.429
191.00	415.385
191.38	1033.333
191.76	-1225.000
192.14	1250.000
192.51	725.000
192.89	866.667
193.27	625.000
193.65	-1375.000
194.02	560.000
194.40	1060.000
194.78	610.000
195.15	500.000
195.53	590.000
195.91	-2050.000
196.29	362.500
196.66	273.684
197.04	-370.000
197.42	0.000
197.79	610.000
198.17	-5700.000
198.55	714.286
198.92	775.000
199.30	920.000
199.68	0.000
200.05	327.778
200.43	800.000
200.81	4600.000
201.18	1633.333
201.56	-1666.667
201.94	544.444
202.31	633.333
202.69	475.000
203.07	590.000
203.44	0.000
203.82	1275.000
204.19	714.286
204.57	457.143
204.95	637.500
205.32	1200.000
205.70	490.909
206.08	414.286
206.45	2750.000
206.83	381.250
207.20	900.000
207.58	900.000
207.96	372.222
208.33	687.500
208.71	-933.333
209.08	714.286
209.46	666.667
209.84	518.182
210.21	-1900.000
210.59	1300.000
210.96	-487.500
211.34	2350.000
211.71	610.000
212.09	700.000
212.46	0.000
212.84	1666.667
213.22	1650.000
213.59	-5100.000
213.97	866.667
214.34	714.286
214.72	536.364
215.09	940.000
215.47	-1950.000
215.84	-2650.000
216.22	1866.667
216.59	450.000
216.97	1350.000
217.34	545.455
217.72	-683.333
218.09	0.000
218.47	-5900.000
218.84	644.444
219.22	757.143
219.59	1633.333
219.97	-800.000
220.34	940.000
220.72	-1533.333
221.09	428.571
221.47	1225.000
221.84	-1066.667
222.22	0.000
222.59	1525.000
222.97	-2850.000
223.34	1180.000
223.72	438.462
224.09	980.000
224.46	2600.000
224.84	-5900.000
225.21	-1060.000
225.59	-4300.000
225.96	620.000
226.34	365.000
226.71	2750.000
227.08	712.500
227.46	550.000
227.83	-950.000
228.21	-2600.000
228.58	677.778
228.95	-2100.000
229.33	-2700.000
229.70	1500.000
230.08	800.000
230.45	-840.000
230.82	466.667
231.20	833.333
231.57	500.000
231.95	483.333
232.32	254.545
232.69	490.909
233.07	657.143
233.44	330.769
233.81	-1666.667
234.19	336.842
234.56	425.000
234.93	416.667
235.31	518.182
235.68	376.923
236.05	407.143
236.43	190.909
236.80	284.211
237.17	4800.000
237.55	280.952
237.92	200.000
238.29	285.714
238.67	158.065
239.04	234.483
239.41	152.778
239.79	132.609
240.16	133.333
240.53	143.182
240.91	107.843
241.28	120.000
241.65	134.000
242.02	114.493
242.40	106.452
242.77	118.333
243.14	87.097
243.51	95.506
243.89	82.353
244.26	81.111
244.63	83.871
245.00	77.660
245.38	74.257
245.75	79.439
246.12	67.890
246.49	72.263
246.87	80.800
247.24	66.154
247.61	68.571
247.98	58.824
248.36	59.459
248.73	59.873
249.10	64.331
249.47	59.887
249.84	60.963
250.22	54.011
250.59	57.988
250.96	63.636
251.33	58.768
251.70	52.970
252.08	53.810
252.45	53.812
252.82	46.522
253.19	51.064
253.56	51.765
253.94	51.037
254.31	46.875
254.68	41.923
255.05	46.494
255.42	49.593
255.79	43.750
256.16	48.736
256.54	45.936
256.91	48.043
257.28	41.367
257.65	45.545
258.02	44.410
258.39	44.479
258.76	44.816
259.14	42.560
259.51	42.553
259.88	40.683
260.25	43.807
260.62	42.197
260.99	42.236
261.36	45.045
261.73	43.266
262.10	43.895
262.47	46.761
262.85	41.504
263.22	36.467
263.59	43.875
263.96	42.033
264.33	40.209
264.70	42.895
265.07	43.478
265.44	40.152
265.81	39.416
266.18	41.709
266.55	41.463
266.92	39.312
267.29	40.278
267.66	38.303
268.03	39.091
268.40	39.720
268.77	37.232
269.14	40.090
269.51	40.181
269.88	40.793
270.25	43.567
270.62	40.674
270.99	38.925
271.36	39.485
271.73	41.121
272.10	38.913
272.47	40.000
272.84	40.043
273.21	37.945
273.58	36.026
273.95	36.478
274.32	37.603
274.69	39.186
275.06	38.583
275.43	39.787
275.80	38.277
276.17	37.882
276.54	35.967
276.91	38.142
277.28	34.570
277.65	35.783
278.02	38.302
278.39	37.109
278.76	35.273
279.13	36.604
279.50	36.127
279.87	34.263
280.23	36.527
280.60	35.977
280.97	34.935
281.34	34.159
281.71	36.182
282.08	35.701
282.45	35.091
282.82	36.412
283.19	32.799
283.56	35.965
283.92	34.179
284.29	33.157
284.66	35.390
285.03	33.454
285.40	34.859
285.77	33.502
286.14	33.506
286.51	34.667
286.87	33.675
287.24	34.039
287.61	33.066
287.98	34.903
288.35	31.220
288.72	30.997
289.08	31.299
289.45	31.631
289.82	30.894
290.19	28.571
290.56	31.547
290.93	30.665
291.29	29.908
291.66	29.794
292.03	31.686
292.40	31.278
292.77	29.882
293.13	28.806
293.50	29.446
293.87	29.037
294.24	27.556
294.60	28.093
294.97	29.070
295.34	30.183
295.71	29.261
296.08	28.063
296.44	27.235
296.81	26.684
297.18	28.320
297.55	24.802
297.91	27.045
298.28	28.246
298.65	26.371
299.02	27.931
299.38	26.560
299.75	23.450
300.12	24.649
300.48	26.750
300.85	25.524
301.22	26.369
301.59	24.874
301.95	25.693
302.32	26.187
302.69	25.090
303.05	24.727
303.42	23.827
303.79	25.821
304.15	24.942
304.52	24.913
304.89	24.390
305.25	24.594
305.62	25.368
305.99	25.856
306.35	25.391
306.72	24.439
307.09	26.304
307.45	25.563
307.82	23.661
308.19	23.731
308.55	25.998
308.92	23.523
309.29	23.337
309.65	23.224
310.02	24.313
310.38	25.161
310.75	23.970
311.12	26.407
311.48	24.660
311.85	25.367
312.22	24.246
312.58	24.532
312.95	25.449
313.31	23.592
313.68	26.403
314.05	25.641
314.41	25.025
314.78	25.881
315.14	26.018
315.51	28.012
315.87	27.525
316.24	26.514
316.61	25.828
316.97	27.299
317.34	26.614
317.70	27.629
318.07	29.163
318.43	29.159
318.80	29.991
319.16	30.226
319.53	29.644
319.89	31.524
320.26	33.500
320.62	30.952
320.99	31.717
321.35	33.939
321.72	33.778
322.08	36.032
322.45	38.109
322.81	36.531
323.18	38.536
323.54	35.529
323.91	38.396
324.27	40.057
324.64	39.981
325.00	39.495
325.37	42.584
325.73	44.434
326.10	45.102
326.46	46.147
326.83	47.110
327.19	47.566
327.56	49.826
327.92	49.956
328.29	49.778
328.65	51.750
329.01	52.076
329.38	54.764
329.74	53.740
330.11	55.796
330.47	55.188
330.84	55.239
331.20	56.466
331.56	56.330
331.93	57.870
332.29	57.941
332.66	59.292
333.02	58.410
333.38	60.072
333.75	60.428
334.11	59.342
334.48	61.579
334.84	61.213
335.20	62.818
335.57	61.741
335.93	59.821
336.29	62.912
336.66	62.308
337.02	62.081
337.38	65.278
337.75	61.943
338.11	63.295
338.47	64.641
338.84	63.520
339.20	63.853
339.56	64.872
339.93	64.818
340.29	65.670
340.65	62.834
341.02	65.445
341.38	65.747
341.74	63.333
342.11	67.686
342.47	65.286
342.83	63.955
343.20	67.446
343.56	65.206
343.92	66.316
344.28	65.561
344.65	66.638
345.01	65.236
345.37	64.666
345.73	65.567
346.10	67.178
346.46	65.508
346.82	66.886
347.19	66.165
347.55	63.629
347.91	65.129
348.27	68.036
348.63	66.890
349.00	66.909
349.36	67.323
349.72	68.083
350.08	67.423
350.45	67.535
350.81	67.669
351.17	66.856
351.53	70.352
351.89	68.069
352.26	67.482
352.62	67.682
352.98	68.963
353.34	68.529
353.70	69.149
354.07	68.226
354.43	67.460
354.79	69.992
355.15	67.518
355.51	69.544
355.87	69.959
356.24	70.521
356.60	68.324
356.96	70.233
357.32	70.237
357.68	70.000
358.04	69.438
358.40	69.992
358.77	68.858
359.13	69.613
359.49	69.333
359.85	70.476
360.21	71.930
360.57	70.739
360.93	72.615
361.29	71.504
361.66	69.969
362.02	71.269
362.38	71.559
362.74	70.089
363.10	71.503
363.46	70.653
363.82	72.789
364.18	70.191
364.54	72.883
364.90	72.592
365.26	72.206
365.62	72.608
365.98	72.169
366.35	71.060
366.71	71.945
367.07	72.396
367.43	73.803
367.79	73.804
368.15	73.132
368.51	71.730
368.87	74.019
369.23	72.129
369.59	74.222
369.95	73.235
370.31	74.217
370.67	72.681
371.03	73.858
371.39	73.834
371.75	71.912
372.11	73.400
372.47	74.780
372.83	75.937
373.19	74.494
373.55	76.053
373.91	77.025
374.27	73.471
374.63	75.782
374.99	75.141
375.35	74.599
375.71	74.777
376.07	74.966
376.42	74.691
376.78	75.149
377.14	75.577
377.50	76.026
377.86	75.199
378.22	74.652
378.58	74.499
378.94	74.984
379.30	74.173
379.66	76.142
380.02	75.553
380.38	74.621
380.74	75.090
381.09	75.428
381.45	76.521
381.81	75.737
382.17	76.497
382.53	76.101
382.89	75.062
383.25	76.110
383.61	78.253
383.97	75.860
384.32	76.419
384.68	77.014
385.04	75.661
385.40	74.551
385.76	77.334
386.12	76.813
386.48	77.093
386.83	76.588
387.19	78.293
387.55	75.943
387.91	76.481
388.27	74.433
388.62	75.784
388.98	75.491
389.34	77.284
389.70	76.456
390.06	77.567
390.42	76.848
390.77	75.509
391.13	78.047
391.49	76.015
391.85	76.384
392.20	76.719
392.56	75.631
392.92	77.810
393.28	75.562
393.64	76.859
393.99	75.993
394.35	75.868
394.71	74.216
395.07	74.766
395.42	76.452
395.78	75.891
396.14	75.171
396.50	76.378
396.85	77.241
397.21	76.202
397.57	75.201
397.92	76.803
398.28	74.159
398.64	75.090
399.00	75.154
399.35	73.830
399.71	74.421
400.07	74.157
400.42	76.074
400.78	75.573
401.14	74.329
401.49	75.701
401.85	75.620
402.21	74.311
402.57	73.843
402.92	75.221
403.28	75.828
403.63	75.371
403.99	76.115
404.35	74.182
404.70	75.000
405.06	73.209
405.42	74.485
405.77	72.571
406.13	73.194
406.49	73.743
406.84	74.424
407.20	73.877
407.55	74.665
407.91	76.533
408.27	74.856
408.62	73.811
408.98	74.387
409.34	74.293
409.69	75.871
410.05	72.367
410.40	73.394
410.76	72.640
411.11	73.884
411.47	72.460
411.83	73.122
412.18	72.975
412.54	72.976
412.89	72.952
413.25	71.901
413.60	73.379
413.96	71.524
414.31	72.479
414.67	72.180
415.03	73.510
415.38	73.454
415.74	73.569
416.09	74.200
416.45	73.360
416.80	73.761
417.16	74.129
417.51	73.988
417.87	71.419
418.22	73.438
418.58	73.790
418.93	73.219
419.29	72.947
419.64	73.615
420.00	72.012
420.35	72.290
420.71	74.298
421.06	73.747
421.42	72.924
421.77	73.879
422.12	72.094
422.48	73.341
422.83	73.675
423.19	72.818
423.54	73.709
423.90	74.029
424.25	73.311
424.61	74.048
424.96	75.569
425.31	73.588
425.67	72.360
426.02	72.743
426.38	74.847
426.73	73.435
427.09	74.772
427.44	74.986
427.79	73.893
428.15	74.464
428.50	73.610
428.85	75.149
429.21	74.047
429.56	75.272
429.92	73.629
430.27	74.479
430.62	73.733
430.98	74.209
431.33	72.887
431.68	74.921
432.04	72.630
432.39	73.958
432.74	75.583
433.10	74.646
433.45	75.160
433.80	74.501
434.16	75.374
434.51	74.421
434.86	75.029
435.22	75.264
435.57	75.805
435.92	75.424
436.28	77.224
436.63	75.331
436.98	74.642
437.34	77.102
437.69	76.079
438.04	75.604
438.39	75.940
438.75	76.758
439.10	76.145
439.45	75.207
439.81	77.039
440.16	75.494
440.51	75.630
440.86	76.607
441.22	75.584
441.57	75.796
441.92	75.537
442.27	76.050
442.63	75.882
442.98	75.887
443.33	76.304
443.68	75.942
444.03	76.086
444.39	75.024
444.74	75.812
445.09	76.119
445.44	75.178
445.79	75.952
446.15	74.696
446.50	76.090
446.85	76.567
447.20	76.696
447.55	76.382
447.91	76.338
448.26	76.850
448.61	76.427
448.96	76.689
449.31	78.234
449.66	74.733
450.02	75.599
450.37	75.850
450.72	75.465
451.07	76.965
451.42	75.805
451.77	75.396
452.12	76.039
452.47	76.430
452.83	77.622
453.18	75.306
453.53	77.056
453.88	76.314
454.23	77.047
454.58	78.134
454.93	77.877
455.28	77.057
455.63	76.760
455.98	78.095
456.34	77.701
456.69	76.518
457.04	77.399
457.39	74.576
457.74	76.494
458.09	76.251
458.44	76.112
458.79	74.024
459.14	76.016
459.49	76.416
459.84	74.737
460.19	75.663
460.54	73.553
460.89	74.986
461.24	77.171
461.59	76.641
461.94	74.538
462.29	77.211
462.64	75.750
462.99	74.951
463.34	76.333
463.69	76.610
464.04	75.246
464.39	74.725
464.74	75.401
465.09	74.789
465.44	74.294
465.79	73.602
466.14	74.439
466.49	73.415
466.84	74.781
467.19	74.593
467.54	76.000
467.89	75.510
468.24	73.706
468.59	74.969
468.94	73.244
469.29	75.321
469.64	74.431
469.99	75.643
470.34	75.627
470.68	76.940
471.03	73.878
471.38	76.303
471.73	74.417
472.08	75.461
472.43	73.995
472.78	74.984
473.13	73.813
473.48	74.844
473.83	73.720
474.17	73.678
474.52	74.007
474.87	74.956
475.22	74.927
475.57	72.380
475.92	72.756
476.27	73.619
476.61	73.911
476.96	72.622
477.31	73.312
477.66	73.523
478.01	72.399
478.36	73.506
478.70	72.326
479.05	73.589
479.40	73.030
479.75	72.649
480.10	73.260
480.45	71.442
480.79	70.377
481.14	71.967
481.49	71.951
481.84	72.565
482.19	71.740
482.53	71.972
482.88	72.359
483.23	72.710
483.58	70.337
483.92	72.024
484.27	69.847
484.62	71.422
484.97	70.319
485.31	71.370
485.66	70.010
486.01	67.704
486.36	65.823
486.70	65.227
487.05	65.719
487.40	66.701
487.75	66.813
488.09	68.517
488.44	68.245
488.79	69.729
489.13	69.824
489.48	70.555
489.83	70.695
490.17	70.846
490.52	69.442
490.87	69.516
491.22	70.214
491.56	68.383
491.91	69.846
492.26	68.718
492.60	69.539
492.95	69.317
493.30	68.318
493.64	70.042
493.99	68.338
494.34	70.444
494.68	70.833
495.03	69.737
495.37	69.055
495.72	70.175
496.07	69.188
496.41	68.186
496.76	69.305
497.11	68.258
497.45	68.421
497.80	67.466
498.14	69.517
498.49	69.220
498.84	69.559
499.18	68.048
499.53	69.088
499.87	69.478
500.22	68.818
500.56	70.000
500.91	68.173
501.26	67.947
501.60	69.245
501.95	67.186
502.29	67.807
502.64	68.575
502.98	68.256
503.33	67.230
503.67	68.074
504.02	66.324
504.36	68.133
504.71	67.465
505.06	66.892
505.40	68.109
505.75	66.972
506.09	67.784
506.44	67.933
506.78	68.242
507.13	68.198
507.47	67.778
507.82	68.440
508.16	68.693
508.51	68.747
508.85	66.187
509.19	67.092
509.54	66.633
509.88	66.976
510.23	67.918
510.57	67.957
510.92	67.996
511.26	66.804
511.61	67.790
511.95	66.962
512.30	67.020
512.64	66.792
512.98	66.506
513.33	67.773
513.67	66.542
514.02	66.775
514.36	67.941
514.70	66.796
515.05	67.317
515.39	67.863
515.74	67.173
516.08	65.959
516.42	67.814
516.77	66.834
517.11	66.815
517.46	67.607
517.80	68.525
518.14	66.705
518.49	68.145
518.83	66.648
519.17	67.725
519.52	66.327
519.86	67.199
520.20	67.225
520.55	66.846
520.89	67.701
521.23	68.456
521.58	67.587
521.92	69.137
522.26	66.077
522.61	67.601
522.95	67.956
523.29	67.133
523.64	67.256
523.98	68.207
524.32	66.224
524.66	66.266
525.01	67.157
525.35	65.923
525.69	65.887
526.04	66.231
526.38	67.175
526.72	65.644
527.06	67.483
527.41	64.666
527.75	68.489
528.09	67.116
528.43	65.583
528.78	65.519
529.12	65.636
529.46	66.687
529.80	64.728
530.15	66.604
530.49	65.169
530.83	65.886
531.17	68.211
531.51	67.185
531.86	65.742
532.20	66.428
532.54	66.111
532.88	65.276
533.22	63.710
533.57	63.642
533.91	63.456
534.25	64.338
534.59	65.345
534.93	63.058
535.27	64.333
535.62	64.225
535.96	63.653
536.30	64.717
536.64	64.070
536.98	63.902
537.32	64.384
537.66	64.667
538.01	65.372
538.35	63.736
538.69	64.454
539.03	62.898
539.37	62.812
539.71	63.124
540.05	64.771
540.39	64.585
540.73	63.131
541.07	63.400
541.42	64.188
541.76	64.065
542.10	62.678
542.44	64.172
542.78	64.625
543.12	63.148
543.46	63.148
543.80	63.565
544.14	62.773
544.48	63.238
544.82	63.823
545.16	64.151
545.50	62.596
545.84	63.575
546.18	64.242
546.52	65.175
546.86	64.399
547.20	63.722
547.54	62.391
547.88	64.349
548.22	62.329
548.56	62.579
548.90	62.548
549.24	63.704
549.58	63.915
549.92	62.843
550.26	65.057
550.60	62.033
550.94	64.085
551.28	62.326
551.62	63.839
551.96	62.035
552.30	63.413
552.64	62.272
552.98	62.847
553.32	63.857
553.66	63.804
554.00	63.898
554.34	63.285
554.68	65.522
555.02	62.835
555.36	63.744
555.69	61.164
556.03	62.046
556.37	63.643
556.71	61.937
557.05	62.955
557.39	63.051
557.73	61.609
558.07	64.902
558.41	62.952
558.75	63.850
559.08	63.236
559.42	63.794
559.76	64.926
560.10	63.026
560.44	61.076
560.78	62.076
561.12	62.665
561.45	62.516
561.79	61.042
562.13	62.643
562.47	61.749
562.81	63.529
563.15	61.070
563.48	60.477
563.82	61.187
564.16	61.936
564.50	61.458
564.84	60.051
565.17	60.746
565.51	60.447
565.85	60.470
566.19	61.177
566.52	61.748
566.86	59.373
567.20	59.906
567.54	60.559
567.88	59.750
568.21	58.677
568.55	58.999
568.89	57.393
569.23	58.155
569.56	56.397
569.90	56.679
570.24	56.154
570.57	55.695
570.91	54.945
571.25	54.262
571.59	54.168
571.92	54.810
572.26	54.275
572.60	54.234
572.93	53.673
573.27	53.978
573.61	53.518
573.95	53.643
574.28	53.266
574.62	53.328
574.96	52.616
575.29	52.110
575.63	52.591
575.97	53.319
576.30	52.682
576.64	53.071
576.98	53.184
577.31	52.773
577.65	52.704
577.98	52.935
578.32	52.244
578.66	52.013
578.99	52.545
579.33	52.167
579.67	51.910
580.00	52.170
580.34	52.919
580.67	52.423
581.01	52.777
581.35	52.485
581.68	52.278
582.02	51.548
582.35	52.206
582.69	51.582
583.02	52.375
583.36	52.571
583.70	52.647
584.03	53.030
584.37	53.228
584.70	53.579
585.04	52.006
585.37	52.912
585.71	52.843
586.04	52.356
586.38	52.900
586.72	53.797
587.05	53.111
587.39	52.559
587.72	53.388
588.06	52.882
588.39	52.483
588.73	52.156
589.06	53.662
589.40	54.310
589.73	54.593
590.07	52.776
590.40	53.928
590.73	54.918
591.07	55.108
591.40	54.829
591.74	54.848
592.07	54.538
592.41	54.196
592.74	53.708
593.08	53.031
593.41	53.686
593.75	51.874
594.08	53.201
594.41	53.552
594.75	54.011
595.08	53.329
595.42	53.695
595.75	53.454
596.09	53.962
596.42	53.831
596.75	54.791
597.09	54.675
597.42	53.373
597.75	53.946
598.09	53.652
598.42	53.565
598.76	53.709
599.09	52.414
599.42	52.511
599.76	52.635
600.09	52.787
600.42	52.228
600.76	52.643
601.09	51.767
601.42	52.968
601.76	52.296
602.09	52.451
602.42	52.866
602.76	53.204
603.09	52.754
603.42	54.198
603.76	52.020
604.09	52.230
604.42	53.200
604.76	53.775
605.09	52.818
605.42	52.116
605.75	53.477
606.09	53.274
606.42	53.045
606.75	51.307
607.09	52.491
607.42	52.546
607.75	51.983
608.08	52.366
608.42	53.294
608.75	51.984
609.08	52.775
609.41	51.928
609.75	53.692
610.08	54.194
610.41	53.864
610.74	53.075
611.07	54.397
611.41	53.631
611.74	53.595
612.07	53.882
612.40	54.617
612.73	52.842
613.07	54.041
613.40	53.818
613.73	52.386
614.06	53.817
614.39	51.442
614.72	53.316
615.06	52.836
615.39	53.450
615.72	52.658
616.05	51.302
616.38	53.863
616.71	54.513
617.05	54.829
617.38	53.939
617.71	53.694
618.04	55.889
618.37	53.933
618.70	54.076
619.03	54.474
619.36	55.397
619.69	55.141
620.03	56.387
620.36	55.281
620.69	54.726
621.02	55.605
621.35	54.503
621.68	54.361
622.01	55.341
622.34	55.825
622.67	55.437
623.00	54.659
623.33	54.110
623.66	54.610
623.99	53.829
624.32	53.281
624.65	54.732
624.99	53.824
625.32	54.815
625.65	55.372
625.98	56.034
626.31	55.210
626.64	56.490
626.97	56.442
627.30	55.943
627.63	56.440
627.96	56.518
628.29	56.780
628.62	56.999
628.95	58.208
629.28	57.847
629.61	56.645
629.94	59.143
630.26	57.102
630.59	57.293
630.92	56.992
631.25	57.354
631.58	57.057
631.91	57.201
632.24	56.224
632.57	56.873
632.90	56.689
633.23	57.606
633.56	56.836
633.89	58.211
634.22	58.002
634.55	60.237
634.88	57.605
635.20	59.737
635.53	59.880
635.86	61.139
636.19	57.412
636.52	57.670
636.85	56.701
637.18	56.567
637.51	57.329
637.83	57.213
638.16	60.358
638.49	58.564
638.82	58.534
639.15	58.875
639.48	59.476
639.81	58.043
640.13	58.984
640.46	57.718
640.79	58.653
641.12	58.459
641.45	56.145
641.77	58.027
642.10	61.257
642.43	61.111
642.76	59.907
643.09	61.350
643.41	58.877
643.74	61.111
644.07	60.671
644.40	62.577
644.73	61.417
645.05	59.746
645.38	61.453
645.71	61.836
646.04	60.631
646.36	61.436
646.69	58.528
647.02	61.735
647.35	62.371
647.67	61.770
648.00	59.837
648.33	59.901
648.66	58.333
648.98	59.220
649.31	58.445
649.64	59.641
649.96	57.079
650.29	58.136
650.62	58.252
650.94	59.968
651.27	60.473
651.60	59.567
651.92	59.425
652.25	58.306
652.58	58.100
652.90	59.242
653.23	58.706
653.56	57.323
653.88	60.697
654.21	60.348
654.54	59.736
654.86	60.125
655.19	53.243
655.52	42.439
655.84	40.361
656.17	52.254
656.49	69.690
656.82	70.455
657.15	52.832
657.47	39.044
657.80	29.460
658.13	30.394
658.45	44.890
658.78	45.179
659.10	46.564
659.43	48.468
659.75	51.139
660.08	54.430
660.41	59.404
660.73	60.737
661.06	60.032
661.38	63.455
661.71	62.692
662.03	64.300
662.36	58.250
662.68	60.843
663.01	61.010
663.33	61.359
663.66	61.975
663.98	63.067
664.31	61.555
664.63	60.526
664.96	57.746
665.28	63.115
665.61	58.480
665.93	61.569
666.26	59.635
666.58	61.297
666.91	62.368
667.23	64.494
667.56	61.987
667.88	63.034
668.21	62.687
668.53	60.738
668.86	60.390
669.18	60.768
669.50	61.087
669.83	64.706
670.15	61.556
670.48	66.231
670.80	59.698
671.13	59.660
671.45	60.000
671.77	59.878
672.10	60.259
672.42	56.714
672.75	57.380
673.07	57.923
673.39	59.132
673.72	59.766
674.04	58.627
674.37	59.417
674.69	60.941
675.01	57.950
675.34	60.575
675.66	61.895
675.98	58.656
676.31	60.294
676.63	59.448
676.95	60.377
677.28	60.981
677.60	61.099
677.92	60.127
678.25	59.959
678.57	60.359
678.89	59.319
679.22	55.599
679.54	57.252
679.86	57.798
680.18	56.708
680.51	55.674
680.83	55.160
681.15	57.925
681.48	58.979
681.80	54.545
682.12	56.130
682.44	56.093
682.77	57.841
683.09	62.446
683.41	61.641
683.73	59.823
684.06	58.471
684.38	57.143
684.70	57.364
685.02	58.349
685.34	55.861
685.67	55.070
685.99	54.296
686.31	56.314
686.63	56.007
686.96	55.893
687.28	56.498
687.60	54.529
687.92	57.770
688.24	53.992
688.56	57.430
688.89	59.129
689.21	58.734
689.53	55.950
689.85	60.089
690.17	52.381
690.49	58.599
690.82	58.411
691.14	55.804
691.46	56.118
691.78	57.229
692.10	57.851
692.42	58.483
692.74	56.017
693.06	57.021
693.39	56.879
693.71	58.952
694.03	55.158
694.35	56.494
694.67	58.581
694.99	59.756
695.31	57.353
695.63	60.048
695.95	57.213
696.27	57.360
696.59	58.549
696.91	60.363
697.23	56.573
697.56	54.797
697.88	53.579
698.20	53.333
698.52	56.129
698.84	55.902
699.16	54.378
699.48	58.670
699.80	58.696
700.12	63.117
700.44	61.804
700.76	58.840
701.08	60.345
701.40	59.497
701.72	61.516
702.04	64.773
702.36	55.241
702.68	61.756
703.00	60.111
703.32	58.511
703.64	59.786
703.96	61.003
704.28	59.302
704.60	63.343
704.91	60.831
705.23	58.944
705.55	66.113
705.87	66.445
706.19	61.484
706.51	62.305
706.83	61.818
707.15	62.745
707.47	57.071
707.79	57.985
708.11	55.023
708.43	55.952
708.74	57.398
709.06	57.922
709.38	54.593
709.70	62.500
710.02	62.315
710.34	57.273
710.66	57.612
710.98	63.920
711.29	61.628
711.61	61.357
711.93	61.218
712.25	62.058
712.57	67.279
712.89	68.512
713.20	58.967
713.52	62.171
713.84	58.861
714.16	62.500
714.48	56.034
714.80	64.742
715.11	61.095
715.43	60.534
715.75	55.652
716.07	62.300
716.39	59.561
716.70	62.458
717.02	65.468
717.34	57.597
717.66	64.179
717.97	69.323
718.29	56.667
718.61	63.504
718.93	64.338
719.24	60.554
719.56	62.712
719.88	59.322
720.20	63.514
720.51	64.111
720.83	65.799
721.15	63.433
721.46	62.766
721.78	64.875
722.10	66.415
722.42	68.045
722.73	64.045
723.05	65.164
723.37	68.826
723.68	64.093
724.00	63.415
724.32	63.306
724.63	65.447
724.95	64.435
725.27	61.134
725.58	62.891
725.90	62.409
726.22	63.019
726.53	60.764
726.85	64.164
727.16	64.057
727.48	59.574
727.80	58.712
728.11	56.159
728.43	58.846
728.74	60.573
729.06	66.058
729.38	59.926
729.69	60.498
730.01	55.290
730.32	57.986
730.64	61.204
730.96	54.785
731.27	59.272
731.59	58.410
731.90	58.601
732.22	58.696
732.53	55.108
732.85	55.769
733.16	54.341
733.48	65.781
733.80	57.143
734.11	56.688
734.43	58.284
734.74	53.143
735.06	57.307
735.37	59.249
735.69	54.777
736.00	56.209
736.32	57.009
736.63	54.313
736.95	58.466
737.26	53.061
737.58	52.903
737.89	61.538
738.21	58.362
738.52	62.500
738.83	54.717
739.15	61.538
739.46	57.299
739.78	54.861
740.09	56.000
740.41	59.032
740.72	56.098
741.04	59.630
741.35	61.667
741.66	70.222
741.98	64.623
742.29	68.900
742.61	67.672
742.92	61.086
743.23	64.957
743.55	60.000
743.86	62.281
744.18	62.832
744.49	68.421
744.80	65.728
745.12	63.182
745.43	66.520
745.74	66.216
746.06	65.138
746.37	69.955
746.68	71.041
747.00	68.056
747.31	67.143
747.62	62.832
747.94	61.674
748.25	58.298
748.56	67.401
748.88	64.356
749.19	69.500
749.50	66.512
749.82	56.504
750.13	58.776
750.44	63.869
750.75	59.649
751.07	58.199
751.38	55.749
751.69	57.762
752.01	59.023
752.32	55.235
752.63	54.255
752.94	64.754
753.26	65.200
753.57	58.537
753.88	60.156
754.19	57.143
754.51	60.417
754.82	57.040
755.13	61.132
755.44	57.895
755.75	55.839
756.07	55.674
756.38	60.219
756.69	59.396
757.00	53.293
757.31	53.709
757.63	53.509
757.94	51.475
758.25	51.225
758.56	48.889
758.87	51.613
759.18	52.424
759.50	52.351
759.81	53.583
760.12	50.625
760.43	53.582
760.74	52.174
761.05	54.520
761.36	53.209
761.67	52.273
761.99	55.280
762.30	59.375
762.61	55.344
762.92	60.156
763.23	57.983
763.54	59.200
763.85	59.375
764.16	61.538
764.47	58.175
764.78	56.184
765.10	53.165
765.41	54.277
765.72	54.192
766.03	52.038
766.34	51.333
766.65	64.255
766.96	61.111
767.27	65.482
767.58	63.542
767.89	69.474
768.20	74.713
768.51	67.513
768.82	61.468
769.13	61.382
769.44	53.441
769.75	61.373
770.06	60.550
770.37	66.968
770.68	63.889
770.99	59.111
771.30	55.328
771.61	71.300
771.92	59.016
772.23	63.025
772.54	65.641
772.85	63.874
773.16	63.298
773.47	62.500
773.78	67.513
774.09	67.262
774.39	71.345
774.70	68.519
775.01	71.739
775.32	81.699
775.63	67.763
775.94	80.576
776.25	80.315
776.56	80.597
776.87	74.590
777.18	81.250
777.48	87.023
777.79	81.818
778.10	79.259
778.41	85.714
778.72	67.883
779.03	73.154
779.34	71.141
779.65	68.919
779.95	67.485
780.26	69.281
780.57	75.172
780.88	86.719
781.19	81.203
781.50	79.730
781.80	70.440
782.11	62.712
782.42	69.620
782.73	65.644
783.04	66.892
783.34	72.535
783.65	76.712
783.96	86.567
784.27	76.224
784.57	77.698
784.88	75.000
785.19	80.159
785.50	85.849
785.81	82.090
786.11	81.148
786.42	77.519
786.73	74.336
787.04	93.396
787.34	82.143
787.65	100.000
787.96	82.883
788.26	82.645
788.57	90.678
788.88	87.603
789.19	75.694
789.49	83.333
789.80	77.099
790.11	97.143
790.41	95.050
790.72	103.614
791.03	85.870
791.33	91.860
791.64	75.258
791.95	87.129
792.25	103.333
792.56	107.792
792.87	108.974
793.17	108.861
793.48	103.448
793.79	95.402
794.09	101.136
794.40	83.193
794.70	75.000
795.01	68.148
795.32	69.784
795.62	73.228
795.93	81.897
796.23	80.531
796.54	95.294
796.85	87.838
797.15	116.901
797.46	107.576
797.76	104.819
798.07	103.797
798.37	120.000
798.68	103.030
798.99	87.324
799.29	114.286
799.60	96.591
799.90	117.808
800.21	117.910
800.51	129.310
800.82	121.053
801.12	121.311
801.43	131.818
801.73	85.135
802.04	122.222
802.34	92.593
802.65	115.625
802.95	130.508
803.26	139.063
803.56	102.857
803.87	107.692
804.17	97.059
804.48	150.000
804.78	110.345
805.09	97.059
805.39	125.000
805.70	110.714
806.00	132.787
806.30	93.939
806.61	106.098
806.91	91.139
807.22	101.316
807.52	91.045
807.83	107.042
808.13	112.500
808.43	121.667
808.74	105.263
809.04	117.391
809.35	122.388
809.65	97.368
809.95	124.194
810.26	110.169
810.56	107.937
810.86	184.091
811.17	145.238
811.47	121.667
811.77	116.667
812.08	123.636
812.38	160.000
812.69	158.333
812.99	184.091
813.29	130.612
813.59	140.476
813.90	138.776
814.20	132.727
814.50	113.846
814.81	113.235
815.11	148.980
815.41	118.033
815.72	164.286
816.02	147.273
816.32	138.095
816.62	135.000
816.93	160.976
817.23	161.905
817.53	145.455
817.84	193.939
818.14	147.826
818.44	135.556
818.74	170.588
819.04	180.000
819.35	157.143
819.65	197.059
819.95	175.000
820.25	250.000
820.56	179.487
820.86	159.091
821.16	148.837
821.46	151.282
821.76	148.000
822.07	182.857
822.37	172.500
822.67	200.000
822.97	137.255
823.27	242.857
823.57	172.973
823.88	180.000
824.18	223.333
824.48	171.429
824.78	252.000
825.08	241.667
825.38	167.568
825.69	158.537
825.99	308.333
826.29	203.448
826.59	176.316
826.89	192.105
827.19	202.941
827.49	193.548
827.79	159.091
828.09	138.636
828.39	142.553
828.70	120.408
829.00	207.407
829.30	145.161
829.60	147.500
829.90	420.000
830.20	221.429
830.50	230.435
830.80	239.130
831.10	186.667
831.40	193.333
831.70	226.087
832.00	253.846
832.30	225.926
832.60	325.000
832.90	253.333
833.20	392.857
833.50	206.452
833.80	220.690
834.10	231.250
834.40	257.692
834.70	322.222
835.00	323.810
835.30	185.714
835.60	353.846
835.90	237.931
836.20	335.714
836.50	196.552
836.80	204.000
837.10	191.667
837.40	300.000
837.70	388.235
838.00	218.519
838.30	266.667
838.60	319.048
838.90	261.538
839.19	285.000
839.49	421.429
839.79	340.000
840.09	285.000
840.39	238.095
840.69	260.870
840.99	255.556
841.29	500.000
841.59	358.333
841.88	393.750
842.18	165.517
842.48	304.762
842.78	183.333
843.08	247.826
843.38	221.875
843.68	1016.667
843.97	223.077
844.27	217.241
844.57	300.000
844.87	356.250
845.17	225.926
845.47	1766.667
845.76	455.556
846.06	364.706
846.36	537.500
846.66	435.714
846.96	350.000
847.25	400.000
847.55	536.364
847.85	247.826
848.15	540.000
848.44	407.143
848.74	305.556
849.04	347.059
849.34	500.000
849.63	326.316
849.93	409.091
850.23	820.000
850.53	414.286
850.82	2800.000
851.12	-3800.000
851.42	4500.000
851.71	285.000
852.01	-1200.000
852.31	258.333
852.61	1700.000
852.90	271.429
853.20	240.000
853.50	317.647
853.79	257.143
854.09	254.167
854.39	343.750
854.68	183.784
854.98	183.871
855.28	203.333
855.57	231.034
855.87	237.037
856.17	226.316
856.46	340.000
856.76	323.529
857.05	220.690
857.35	225.000
857.65	346.667
857.94	252.174
858.24	253.846
858.53	290.000
858.83	281.818
859.13	306.667
859.42	0.000
859.72	666.667
860.01	509.091
860.31	263.636
860.60	305.263
860.90	230.435
861.20	577.778
861.49	508.333
861.79	-5300.000
862.08	587.500
862.38	328.571
862.67	346.154
862.97	317.647
863.26	633.333
863.56	244.444
863.85	425.000
864.15	612.500
864.44	400.000
864.74	783.333
865.03	712.500
865.33	352.632
865.62	490.909
865.92	392.308
866.21	483.333
866.51	0.000
866.80	500.000
867.10	1100.000
867.39	453.846
867.69	445.455
867.98	326.316
868.27	454.545
868.57	331.579
868.86	-3600.000
869.16	343.750
869.45	2500.000
869.75	-3800.000
870.04	458.333
870.33	800.000
870.63	700.000
870.92	2950.000
871.22	714.286
871.51	323.529
871.80	228.571
872.10	300.000
>>>>>End Processed Spectral Data<<<<<
