SpectraSuite Data File
++++++++++++++++++++++++++++++++++++
Date: Wed May 13 19:45:10 PDT 2015
User: schluterlab
Dark Spectrum Present: Yes
Reference Spectrum Present: Yes
Number of Sampled Component Spectra: 1
Spectrometers: USB2E3373
Integration Time (usec): 3000 (USB2E3373)
Spectra Averaged: 3 (USB2E3373)
Boxcar Smoothing: 0 (USB2E3373)
Correct for Electrical Dark: No (USB2E3373)
Strobe/Lamp Enabled: No (USB2E3373)
Correct for Detector Non-linearity: No (USB2E3373)
Correct for Stray Light: No (USB2E3373)
Number of Pixels in Processed Spectrum: 2048
>>>>>Begin Processed Spectral Data<<<<<
178.53	0.000
178.91	-1600.000
179.29	-1225.000
179.67	-277.778
180.04	-1150.000
180.42	2500.000
180.80	1120.000
181.18	-1225.000
181.56	728.571
181.94	0.000
182.31	-657.143
182.69	1933.333
183.07	-575.000
183.45	-522.222
183.83	490.909
184.20	-420.000
184.58	2450.000
184.96	5300.000
185.34	-940.000
185.72	-625.000
186.09	-2550.000
186.47	2850.000
186.85	2450.000
187.23	4600.000
187.61	-1800.000
187.98	1575.000
188.36	572.727
188.74	445.455
189.12	-1080.000
189.49	550.000
189.87	-5000.000
190.25	-1250.000
190.63	385.714
191.00	384.615
191.38	800.000
191.76	-1150.000
192.14	1325.000
192.51	587.500
192.89	983.333
193.27	637.500
193.65	-1125.000
194.02	440.000
194.40	960.000
194.78	560.000
195.15	483.333
195.53	660.000
195.91	-2400.000
196.29	300.000
196.66	305.263
197.04	-410.000
197.42	0.000
197.79	620.000
198.17	-4600.000
198.55	571.429
198.92	737.500
199.30	960.000
199.68	0.000
200.05	305.556
200.43	857.143
200.81	3900.000
201.18	1766.667
201.56	-1733.333
201.94	644.444
202.31	600.000
202.69	416.667
203.07	620.000
203.44	0.000
203.82	1075.000
204.19	700.000
204.57	471.429
204.95	575.000
205.32	1566.667
205.70	472.727
206.08	435.714
206.45	2200.000
206.83	325.000
207.20	1000.000
207.58	880.000
207.96	305.556
208.33	712.500
208.71	-916.667
209.08	885.714
209.46	555.556
209.84	609.091
210.21	-1600.000
210.59	1600.000
210.96	-375.000
211.34	2650.000
211.71	560.000
212.09	916.667
212.46	0.000
212.84	1900.000
213.22	1450.000
213.59	-4400.000
213.97	816.667
214.34	685.714
214.72	545.455
215.09	1000.000
215.47	-2300.000
215.84	-2300.000
216.22	1833.333
216.59	414.286
216.97	1200.000
217.34	609.091
217.72	-716.667
218.09	0.000
218.47	-4500.000
218.84	600.000
219.22	728.571
219.59	1400.000
219.97	-642.857
220.34	1020.000
220.72	-1866.667
221.09	364.286
221.47	1375.000
221.84	-866.667
222.22	0.000
222.59	1200.000
222.97	-2650.000
223.34	1160.000
223.72	430.769
224.09	1080.000
224.46	2250.000
224.84	-5000.000
225.21	-1040.000
225.59	-4600.000
225.96	570.000
226.34	315.000
226.71	2850.000
227.08	650.000
227.46	550.000
227.83	-1050.000
228.21	-2100.000
228.58	644.444
228.95	-2950.000
229.33	-2400.000
229.70	1566.667
230.08	757.143
230.45	-880.000
230.82	441.667
231.20	883.333
231.57	700.000
231.95	466.667
232.32	277.273
232.69	418.182
233.07	657.143
233.44	400.000
233.81	-1800.000
234.19	247.368
234.56	383.333
234.93	341.667
235.31	518.182
235.68	369.231
236.05	378.571
236.43	187.879
236.80	189.474
237.17	5400.000
237.55	271.429
237.92	207.143
238.29	290.476
238.67	174.194
239.04	200.000
239.41	180.556
239.79	126.087
240.16	147.619
240.53	136.364
240.91	113.725
241.28	106.000
241.65	120.000
242.02	97.101
242.40	103.226
242.77	95.000
243.14	87.097
243.51	92.135
243.89	81.176
244.26	77.778
244.63	80.645
245.00	78.723
245.38	67.327
245.75	67.290
246.12	67.890
246.49	65.693
246.87	68.000
247.24	73.077
247.61	62.143
247.98	59.477
248.36	56.081
248.73	49.045
249.10	64.331
249.47	50.847
249.84	50.802
250.22	48.663
250.59	57.396
250.96	49.495
251.33	48.815
251.70	53.465
252.08	47.619
252.45	42.601
252.82	46.087
253.19	47.660
253.56	44.706
253.94	47.718
254.31	42.187
254.68	44.231
255.05	41.697
255.42	46.748
255.79	43.382
256.16	43.321
256.54	38.869
256.91	43.416
257.28	34.892
257.65	40.264
258.02	40.683
258.39	38.486
258.76	42.140
259.14	41.369
259.51	34.043
259.88	37.578
260.25	37.462
260.62	34.682
260.99	40.994
261.36	36.637
261.73	36.390
262.10	34.884
262.47	37.746
262.85	36.769
263.22	33.333
263.59	38.746
263.96	36.538
264.33	36.292
264.70	37.895
265.07	36.317
265.44	36.111
265.81	34.307
266.18	37.437
266.55	35.122
266.92	31.941
267.29	34.491
267.66	33.716
268.03	35.227
268.40	34.813
268.77	33.413
269.14	33.784
269.51	36.117
269.88	35.897
270.25	34.537
270.62	32.809
270.99	35.269
271.36	33.047
271.73	31.776
272.10	30.217
272.47	35.914
272.84	35.281
273.21	32.914
273.58	34.498
273.95	31.237
274.32	30.165
274.69	32.548
275.06	30.709
275.43	35.319
275.80	32.665
276.17	32.587
276.54	34.096
276.91	31.818
277.28	31.250
277.65	30.174
278.02	33.333
278.39	35.352
278.76	32.727
279.13	32.453
279.50	32.216
279.87	30.478
280.23	34.731
280.60	32.689
280.97	31.608
281.34	30.796
281.71	30.000
282.08	31.478
282.45	30.182
282.82	30.018
283.19	29.412
283.56	31.228
283.92	31.641
284.29	28.748
284.66	31.579
285.03	28.752
285.40	29.401
285.77	28.956
286.14	30.052
286.51	27.667
286.87	31.282
287.24	30.293
287.61	28.732
287.98	30.357
288.35	29.319
288.72	28.505
289.08	27.543
289.45	25.700
289.82	28.943
290.19	25.903
290.56	27.565
290.93	26.284
291.29	27.607
291.66	26.106
292.03	26.163
292.40	28.194
292.77	25.888
293.13	27.164
293.50	26.676
293.87	26.667
294.24	24.444
294.60	26.201
294.97	23.837
295.34	23.695
295.71	25.710
296.08	25.356
296.44	24.622
296.81	23.514
297.18	25.745
297.55	21.768
297.91	21.636
298.28	25.167
298.65	25.196
299.02	24.242
299.38	24.436
299.75	21.968
300.12	23.372
300.48	22.500
300.85	23.181
301.22	22.293
301.59	22.475
301.95	22.670
302.32	22.850
302.69	22.103
303.05	21.818
303.42	23.333
303.79	22.650
304.15	20.629
304.52	19.815
304.89	21.022
305.25	20.998
305.62	20.725
305.99	20.897
306.35	21.253
306.72	23.094
307.09	22.752
307.45	21.509
307.82	20.647
308.19	21.302
308.55	22.114
308.92	20.838
309.29	21.014
309.65	20.785
310.02	21.459
310.38	21.290
310.75	20.697
311.12	20.676
311.48	21.839
311.85	22.537
312.22	21.852
312.58	21.518
312.95	21.859
313.31	20.194
313.68	22.557
314.05	23.669
314.41	22.513
314.78	22.356
315.14	22.840
315.51	22.245
315.87	23.168
316.24	22.046
316.61	22.807
316.97	22.896
317.34	22.994
317.70	23.040
318.07	23.965
318.43	25.734
318.80	25.398
319.16	23.917
319.53	24.578
319.89	27.238
320.26	26.000
320.62	25.794
320.99	27.071
321.35	27.172
321.72	28.029
322.08	29.121
322.45	30.348
322.81	27.810
323.18	30.539
323.54	29.128
323.91	30.189
324.27	30.497
324.64	31.221
325.00	31.109
325.37	32.211
325.73	33.573
326.10	34.157
326.46	33.423
326.83	35.203
327.19	34.757
327.56	35.540
327.92	36.395
328.29	36.202
328.65	37.661
329.01	37.455
329.38	38.853
329.74	37.858
330.11	39.020
330.47	39.118
330.84	39.798
331.20	37.887
331.56	38.991
331.93	39.167
332.29	39.663
332.66	40.885
333.02	39.945
333.38	40.650
333.75	40.107
334.11	38.879
334.48	40.550
334.84	41.176
335.20	41.364
335.57	40.798
335.93	40.268
336.29	40.842
336.66	40.216
337.02	39.367
337.38	40.926
337.75	40.463
338.11	41.182
338.47	41.621
338.84	40.513
339.20	41.101
339.56	41.788
339.93	43.000
340.29	41.214
340.65	41.444
341.02	42.670
341.38	42.527
341.74	41.053
342.11	42.795
342.47	42.996
342.83	42.380
343.20	42.338
343.56	41.533
343.92	41.754
344.28	42.347
344.65	42.734
345.01	41.414
345.37	40.995
345.73	42.555
346.10	42.711
346.46	42.627
346.82	41.845
347.19	42.356
347.55	41.297
347.91	42.961
348.27	41.660
348.63	42.475
349.00	41.181
349.36	43.842
349.72	41.860
350.08	42.869
350.45	43.369
350.81	42.486
351.17	43.598
351.53	42.506
351.89	43.234
352.26	44.594
352.62	42.903
352.98	42.301
353.34	43.057
353.70	42.717
354.07	42.742
354.43	40.714
354.79	41.673
355.15	41.181
355.51	43.885
355.87	43.510
356.24	43.648
356.60	42.662
356.96	43.926
357.32	43.254
357.68	43.150
358.04	41.647
358.40	42.597
358.77	42.801
359.13	42.699
359.49	42.824
359.85	42.222
360.21	42.743
360.57	44.125
360.93	42.692
361.29	42.479
361.66	42.028
362.02	44.627
362.38	43.802
362.74	42.485
363.10	42.635
363.46	43.287
363.82	43.311
364.18	44.126
364.54	42.645
364.90	43.130
365.26	44.779
365.62	44.558
365.98	42.805
366.35	42.550
366.71	44.252
367.07	43.554
367.43	44.702
367.79	44.968
368.15	44.971
368.51	43.532
368.87	44.968
369.23	43.380
369.59	45.257
369.95	43.603
370.31	44.801
370.67	44.493
371.03	46.292
371.39	45.700
371.75	46.324
372.11	43.812
372.47	46.481
372.83	47.406
373.19	45.231
373.55	46.194
373.91	46.686
374.27	44.192
374.63	46.473
374.99	45.975
375.35	44.452
375.71	45.990
376.07	46.639
376.42	46.974
376.78	45.991
377.14	45.658
377.50	46.623
377.86	46.410
378.22	45.828
378.58	44.674
378.94	45.757
379.30	47.074
379.66	47.018
380.02	46.622
380.38	45.234
380.74	48.259
381.09	47.494
381.45	48.801
381.81	47.543
382.17	48.917
382.53	47.799
382.89	47.901
383.25	48.280
383.61	48.327
383.97	48.093
384.32	47.973
384.68	48.203
385.04	47.757
385.40	49.164
385.76	47.789
386.12	48.899
386.48	49.339
386.83	50.417
387.19	49.598
387.55	49.845
387.91	50.060
388.27	48.620
388.62	50.645
388.98	49.570
389.34	50.939
389.70	50.337
390.06	51.204
390.42	51.492
390.77	50.954
391.13	50.734
391.49	51.079
391.85	50.668
392.20	51.861
392.56	49.747
392.92	52.560
393.28	51.302
393.64	52.278
393.99	52.108
394.35	52.357
394.71	51.506
395.07	52.150
395.42	52.905
395.78	52.226
396.14	53.321
396.50	53.258
396.85	53.783
397.21	53.083
397.57	53.131
397.92	54.387
398.28	52.466
398.64	53.524
399.00	53.945
399.35	53.582
399.71	53.935
400.07	55.529
400.42	54.663
400.78	55.187
401.14	54.878
401.49	55.642
401.85	54.446
402.21	53.952
402.57	54.596
402.92	56.936
403.28	56.590
403.63	56.498
403.99	55.924
404.35	57.333
404.70	55.695
405.06	56.843
405.42	57.580
405.77	56.343
406.13	56.490
406.49	56.889
406.84	57.236
407.20	56.678
407.55	57.945
407.91	59.467
408.27	59.732
408.62	58.820
408.98	59.007
409.34	59.102
409.69	59.355
410.05	59.727
410.40	59.511
410.76	59.857
411.11	58.806
411.47	59.105
411.83	60.171
412.18	59.493
412.54	61.955
412.89	59.880
413.25	60.449
413.60	61.272
413.96	60.595
414.31	61.604
414.67	63.054
415.03	62.185
415.38	62.436
415.74	62.379
416.09	61.855
416.45	63.655
416.80	62.260
417.16	64.544
417.51	63.238
417.87	62.749
418.22	64.164
418.58	63.912
418.93	63.022
419.29	63.399
419.64	65.050
420.00	64.024
420.35	63.014
420.71	64.854
421.06	64.379
421.42	63.158
421.77	65.807
422.12	65.244
422.48	62.817
422.83	64.997
423.19	64.254
423.54	64.655
423.90	65.159
424.25	65.271
424.61	64.643
424.96	66.122
425.31	65.006
425.67	63.876
426.02	66.114
426.38	66.484
426.73	65.886
427.09	66.383
427.44	66.417
427.79	66.302
428.15	66.071
428.50	66.296
428.85	66.985
429.21	66.648
429.56	67.652
429.92	66.633
430.27	66.534
430.62	66.718
430.98	66.373
431.33	66.289
431.68	68.168
432.04	65.815
432.39	69.103
432.74	68.582
433.10	67.572
433.45	68.980
433.80	69.124
434.16	68.162
434.51	68.053
434.86	68.415
435.22	69.205
435.57	69.422
435.92	69.631
436.28	70.522
436.63	69.702
436.98	70.349
437.34	69.112
437.69	70.887
438.04	69.983
438.39	69.254
438.75	71.644
439.10	69.944
439.45	70.012
439.81	69.909
440.16	69.509
440.51	69.596
440.86	70.874
441.22	70.801
441.57	70.966
441.92	69.806
442.27	70.667
442.63	69.879
442.98	72.000
443.33	69.837
443.68	69.231
444.03	69.839
444.39	70.789
444.74	69.589
445.09	70.296
445.44	70.749
445.79	70.905
446.15	70.778
446.50	71.675
446.85	70.555
447.20	72.004
447.55	70.631
447.91	70.932
448.26	71.007
448.61	71.114
448.96	71.927
449.31	71.260
449.66	70.456
450.02	70.418
450.37	70.918
450.72	72.194
451.07	72.700
451.42	71.429
451.77	72.225
452.12	71.940
452.47	71.517
452.83	73.077
453.18	71.760
453.53	72.233
453.88	72.652
454.23	71.010
454.58	72.865
454.93	72.791
455.28	70.948
455.63	72.998
455.98	74.762
456.34	72.111
456.69	73.200
457.04	74.118
457.39	72.063
457.74	70.865
458.09	72.168
458.44	72.520
458.79	70.174
459.14	71.388
459.49	71.629
459.84	71.911
460.19	71.420
460.54	70.081
460.89	71.311
461.24	72.010
461.59	72.400
461.94	72.750
462.29	72.582
462.64	72.112
462.99	71.958
463.34	72.133
463.69	71.732
464.04	71.478
464.39	70.957
464.74	72.846
465.09	72.557
465.44	70.637
465.79	71.980
466.14	70.115
466.49	71.468
466.84	72.563
467.19	71.756
467.54	73.250
467.89	72.089
468.24	72.600
468.59	72.833
468.94	70.373
469.29	73.136
469.64	73.427
469.99	74.019
470.34	73.316
470.68	74.713
471.03	73.265
471.38	75.747
471.73	72.085
472.08	73.684
472.43	73.555
472.78	72.745
473.13	72.786
473.48	73.096
473.83	72.012
474.17	71.313
474.52	73.449
474.87	73.438
475.22	73.302
475.57	70.983
475.92	72.119
476.27	72.322
476.61	72.035
476.96	72.237
477.31	71.376
477.66	73.742
478.01	71.249
478.36	72.343
478.70	72.222
479.05	72.630
479.40	72.569
479.75	73.665
480.10	72.515
480.45	71.347
480.79	71.715
481.14	72.309
481.49	72.378
481.84	72.291
482.19	72.194
482.53	70.963
482.88	72.034
483.23	71.963
483.58	70.382
483.92	72.118
484.27	69.673
484.62	71.466
484.97	69.570
485.31	71.644
485.66	69.444
486.01	67.189
486.36	65.759
486.70	65.337
487.05	66.802
487.40	67.518
487.75	67.662
488.09	68.881
488.44	68.546
488.79	69.765
489.13	70.435
489.48	70.636
489.83	71.385
490.17	71.328
490.52	70.815
490.87	71.190
491.22	70.987
491.56	69.567
491.91	71.615
492.26	70.372
492.60	70.691
492.95	71.001
493.30	70.514
493.64	71.955
493.99	71.495
494.34	70.120
494.68	71.429
495.03	71.758
495.37	70.498
495.72	71.491
496.07	72.111
496.41	69.292
496.76	70.844
497.11	70.374
497.45	70.750
497.80	71.161
498.14	71.981
498.49	71.805
498.84	70.997
499.18	72.000
499.53	71.035
499.87	72.041
500.22	69.948
500.56	72.816
500.91	71.010
501.26	72.167
501.60	72.568
501.95	70.211
502.29	71.603
502.64	71.881
502.98	71.529
503.33	70.475
503.67	71.462
504.02	69.972
504.36	70.941
504.71	70.982
505.06	70.217
505.40	71.366
505.75	70.106
506.09	71.331
506.44	73.014
506.78	71.018
507.13	72.590
507.47	71.212
507.82	72.492
508.16	71.884
508.51	72.349
508.85	72.195
509.19	72.908
509.54	71.122
509.88	71.716
510.23	71.517
510.57	73.942
510.92	72.967
511.26	71.069
511.61	71.784
511.95	71.764
512.30	71.898
512.64	72.112
512.98	72.937
513.33	72.056
513.67	71.238
514.02	71.916
514.36	73.785
514.70	71.444
515.05	73.731
515.39	73.920
515.74	72.804
516.08	72.666
516.42	73.474
516.77	74.916
517.11	73.252
517.46	73.702
517.80	73.926
518.14	73.480
518.49	75.379
518.83	73.409
519.17	73.961
519.52	73.345
519.86	74.672
520.20	73.931
520.55	75.583
520.89	75.791
521.23	75.573
521.58	74.550
521.92	74.158
522.26	72.971
522.61	74.579
522.95	73.972
523.29	76.202
523.64	74.634
523.98	76.833
524.32	74.789
524.66	75.286
525.01	74.510
525.35	75.031
525.69	74.200
526.04	75.327
526.38	74.924
526.72	73.742
527.06	76.208
527.41	73.700
527.75	76.977
528.09	77.071
528.43	76.864
528.78	74.862
529.12	74.485
529.46	75.566
529.80	75.433
530.15	74.891
530.49	73.415
530.83	76.076
531.17	77.219
531.51	77.626
531.86	76.129
532.20	76.662
532.54	75.657
532.88	76.059
533.22	75.078
533.57	75.802
533.91	73.931
534.25	75.395
534.59	75.595
534.93	74.836
535.27	74.955
535.62	75.031
535.96	76.146
536.30	76.287
536.64	76.175
536.98	76.709
537.32	76.498
537.66	76.933
538.01	77.288
538.35	75.889
538.69	76.133
539.03	77.583
539.37	76.741
539.71	75.113
540.05	77.190
540.39	76.944
540.73	77.167
541.07	76.768
541.42	77.691
541.76	78.774
542.10	76.973
542.44	77.616
542.78	78.458
543.12	75.240
543.46	77.705
543.80	77.814
544.14	75.546
544.48	76.444
544.82	76.203
545.16	78.074
545.50	75.643
545.84	76.613
546.18	78.182
546.52	78.527
546.86	80.137
547.20	78.894
547.54	77.956
547.88	77.551
548.22	76.152
548.56	77.170
548.90	76.248
549.24	77.239
549.58	78.786
549.92	77.473
550.26	80.966
550.60	77.109
550.94	78.310
551.28	79.151
551.62	80.590
551.96	78.386
552.30	78.840
552.64	77.755
552.98	77.898
553.32	78.152
553.66	79.482
554.00	79.410
554.34	76.881
554.68	80.186
555.02	77.927
555.36	79.054
555.69	77.199
556.03	77.658
556.37	79.400
556.71	77.422
557.05	78.291
557.39	77.397
557.73	79.817
558.07	80.131
558.41	80.391
558.75	79.647
559.08	79.344
559.42	81.935
559.76	79.706
560.10	77.016
560.44	78.616
560.78	77.778
561.12	77.243
561.45	78.031
561.79	77.324
562.13	78.135
562.47	78.620
562.81	80.753
563.15	77.458
563.48	78.117
563.82	78.408
564.16	78.221
564.50	77.214
564.84	77.876
565.17	79.215
565.51	78.658
565.85	78.046
566.19	77.082
566.52	78.974
566.86	76.733
567.20	78.538
567.54	78.253
567.88	76.154
568.21	77.302
568.55	75.531
568.89	75.389
569.23	74.242
569.56	74.130
569.90	73.962
570.24	74.130
570.57	72.560
570.91	71.138
571.25	71.433
571.59	71.134
571.92	71.544
572.26	71.259
572.60	71.652
572.93	70.825
573.27	72.316
573.61	71.915
573.95	71.214
574.28	70.226
574.62	70.797
574.96	69.821
575.29	69.180
575.63	70.681
575.97	69.669
576.30	69.676
576.64	70.836
576.98	70.418
577.31	70.171
577.65	70.315
577.98	70.165
578.32	68.527
578.66	70.147
578.99	70.372
579.33	70.564
579.67	69.156
580.00	70.223
580.34	70.123
580.67	69.865
581.01	70.205
581.35	70.178
581.68	70.337
582.02	68.900
582.35	69.946
582.69	69.604
583.02	69.910
583.36	70.602
583.70	71.578
584.03	70.951
584.37	71.568
584.70	71.787
585.04	70.303
585.37	70.760
585.71	70.700
586.04	70.669
586.38	72.179
586.72	72.604
587.05	69.818
587.39	70.501
587.72	70.910
588.06	71.825
588.39	70.782
588.73	71.898
589.06	73.045
589.40	73.502
589.73	72.369
590.07	72.028
590.40	72.379
590.73	74.122
591.07	73.708
591.40	74.019
591.74	75.281
592.07	72.557
592.41	74.204
592.74	72.697
593.08	71.919
593.41	73.141
593.75	70.425
594.08	71.740
594.41	73.241
594.75	73.752
595.08	72.727
595.42	72.434
595.75	72.863
596.09	73.526
596.42	72.574
596.75	73.702
597.09	73.506
597.42	72.470
597.75	73.264
598.09	73.783
598.42	73.711
598.76	72.477
599.09	72.026
599.42	72.380
599.76	71.852
600.09	71.949
600.42	71.549
600.76	71.107
601.09	72.204
601.42	73.059
601.76	72.600
602.09	73.360
602.42	73.049
602.76	73.075
603.09	72.738
603.42	72.355
603.76	71.456
604.09	71.733
604.42	72.727
604.76	74.188
605.09	73.788
605.42	71.740
605.75	73.344
606.09	72.102
606.42	74.499
606.75	72.128
607.09	71.913
607.42	72.657
607.75	71.941
608.08	73.209
608.42	73.196
608.75	72.543
609.08	72.618
609.41	73.108
609.75	73.082
610.08	74.411
610.41	73.464
610.74	74.409
611.07	75.198
611.41	73.062
611.74	73.957
612.07	76.035
612.40	76.076
612.73	73.737
613.07	76.347
613.40	75.935
613.73	73.414
614.06	74.785
614.39	73.466
614.72	74.421
615.06	73.582
615.39	74.469
615.72	73.006
616.05	73.312
616.38	75.653
616.71	76.366
617.05	77.032
617.38	75.105
617.71	76.396
618.04	76.142
618.37	74.571
618.70	76.416
619.03	77.566
619.36	77.189
619.69	76.690
620.03	78.022
620.36	77.005
620.69	76.644
621.02	78.245
621.35	78.543
621.68	78.193
622.01	78.638
622.34	77.080
622.67	78.935
623.00	78.797
623.33	77.127
623.66	78.771
623.99	78.130
624.32	76.676
624.65	76.130
624.99	76.133
625.32	78.204
625.65	77.611
625.98	78.786
626.31	79.238
626.64	78.939
626.97	79.052
627.30	79.219
627.63	79.163
627.96	79.142
628.29	79.965
628.62	81.610
628.95	81.321
629.28	80.657
629.61	82.126
629.94	82.286
630.26	80.362
630.59	80.172
630.92	80.172
631.25	79.566
631.58	79.780
631.91	82.252
632.24	79.958
632.57	81.952
632.90	81.140
633.23	83.110
633.56	85.650
633.89	81.653
634.22	82.633
634.55	87.692
634.88	83.473
635.20	84.827
635.53	83.373
635.86	85.644
636.19	82.941
636.52	82.584
636.85	82.474
637.18	81.221
637.51	84.634
637.83	82.121
638.16	85.806
638.49	81.864
638.82	86.979
639.15	84.500
639.48	85.536
639.81	86.729
640.13	83.724
640.46	84.161
640.79	83.091
641.12	83.906
641.45	84.637
641.77	90.427
642.10	87.427
642.43	86.186
642.76	88.545
643.09	88.957
643.41	84.674
643.74	88.117
644.07	87.043
644.40	88.650
644.73	88.189
645.05	87.956
645.38	86.730
645.71	87.762
646.04	92.027
646.36	89.482
646.69	87.793
647.02	90.646
647.35	88.316
647.67	92.566
648.00	86.992
648.33	87.459
648.66	82.879
648.98	86.657
649.31	85.800
649.64	85.052
649.96	84.948
650.29	85.150
650.62	84.304
650.94	83.630
651.27	90.541
651.60	88.353
651.92	85.942
652.25	85.831
652.58	86.604
652.90	84.992
653.23	83.359
653.56	87.087
653.88	84.311
654.21	87.046
654.54	88.449
654.86	86.293
655.19	80.541
655.52	60.849
655.84	58.362
656.17	75.376
656.49	98.812
656.82	99.941
657.15	77.213
657.47	56.882
657.80	43.600
658.13	45.225
658.45	66.698
658.78	66.110
659.10	68.050
659.43	70.694
659.75	72.934
660.08	79.241
660.41	84.637
660.73	86.404
661.06	86.306
661.38	91.818
661.71	89.423
662.03	89.941
662.36	87.078
662.68	87.149
663.01	88.687
663.33	91.295
663.66	91.176
663.98	91.793
664.31	90.756
664.63	86.235
664.96	85.714
665.28	90.779
665.61	89.864
665.93	87.123
666.26	89.858
666.58	91.004
666.91	89.006
667.23	93.933
667.56	87.473
667.88	88.034
668.21	88.699
668.53	88.937
668.86	85.714
669.18	90.618
669.50	88.261
669.83	89.760
670.15	92.444
670.48	87.146
670.80	88.147
671.13	90.658
671.45	88.085
671.77	87.169
672.10	83.179
672.42	84.452
672.75	82.587
673.07	86.796
673.39	86.618
673.72	88.477
674.04	88.235
674.37	82.524
674.69	85.481
675.01	86.192
675.34	86.037
675.66	89.474
675.98	89.206
676.31	85.084
676.63	86.412
676.95	85.115
677.28	88.318
677.60	85.714
677.92	86.920
678.25	85.421
678.57	85.259
678.89	85.972
679.22	83.694
679.54	84.733
679.86	84.587
680.18	81.038
680.51	80.319
680.83	80.071
681.15	80.377
681.48	83.932
681.80	82.398
682.12	83.333
682.44	82.012
682.77	87.373
683.09	92.918
683.41	87.583
683.73	88.962
684.06	84.711
684.38	82.192
684.70	83.915
685.02	81.614
685.34	80.220
685.67	77.098
685.99	81.443
686.31	81.229
686.63	76.502
686.96	78.929
687.28	78.700
687.60	79.348
687.92	80.073
688.24	80.228
688.56	80.120
688.89	84.855
689.21	87.773
689.53	82.881
689.85	88.027
690.17	81.366
690.49	83.864
690.82	86.449
691.14	87.277
691.46	82.068
691.78	79.518
692.10	85.331
692.42	80.639
692.74	81.535
693.06	83.617
693.39	82.957
693.71	86.681
694.03	84.000
694.35	83.117
694.67	83.753
694.99	85.610
695.31	83.578
695.63	84.450
695.95	86.064
696.27	82.995
696.59	85.751
696.91	85.751
697.23	80.516
697.56	85.501
697.88	76.278
698.20	79.583
698.52	83.441
698.84	80.624
699.16	82.719
699.48	85.748
699.80	86.473
700.12	91.688
700.44	89.125
700.76	87.293
701.08	89.368
701.40	86.872
701.72	92.128
702.04	95.455
702.36	84.986
702.68	85.836
703.00	88.089
703.32	84.574
703.64	84.182
703.96	87.465
704.28	87.791
704.60	86.510
704.91	88.724
705.23	84.751
705.55	95.681
705.87	98.339
706.19	91.519
706.51	85.670
706.83	89.394
707.15	87.955
707.47	82.576
707.79	83.784
708.11	76.712
708.43	76.667
708.74	82.908
709.06	84.675
709.38	81.365
709.70	92.151
710.02	85.757
710.34	84.242
710.66	84.179
710.98	83.239
711.29	85.465
711.61	83.481
711.93	83.333
712.25	87.138
712.57	95.221
712.89	88.927
713.20	82.371
713.52	91.118
713.84	80.380
714.16	82.927
714.48	84.195
714.80	90.578
715.11	84.438
715.43	84.866
715.75	81.159
716.07	85.942
716.39	84.326
716.70	87.708
717.02	87.410
717.34	87.279
717.66	89.179
717.97	98.406
718.29	89.259
718.61	90.876
718.93	90.809
719.24	85.467
719.56	78.983
719.88	86.102
720.20	88.176
720.51	84.321
720.83	90.706
721.15	86.940
721.46	86.170
721.78	88.889
722.10	93.585
722.42	89.474
722.73	89.888
723.05	90.164
723.37	89.069
723.68	85.328
724.00	87.805
724.32	87.903
724.63	89.024
724.95	91.632
725.27	87.854
725.58	87.891
725.90	90.511
726.22	86.415
726.53	83.333
726.85	81.229
727.16	81.851
727.48	82.270
727.80	86.364
728.11	84.420
728.43	85.385
728.74	82.796
729.06	88.321
729.38	90.074
729.69	85.765
730.01	81.911
730.32	83.333
730.64	78.595
730.96	78.218
731.27	80.795
731.59	80.734
731.90	79.300
732.22	80.435
732.53	76.161
732.85	78.526
733.16	79.743
733.48	78.073
733.80	85.065
734.11	78.025
734.43	76.627
734.74	71.714
735.06	74.499
735.37	79.480
735.69	79.936
736.00	80.065
736.32	79.751
736.63	79.233
736.95	79.872
737.26	75.850
737.58	79.032
737.89	83.612
738.21	84.642
738.52	77.143
738.83	81.509
739.15	79.615
739.46	80.292
739.78	79.514
740.09	74.769
740.41	79.032
740.72	81.185
741.04	83.333
741.35	82.083
741.66	84.000
741.98	86.321
742.29	90.909
742.61	84.052
742.92	87.783
743.23	84.188
743.55	82.800
743.86	86.404
744.18	95.133
744.49	94.737
744.80	85.446
745.12	88.182
745.43	80.617
745.74	91.892
746.06	92.202
746.37	84.753
746.68	85.520
747.00	88.889
747.31	93.333
747.62	87.168
747.94	85.463
748.25	88.085
748.56	87.225
748.88	95.545
749.19	91.000
749.50	90.698
749.82	82.114
750.13	84.490
750.44	80.292
750.75	79.298
751.07	76.849
751.38	81.185
751.69	76.895
752.01	80.827
752.32	75.451
752.63	81.560
752.94	86.475
753.26	89.600
753.57	79.268
753.88	85.156
754.19	73.929
754.51	77.083
754.82	75.812
755.13	81.132
755.44	81.203
755.75	76.642
756.07	78.723
756.38	79.197
756.69	78.188
757.00	71.856
757.31	73.591
757.63	68.129
757.94	70.241
758.25	67.402
758.56	71.111
758.87	73.118
759.18	69.394
759.50	74.608
759.81	73.520
760.12	77.500
760.43	73.639
760.74	68.478
761.05	71.186
761.36	70.856
761.67	72.727
761.99	72.050
762.30	77.431
762.61	73.664
762.92	79.688
763.23	78.992
763.54	79.200
763.85	72.266
764.16	80.000
764.47	80.989
764.78	73.498
765.10	69.304
765.41	72.861
765.72	73.353
766.03	71.473
766.34	75.000
766.65	85.957
766.96	77.350
767.27	92.893
767.58	88.021
767.89	88.947
768.20	86.782
768.51	84.772
768.82	83.486
769.13	76.829
769.44	78.543
769.75	78.112
770.06	78.440
770.37	77.828
770.68	80.093
770.99	80.000
771.30	74.180
771.61	86.996
771.92	81.557
772.23	81.092
772.54	84.103
772.85	85.864
773.16	88.830
773.47	81.522
773.78	84.772
774.09	88.095
774.39	80.702
774.70	88.272
775.01	97.101
775.32	86.275
775.63	90.789
775.94	97.122
776.25	111.811
776.56	99.254
776.87	101.639
777.18	100.781
777.48	104.580
777.79	97.727
778.10	89.630
778.41	100.893
778.72	93.431
779.03	93.960
779.34	85.235
779.65	91.892
779.95	89.571
780.26	92.157
780.57	99.310
780.88	107.031
781.19	93.233
781.50	93.919
781.80	85.535
782.11	80.791
782.42	87.975
782.73	76.687
783.04	89.865
783.34	97.183
783.65	99.315
783.96	89.552
784.27	90.909
784.57	84.892
784.88	94.444
785.19	88.889
785.50	102.830
785.81	97.761
786.11	105.738
786.42	96.899
786.73	99.115
787.04	107.547
787.34	106.250
787.65	108.000
787.96	99.099
788.26	95.868
788.57	108.475
788.88	103.306
789.19	93.056
789.49	98.485
789.80	91.603
790.11	111.429
790.41	100.000
790.72	114.458
791.03	108.696
791.33	120.930
791.64	110.309
791.95	104.950
792.25	123.333
792.56	129.870
792.87	125.641
793.17	129.114
793.48	103.448
793.79	122.989
794.09	118.182
794.40	97.479
794.70	88.235
795.01	87.407
795.32	88.489
795.62	90.551
795.93	96.552
796.23	98.230
796.54	100.000
796.85	125.676
797.15	143.662
797.46	122.727
797.76	118.072
798.07	107.595
798.37	135.385
798.68	121.212
798.99	108.451
799.29	115.584
799.60	100.000
799.90	132.877
800.21	137.313
800.51	155.172
800.82	156.140
801.12	134.426
801.43	136.364
801.73	116.216
802.04	138.095
802.34	95.062
802.65	132.812
802.95	152.542
803.26	125.000
803.56	114.286
803.87	121.538
804.17	126.471
804.48	166.667
804.78	127.586
805.09	126.471
805.39	175.000
805.70	160.714
806.00	139.344
806.30	137.879
806.61	112.195
806.91	106.329
807.22	115.789
807.52	123.881
807.83	126.761
808.13	135.937
808.43	143.333
808.74	107.895
809.04	133.333
809.35	128.358
809.65	113.158
809.95	150.000
810.26	127.119
810.56	133.333
810.86	175.000
811.17	195.238
811.47	148.333
811.77	138.889
812.08	141.818
812.38	170.000
812.69	177.778
812.99	175.000
813.29	153.061
813.59	145.238
813.90	153.061
814.20	123.636
814.50	123.077
814.81	139.706
815.11	148.980
815.41	137.705
815.72	171.429
816.02	134.545
816.32	185.714
816.62	167.500
816.93	180.488
817.23	176.190
817.53	181.818
817.84	196.970
818.14	176.087
818.44	160.000
818.74	211.765
819.04	167.500
819.35	197.143
819.65	217.647
819.95	217.857
820.25	250.000
820.56	192.308
820.86	177.273
821.16	197.674
821.46	197.436
821.76	144.000
822.07	205.714
822.37	177.500
822.67	230.303
822.97	150.980
823.27	210.714
823.57	200.000
823.88	207.500
824.18	226.667
824.48	161.905
824.78	308.000
825.08	225.000
825.38	189.189
825.69	148.780
825.99	275.000
826.29	213.793
826.59	226.316
826.89	197.368
827.19	211.765
827.49	245.161
827.79	188.636
828.09	177.273
828.39	157.447
828.70	148.980
829.00	218.519
829.30	200.000
829.60	185.000
829.90	420.000
830.20	221.429
830.50	239.130
830.80	239.130
831.10	220.000
831.40	233.333
831.70	230.435
832.00	234.615
832.30	259.259
832.60	400.000
832.90	256.667
833.20	492.857
833.50	225.806
833.80	227.586
834.10	228.125
834.40	269.231
834.70	344.444
835.00	309.524
835.30	202.857
835.60	400.000
835.90	210.345
836.20	357.143
836.50	224.138
836.80	248.000
837.10	200.000
837.40	314.286
837.70	335.294
838.00	237.037
838.30	280.952
838.60	347.619
838.90	246.154
839.19	330.000
839.49	421.429
839.79	350.000
840.09	315.000
840.39	309.524
840.69	273.913
840.99	272.222
841.29	590.000
841.59	375.000
841.88	362.500
842.18	175.862
842.48	290.476
842.78	223.333
843.08	278.261
843.38	184.375
843.68	983.333
843.97	253.846
844.27	213.793
844.57	309.524
844.87	343.750
845.17	248.148
845.47	1366.667
845.76	611.111
846.06	370.588
846.36	625.000
846.66	435.714
846.96	368.750
847.25	472.727
847.55	518.182
847.85	278.261
848.15	550.000
848.44	342.857
848.74	311.111
849.04	347.059
849.34	630.000
849.63	231.579
849.93	481.818
850.23	940.000
850.53	450.000
850.82	2850.000
851.12	-5100.000
851.42	5600.000
851.71	290.000
852.01	-1266.667
852.31	241.667
852.61	1800.000
852.90	304.762
853.20	248.000
853.50	347.059
853.79	261.905
854.09	279.167
854.39	412.500
854.68	208.108
854.98	180.645
855.28	190.000
855.57	251.724
855.87	259.259
856.17	331.579
856.46	306.667
856.76	352.941
857.05	213.793
857.35	262.500
857.65	333.333
857.94	273.913
858.24	230.769
858.53	285.000
858.83	281.818
859.13	333.333
859.42	0.000
859.72	544.444
860.01	554.545
860.31	322.727
860.60	300.000
860.90	239.130
861.20	555.556
861.49	508.333
861.79	-5100.000
862.08	662.500
862.38	290.476
862.67	430.769
862.97	376.471
863.26	588.889
863.56	361.111
863.85	500.000
864.15	675.000
864.44	360.000
864.74	916.667
865.03	675.000
865.33	300.000
865.62	545.455
865.92	500.000
866.21	433.333
866.51	0.000
866.80	481.818
867.10	1140.000
867.39	430.769
867.69	427.273
867.98	294.737
868.27	554.545
868.57	315.789
868.86	-4600.000
869.16	325.000
869.45	2400.000
869.75	-4200.000
870.04	533.333
870.33	671.429
870.63	850.000
870.92	3150.000
871.22	800.000
871.51	347.059
871.80	242.857
872.10	400.000
>>>>>End Processed Spectral Data<<<<<
