SpectraSuite Data File
++++++++++++++++++++++++++++++++++++
Date: Wed May 13 19:43:33 PDT 2015
User: schluterlab
Dark Spectrum Present: Yes
Reference Spectrum Present: Yes
Number of Sampled Component Spectra: 1
Spectrometers: USB2E3373
Integration Time (usec): 3000 (USB2E3373)
Spectra Averaged: 3 (USB2E3373)
Boxcar Smoothing: 0 (USB2E3373)
Correct for Electrical Dark: No (USB2E3373)
Strobe/Lamp Enabled: No (USB2E3373)
Correct for Detector Non-linearity: No (USB2E3373)
Correct for Stray Light: No (USB2E3373)
Number of Pixels in Processed Spectrum: 2048
>>>>>Begin Processed Spectral Data<<<<<
178.53	0.000
178.91	-1475.000
179.29	-1425.000
179.67	-255.556
180.04	-1400.000
180.42	2600.000
180.80	1080.000
181.18	-1125.000
181.56	614.286
181.94	0.000
182.31	-614.286
182.69	1800.000
183.07	-512.500
183.45	-444.444
183.83	518.182
184.20	-440.000
184.58	2600.000
184.96	5100.000
185.34	-1000.000
185.72	-662.500
186.09	-2350.000
186.47	2350.000
186.85	2450.000
187.23	5000.000
187.61	-1733.333
187.98	1325.000
188.36	563.636
188.74	536.364
189.12	-880.000
189.49	460.000
189.87	-4500.000
190.25	-1250.000
190.63	392.857
191.00	392.308
191.38	866.667
191.76	-1100.000
192.14	1250.000
192.51	587.500
192.89	1000.000
193.27	562.500
193.65	-1225.000
194.02	510.000
194.40	1060.000
194.78	550.000
195.15	525.000
195.53	600.000
195.91	-2350.000
196.29	350.000
196.66	326.316
197.04	-360.000
197.42	0.000
197.79	610.000
198.17	-4900.000
198.55	585.714
198.92	762.500
199.30	1140.000
199.68	0.000
200.05	355.556
200.43	771.429
200.81	5000.000
201.18	1700.000
201.56	-1400.000
201.94	600.000
202.31	611.111
202.69	425.000
203.07	520.000
203.44	0.000
203.82	1200.000
204.19	800.000
204.57	400.000
204.95	637.500
205.32	1600.000
205.70	518.182
206.08	364.286
206.45	2400.000
206.83	368.750
207.20	900.000
207.58	900.000
207.96	294.444
208.33	800.000
208.71	-800.000
209.08	757.143
209.46	600.000
209.84	536.364
210.21	-1566.667
210.59	1525.000
210.96	-512.500
211.34	2150.000
211.71	480.000
212.09	866.667
212.46	0.000
212.84	1900.000
213.22	1175.000
213.59	-4600.000
213.97	1000.000
214.34	757.143
214.72	536.364
215.09	960.000
215.47	-1900.000
215.84	-2700.000
216.22	1766.667
216.59	357.143
216.97	1500.000
217.34	500.000
217.72	-733.333
218.09	0.000
218.47	-4200.000
218.84	655.556
219.22	771.429
219.59	1466.667
219.97	-514.286
220.34	980.000
220.72	-1666.667
221.09	335.714
221.47	1525.000
221.84	-800.000
222.22	0.000
222.59	1475.000
222.97	-2650.000
223.34	1120.000
223.72	392.308
224.09	1100.000
224.46	2250.000
224.84	-5500.000
225.21	-960.000
225.59	-4700.000
225.96	520.000
226.34	285.000
226.71	2300.000
227.08	562.500
227.46	620.000
227.83	-1100.000
228.21	-2450.000
228.58	644.444
228.95	-2600.000
229.33	-2650.000
229.70	1800.000
230.08	685.714
230.45	-740.000
230.82	425.000
231.20	816.667
231.57	714.286
231.95	466.667
232.32	250.000
232.69	436.364
233.07	728.571
233.44	315.385
233.81	-1700.000
234.19	326.316
234.56	458.333
234.93	408.333
235.31	409.091
235.68	284.615
236.05	321.429
236.43	172.727
236.80	242.105
237.17	5000.000
237.55	223.810
237.92	221.429
238.29	261.905
238.67	174.194
239.04	200.000
239.41	111.111
239.79	119.565
240.16	138.095
240.53	131.818
240.91	88.235
241.28	124.000
241.65	104.000
242.02	98.551
242.40	95.161
242.77	88.333
243.14	65.591
243.51	85.393
243.89	72.941
244.26	55.556
244.63	51.613
245.00	60.638
245.38	59.406
245.75	48.598
246.12	45.872
246.49	56.934
246.87	59.200
247.24	50.769
247.61	43.571
247.98	42.484
248.36	38.514
248.73	45.223
249.10	40.127
249.47	42.373
249.84	38.503
250.22	37.433
250.59	41.420
250.96	40.909
251.33	40.284
251.70	41.089
252.08	34.286
252.45	29.148
252.82	33.478
253.19	33.617
253.56	34.902
253.94	34.855
254.31	30.859
254.68	33.077
255.05	32.472
255.42	30.894
255.79	33.088
256.16	33.935
256.54	26.855
256.91	32.028
257.28	26.259
257.65	27.393
258.02	28.571
258.39	28.707
258.76	27.759
259.14	26.488
259.51	25.836
259.88	24.845
260.25	31.420
260.62	23.699
260.99	25.155
261.36	25.225
261.73	27.221
262.10	25.291
262.47	26.761
262.85	28.412
263.22	22.507
263.59	28.775
263.96	23.901
264.33	26.893
264.70	23.684
265.07	26.087
265.44	28.283
265.81	24.574
266.18	26.131
266.55	22.927
266.92	25.553
267.29	22.685
267.66	22.936
268.03	21.591
268.40	25.000
268.77	23.150
269.14	23.198
269.51	25.056
269.88	23.310
270.25	23.476
270.62	22.697
270.99	24.301
271.36	24.464
271.73	20.794
272.10	22.826
272.47	21.505
272.84	24.026
273.21	20.964
273.58	20.524
273.95	19.916
274.32	18.802
274.69	23.126
275.06	20.472
275.43	21.489
275.80	21.443
276.17	22.200
276.54	22.453
276.91	21.937
277.28	20.898
277.65	21.857
278.02	20.083
278.39	23.828
278.76	22.364
279.13	20.566
279.50	23.464
279.87	20.319
280.23	21.557
280.60	20.116
280.97	19.039
281.34	21.770
281.71	21.455
282.08	21.497
282.45	20.364
282.82	21.314
283.19	18.004
283.56	19.825
283.92	20.474
284.29	19.400
284.66	19.964
285.03	19.530
285.40	20.951
285.77	20.707
286.14	18.998
286.51	20.667
286.87	20.342
287.24	20.847
287.61	17.496
287.98	19.643
288.35	18.225
288.72	19.626
289.08	20.031
289.45	16.474
289.82	18.374
290.19	19.309
290.56	17.611
290.93	17.372
291.29	17.638
291.66	16.372
292.03	20.494
292.40	17.327
292.77	15.828
293.13	18.060
293.50	17.638
293.87	17.333
294.24	16.000
294.60	14.265
294.97	17.297
295.34	16.361
295.71	16.903
296.08	15.670
296.44	15.131
296.81	15.984
297.18	17.209
297.55	15.567
297.91	16.227
298.28	16.466
298.65	17.102
299.02	16.601
299.38	14.741
299.75	13.208
300.12	14.815
300.48	14.250
300.85	14.673
301.22	14.522
301.59	14.141
301.95	13.854
302.32	15.019
302.69	15.532
303.05	14.545
303.42	14.444
303.79	14.949
304.15	13.054
304.52	14.832
304.89	14.750
305.25	13.457
305.62	13.930
305.99	14.876
306.35	14.765
306.72	14.238
307.09	15.427
307.45	15.766
307.82	12.612
308.19	14.349
308.55	14.779
308.92	13.426
309.29	13.833
309.65	13.256
310.02	13.531
310.38	13.763
310.75	14.361
311.12	13.715
311.48	14.629
311.85	15.828
312.22	15.088
312.58	15.489
312.95	15.417
313.31	14.660
313.68	14.761
314.05	17.949
314.41	15.377
314.78	14.401
315.14	15.194
315.51	15.345
315.87	15.842
316.24	14.896
316.61	16.082
316.97	15.362
317.34	15.362
317.70	16.252
318.07	17.421
318.43	16.732
318.80	18.276
319.16	17.985
319.53	16.698
319.89	17.905
320.26	19.700
320.62	18.056
320.99	19.596
321.35	19.293
321.72	19.199
322.08	20.731
322.45	22.388
322.81	21.802
323.18	22.543
323.54	22.356
323.91	22.358
324.27	22.275
324.64	22.740
325.00	22.543
325.37	24.477
325.73	25.763
326.10	25.243
326.46	24.821
326.83	26.143
327.19	26.558
327.56	26.829
327.92	28.521
328.29	27.595
328.65	28.637
329.01	28.520
329.38	30.805
329.74	29.917
330.11	30.537
330.47	32.140
330.84	31.526
331.20	30.146
331.56	30.917
331.93	32.315
332.29	32.476
332.66	32.212
333.02	32.084
333.38	33.604
333.75	32.977
334.11	33.096
334.48	32.919
334.84	33.548
335.20	33.182
335.57	32.366
335.93	31.875
336.29	32.967
336.66	33.634
337.02	33.394
337.38	33.333
337.75	32.709
338.11	33.214
338.47	34.070
338.84	35.380
339.20	33.028
339.56	34.854
339.93	33.364
340.29	34.239
340.65	33.155
341.02	34.119
341.38	33.986
341.74	33.684
342.11	33.886
342.47	32.952
342.83	34.161
343.20	34.892
343.56	32.940
343.92	33.246
344.28	33.418
344.65	33.792
345.01	32.323
345.37	32.075
345.73	33.672
346.10	34.356
346.46	33.220
346.82	33.114
347.19	32.414
347.55	33.087
347.91	32.282
348.27	34.511
348.63	32.692
349.00	34.061
349.36	34.072
349.72	33.520
350.08	31.767
350.45	33.442
350.81	31.925
351.17	32.577
351.53	32.596
351.89	32.096
352.26	34.096
352.62	32.077
352.98	32.172
353.34	34.347
353.70	31.751
354.07	33.306
354.43	31.667
354.79	32.341
355.15	32.083
355.51	32.614
355.87	32.408
356.24	32.329
356.60	31.355
356.96	32.019
357.32	32.543
357.68	33.543
358.04	32.621
358.40	32.067
358.77	32.081
359.13	32.597
359.49	31.608
359.85	31.349
360.21	31.659
360.57	32.062
360.93	31.462
361.29	31.897
361.66	29.876
362.02	31.866
362.38	32.624
362.74	31.101
363.10	31.458
363.46	31.695
363.82	32.351
364.18	31.645
364.54	32.912
364.90	32.649
365.26	31.618
365.62	31.191
365.98	30.898
366.35	31.160
366.71	32.176
367.07	32.119
367.43	31.858
367.79	31.763
368.15	31.968
368.51	31.468
368.87	31.549
369.23	31.383
369.59	32.585
369.95	31.691
370.31	32.123
370.67	32.029
371.03	31.461
371.39	31.633
371.75	31.838
372.11	30.654
372.47	31.598
372.83	32.421
373.19	30.419
373.55	32.299
373.91	33.284
374.27	30.103
374.63	31.418
374.99	32.203
375.35	32.170
375.71	31.117
376.07	31.619
376.42	31.912
376.78	32.604
377.14	31.615
377.50	31.589
377.86	30.253
378.22	31.606
378.58	30.576
378.94	31.867
379.30	31.170
379.66	31.980
380.02	30.283
380.38	30.419
380.74	30.792
381.09	31.479
381.45	31.530
381.81	32.002
382.17	30.764
382.53	31.006
382.89	31.481
383.25	31.207
383.61	32.094
383.97	31.082
384.32	30.443
384.68	31.289
385.04	31.899
385.40	31.207
385.76	30.651
386.12	30.894
386.48	31.278
386.83	32.649
387.19	32.529
387.55	31.293
387.91	30.895
388.27	30.779
388.62	31.592
388.98	30.835
389.34	32.165
389.70	31.821
390.06	31.622
390.42	31.193
390.77	32.697
391.13	31.589
391.49	31.345
391.85	31.381
392.20	30.726
392.56	31.629
392.92	30.194
393.28	30.296
393.64	31.595
393.99	31.643
394.35	31.452
394.71	30.364
395.07	30.592
395.42	31.150
395.78	30.789
396.14	31.719
396.50	31.078
396.85	31.977
397.21	30.764
397.57	30.936
397.92	30.950
398.28	30.605
398.64	31.004
399.00	30.666
399.35	30.908
399.71	31.250
400.07	30.928
400.42	31.350
400.78	31.544
401.14	30.610
401.49	30.985
401.85	30.792
402.21	30.419
402.57	30.907
402.92	31.715
403.28	31.605
403.63	30.755
403.99	31.720
404.35	30.242
404.70	31.115
405.06	30.868
405.42	30.443
405.77	30.457
406.13	31.151
406.49	30.514
406.84	30.715
407.20	29.965
407.55	30.440
407.91	31.333
408.27	30.696
408.62	30.524
408.98	30.270
409.34	30.627
409.69	31.355
410.05	31.103
410.40	31.009
410.76	31.063
411.11	29.976
411.47	30.543
411.83	30.483
412.18	30.365
412.54	31.445
412.89	30.904
413.25	30.933
413.60	31.130
413.96	30.965
414.31	30.802
414.67	30.735
415.03	29.338
415.38	30.541
415.74	31.897
416.09	31.940
416.45	31.191
416.80	30.205
417.16	31.836
417.51	31.652
417.87	30.829
418.22	31.104
418.58	30.084
418.93	30.713
419.29	30.808
419.64	30.479
420.00	29.756
420.35	30.435
420.71	30.663
421.06	30.967
421.42	31.345
421.77	30.493
422.12	30.601
422.48	29.574
422.83	30.518
423.19	30.663
423.54	30.644
423.90	31.072
424.25	29.983
424.61	30.476
424.96	31.195
425.31	30.288
425.67	30.000
426.02	30.114
426.38	31.563
426.73	29.901
427.09	30.638
427.44	29.385
427.79	31.052
428.15	31.607
428.50	30.837
428.85	31.228
429.21	30.204
429.56	29.756
429.92	30.599
430.27	29.494
430.62	29.647
430.98	30.566
431.33	29.433
431.68	29.215
432.04	29.925
432.39	29.983
432.74	30.580
433.10	31.353
433.45	30.554
433.80	29.823
434.16	30.716
434.51	29.842
434.86	30.616
435.22	30.350
435.57	30.942
435.92	30.895
436.28	29.597
436.63	30.464
436.98	30.395
437.34	30.471
437.69	31.797
438.04	31.029
438.39	30.627
438.75	30.970
439.10	30.391
439.45	31.169
439.81	30.574
440.16	29.475
440.51	30.697
440.86	30.863
441.22	30.367
441.57	30.361
441.92	30.246
442.27	30.571
442.63	30.648
442.98	30.197
443.33	29.946
443.68	30.356
444.03	30.307
444.39	30.039
444.74	30.519
445.09	30.243
445.44	30.071
445.79	30.727
446.15	30.916
446.50	30.641
446.85	30.319
447.20	30.291
447.55	30.932
447.91	30.888
448.26	30.273
448.61	31.204
448.96	31.451
449.31	30.821
449.66	30.219
450.02	29.749
450.37	30.159
450.72	31.134
451.07	30.225
451.42	30.517
451.77	31.826
452.12	30.658
452.47	30.473
452.83	30.769
453.18	30.257
453.53	31.973
453.88	30.892
454.23	32.098
454.58	30.406
454.93	31.723
455.28	30.299
455.63	30.643
455.98	32.143
456.34	31.281
456.69	30.996
457.04	31.703
457.39	30.333
457.74	30.992
458.09	30.765
458.44	30.844
458.79	29.935
459.14	30.700
459.49	31.524
459.84	30.693
460.19	30.996
460.54	29.630
460.89	31.706
461.24	31.815
461.59	32.597
461.94	31.073
462.29	31.573
462.64	31.653
462.99	29.863
463.34	31.200
463.69	31.645
464.04	31.188
464.39	30.725
464.74	30.244
465.09	31.122
465.44	30.471
465.79	30.481
466.14	30.268
466.49	30.145
466.84	30.181
467.19	30.477
467.54	31.688
467.89	30.372
468.24	30.948
468.59	31.319
468.94	30.299
469.29	31.620
469.64	32.129
469.99	32.003
470.34	30.779
470.68	31.250
471.03	30.748
471.38	31.619
471.73	30.713
472.08	31.776
472.43	31.219
472.78	30.876
473.13	31.194
473.48	30.961
473.83	30.671
474.17	31.238
474.52	30.893
474.87	31.349
475.22	30.876
475.57	30.091
475.92	31.386
476.27	30.891
476.61	30.667
476.96	29.742
477.31	29.775
477.66	31.236
478.01	30.423
478.36	30.830
478.70	29.439
479.05	30.884
479.40	29.990
479.75	30.757
480.10	30.417
480.45	30.176
480.79	30.053
481.14	30.039
481.49	30.707
481.84	30.270
482.19	31.031
482.53	29.495
482.88	30.107
483.23	30.561
483.58	29.663
483.92	30.787
484.27	29.412
484.62	29.871
484.97	29.523
485.31	29.658
485.66	27.384
486.01	26.419
486.36	25.782
486.70	26.409
487.05	26.725
487.40	27.298
487.75	27.355
488.09	28.389
488.44	28.786
488.79	29.403
489.13	29.717
489.48	29.935
489.83	28.744
490.17	30.601
490.52	29.717
490.87	30.348
491.22	30.423
491.56	30.114
491.91	29.967
492.26	28.709
492.60	29.862
492.95	29.560
493.30	29.439
493.64	29.491
493.99	29.294
494.34	30.065
494.68	30.128
495.03	30.827
495.37	30.293
495.72	29.678
496.07	30.394
496.41	28.938
496.76	29.727
497.11	30.212
497.45	29.716
497.80	30.614
498.14	30.048
498.49	29.561
498.84	30.153
499.18	29.524
499.53	29.677
499.87	29.870
500.22	29.298
500.56	30.922
500.91	29.375
501.26	30.299
501.60	29.663
501.95	29.789
502.29	30.225
502.64	30.261
502.98	30.295
503.33	29.205
503.67	28.956
504.02	29.794
504.36	29.247
504.71	29.946
505.06	29.735
505.40	29.898
505.75	29.267
506.09	29.106
506.44	29.896
506.78	29.956
507.13	30.338
507.47	30.808
507.82	30.294
508.16	29.585
508.51	30.492
508.85	30.437
509.19	29.643
509.54	29.847
509.88	30.191
510.23	30.026
510.57	31.373
510.92	30.451
511.26	29.959
511.61	29.357
511.95	29.697
512.30	29.533
512.64	31.166
512.98	30.547
513.33	30.621
513.67	29.723
514.02	29.870
514.36	31.076
514.70	29.330
515.05	29.392
515.39	30.959
515.74	30.856
516.08	30.520
516.42	31.243
516.77	30.881
517.11	29.911
517.46	30.756
517.80	30.778
518.14	30.979
518.49	31.680
518.83	30.682
519.17	31.582
519.52	30.787
519.86	30.804
520.20	31.503
520.55	31.358
520.89	31.265
521.23	31.363
521.58	31.032
521.92	30.986
522.26	30.445
522.61	30.841
522.95	30.632
523.29	31.467
523.64	30.976
523.98	31.423
524.32	31.001
524.66	30.607
525.01	31.434
525.35	31.475
525.69	31.096
526.04	31.277
526.38	30.872
526.72	30.736
527.06	32.392
527.41	29.517
527.75	30.804
528.09	30.572
528.43	30.784
528.78	31.592
529.12	30.727
529.46	30.802
529.80	31.126
530.15	30.654
530.49	30.277
530.83	31.076
531.17	31.723
531.51	32.036
531.86	31.355
532.20	31.747
532.54	31.710
532.88	31.065
533.22	29.357
533.57	30.679
533.91	29.440
534.25	30.377
534.59	30.323
534.93	30.518
535.27	30.477
535.62	30.891
535.96	31.387
536.30	31.341
536.64	31.101
536.98	30.325
537.32	30.810
537.66	31.533
538.01	31.402
538.35	30.640
538.69	31.717
539.03	30.279
539.37	30.096
539.71	30.460
540.05	30.850
540.39	31.296
540.73	30.272
541.07	31.603
541.42	30.659
541.76	31.742
542.10	30.530
542.44	30.397
542.78	31.225
543.12	29.814
543.46	30.951
543.80	31.230
544.14	29.846
544.48	30.349
544.82	30.661
545.16	31.034
545.50	31.234
545.84	31.250
546.18	30.707
546.52	30.764
546.86	31.271
547.20	30.883
547.54	30.728
547.88	30.804
548.22	30.573
548.56	30.314
548.90	29.834
549.24	30.168
549.58	30.150
549.92	31.044
550.26	31.179
550.60	31.535
550.94	30.423
551.28	30.212
551.62	31.704
551.96	29.895
552.30	29.761
552.64	30.156
552.98	30.441
553.32	30.209
553.66	30.743
554.00	31.229
554.34	31.608
554.68	31.974
555.02	30.465
555.36	30.411
555.69	29.770
556.03	30.485
556.37	30.014
556.71	29.332
557.05	29.482
557.39	30.441
557.73	29.287
558.07	30.674
558.41	30.391
558.75	31.741
559.08	31.171
559.42	30.537
559.76	31.544
560.10	30.335
560.44	30.538
560.78	29.009
561.12	30.277
561.45	30.052
561.79	28.477
562.13	29.779
562.47	29.577
562.81	30.404
563.15	29.164
563.48	29.708
563.82	29.746
564.16	27.861
564.50	29.232
564.84	29.393
565.17	28.378
565.51	29.585
565.85	29.061
566.19	28.366
566.52	29.006
566.86	28.270
567.20	27.771
567.54	28.311
567.88	27.105
568.21	27.566
568.55	27.351
568.89	27.481
569.23	26.292
569.56	25.789
569.90	25.170
570.24	25.547
570.57	24.685
570.91	24.079
571.25	23.595
571.59	23.770
571.92	23.790
572.26	23.888
572.60	24.234
572.93	24.078
573.27	24.549
573.61	23.925
573.95	23.773
574.28	23.769
574.62	22.643
574.96	23.035
575.29	23.060
575.63	23.145
575.97	23.457
576.30	23.367
576.64	22.820
576.98	23.335
577.31	23.082
577.65	22.953
577.98	21.994
578.32	22.597
578.66	22.830
578.99	23.077
579.33	23.142
579.67	22.647
580.00	23.136
580.34	23.066
580.67	22.902
581.01	23.184
581.35	22.254
581.68	22.001
582.02	21.445
582.35	21.808
582.69	22.096
583.02	22.180
583.36	22.619
583.70	22.802
584.03	23.250
584.37	23.426
584.70	22.753
585.04	22.945
585.37	22.833
585.71	22.603
586.04	22.397
586.38	22.936
586.72	23.723
587.05	23.064
587.39	22.559
587.72	22.752
588.06	22.866
588.39	22.716
588.73	23.027
589.06	23.528
589.40	24.040
589.73	24.006
590.07	23.986
590.40	23.456
590.73	24.512
591.07	24.461
591.40	25.390
591.74	25.758
592.07	24.171
592.41	24.969
592.74	23.820
593.08	23.351
593.41	22.936
593.75	22.736
594.08	23.031
594.41	23.471
594.75	24.177
595.08	23.694
595.42	23.363
595.75	24.003
596.09	24.296
596.42	24.637
596.75	24.398
597.09	24.675
597.42	22.934
597.75	24.321
598.09	24.217
598.42	24.141
598.76	23.186
599.09	22.843
599.42	22.707
599.76	23.280
600.09	22.514
600.42	22.863
600.76	22.821
601.09	23.242
601.42	23.174
601.76	23.226
602.09	23.281
602.42	23.885
602.76	23.579
603.09	23.721
603.42	23.702
603.76	23.133
604.09	22.916
604.42	23.645
604.76	24.125
605.09	23.853
605.42	23.985
605.75	23.634
606.09	23.627
606.42	23.253
606.75	23.725
607.09	23.315
607.42	23.235
607.75	23.333
608.08	23.404
608.42	24.294
608.75	23.580
609.08	23.265
609.41	23.989
609.75	24.535
610.08	23.798
610.41	23.836
610.74	24.172
611.07	24.506
611.41	24.681
611.74	24.284
612.07	24.586
612.40	25.289
612.73	24.053
613.07	25.539
613.40	24.539
613.73	23.702
614.06	24.624
614.39	24.856
614.72	24.947
615.06	24.422
615.39	24.098
615.72	23.926
616.05	23.658
616.38	24.458
616.71	24.466
617.05	25.795
617.38	25.556
617.71	25.285
618.04	25.661
618.37	24.660
618.70	26.447
619.03	26.776
619.36	25.798
619.69	26.127
620.03	26.648
620.36	25.468
620.69	26.438
621.02	27.507
621.35	26.390
621.68	26.012
622.01	27.399
622.34	26.778
622.67	26.540
623.00	26.339
623.33	25.518
623.66	26.162
623.99	25.847
624.32	25.535
624.65	26.342
624.99	25.850
625.32	26.430
625.65	26.446
625.98	26.979
626.31	26.439
626.64	28.082
626.97	28.845
627.30	27.265
627.63	27.071
627.96	28.595
628.29	27.472
628.62	28.911
628.95	29.811
629.28	28.193
629.61	29.789
629.94	29.333
630.26	28.503
630.59	28.027
630.92	28.544
631.25	27.838
631.58	28.428
631.91	29.006
632.24	28.903
632.57	29.276
632.90	28.947
633.23	30.649
633.56	30.734
633.89	29.558
634.22	29.852
634.55	30.414
634.88	32.216
635.20	29.510
635.53	32.410
635.86	29.703
636.19	29.176
636.52	29.296
636.85	29.439
637.18	29.493
637.51	31.206
637.83	29.593
638.16	30.179
638.49	31.360
638.82	31.606
639.15	31.750
639.48	31.920
639.81	32.574
640.13	31.901
640.46	32.349
640.79	30.383
641.12	30.124
641.45	32.961
641.77	33.873
642.10	30.994
642.43	31.381
642.76	32.353
643.09	32.515
643.41	33.232
643.74	34.414
644.07	32.927
644.40	34.816
644.73	34.803
645.05	34.707
645.38	32.385
645.71	34.461
646.04	34.219
646.36	36.394
646.69	34.950
647.02	34.014
647.35	32.818
647.67	34.159
648.00	33.659
648.33	32.508
648.66	30.455
648.98	31.634
649.31	33.483
649.64	32.885
649.96	32.042
650.29	32.859
650.62	31.553
650.94	33.063
651.27	34.966
651.60	32.612
651.92	33.067
652.25	32.573
652.58	32.866
652.90	32.543
653.23	30.200
653.56	30.079
653.88	29.794
654.21	34.755
654.54	34.653
654.86	32.087
655.19	30.000
655.52	19.068
655.84	15.268
656.17	19.037
656.49	26.237
656.82	27.186
657.15	20.760
657.47	15.309
657.80	12.003
658.13	12.772
658.45	19.035
658.78	19.042
659.10	20.745
659.43	22.124
659.75	23.225
660.08	25.570
660.41	29.888
660.73	30.496
661.06	32.006
661.38	36.364
661.71	35.962
662.03	36.095
662.36	35.189
662.68	35.341
663.01	35.556
663.33	34.395
663.66	35.294
663.98	36.933
664.31	35.294
664.63	34.008
664.96	35.412
665.28	35.861
665.61	33.723
665.93	34.809
666.26	32.657
666.58	36.192
666.91	37.421
667.23	36.180
667.56	36.069
667.88	36.966
668.21	37.313
668.53	34.056
668.86	35.931
669.18	36.247
669.50	35.000
669.83	38.998
670.15	35.111
670.48	36.819
670.80	35.776
671.13	36.730
671.45	35.106
671.77	32.994
672.10	35.120
672.42	32.862
672.75	32.007
673.07	31.338
673.39	31.826
673.72	32.617
674.04	32.941
674.37	34.369
674.69	34.151
675.01	35.356
675.34	35.524
675.66	36.632
675.98	35.438
676.31	36.765
676.63	33.970
676.95	32.914
677.28	35.748
677.60	34.286
677.92	37.975
678.25	33.060
678.57	33.466
678.89	32.064
679.22	31.434
679.54	33.397
679.86	32.110
680.18	31.843
680.51	33.156
680.83	33.986
681.15	32.830
681.48	34.026
681.80	32.302
682.12	33.716
682.44	27.273
682.77	31.772
683.09	33.691
683.41	35.477
683.73	35.320
684.06	33.884
684.38	33.072
684.70	31.395
685.02	30.769
685.34	32.418
685.67	30.594
685.99	29.897
686.31	30.887
686.63	30.565
686.96	29.464
687.28	29.603
687.60	29.348
687.92	32.541
688.24	33.840
688.56	32.329
688.89	33.402
689.21	36.900
689.53	33.612
689.85	35.920
690.17	33.126
690.49	33.758
690.82	33.879
691.14	32.589
691.46	29.747
691.78	32.530
692.10	34.917
692.42	33.733
692.74	29.253
693.06	31.277
693.39	32.649
693.71	32.969
694.03	33.895
694.35	33.983
694.67	33.181
694.99	34.390
695.31	33.578
695.63	35.407
695.95	36.919
696.27	29.442
696.59	32.642
696.91	33.679
697.23	30.047
697.56	33.475
697.88	30.061
698.20	30.833
698.52	34.409
698.84	33.185
699.16	32.258
699.48	31.354
699.80	34.541
700.12	41.039
700.44	38.992
700.76	35.912
701.08	39.943
701.40	36.592
701.72	39.067
702.04	39.773
702.36	36.544
702.68	36.827
703.00	37.119
703.32	34.309
703.64	35.657
703.96	38.440
704.28	36.337
704.60	40.176
704.91	37.092
705.23	36.950
705.55	40.199
705.87	44.186
706.19	41.343
706.51	37.383
706.83	39.091
707.15	35.294
707.47	33.081
707.79	37.101
708.11	29.680
708.43	33.095
708.74	28.061
709.06	36.623
709.38	33.596
709.70	35.174
710.02	37.389
710.34	36.667
710.66	40.597
710.98	36.364
711.29	36.337
711.61	41.003
711.93	38.462
712.25	41.158
712.57	38.235
712.89	40.830
713.20	38.906
713.52	41.776
713.84	36.709
714.16	36.280
714.48	34.483
714.80	37.690
715.11	36.599
715.43	32.344
715.75	37.391
716.07	38.978
716.39	36.050
716.70	39.203
717.02	42.446
717.34	40.989
717.66	45.149
717.97	46.215
718.29	40.370
718.61	39.051
718.93	38.235
719.24	39.446
719.56	37.966
719.88	41.017
720.20	38.851
720.51	41.463
720.83	39.033
721.15	38.806
721.46	41.489
721.78	41.219
722.10	42.642
722.42	39.474
722.73	38.951
723.05	42.213
723.37	43.320
723.68	42.471
724.00	43.089
724.32	44.355
724.63	39.837
724.95	39.749
725.27	45.344
725.58	41.406
725.90	41.606
726.22	37.736
726.53	34.375
726.85	36.519
727.16	39.858
727.48	40.071
727.80	41.288
728.11	38.406
728.43	38.077
728.74	34.050
729.06	41.971
729.38	40.441
729.69	39.858
730.01	38.225
730.32	34.375
730.64	32.441
730.96	34.653
731.27	37.417
731.59	34.251
731.90	35.277
732.22	35.714
732.53	34.056
732.85	33.013
733.16	36.334
733.48	37.874
733.80	34.091
734.11	36.624
734.43	34.024
734.74	30.857
735.06	30.946
735.37	34.682
735.69	34.713
736.00	35.294
736.32	35.826
736.63	33.546
736.95	35.144
737.26	29.592
737.58	32.258
737.89	36.789
738.21	37.884
738.52	38.214
738.83	37.736
739.15	37.308
739.46	36.861
739.78	34.028
740.09	33.231
740.41	36.774
740.72	32.753
741.04	35.185
741.35	39.167
741.66	51.556
741.98	41.509
742.29	46.890
742.61	43.966
742.92	41.629
743.23	42.308
743.55	48.000
743.86	37.719
744.18	38.938
744.49	46.890
744.80	44.601
745.12	47.273
745.43	46.256
745.74	44.595
746.06	40.367
746.37	43.049
746.68	42.534
747.00	42.593
747.31	42.381
747.62	33.628
747.94	40.969
748.25	32.766
748.56	46.696
748.88	42.574
749.19	51.000
749.50	40.930
749.82	35.366
750.13	38.776
750.44	36.496
750.75	37.193
751.07	36.334
751.38	32.753
751.69	40.433
752.01	35.714
752.32	37.545
752.63	39.716
752.94	36.066
753.26	38.400
753.57	39.837
753.88	39.063
754.19	36.429
754.51	41.319
754.82	32.852
755.13	40.377
755.44	37.218
755.75	36.131
756.07	36.170
756.38	36.131
756.69	36.242
757.00	33.533
757.31	30.861
757.63	30.409
757.94	31.367
758.25	29.167
758.56	27.160
758.87	25.806
759.18	31.212
759.50	34.169
759.81	32.710
760.12	32.812
760.43	33.524
760.74	27.717
761.05	32.486
761.36	31.016
761.67	33.523
761.99	32.919
762.30	34.722
762.61	32.824
762.92	39.453
763.23	37.815
763.54	43.200
763.85	35.937
764.16	41.154
764.47	31.179
764.78	33.922
765.10	28.165
765.41	34.513
765.72	30.539
766.03	31.661
766.34	33.333
766.65	41.277
766.96	42.735
767.27	43.655
767.58	52.083
767.89	47.895
768.20	50.000
768.51	45.178
768.82	41.284
769.13	39.024
769.44	33.603
769.75	39.056
770.06	38.991
770.37	45.701
770.68	43.981
770.99	44.000
771.30	32.377
771.61	42.152
771.92	38.115
772.23	44.118
772.54	43.077
772.85	42.408
773.16	48.936
773.47	46.196
773.78	45.178
774.09	42.857
774.39	48.538
774.70	51.235
775.01	55.797
775.32	55.556
775.63	48.684
775.94	50.360
776.25	63.780
776.56	57.463
776.87	54.918
777.18	60.156
777.48	59.542
777.79	57.576
778.10	51.111
778.41	58.929
778.72	56.204
779.03	50.336
779.34	48.993
779.65	49.324
779.95	49.080
780.26	52.941
780.57	55.862
780.88	68.750
781.19	53.383
781.50	50.676
781.80	47.170
782.11	44.068
782.42	43.671
782.73	49.080
783.04	56.081
783.34	49.296
783.65	62.329
783.96	58.955
784.27	44.755
784.57	44.604
784.88	50.000
785.19	58.730
785.50	57.547
785.81	61.940
786.11	58.197
786.42	53.488
786.73	50.442
787.04	61.321
787.34	54.464
787.65	65.000
787.96	56.757
788.26	52.066
788.57	71.186
788.88	64.463
789.19	52.778
789.49	60.606
789.80	56.489
790.11	64.762
790.41	68.317
790.72	67.470
791.03	70.652
791.33	76.744
791.64	71.134
791.95	69.307
792.25	71.111
792.56	85.714
792.87	79.487
793.17	102.532
793.48	79.310
793.79	73.563
794.09	79.545
794.40	56.303
794.70	54.412
795.01	42.222
795.32	47.482
795.62	55.906
795.93	61.207
796.23	64.602
796.54	82.353
796.85	78.378
797.15	95.775
797.46	83.333
797.76	97.590
798.07	83.544
798.37	76.923
798.68	87.879
798.99	70.423
799.29	76.623
799.60	72.727
799.90	102.740
800.21	100.000
800.51	84.483
800.82	110.526
801.12	91.803
801.43	93.939
801.73	95.946
802.04	82.540
802.34	81.481
802.65	87.500
802.95	110.169
803.26	101.563
803.56	84.286
803.87	72.308
804.17	82.353
804.48	125.926
804.78	89.655
805.09	86.765
805.39	107.692
805.70	108.929
806.00	108.197
806.30	81.818
806.61	79.268
806.91	84.810
807.22	81.579
807.52	82.090
807.83	85.915
808.13	104.688
808.43	90.000
808.74	72.368
809.04	102.899
809.35	111.940
809.65	81.579
809.95	95.161
810.26	93.220
810.56	96.825
810.86	156.818
811.17	147.619
811.47	116.667
811.77	111.111
812.08	118.182
812.38	130.000
812.69	163.889
812.99	152.273
813.29	126.531
813.59	114.286
813.90	124.490
814.20	98.182
814.50	92.308
814.81	101.471
815.11	124.490
815.41	101.639
815.72	150.000
816.02	110.909
816.32	130.952
816.62	132.500
816.93	119.512
817.23	147.619
817.53	143.182
817.84	166.667
818.14	126.087
818.44	160.000
818.74	155.882
819.04	120.000
819.35	151.429
819.65	158.824
819.95	175.000
820.25	225.000
820.56	135.897
820.86	145.455
821.16	139.535
821.46	153.846
821.76	150.000
822.07	151.429
822.37	142.500
822.67	172.727
822.97	109.804
823.27	235.714
823.57	162.162
823.88	155.000
824.18	200.000
824.48	173.810
824.78	220.000
825.08	229.167
825.38	145.946
825.69	121.951
825.99	166.667
826.29	151.724
826.59	136.842
826.89	128.947
827.19	191.176
827.49	187.097
827.79	150.000
828.09	143.182
828.39	123.404
828.70	124.490
829.00	148.148
829.30	154.839
829.60	127.500
829.90	373.333
830.20	210.714
830.50	204.348
830.80	234.783
831.10	203.333
831.40	196.667
831.70	208.696
832.00	230.769
832.30	196.296
832.60	350.000
832.90	206.667
833.20	442.857
833.50	203.226
833.80	151.724
834.10	209.375
834.40	188.462
834.70	366.667
835.00	295.238
835.30	154.286
835.60	384.615
835.90	210.345
836.20	350.000
836.50	210.345
836.80	180.000
837.10	180.556
837.40	271.429
837.70	258.824
838.00	196.296
838.30	204.762
838.60	247.619
838.90	203.846
839.19	260.000
839.49	342.857
839.79	340.000
840.09	300.000
840.39	271.429
840.69	230.435
840.99	316.667
841.29	490.000
841.59	316.667
841.88	300.000
842.18	206.897
842.48	257.143
842.78	193.333
843.08	256.522
843.38	178.125
843.68	900.000
843.97	219.231
844.27	227.586
844.57	280.952
844.87	343.750
845.17	222.222
845.47	1433.333
845.76	522.222
846.06	352.941
846.36	512.500
846.66	364.286
846.96	356.250
847.25	509.091
847.55	490.909
847.85	239.130
848.15	430.000
848.44	428.571
848.74	261.111
849.04	329.412
849.34	550.000
849.63	226.316
849.93	472.727
850.23	960.000
850.53	371.429
850.82	2050.000
851.12	-4000.000
851.42	5100.000
851.71	310.000
852.01	-1233.333
852.31	266.667
852.61	1466.667
852.90	304.762
853.20	220.000
853.50	317.647
853.79	266.667
854.09	229.167
854.39	306.250
854.68	178.378
854.98	183.871
855.28	160.000
855.57	206.897
855.87	229.630
856.17	257.895
856.46	233.333
856.76	270.588
857.05	206.897
857.35	220.833
857.65	280.000
857.94	217.391
858.24	230.769
858.53	305.000
858.83	277.273
859.13	306.667
859.42	0.000
859.72	555.556
860.01	472.727
860.31	236.364
860.60	242.105
860.90	208.696
861.20	566.667
861.49	458.333
861.79	-3600.000
862.08	625.000
862.38	257.143
862.67	361.538
862.97	311.765
863.26	477.778
863.56	216.667
863.85	375.000
864.15	662.500
864.44	360.000
864.74	816.667
865.03	662.500
865.33	305.263
865.62	545.455
865.92	392.308
866.21	425.000
866.51	0.000
866.80	454.545
867.10	1080.000
867.39	453.846
867.69	472.727
867.98	289.474
868.27	600.000
868.57	284.211
868.86	-4700.000
869.16	343.750
869.45	2100.000
869.75	-4000.000
870.04	475.000
870.33	714.286
870.63	950.000
870.92	2750.000
871.22	585.714
871.51	358.824
871.80	228.571
872.10	428.571
>>>>>End Processed Spectral Data<<<<<
