SpectraSuite Data File
++++++++++++++++++++++++++++++++++++
Date: Wed May 13 19:41:53 PDT 2015
User: schluterlab
Dark Spectrum Present: Yes
Reference Spectrum Present: Yes
Number of Sampled Component Spectra: 1
Spectrometers: USB2E3373
Integration Time (usec): 3000 (USB2E3373)
Spectra Averaged: 3 (USB2E3373)
Boxcar Smoothing: 0 (USB2E3373)
Correct for Electrical Dark: No (USB2E3373)
Strobe/Lamp Enabled: No (USB2E3373)
Correct for Detector Non-linearity: No (USB2E3373)
Correct for Stray Light: No (USB2E3373)
Number of Pixels in Processed Spectrum: 2048
>>>>>Begin Processed Spectral Data<<<<<
178.53	0.000
178.91	-1400.000
179.29	-1575.000
179.67	-211.111
180.04	-1200.000
180.42	2800.000
180.80	1180.000
181.18	-1150.000
181.56	685.714
181.94	0.000
182.31	-714.286
182.69	1500.000
183.07	-587.500
183.45	-488.889
183.83	518.182
184.20	-480.000
184.58	2550.000
184.96	5300.000
185.34	-920.000
185.72	-575.000
186.09	-2200.000
186.47	2500.000
186.85	2650.000
187.23	4100.000
187.61	-1700.000
187.98	1400.000
188.36	563.636
188.74	527.273
189.12	-700.000
189.49	570.000
189.87	-4800.000
190.25	-1325.000
190.63	407.143
191.00	376.923
191.38	950.000
191.76	-1200.000
192.14	1650.000
192.51	687.500
192.89	916.667
193.27	637.500
193.65	-1075.000
194.02	470.000
194.40	940.000
194.78	550.000
195.15	466.667
195.53	600.000
195.91	-2050.000
196.29	331.250
196.66	347.368
197.04	-410.000
197.42	0.000
197.79	560.000
198.17	-4800.000
198.55	628.571
198.92	750.000
199.30	900.000
199.68	0.000
200.05	322.222
200.43	614.286
200.81	4700.000
201.18	1700.000
201.56	-1766.667
201.94	611.111
202.31	555.556
202.69	433.333
203.07	570.000
203.44	0.000
203.82	1125.000
204.19	814.286
204.57	435.714
204.95	612.500
205.32	1433.333
205.70	563.636
206.08	392.857
206.45	2950.000
206.83	375.000
207.20	1016.667
207.58	740.000
207.96	333.333
208.33	675.000
208.71	-866.667
209.08	814.286
209.46	577.778
209.84	572.727
210.21	-1466.667
210.59	1425.000
210.96	-562.500
211.34	2850.000
211.71	650.000
212.09	766.667
212.46	0.000
212.84	1566.667
213.22	1225.000
213.59	-4400.000
213.97	900.000
214.34	714.286
214.72	618.182
215.09	1120.000
215.47	-2150.000
215.84	-2550.000
216.22	1566.667
216.59	328.571
216.97	1100.000
217.34	390.909
217.72	-766.667
218.09	0.000
218.47	-4500.000
218.84	644.444
219.22	771.429
219.59	1666.667
219.97	-585.714
220.34	1000.000
220.72	-1533.333
221.09	371.429
221.47	1475.000
221.84	-1033.333
222.22	0.000
222.59	1325.000
222.97	-2200.000
223.34	1000.000
223.72	330.769
224.09	1080.000
224.46	2350.000
224.84	-5300.000
225.21	-1020.000
225.59	-5400.000
225.96	520.000
226.34	280.000
226.71	2550.000
227.08	600.000
227.46	610.000
227.83	-1150.000
228.21	-2000.000
228.58	577.778
228.95	-2400.000
229.33	-2300.000
229.70	1700.000
230.08	828.571
230.45	-760.000
230.82	425.000
231.20	983.333
231.57	657.143
231.95	516.667
232.32	272.727
232.69	454.545
233.07	757.143
233.44	392.308
233.81	-1733.333
234.19	321.053
234.56	450.000
234.93	375.000
235.31	381.818
235.68	384.615
236.05	321.429
236.43	181.818
236.80	321.053
237.17	4100.000
237.55	266.667
237.92	175.000
238.29	247.619
238.67	161.290
239.04	196.552
239.41	122.222
239.79	108.696
240.16	109.524
240.53	118.182
240.91	88.235
241.28	94.000
241.65	84.000
242.02	86.957
242.40	64.516
242.77	65.000
243.14	52.688
243.51	78.652
243.89	60.000
244.26	52.222
244.63	51.613
245.00	50.000
245.38	47.525
245.75	43.925
246.12	36.697
246.49	40.146
246.87	47.200
247.24	39.231
247.61	30.000
247.98	37.255
248.36	30.405
248.73	29.936
249.10	33.758
249.47	29.944
249.84	32.086
250.22	26.203
250.59	21.893
250.96	26.263
251.33	33.175
251.70	31.188
252.08	25.714
252.45	22.422
252.82	20.870
253.19	23.404
253.56	21.961
253.94	21.162
254.31	21.875
254.68	26.923
255.05	20.295
255.42	19.106
255.79	17.279
256.16	19.134
256.54	18.375
256.91	19.217
257.28	13.669
257.65	17.162
258.02	18.634
258.39	15.457
258.76	16.054
259.14	17.560
259.51	14.894
259.88	13.665
260.25	17.523
260.62	16.763
260.99	13.665
261.36	16.817
261.73	14.327
262.10	14.535
262.47	14.648
262.85	14.763
263.22	11.396
263.59	14.245
263.96	16.209
264.33	14.621
264.70	14.211
265.07	13.043
265.44	15.909
265.81	10.706
266.18	13.819
266.55	13.902
266.92	11.057
267.29	11.343
267.66	12.385
268.03	15.000
268.40	13.551
268.77	10.740
269.14	12.613
269.51	15.124
269.88	13.287
270.25	11.061
270.62	12.135
270.99	16.344
271.36	12.017
271.73	11.682
272.10	11.957
272.47	14.409
272.84	12.771
273.21	13.417
273.58	10.262
273.95	11.950
274.32	11.157
274.69	13.919
275.06	9.843
275.43	11.064
275.80	12.224
276.17	11.202
276.54	11.642
276.91	10.277
277.28	8.594
277.65	10.638
278.02	8.696
278.39	11.523
278.76	11.636
279.13	11.509
279.50	11.918
279.87	9.163
280.23	10.180
280.60	10.832
280.97	7.024
281.34	8.142
281.71	9.273
282.08	9.981
282.45	7.818
282.82	9.059
283.19	8.556
283.56	10.000
283.92	10.829
284.29	9.700
284.66	9.437
285.03	8.680
285.40	7.218
285.77	9.428
286.14	9.154
286.51	9.000
286.87	9.744
287.24	9.283
287.61	10.433
287.98	8.604
288.35	7.132
288.72	8.567
289.08	10.016
289.45	7.578
289.82	8.130
290.19	8.948
290.56	7.044
290.93	8.157
291.29	7.669
291.66	7.817
292.03	10.610
292.40	9.692
292.77	8.136
293.13	9.104
293.50	5.685
293.87	6.963
294.24	8.148
294.60	6.550
294.97	8.866
295.34	10.014
295.71	8.807
296.08	7.835
296.44	6.465
296.81	6.605
297.18	9.079
297.55	6.332
297.91	6.201
298.28	6.693
298.65	7.572
299.02	8.432
299.38	6.242
299.75	5.391
300.12	6.897
300.48	7.375
300.85	7.522
301.22	5.987
301.59	5.556
301.95	6.045
302.32	7.060
302.69	7.168
303.05	6.788
303.42	5.432
303.79	6.455
304.15	5.361
304.52	5.330
304.89	5.226
305.25	5.916
305.62	7.248
305.99	7.084
306.35	6.600
306.72	6.166
307.09	6.659
307.45	6.757
307.82	4.799
308.19	7.064
308.55	5.502
308.92	6.015
309.29	5.913
309.65	5.620
310.02	5.814
310.38	6.344
310.75	5.702
311.12	6.653
311.48	6.270
311.85	7.338
312.22	5.931
312.58	6.757
312.95	7.075
313.31	5.243
313.68	5.717
314.05	7.101
314.41	6.935
314.78	6.546
315.14	5.660
315.51	5.973
315.87	6.139
316.24	6.058
316.61	5.848
316.97	6.458
317.34	6.458
317.70	6.597
318.07	6.930
318.43	5.577
318.80	7.685
319.16	6.403
319.53	6.098
319.89	7.524
320.26	8.000
320.62	7.738
320.99	7.677
321.35	6.364
321.72	6.674
322.08	8.292
322.45	7.960
322.81	8.624
323.18	8.382
323.54	7.607
323.91	8.868
324.27	8.317
324.64	7.735
325.00	8.025
325.37	7.188
325.73	8.797
326.10	7.855
326.46	7.706
326.83	8.197
327.19	8.711
327.56	8.362
327.92	8.049
328.29	9.051
328.65	8.748
329.01	9.206
329.38	8.603
329.74	9.418
330.11	8.200
330.47	9.183
330.84	9.467
331.20	8.834
331.56	9.266
331.93	8.611
332.29	8.607
332.66	9.646
333.02	9.141
333.38	9.846
333.75	10.428
334.11	9.164
334.48	9.051
334.84	8.088
335.20	9.636
335.57	8.341
335.93	8.571
336.29	8.242
336.66	8.656
337.02	8.597
337.38	8.611
337.75	8.556
338.11	8.953
338.47	8.840
338.84	7.699
339.20	8.349
339.56	9.945
339.93	7.545
340.29	7.609
340.65	8.467
341.02	9.511
341.38	8.630
341.74	7.895
342.11	9.520
342.47	8.899
342.83	8.990
343.20	9.784
343.56	8.846
343.92	8.421
344.28	8.759
344.65	8.770
345.01	8.754
345.37	7.376
345.73	7.953
346.10	8.525
346.46	8.220
346.82	7.990
347.19	7.937
347.55	7.800
347.91	8.495
348.27	8.792
348.63	9.615
349.00	8.819
349.36	8.046
349.72	8.420
350.08	7.536
350.45	8.381
350.81	8.448
351.17	8.590
351.53	8.190
351.89	7.261
352.26	8.998
352.62	8.340
352.98	7.861
353.34	7.806
353.70	7.119
354.07	6.935
354.43	7.698
354.79	7.241
355.15	8.220
355.51	8.153
355.87	7.918
356.24	7.736
356.60	7.378
356.96	7.804
357.32	7.931
357.68	7.953
358.04	8.155
358.40	7.838
358.77	7.433
359.13	7.024
359.49	7.765
359.85	7.143
360.21	7.018
360.57	7.549
360.93	8.462
361.29	7.332
361.66	7.121
362.02	7.537
362.38	7.681
362.74	8.036
363.10	5.996
363.46	7.117
363.82	7.256
364.18	7.489
364.54	7.949
364.90	7.932
365.26	7.721
365.62	7.816
365.98	7.816
366.35	7.307
366.71	7.737
367.07	7.138
367.43	6.894
367.79	7.923
368.15	8.549
368.51	6.831
368.87	7.709
369.23	7.388
369.59	8.400
369.95	6.912
370.31	7.621
370.67	7.391
371.03	8.015
371.39	7.580
371.75	7.206
372.11	7.112
372.47	7.771
372.83	7.277
373.19	6.431
373.55	7.317
373.91	8.100
374.27	7.010
374.63	5.891
374.99	7.910
375.35	6.490
375.71	6.923
376.07	7.613
376.42	6.809
376.78	7.356
377.14	6.038
377.50	7.682
377.86	6.449
378.22	7.206
378.58	6.391
378.94	6.285
379.30	6.043
379.66	7.234
380.02	6.880
380.38	6.315
380.74	6.543
381.09	6.907
381.45	6.945
381.81	7.432
382.17	7.516
382.53	6.918
382.89	7.346
383.25	6.442
383.61	7.497
383.97	7.192
384.32	6.425
384.68	6.320
385.04	6.638
385.40	6.687
385.76	7.494
386.12	6.606
386.48	7.111
386.83	6.607
387.19	7.916
387.55	7.421
387.91	6.590
388.27	6.560
388.62	7.621
388.98	5.774
389.34	7.822
389.70	7.725
390.06	7.731
390.42	6.744
390.77	7.125
391.13	6.828
391.49	7.043
391.85	6.875
392.20	6.940
392.56	6.376
392.92	6.710
393.28	6.450
393.64	6.715
393.99	7.025
394.35	6.824
394.71	6.964
395.07	6.978
395.42	6.799
395.78	7.888
396.14	7.387
396.50	7.018
396.85	7.692
397.21	6.658
397.57	7.254
397.92	6.611
398.28	6.278
398.64	7.109
399.00	6.715
399.35	6.261
399.71	7.234
400.07	7.392
400.42	7.055
400.78	7.539
401.14	6.585
401.49	7.463
401.85	6.776
402.21	6.587
402.57	6.477
402.92	7.314
403.28	7.245
403.63	7.364
403.99	6.815
404.35	7.515
404.70	6.715
405.06	6.872
405.42	6.987
405.77	7.143
406.13	6.603
406.49	6.564
406.84	6.852
407.20	6.797
407.55	7.211
407.91	7.000
408.27	6.828
408.62	7.285
408.98	7.414
409.34	6.027
409.69	6.774
410.05	7.435
410.40	7.523
410.76	6.571
411.11	7.841
411.47	6.581
411.83	7.941
412.18	7.112
412.54	7.410
412.89	7.470
413.25	7.202
413.60	7.041
413.96	7.711
414.31	7.230
414.67	7.224
415.03	6.623
415.38	7.474
415.74	7.588
416.09	7.315
416.45	6.560
416.80	6.808
417.16	7.842
417.51	7.565
417.87	6.615
418.22	7.256
418.58	7.618
418.93	7.617
419.29	7.829
419.64	7.557
420.00	7.622
420.35	8.174
420.71	7.352
421.06	7.279
421.42	7.310
421.77	7.119
422.12	6.794
422.48	6.314
422.83	6.814
423.19	7.735
423.54	7.197
423.90	7.304
424.25	7.482
424.61	7.560
424.96	7.522
425.31	7.254
425.67	7.191
426.02	7.143
426.38	7.570
426.73	6.846
427.09	7.599
427.44	7.763
427.79	6.958
428.15	8.214
428.50	7.197
428.85	8.462
429.21	6.792
429.56	6.947
429.92	6.895
430.27	7.051
430.62	6.144
430.98	7.213
431.33	7.216
431.68	7.539
432.04	7.561
432.39	7.082
432.74	7.241
433.10	7.131
433.45	7.522
433.80	6.486
434.16	7.105
434.51	7.421
434.86	7.754
435.22	7.504
435.57	7.477
435.92	7.256
436.28	7.058
436.63	7.837
436.98	6.926
437.34	7.394
437.69	7.701
438.04	6.970
438.39	7.403
438.75	7.379
439.10	7.318
439.45	7.615
439.81	7.674
440.16	6.211
440.51	7.381
440.86	7.643
441.22	7.564
441.57	7.431
441.92	7.369
442.27	7.374
442.63	6.898
442.98	7.662
443.33	7.772
443.68	7.383
444.03	7.369
444.39	6.524
444.74	6.926
445.09	7.763
445.44	7.490
445.79	6.878
446.15	7.676
446.50	7.001
446.85	6.886
447.20	7.802
447.55	7.314
447.91	7.667
448.26	7.568
448.61	7.631
448.96	7.475
449.31	7.818
449.66	7.316
450.02	7.131
450.37	7.086
450.72	7.614
451.07	6.947
451.42	7.538
451.77	7.575
452.12	7.794
452.47	7.711
452.83	7.634
453.18	7.335
453.53	8.287
453.88	7.738
454.23	7.412
454.58	8.540
454.93	8.074
455.28	7.918
455.63	7.282
455.98	7.917
456.34	7.915
456.69	7.765
457.04	7.740
457.39	7.364
457.74	6.732
458.09	8.051
458.44	7.640
458.79	6.941
459.14	7.675
459.49	7.823
459.84	7.535
460.19	7.366
460.54	7.465
460.89	7.735
461.24	7.772
461.59	7.960
461.94	7.152
462.29	8.368
462.64	7.594
462.99	7.807
463.34	8.667
463.69	7.505
464.04	8.116
464.39	7.536
464.74	7.724
465.09	6.996
465.44	7.479
465.79	7.606
466.14	7.718
466.49	7.564
466.84	7.823
467.19	8.087
467.54	8.250
467.89	7.743
468.24	7.330
468.59	8.181
468.94	7.819
469.29	7.262
469.64	8.902
469.99	8.254
470.34	7.662
470.68	8.118
471.03	7.687
471.38	7.644
471.73	7.928
472.08	8.158
472.43	7.601
472.78	8.097
473.13	8.023
473.48	8.427
473.83	7.439
474.17	7.156
474.52	7.506
474.87	7.939
475.22	7.313
475.57	7.362
475.92	7.488
476.27	6.821
476.61	7.336
476.96	6.487
477.31	6.960
477.66	7.057
478.01	6.900
478.36	7.456
478.70	6.490
479.05	7.082
479.40	7.062
479.75	7.321
480.10	6.958
480.45	7.044
480.79	6.307
481.14	6.800
481.49	6.502
481.84	6.996
482.19	7.042
482.53	6.330
482.88	6.887
483.23	7.196
483.58	7.234
483.92	6.935
484.27	6.275
484.62	6.293
484.97	6.740
485.31	6.336
485.66	5.383
486.01	4.827
486.36	4.721
486.70	4.777
487.05	5.368
487.40	5.695
487.75	5.942
488.09	6.248
488.44	6.071
488.79	6.112
489.13	6.150
489.48	6.199
489.83	5.999
490.17	6.708
490.52	6.599
490.87	6.784
491.22	6.867
491.56	6.378
491.91	6.049
492.26	6.706
492.60	6.636
492.95	6.174
493.30	6.822
493.64	6.533
493.99	6.314
494.34	6.984
494.68	7.326
495.03	6.673
495.37	6.747
495.72	6.579
496.07	6.961
496.41	6.150
496.76	6.552
497.11	6.394
497.45	6.893
497.80	6.670
498.14	6.522
498.49	6.780
498.84	6.616
499.18	6.095
499.53	6.838
499.87	6.570
500.22	6.500
500.56	6.990
500.91	6.875
501.26	6.117
501.60	6.407
501.95	6.004
502.29	6.982
502.64	6.518
502.98	7.153
503.33	6.399
503.67	6.125
504.02	6.642
504.36	6.972
504.71	6.595
505.06	6.988
505.40	6.223
505.75	6.943
506.09	6.025
506.44	6.759
506.78	6.235
507.13	6.714
507.47	6.919
507.82	6.991
508.16	6.687
508.51	6.951
508.85	6.455
509.19	6.582
509.54	6.582
509.88	6.337
510.23	6.838
510.57	7.534
510.92	6.888
511.26	6.423
511.61	6.950
511.95	6.263
512.30	6.522
512.64	6.985
512.98	6.592
513.33	7.281
513.67	6.510
514.02	6.602
514.36	6.991
514.70	7.250
515.05	6.748
515.39	6.842
515.74	6.194
516.08	7.881
516.42	7.270
516.77	7.525
517.11	6.437
517.46	6.885
517.80	6.678
518.14	6.312
518.49	6.476
518.83	6.705
519.17	7.564
519.52	6.735
519.86	6.731
520.20	7.457
520.55	7.062
520.89	7.543
521.23	7.419
521.58	7.023
521.92	7.655
522.26	6.894
522.61	6.978
522.95	7.551
523.29	6.452
523.64	7.012
523.98	7.270
524.32	6.996
524.66	7.937
525.01	7.108
525.35	6.877
525.69	7.389
526.04	6.916
526.38	6.894
526.72	6.871
527.06	6.905
527.41	6.188
527.75	7.781
528.09	7.386
528.43	7.138
528.78	7.621
529.12	7.273
529.46	7.165
529.80	6.807
530.15	8.162
530.49	7.077
530.83	8.101
531.17	7.311
531.51	7.977
531.86	7.161
532.20	8.018
532.54	7.559
532.88	7.317
533.22	7.183
533.57	7.099
533.91	6.623
534.25	7.351
534.59	7.077
534.93	6.901
535.27	6.759
535.62	7.143
535.96	6.717
536.30	7.247
536.64	7.469
536.98	7.167
537.32	7.702
537.66	7.133
538.01	7.439
538.35	7.951
538.69	8.424
539.03	7.342
539.37	7.540
539.71	6.092
540.05	6.536
540.39	7.309
540.73	7.180
541.07	8.177
541.42	7.371
541.76	7.419
542.10	7.891
542.44	7.219
542.78	7.773
543.12	6.782
543.46	8.000
543.80	7.547
544.14	6.996
544.48	7.238
544.82	7.120
545.16	6.181
545.50	7.198
545.84	7.796
546.18	8.148
546.52	8.052
546.86	7.285
547.20	7.013
547.54	7.014
547.88	8.355
548.22	6.912
548.56	6.918
548.90	6.850
549.24	7.205
549.58	7.572
549.92	7.692
550.26	7.528
550.60	6.708
550.94	7.324
551.28	7.462
551.62	7.549
551.96	7.649
552.30	7.713
552.64	7.911
552.98	7.390
553.32	7.687
553.66	7.975
554.00	7.893
554.34	7.177
554.68	7.940
555.02	7.546
555.36	7.794
555.69	7.037
556.03	7.201
556.37	6.958
556.71	7.913
557.05	7.703
557.39	7.418
557.73	7.410
558.07	7.179
558.41	8.177
558.75	7.935
559.08	8.054
559.42	6.727
559.76	7.353
560.10	7.709
560.44	6.569
560.78	7.651
561.12	7.124
561.45	7.627
561.79	6.592
562.13	6.975
562.47	7.172
562.81	6.974
563.15	7.023
563.48	7.958
563.82	7.110
564.16	6.736
564.50	6.250
564.84	6.448
565.17	6.499
565.51	6.901
565.85	6.472
566.19	6.575
566.52	6.966
566.86	6.209
567.20	6.309
567.54	6.906
567.88	6.410
568.21	6.931
568.55	6.926
568.89	5.739
569.23	5.882
569.56	5.870
569.90	5.509
570.24	5.310
570.57	5.134
570.91	5.204
571.25	5.127
571.59	5.037
571.92	5.098
572.26	5.257
572.60	5.075
572.93	5.097
573.27	5.294
573.61	5.109
573.95	4.884
574.28	4.673
574.62	5.053
574.96	4.636
575.29	4.922
575.63	4.878
575.97	4.921
576.30	5.019
576.64	4.701
576.98	4.716
577.31	4.413
577.65	4.539
577.98	4.524
578.32	4.369
578.66	4.801
578.99	4.771
579.33	4.624
579.67	4.889
580.00	4.483
580.34	4.841
580.67	4.798
581.01	5.105
581.35	4.459
581.68	4.389
582.02	4.250
582.35	4.430
582.69	4.529
583.02	4.290
583.36	4.358
583.70	4.745
584.03	4.859
584.37	4.901
584.70	4.781
585.04	4.941
585.37	4.776
585.71	4.981
586.04	4.905
586.38	4.963
586.72	5.137
587.05	4.564
587.39	4.644
587.72	4.715
588.06	4.616
588.39	5.103
588.73	4.899
589.06	5.391
589.40	5.421
589.73	4.646
590.07	5.445
590.40	5.042
590.73	5.152
591.07	5.902
591.40	6.073
591.74	5.974
592.07	5.846
592.41	5.581
592.74	5.243
593.08	5.496
593.41	5.125
593.75	4.997
594.08	5.397
594.41	5.479
594.75	5.213
595.08	5.225
595.42	5.674
595.75	5.235
596.09	5.483
596.42	5.855
596.75	5.867
597.09	6.277
597.42	5.396
597.75	5.692
598.09	5.609
598.42	5.412
598.76	5.634
599.09	4.903
599.42	5.204
599.76	5.417
600.09	5.355
600.42	5.296
600.76	4.893
601.09	5.355
601.42	5.479
601.76	5.731
602.09	5.336
602.42	5.772
602.76	6.046
603.09	5.547
603.42	5.779
603.76	5.678
604.09	5.545
604.42	5.340
604.76	6.580
605.09	5.417
605.42	5.643
605.75	5.753
606.09	4.921
606.42	5.313
606.75	5.516
607.09	5.483
607.42	5.434
607.75	5.105
608.08	5.645
608.42	5.648
608.75	5.636
609.08	5.920
609.41	6.521
609.75	5.860
610.08	6.079
610.41	5.726
610.74	5.724
611.07	5.484
611.41	6.183
611.74	6.637
612.07	5.849
612.40	6.663
612.73	5.579
613.07	6.950
613.40	6.266
613.73	5.663
614.06	6.774
614.39	6.607
614.72	6.105
615.06	5.830
615.39	6.157
615.72	6.186
616.05	6.114
616.38	5.948
616.71	6.295
617.05	6.832
617.38	5.953
617.71	6.547
618.04	5.889
618.37	6.564
618.70	6.845
619.03	6.842
619.36	7.332
619.69	7.254
620.03	7.830
620.36	8.088
620.69	7.603
621.02	7.817
621.35	6.891
621.68	6.698
622.01	6.889
622.34	7.564
622.67	7.300
623.00	6.603
623.33	6.362
623.66	6.219
623.99	6.480
624.32	6.990
624.65	6.427
624.99	6.941
625.32	6.517
625.65	6.987
625.98	8.071
626.31	8.476
626.64	8.408
626.97	7.648
627.30	7.315
627.63	6.645
627.96	8.663
628.29	8.749
628.62	8.234
628.95	9.528
629.28	8.394
629.61	8.708
629.94	7.333
630.26	8.103
630.59	9.247
630.92	8.812
631.25	7.700
631.58	7.407
631.91	8.925
632.24	7.068
632.57	9.024
632.90	9.649
633.23	8.613
633.56	10.282
633.89	9.060
634.22	9.648
634.55	10.414
634.88	7.904
635.20	9.438
635.53	9.639
635.86	8.168
636.19	9.294
636.52	9.343
636.85	9.622
637.18	10.023
637.51	9.456
637.83	7.768
638.16	8.568
638.49	9.698
638.82	10.240
639.15	9.375
639.48	10.848
639.81	9.383
640.13	10.938
640.46	10.067
640.79	10.304
641.12	7.428
641.45	9.916
641.77	10.604
642.10	10.380
642.43	9.009
642.76	9.752
643.09	11.656
643.41	9.408
643.74	12.346
644.07	10.061
644.40	11.810
644.73	10.551
645.05	12.203
645.38	12.322
645.71	11.111
646.04	10.797
646.36	12.354
646.69	10.033
647.02	10.374
647.35	11.340
647.67	11.858
648.00	11.707
648.33	11.221
648.66	10.152
648.98	10.945
649.31	9.417
649.64	10.613
649.96	11.028
650.29	10.111
650.62	9.385
650.94	12.642
651.27	11.993
651.60	12.646
651.92	12.300
652.25	9.609
652.58	9.034
652.90	11.058
653.23	8.475
653.56	10.709
653.88	11.410
654.21	12.480
654.54	11.221
654.86	9.813
655.19	8.919
655.52	5.619
655.84	3.030
656.17	3.346
656.49	4.506
656.82	5.050
657.15	4.020
657.47	3.140
657.80	2.392
658.13	2.554
658.45	3.894
658.78	4.393
659.10	4.863
659.43	5.003
659.75	6.074
660.08	6.709
660.41	8.939
660.73	10.419
661.06	9.554
661.38	12.182
661.71	14.615
662.03	12.821
662.36	10.139
662.68	12.048
663.01	12.323
663.33	13.588
663.66	12.815
663.98	13.607
664.31	13.445
664.63	11.336
664.96	12.072
665.28	13.730
665.61	12.865
665.93	11.268
666.26	14.199
666.58	13.598
666.91	13.108
667.23	15.281
667.56	12.095
667.88	12.393
668.21	14.499
668.53	13.015
668.86	13.420
669.18	15.778
669.50	15.870
669.83	13.508
670.15	14.444
670.48	11.547
670.80	12.284
671.13	13.163
671.45	13.191
671.77	15.886
672.10	12.569
672.42	12.544
672.75	12.272
673.07	12.148
673.39	10.488
673.72	9.961
674.04	13.137
674.37	12.427
674.69	11.452
675.01	13.180
675.34	14.784
675.66	17.474
675.98	13.442
676.31	15.336
676.63	14.013
676.95	14.465
677.28	13.785
677.60	13.846
677.92	14.135
678.25	11.294
678.57	13.147
678.89	12.024
679.22	13.360
679.54	13.550
679.86	14.862
680.18	11.807
680.51	12.589
680.83	12.989
681.15	12.642
681.48	12.665
681.80	11.992
682.12	13.985
682.44	11.412
682.77	13.442
683.09	13.948
683.41	13.525
683.73	13.024
684.06	14.463
684.38	13.503
684.70	14.341
685.02	13.508
685.34	12.454
685.67	9.615
685.99	10.997
686.31	10.410
686.63	9.894
686.96	10.536
687.28	13.357
687.60	11.957
687.92	11.517
688.24	11.787
688.56	13.454
688.89	14.730
689.21	13.319
689.53	13.570
689.85	13.747
690.17	11.801
690.49	14.862
690.82	14.720
691.14	13.616
691.46	14.346
691.78	14.458
692.10	14.050
692.42	14.571
692.74	13.071
693.06	11.915
693.39	15.195
693.71	13.100
694.03	13.053
694.35	13.420
694.67	13.959
694.99	15.854
695.31	14.216
695.63	13.397
695.95	14.425
696.27	12.944
696.59	14.767
696.91	15.803
697.23	13.615
697.56	15.352
697.88	11.452
698.20	12.500
698.52	13.118
698.84	14.477
699.16	11.751
699.48	14.252
699.80	15.459
700.12	19.221
700.44	14.589
700.76	17.956
701.08	15.805
701.40	14.525
701.72	18.076
702.04	20.170
702.36	11.898
702.68	15.297
703.00	16.066
703.32	14.362
703.64	13.405
703.96	14.485
704.28	15.988
704.60	21.114
704.91	17.804
705.23	20.235
705.55	20.598
705.87	22.259
706.19	18.375
706.51	19.315
706.83	21.212
707.15	18.207
707.47	13.384
707.79	16.216
708.11	15.525
708.43	14.286
708.74	17.092
709.06	16.364
709.38	15.486
709.70	17.733
710.02	16.024
710.34	16.364
710.66	16.418
710.98	20.455
711.29	15.988
711.61	18.879
711.93	16.026
712.25	23.151
712.57	17.647
712.89	18.339
713.20	19.757
713.52	21.053
713.84	15.190
714.16	17.073
714.48	16.379
714.80	21.581
715.11	17.291
715.43	19.585
715.75	15.652
716.07	17.252
716.39	16.928
716.70	20.598
717.02	19.424
717.34	20.141
717.66	24.627
717.97	22.709
718.29	17.407
718.61	17.883
718.93	18.382
719.24	19.723
719.56	19.661
719.88	21.017
720.20	19.595
720.51	22.648
720.83	21.933
721.15	18.284
721.46	20.567
721.78	21.864
722.10	21.509
722.42	19.173
722.73	25.468
723.05	20.082
723.37	23.887
723.68	24.324
724.00	18.699
724.32	24.597
724.63	20.732
724.95	22.176
725.27	20.648
725.58	24.219
725.90	22.628
726.22	19.245
726.53	17.708
726.85	23.549
727.16	18.149
727.48	21.277
727.80	23.485
728.11	19.565
728.43	20.385
728.74	20.072
729.06	25.912
729.38	20.588
729.69	19.929
730.01	20.137
730.32	17.708
730.64	19.398
730.96	15.512
731.27	22.517
731.59	18.654
731.90	20.991
732.22	18.944
732.53	13.622
732.85	18.910
733.16	16.720
733.48	18.605
733.80	16.883
734.11	18.790
734.43	19.822
734.74	14.286
735.06	16.046
735.37	21.387
735.69	14.968
736.00	22.222
736.32	18.069
736.63	20.447
736.95	19.808
737.26	14.626
737.58	17.742
737.89	19.398
738.21	18.430
738.52	17.500
738.83	19.245
739.15	23.462
739.46	22.263
739.78	20.833
740.09	16.615
740.41	20.000
740.72	16.028
741.04	20.741
741.35	17.917
741.66	23.111
741.98	21.226
742.29	23.923
742.61	27.586
742.92	22.172
743.23	22.222
743.55	23.200
743.86	25.877
744.18	29.646
744.49	29.187
744.80	26.761
745.12	28.182
745.43	25.110
745.74	27.477
746.06	25.688
746.37	27.354
746.68	24.887
747.00	28.241
747.31	27.143
747.62	20.796
747.94	27.753
748.25	21.277
748.56	28.194
748.88	26.238
749.19	28.000
749.50	28.837
749.82	20.732
750.13	19.184
750.44	16.788
750.75	17.895
751.07	25.080
751.38	24.739
751.69	21.661
752.01	18.797
752.32	22.383
752.63	20.213
752.94	18.852
753.26	24.000
753.57	20.325
753.88	29.688
754.19	23.571
754.51	23.958
754.82	16.968
755.13	18.868
755.44	21.429
755.75	19.708
756.07	18.794
756.38	20.073
756.69	19.128
757.00	17.066
757.31	18.101
757.63	14.912
757.94	16.354
758.25	17.157
758.56	15.062
758.87	16.129
759.18	20.303
759.50	18.182
759.81	18.692
760.12	15.000
760.43	16.905
760.74	13.315
761.05	16.102
761.36	16.845
761.67	17.330
761.99	15.839
762.30	18.750
762.61	22.901
762.92	22.656
763.23	23.529
763.54	23.200
763.85	21.094
764.16	23.462
764.47	21.293
764.78	20.495
765.10	14.241
765.41	17.994
765.72	20.958
766.03	21.944
766.34	19.333
766.65	24.255
766.96	24.786
767.27	27.919
767.58	31.250
767.89	37.368
768.20	29.310
768.51	23.350
768.82	31.193
769.13	23.577
769.44	23.482
769.75	24.464
770.06	20.183
770.37	24.434
770.68	25.926
770.99	23.556
771.30	16.393
771.61	22.422
771.92	25.000
772.23	26.050
772.54	23.590
772.85	30.890
773.16	31.915
773.47	33.696
773.78	34.518
774.09	31.548
774.39	36.257
774.70	30.864
775.01	34.058
775.32	41.176
775.63	37.500
775.94	37.410
776.25	40.157
776.56	44.776
776.87	45.082
777.18	42.188
777.48	49.618
777.79	40.909
778.10	43.704
778.41	43.750
778.72	34.307
779.03	39.597
779.34	32.215
779.65	29.730
779.95	30.675
780.26	38.562
780.57	43.448
780.88	54.688
781.19	43.609
781.50	42.568
781.80	40.252
782.11	32.203
782.42	30.380
782.73	35.583
783.04	36.486
783.34	37.324
783.65	45.890
783.96	40.299
784.27	31.469
784.57	30.935
784.88	45.370
785.19	42.063
785.50	47.170
785.81	50.746
786.11	46.721
786.42	39.535
786.73	50.442
787.04	43.396
787.34	49.107
787.65	53.000
787.96	43.243
788.26	34.711
788.57	51.695
788.88	52.893
789.19	45.139
789.49	48.485
789.80	41.985
790.11	49.524
790.41	59.406
790.72	61.446
791.03	63.043
791.33	58.140
791.64	57.732
791.95	54.455
792.25	70.000
792.56	54.545
792.87	73.077
793.17	87.342
793.48	63.218
793.79	58.621
794.09	68.182
794.40	45.378
794.70	47.794
795.01	42.222
795.32	33.813
795.62	47.244
795.93	43.103
796.23	49.558
796.54	45.882
796.85	67.568
797.15	83.099
797.46	72.727
797.76	75.904
798.07	73.418
798.37	67.692
798.68	81.818
798.99	53.521
799.29	62.338
799.60	62.500
799.90	71.233
800.21	79.104
800.51	82.759
800.82	84.211
801.12	90.164
801.43	86.364
801.73	66.216
802.04	100.000
802.34	75.309
802.65	78.125
802.95	103.390
803.26	101.563
803.56	70.000
803.87	76.923
804.17	86.765
804.48	105.556
804.78	77.586
805.09	72.059
805.39	80.769
805.70	78.571
806.00	83.607
806.30	65.152
806.61	69.512
806.91	74.684
807.22	53.947
807.52	64.179
807.83	69.014
808.13	87.500
808.43	90.000
808.74	63.158
809.04	81.159
809.35	77.612
809.65	76.316
809.95	83.871
810.26	89.831
810.56	77.778
810.86	109.091
811.17	128.571
811.47	85.000
811.77	96.296
812.08	94.545
812.38	106.000
812.69	111.111
812.99	102.273
813.29	114.286
813.59	76.190
813.90	126.531
814.20	76.364
814.50	72.308
814.81	80.882
815.11	95.918
815.41	100.000
815.72	126.190
816.02	123.636
816.32	109.524
816.62	112.500
816.93	112.195
817.23	119.048
817.53	111.364
817.84	154.545
818.14	110.870
818.44	106.667
818.74	167.647
819.04	132.500
819.35	100.000
819.65	158.824
819.95	164.286
820.25	170.000
820.56	143.590
820.86	118.182
821.16	144.186
821.46	115.385
821.76	110.000
822.07	125.714
822.37	142.500
822.67	154.545
822.97	100.000
823.27	160.714
823.57	140.541
823.88	162.500
824.18	173.333
824.48	164.286
824.78	156.000
825.08	183.333
825.38	175.676
825.69	141.463
825.99	204.167
826.29	120.690
826.59	163.158
826.89	123.684
827.19	138.235
827.49	112.903
827.79	131.818
828.09	104.545
828.39	117.021
828.70	108.163
829.00	137.037
829.30	145.161
829.60	100.000
829.90	300.000
830.20	189.286
830.50	208.696
830.80	217.391
831.10	146.667
831.40	196.667
831.70	130.435
832.00	196.154
832.30	196.296
832.60	293.750
832.90	203.333
833.20	421.429
833.50	196.774
833.80	165.517
834.10	203.125
834.40	200.000
834.70	255.556
835.00	247.619
835.30	162.857
835.60	353.846
835.90	162.069
836.20	385.714
836.50	200.000
836.80	208.000
837.10	152.778
837.40	209.524
837.70	341.176
838.00	200.000
838.30	247.619
838.60	290.476
838.90	238.462
839.19	240.000
839.49	385.714
839.79	295.000
840.09	250.000
840.39	271.429
840.69	269.565
840.99	255.556
841.29	470.000
841.59	316.667
841.88	381.250
842.18	168.966
842.48	295.238
842.78	203.333
843.08	204.348
843.38	175.000
843.68	833.333
843.97	203.846
844.27	168.966
844.57	280.952
844.87	362.500
845.17	207.407
845.47	1333.333
845.76	422.222
846.06	323.529
846.36	412.500
846.66	342.857
846.96	256.250
847.25	381.818
847.55	436.364
847.85	234.783
848.15	450.000
848.44	342.857
848.74	227.778
849.04	258.824
849.34	460.000
849.63	289.474
849.93	509.091
850.23	1060.000
850.53	450.000
850.82	2450.000
851.12	-4500.000
851.42	4400.000
851.71	245.000
852.01	-1266.667
852.31	262.500
852.61	1466.667
852.90	280.952
853.20	252.000
853.50	317.647
853.79	252.381
854.09	204.167
854.39	325.000
854.68	175.676
854.98	190.323
855.28	160.000
855.57	213.793
855.87	174.074
856.17	200.000
856.46	293.333
856.76	300.000
857.05	203.448
857.35	241.667
857.65	300.000
857.94	186.957
858.24	196.154
858.53	275.000
858.83	222.727
859.13	393.333
859.42	0.000
859.72	600.000
860.01	381.818
860.31	245.455
860.60	273.684
860.90	243.478
861.20	611.111
861.49	508.333
861.79	-4700.000
862.08	675.000
862.38	290.476
862.67	323.077
862.97	364.706
863.26	533.333
863.56	261.111
863.85	341.667
864.15	612.500
864.44	446.667
864.74	816.667
865.03	587.500
865.33	331.579
865.62	436.364
865.92	415.385
866.21	416.667
866.51	0.000
866.80	445.455
867.10	1340.000
867.39	446.154
867.69	390.909
867.98	278.947
868.27	490.909
868.57	257.895
868.86	-5000.000
869.16	387.500
869.45	2450.000
869.75	-3900.000
870.04	425.000
870.33	628.571
870.63	1225.000
870.92	2400.000
871.22	657.143
871.51	305.882
871.80	242.857
872.10	378.571
>>>>>End Processed Spectral Data<<<<<
