SpectraSuite Data File
++++++++++++++++++++++++++++++++++++
Date: Tue May 12 19:56:06 PDT 2015
User: schluterlab
Dark Spectrum Present: Yes
Reference Spectrum Present: Yes
Number of Sampled Component Spectra: 1
Spectrometers: USB2E3373
Integration Time (usec): 3000 (USB2E3373)
Spectra Averaged: 3 (USB2E3373)
Boxcar Smoothing: 0 (USB2E3373)
Correct for Electrical Dark: No (USB2E3373)
Strobe/Lamp Enabled: No (USB2E3373)
Correct for Detector Non-linearity: No (USB2E3373)
Correct for Stray Light: No (USB2E3373)
Number of Pixels in Processed Spectrum: 2048
>>>>>Begin Processed Spectral Data<<<<<
178.53	0.000
178.91	-120.000
179.29	-283.333
179.67	733.333
180.04	0.000
180.42	-360.000
180.80	-600.000
181.18	1200.000
181.56	-400.000
181.94	366.667
182.31	2300.000
182.69	-157.143
183.07	0.000
183.45	250.000
183.83	660.000
184.20	266.667
184.58	1100.000
184.96	416.667
185.34	-666.667
185.72	-107.143
186.09	-400.000
186.47	-1300.000
186.85	-200.000
187.23	108.333
187.61	-242.857
187.98	-340.000
188.36	1300.000
188.74	-250.000
189.12	-188.889
189.49	-120.000
189.87	425.000
190.25	211.111
190.63	633.333
191.00	560.000
191.38	-766.667
191.76	480.000
192.14	-71.429
192.51	-80.000
192.89	-320.000
193.27	-280.000
193.65	-433.333
194.02	-466.667
194.40	1300.000
194.78	-162.500
195.15	-328.571
195.53	633.333
195.91	340.000
196.29	-525.000
196.66	-600.000
197.04	-371.429
197.42	260.000
197.79	-237.500
198.17	-91.667
198.55	-1000.000
198.92	-255.556
199.30	900.000
199.68	-500.000
200.05	-1750.000
200.43	-100.000
200.81	-133.333
201.18	483.333
201.56	-800.000
201.94	-2600.000
202.31	-133.333
202.69	-88.889
203.07	-116.667
203.44	-625.000
203.82	0.000
204.19	300.000
204.57	-600.000
204.95	190.909
205.32	420.000
205.70	500.000
206.08	-1000.000
206.45	-160.000
206.83	2700.000
207.20	-233.333
207.58	-107.692
207.96	600.000
208.33	1166.667
208.71	966.667
209.08	1150.000
209.46	-222.222
209.84	833.333
210.21	-566.667
210.59	750.000
210.96	233.333
211.34	-250.000
211.71	1850.000
212.09	-180.000
212.46	-337.500
212.84	-200.000
213.22	271.429
213.59	-62.500
213.97	0.000
214.34	-850.000
214.72	-2000.000
215.09	950.000
215.47	-60.000
215.84	-62.500
216.22	-2500.000
216.59	2200.000
216.97	-125.000
217.34	-250.000
217.72	5.556
218.09	550.000
218.47	-89.474
218.84	-175.000
219.22	-35.714
219.59	-230.000
219.97	-220.000
220.34	400.000
220.72	154.545
221.09	-950.000
221.47	0.000
221.84	950.000
222.22	-325.000
222.59	-425.000
222.97	-47.826
223.34	173.333
223.72	314.286
224.09	-183.333
224.46	238.462
224.84	-73.333
225.21	-900.000
225.59	-475.000
225.96	-15.000
226.34	500.000
226.71	250.000
227.08	-146.154
227.46	-214.286
227.83	-133.333
228.21	-1350.000
228.58	400.000
228.95	-42.105
229.33	-37.500
229.70	-266.667
230.08	-200.000
230.45	-800.000
230.82	-2700.000
231.20	-23.810
231.57	-460.000
231.95	-600.000
232.32	333.333
232.69	-1050.000
233.07	-12.500
233.44	-275.000
233.81	0.000
234.19	-500.000
234.56	-122.222
234.93	-350.000
235.31	-37.037
235.68	7.407
236.05	-69.231
236.43	-115.789
236.80	-59.091
237.17	-121.429
237.55	-135.000
237.92	-4.651
238.29	-45.161
238.67	-21.429
239.04	8.571
239.41	-23.529
239.79	-12.000
240.16	-17.500
240.53	-37.931
240.91	-16.438
241.28	-2.817
241.65	-12.500
242.02	-12.281
242.40	-17.333
242.77	9.474
243.14	-9.412
243.51	6.452
243.89	-6.667
244.26	-1.852
244.63	7.143
245.00	-4.464
245.38	-8.403
245.75	-5.085
246.12	3.125
246.49	-3.200
246.87	-6.557
247.24	-7.042
247.61	2.649
247.98	0.562
248.36	-0.629
248.73	1.136
249.10	1.111
249.47	3.125
249.84	-2.538
250.22	-1.562
250.59	2.809
250.96	-1.364
251.33	8.491
251.70	-0.917
252.08	5.628
252.45	1.224
252.82	2.954
253.19	5.058
253.56	5.490
253.94	1.626
254.31	6.835
254.68	4.514
255.05	7.616
255.42	6.182
255.79	9.272
256.16	3.472
256.54	8.788
256.91	8.654
257.28	4.545
257.65	4.590
258.02	8.408
258.39	6.042
258.76	5.199
259.14	0.294
259.51	6.197
259.88	7.493
260.25	4.830
260.62	5.337
260.99	6.964
261.36	8.621
261.73	7.733
262.10	9.809
262.47	8.264
262.85	8.483
263.22	6.989
263.59	6.166
263.96	7.833
264.33	2.965
264.70	6.880
265.07	5.419
265.44	9.133
265.81	11.566
266.18	10.304
266.55	6.905
266.92	9.375
267.29	9.778
267.66	7.273
268.03	8.172
268.40	4.348
268.77	5.568
269.14	7.773
269.51	7.692
269.88	5.556
270.25	8.439
270.62	7.563
270.99	4.632
271.36	7.285
271.73	7.917
272.10	7.261
272.47	9.000
272.84	4.034
273.21	8.977
273.58	6.735
273.95	8.167
274.32	8.897
274.69	8.806
275.06	6.942
275.43	6.200
275.80	7.839
276.17	6.522
276.54	11.027
276.91	9.405
277.28	9.478
277.65	8.318
278.02	6.629
278.39	9.800
278.76	10.242
279.13	11.807
279.50	8.664
279.87	9.434
280.23	10.018
280.60	6.890
280.97	8.612
281.34	7.458
281.71	6.750
282.08	6.261
282.45	7.584
282.82	7.912
283.19	8.754
283.56	9.898
283.92	8.057
284.29	8.968
284.66	6.549
285.03	4.974
285.40	9.000
285.77	7.718
286.14	7.765
286.51	6.431
286.87	9.562
287.24	6.731
287.61	7.253
287.98	11.581
288.35	7.132
288.72	9.786
289.08	4.403
289.45	7.020
289.82	6.522
290.19	8.333
290.56	8.104
290.93	7.976
291.29	7.092
291.66	9.129
292.03	8.178
292.40	6.906
292.77	5.685
293.13	7.195
293.50	7.576
293.87	6.241
294.24	8.006
294.60	9.153
294.97	4.709
295.34	5.616
295.71	4.854
296.08	6.284
296.44	7.378
296.81	5.821
297.18	8.797
297.55	6.658
297.91	7.107
298.28	7.033
298.65	6.080
299.02	7.152
299.38	4.719
299.75	7.722
300.12	7.314
300.48	6.338
300.85	4.156
301.22	7.091
301.59	6.934
301.95	7.317
302.32	4.739
302.69	5.113
303.05	6.257
303.42	5.918
303.79	5.730
304.15	7.588
304.52	6.257
304.89	4.510
305.25	6.537
305.62	6.364
305.99	4.927
306.35	6.823
306.72	6.427
307.09	5.876
307.45	6.796
307.82	6.083
308.19	8.251
308.55	6.224
308.92	6.462
309.29	7.636
309.65	7.224
310.02	7.023
310.38	7.143
310.75	6.455
311.12	6.612
311.48	6.886
311.85	5.674
312.22	6.302
312.58	7.150
312.95	8.008
313.31	6.981
313.68	6.951
314.05	8.342
314.41	7.367
314.78	6.332
315.14	7.346
315.51	7.746
315.87	8.594
316.24	8.803
316.61	9.320
316.97	8.922
317.34	8.325
317.70	9.057
318.07	8.390
318.43	9.924
318.80	9.927
319.16	8.667
319.53	10.755
319.89	10.133
320.26	12.094
320.62	12.112
320.99	11.531
321.35	13.142
321.72	12.525
322.08	14.554
322.45	13.609
322.81	13.793
323.18	14.286
323.54	14.597
323.91	13.852
324.27	14.465
324.64	14.995
325.00	16.652
325.37	16.277
325.73	16.788
326.10	16.813
326.46	17.860
326.83	18.206
327.19	19.214
327.56	19.805
327.92	20.226
328.29	19.176
328.65	21.469
329.01	19.817
329.38	19.927
329.74	22.098
330.11	21.435
330.47	21.881
330.84	20.677
331.20	22.643
331.56	21.038
331.93	21.409
332.29	21.832
332.66	23.418
333.02	23.955
333.38	24.632
333.75	23.879
334.11	22.242
334.48	23.882
334.84	22.911
335.20	23.277
335.57	23.978
335.93	22.884
336.29	25.229
336.66	23.679
337.02	25.113
337.38	23.208
337.75	25.273
338.11	26.162
338.47	24.141
338.84	23.665
339.20	24.565
339.56	24.231
339.93	24.414
340.29	24.116
340.65	25.571
341.02	24.889
341.38	24.360
341.74	25.267
342.11	24.403
342.47	25.175
342.83	24.545
343.20	23.784
343.56	24.213
343.92	23.972
344.28	22.985
344.65	24.315
345.01	24.042
345.37	23.932
345.73	24.031
346.10	24.028
346.46	23.555
346.82	24.384
347.19	23.886
347.55	25.595
347.91	24.079
348.27	23.757
348.63	24.892
349.00	25.125
349.36	23.578
349.72	24.795
350.08	24.877
350.45	25.142
350.81	23.617
351.17	23.806
351.53	22.383
351.89	23.748
352.26	24.797
352.62	23.303
352.98	23.515
353.34	23.308
353.70	23.292
354.07	23.723
354.43	23.456
354.79	22.869
355.15	23.325
355.51	24.042
355.87	24.147
356.24	24.101
356.60	23.205
356.96	22.354
357.32	25.021
357.68	24.264
358.04	24.635
358.40	24.632
358.77	23.936
359.13	23.534
359.49	24.320
359.85	22.942
360.21	23.632
360.57	22.488
360.93	23.674
361.29	23.832
361.66	23.265
362.02	23.155
362.38	24.087
362.74	23.597
363.10	22.549
363.46	23.025
363.82	22.971
364.18	22.483
364.54	22.519
364.90	23.185
365.26	23.547
365.62	23.694
365.98	23.088
366.35	23.298
366.71	23.226
367.07	23.026
367.43	22.455
367.79	23.256
368.15	22.609
368.51	23.071
368.87	23.054
369.23	23.013
369.59	22.647
369.95	22.131
370.31	24.091
370.67	23.308
371.03	22.678
371.39	22.659
371.75	22.437
372.11	21.926
372.47	22.346
372.83	22.790
373.19	22.741
373.55	22.156
373.91	22.273
374.27	23.620
374.63	22.312
374.99	21.889
375.35	22.061
375.71	22.382
376.07	23.604
376.42	23.029
376.78	22.857
377.14	22.765
377.50	22.572
377.86	23.050
378.22	22.061
378.58	23.092
378.94	21.938
379.30	23.552
379.66	21.447
380.02	21.996
380.38	22.964
380.74	22.561
381.09	22.808
381.45	22.476
381.81	22.895
382.17	22.736
382.53	23.340
382.89	22.130
383.25	21.497
383.61	21.996
383.97	21.507
384.32	21.806
384.68	22.350
385.04	21.515
385.40	21.725
385.76	21.758
386.12	22.310
386.48	22.374
386.83	22.054
387.19	21.711
387.55	20.984
387.91	21.184
388.27	21.625
388.62	20.531
388.98	22.201
389.34	20.950
389.70	21.474
390.06	22.046
390.42	21.095
390.77	21.797
391.13	21.861
391.49	22.911
391.85	21.291
392.20	21.452
392.56	20.563
392.92	21.521
393.28	21.544
393.64	21.406
393.99	20.195
394.35	21.415
394.71	20.993
395.07	21.684
395.42	20.127
395.78	20.766
396.14	20.986
396.50	21.022
396.85	20.026
397.21	20.893
397.57	20.540
397.92	20.165
398.28	20.384
398.64	20.889
399.00	20.371
399.35	19.988
399.71	19.820
400.07	21.309
400.42	20.897
400.78	20.793
401.14	21.275
401.49	21.362
401.85	20.254
402.21	20.368
402.57	19.446
402.92	20.850
403.28	20.286
403.63	20.321
403.99	20.277
404.35	20.000
404.70	20.393
405.06	20.149
405.42	20.820
405.77	19.857
406.13	19.176
406.49	19.811
406.84	20.672
407.20	20.136
407.55	19.305
407.91	19.650
408.27	20.013
408.62	19.100
408.98	19.755
409.34	19.462
409.69	19.532
410.05	19.365
410.40	19.139
410.76	19.676
411.11	18.811
411.47	19.388
411.83	18.802
412.18	19.634
412.54	18.758
412.89	18.847
413.25	19.060
413.60	19.388
413.96	19.417
414.31	19.630
414.67	18.974
415.03	18.949
415.38	18.524
415.74	19.342
416.09	18.263
416.45	18.684
416.80	18.915
417.16	18.618
417.51	19.917
417.87	20.041
418.22	18.382
418.58	18.867
418.93	19.342
419.29	18.046
419.64	19.849
420.00	18.991
420.35	19.146
420.71	20.038
421.06	18.430
421.42	19.072
421.77	19.062
422.12	18.370
422.48	19.018
422.83	18.845
423.19	18.941
423.54	18.143
423.90	18.109
424.25	19.275
424.61	18.710
424.96	18.980
425.31	19.203
425.67	18.970
426.02	19.130
426.38	18.533
426.73	18.255
427.09	18.319
427.44	18.519
427.79	19.431
428.15	18.643
428.50	18.530
428.85	18.666
429.21	19.605
429.56	18.398
429.92	18.388
430.27	17.440
430.62	18.821
430.98	18.109
431.33	18.409
431.68	18.107
432.04	18.642
432.39	18.360
432.74	17.774
433.10	18.375
433.45	18.746
433.80	18.214
434.16	17.952
434.51	18.004
434.86	18.127
435.22	18.393
435.57	18.799
435.92	16.842
436.28	17.684
436.63	17.949
436.98	17.716
437.34	18.234
437.69	18.086
438.04	18.630
438.39	18.603
438.75	17.846
439.10	18.810
439.45	18.036
439.81	18.095
440.16	18.244
440.51	18.463
440.86	18.182
441.22	18.463
441.57	18.803
441.92	18.498
442.27	18.514
442.63	19.413
442.98	18.643
443.33	19.154
443.68	17.915
444.03	17.577
444.39	17.491
444.74	17.859
445.09	17.710
445.44	18.076
445.79	18.716
446.15	17.843
446.50	18.219
446.85	18.317
447.20	18.545
447.55	18.150
447.91	18.754
448.26	18.872
448.61	18.127
448.96	18.569
449.31	18.505
449.66	18.160
450.02	18.521
450.37	18.712
450.72	17.654
451.07	17.732
451.42	18.972
451.77	17.844
452.12	17.356
452.47	17.954
452.83	18.555
453.18	18.028
453.53	19.268
453.88	18.507
454.23	18.658
454.58	19.125
454.93	18.392
455.28	18.534
455.63	18.973
455.98	18.528
456.34	17.883
456.69	17.806
457.04	18.766
457.39	18.414
457.74	18.205
458.09	17.859
458.44	18.884
458.79	17.550
459.14	17.472
459.49	18.662
459.84	19.144
460.19	18.136
460.54	18.245
460.89	18.647
461.24	19.221
461.59	18.297
461.94	17.686
462.29	17.982
462.64	18.245
462.99	18.637
463.34	18.095
463.69	19.136
464.04	19.051
464.39	18.135
464.74	17.456
465.09	18.264
465.44	18.296
465.79	17.569
466.14	17.363
466.49	18.144
466.84	16.646
467.19	17.804
467.54	16.910
467.89	17.962
468.24	17.740
468.59	17.343
468.94	17.956
469.29	17.716
469.64	18.818
469.99	18.457
470.34	17.115
470.68	18.231
471.03	17.372
471.38	16.530
471.73	18.169
472.08	17.722
472.43	18.465
472.78	17.404
473.13	18.596
473.48	18.257
473.83	17.768
474.17	17.612
474.52	17.816
474.87	17.866
475.22	18.488
475.57	18.155
475.92	17.567
476.27	18.324
476.61	18.262
476.96	17.605
477.31	17.523
477.66	18.187
478.01	17.304
478.36	17.765
478.70	18.648
479.05	16.657
479.40	17.358
479.75	18.340
480.10	17.478
480.45	16.859
480.79	17.488
481.14	17.607
481.49	17.326
481.84	17.980
482.19	16.488
482.53	17.059
482.88	17.590
483.23	18.090
483.58	16.584
483.92	17.236
484.27	17.570
484.62	17.869
484.97	17.311
485.31	16.628
485.66	16.538
486.01	16.159
486.36	16.397
486.70	16.165
487.05	16.667
487.40	16.985
487.75	16.519
488.09	16.573
488.44	16.655
488.79	17.278
489.13	17.041
489.48	16.652
489.83	16.412
490.17	17.018
490.52	17.017
490.87	17.705
491.22	17.554
491.56	17.540
491.91	17.369
492.26	18.307
492.60	17.755
492.95	17.402
493.30	18.087
493.64	16.988
493.99	18.018
494.34	17.739
494.68	16.749
495.03	16.126
495.37	17.587
495.72	17.774
496.07	17.394
496.41	16.601
496.76	17.001
497.11	17.085
497.45	17.579
497.80	17.497
498.14	17.846
498.49	17.619
498.84	17.034
499.18	17.229
499.53	17.809
499.87	17.204
500.22	17.195
500.56	17.896
500.91	17.986
501.26	17.585
501.60	17.176
501.95	17.400
502.29	17.240
502.64	16.426
502.98	16.608
503.33	16.975
503.67	17.101
504.02	17.620
504.36	16.744
504.71	17.128
505.06	16.926
505.40	18.177
505.75	16.693
506.09	17.064
506.44	17.597
506.78	17.773
507.13	17.047
507.47	17.119
507.82	17.243
508.16	17.038
508.51	18.381
508.85	16.923
509.19	17.499
509.54	17.394
509.88	16.571
510.23	17.303
510.57	17.888
510.92	16.950
511.26	16.657
511.61	17.637
511.95	16.715
512.30	18.377
512.64	17.830
512.98	17.366
513.33	16.530
513.67	16.707
514.02	17.067
514.36	17.616
514.70	18.336
515.05	18.415
515.39	19.072
515.74	17.732
516.08	18.079
516.42	17.961
516.77	17.764
517.11	17.676
517.46	18.051
517.80	18.571
518.14	18.596
518.49	18.305
518.83	17.899
519.17	18.702
519.52	17.801
519.86	17.669
520.20	17.898
520.55	18.277
520.89	19.163
521.23	18.370
521.58	17.659
521.92	18.959
522.26	18.213
522.61	18.362
522.95	18.151
523.29	18.354
523.64	17.639
523.98	17.137
524.32	18.653
524.66	18.967
525.01	19.313
525.35	18.605
525.69	17.550
526.04	18.887
526.38	18.369
526.72	18.958
527.06	18.073
527.41	17.434
527.75	18.090
528.09	17.680
528.43	18.498
528.78	18.099
529.12	17.260
529.46	17.940
529.80	17.699
530.15	18.138
530.49	18.828
530.83	17.498
531.17	17.938
531.51	18.701
531.86	18.067
532.20	16.883
532.54	18.129
532.88	17.818
533.22	17.170
533.57	17.103
533.91	18.169
534.25	17.244
534.59	17.950
534.93	17.529
535.27	17.172
535.62	16.880
535.96	16.888
536.30	17.189
536.64	18.026
536.98	16.740
537.32	17.708
537.66	17.449
538.01	17.894
538.35	17.455
538.69	17.764
539.03	17.736
539.37	17.588
539.71	18.478
540.05	17.366
540.39	17.647
540.73	17.582
541.07	17.574
541.42	17.819
541.76	17.122
542.10	17.647
542.44	17.919
542.78	16.496
543.12	16.606
543.46	17.437
543.80	17.798
544.14	18.781
544.48	17.263
544.82	16.820
545.16	18.188
545.50	18.632
545.84	17.849
546.18	17.453
546.52	17.525
546.86	17.215
547.20	18.106
547.54	16.983
547.88	16.880
548.22	17.792
548.56	18.252
548.90	18.526
549.24	18.348
549.58	17.139
549.92	17.068
550.26	17.838
550.60	17.684
550.94	17.619
551.28	17.398
551.62	18.100
551.96	17.812
552.30	15.814
552.64	17.656
552.98	17.162
553.32	16.364
553.66	17.299
554.00	17.529
554.34	18.438
554.68	16.986
555.02	17.302
555.36	16.918
555.69	16.295
556.03	17.812
556.37	16.504
556.71	16.893
557.05	16.719
557.39	16.787
557.73	16.745
558.07	16.823
558.41	16.201
558.75	17.427
559.08	17.702
559.42	17.977
559.76	17.776
560.10	18.093
560.44	16.548
560.78	16.454
561.12	16.304
561.45	17.113
561.79	16.814
562.13	16.531
562.47	17.737
562.81	18.044
563.15	16.502
563.48	16.779
563.82	17.103
564.16	16.981
564.50	17.550
564.84	16.230
565.17	16.309
565.51	17.382
565.85	16.831
566.19	16.910
566.52	16.129
566.86	17.828
567.20	16.101
567.54	15.954
567.88	15.655
568.21	15.709
568.55	15.846
568.89	15.330
569.23	15.964
569.56	15.402
569.90	15.032
570.24	15.839
570.57	14.710
570.91	14.847
571.25	15.014
571.59	14.721
571.92	14.264
572.26	14.347
572.60	13.919
572.93	14.800
573.27	13.952
573.61	14.330
573.95	14.484
574.28	13.931
574.62	13.667
574.96	13.638
575.29	13.526
575.63	13.931
575.97	14.092
576.30	14.315
576.64	14.085
576.98	13.710
577.31	14.046
577.65	13.923
577.98	14.008
578.32	13.624
578.66	13.583
578.99	14.299
579.33	13.245
579.67	14.085
580.00	13.941
580.34	14.337
580.67	13.810
581.01	14.097
581.35	13.600
581.68	13.704
582.02	13.409
582.35	13.454
582.69	13.439
583.02	14.070
583.36	13.666
583.70	13.938
584.03	13.634
584.37	14.074
584.70	13.901
585.04	13.459
585.37	13.723
585.71	13.570
586.04	13.698
586.38	14.138
586.72	13.541
587.05	14.167
587.39	14.040
587.72	13.921
588.06	14.017
588.39	14.023
588.73	14.085
589.06	14.201
589.40	14.713
589.73	14.435
590.07	13.550
590.40	14.749
590.73	15.035
591.07	14.026
591.40	14.801
591.74	14.412
592.07	14.565
592.41	14.246
592.74	14.231
593.08	14.350
593.41	13.336
593.75	14.729
594.08	14.265
594.41	14.657
594.75	14.213
595.08	14.180
595.42	13.969
595.75	13.977
596.09	14.131
596.42	13.953
596.75	15.545
597.09	14.086
597.42	13.937
597.75	14.962
598.09	14.700
598.42	14.860
598.76	13.889
599.09	14.664
599.42	14.005
599.76	13.692
600.09	14.314
600.42	13.359
600.76	14.088
601.09	13.922
601.42	14.372
601.76	13.839
602.09	14.370
602.42	14.590
602.76	14.267
603.09	14.099
603.42	14.267
603.76	13.764
604.09	13.534
604.42	13.568
604.76	13.875
605.09	13.888
605.42	14.123
605.75	14.527
606.09	14.267
606.42	14.523
606.75	14.343
607.09	14.692
607.42	14.181
607.75	13.774
608.08	14.125
608.42	14.452
608.75	14.007
609.08	13.226
609.41	15.189
609.75	14.639
610.08	14.367
610.41	14.402
610.74	14.510
611.07	15.019
611.41	14.293
611.74	14.635
612.07	14.565
612.40	14.485
612.73	14.699
613.07	14.797
613.40	14.779
613.73	14.891
614.06	14.461
614.39	14.997
614.72	15.289
615.06	15.270
615.39	14.492
615.72	13.830
616.05	14.841
616.38	14.472
616.71	14.552
617.05	15.327
617.38	14.710
617.71	15.545
618.04	15.112
618.37	14.846
618.70	15.625
619.03	15.446
619.36	16.421
619.69	14.852
620.03	16.018
620.36	16.100
620.69	14.708
621.02	15.123
621.35	15.319
621.68	15.662
622.01	16.399
622.34	15.410
622.67	15.430
623.00	15.070
623.33	15.197
623.66	16.414
623.99	15.550
624.32	15.250
624.65	15.312
624.99	14.453
625.32	14.218
625.65	15.052
625.98	15.583
626.31	15.498
626.64	15.766
626.97	15.717
627.30	16.389
627.63	15.814
627.96	15.456
628.29	16.444
628.62	16.082
628.95	17.212
629.28	17.149
629.61	16.928
629.94	18.257
630.26	15.586
630.59	16.859
630.92	14.752
631.25	16.760
631.58	16.512
631.91	16.287
632.24	18.817
632.57	17.479
632.90	17.712
633.23	17.548
633.56	17.484
633.89	17.546
634.22	18.077
634.55	17.214
634.88	18.608
635.20	18.082
635.53	17.877
635.86	18.478
636.19	16.917
636.52	17.385
636.85	15.385
637.18	17.098
637.51	17.751
637.83	16.201
638.16	18.492
638.49	17.147
638.82	18.706
639.15	17.286
639.48	16.012
639.81	20.119
640.13	19.296
640.46	16.535
640.79	16.279
641.12	18.140
641.45	17.729
641.77	18.949
642.10	19.381
642.43	20.034
642.76	19.534
643.09	18.685
643.41	19.892
643.74	18.229
644.07	15.697
644.40	15.884
644.73	18.600
645.05	16.794
645.38	16.538
645.71	20.229
646.04	20.446
646.36	18.182
646.69	20.309
647.02	19.531
647.35	20.000
647.67	22.846
648.00	21.359
648.33	18.497
648.66	16.141
648.98	18.644
649.31	17.040
649.64	16.695
649.96	16.892
650.29	16.106
650.62	18.553
650.94	20.702
651.27	15.992
651.60	17.973
651.92	19.847
652.25	14.532
652.58	19.390
652.90	14.947
653.23	15.539
653.56	16.667
653.88	19.891
654.21	15.690
654.54	17.824
654.86	17.806
655.19	16.452
655.52	15.479
655.84	12.852
656.17	12.083
656.49	16.469
656.82	18.605
657.15	14.887
657.47	11.246
657.80	8.499
658.13	7.081
658.45	12.300
658.78	11.964
659.10	12.023
659.43	12.210
659.75	12.386
660.08	12.189
660.41	13.228
660.73	13.573
661.06	15.455
661.38	17.944
661.71	16.193
662.03	20.370
662.36	17.661
662.68	18.465
663.01	17.548
663.33	20.047
663.66	18.900
663.98	21.027
664.31	20.732
664.63	16.743
664.96	19.240
665.28	16.785
665.61	17.991
665.93	19.585
666.26	17.219
666.58	17.890
666.91	20.843
667.23	18.966
667.56	16.790
667.88	18.797
668.21	17.259
668.53	23.096
668.86	16.582
669.18	16.751
669.50	23.136
669.83	16.000
670.15	17.750
670.48	19.298
670.80	18.528
671.13	19.518
671.45	17.092
671.77	19.082
672.10	14.505
672.42	16.335
672.75	15.922
673.07	16.262
673.39	16.148
673.72	15.909
674.04	16.383
674.37	17.783
674.69	16.589
675.01	19.535
675.34	17.892
675.66	18.095
675.98	17.929
676.31	16.373
676.63	15.979
676.95	17.506
677.28	14.356
677.60	21.303
677.92	17.293
678.25	16.705
678.57	14.617
678.89	17.661
679.22	14.450
679.54	16.258
679.86	19.700
680.18	14.644
680.51	16.222
680.83	14.167
681.15	16.776
681.48	14.894
681.80	13.696
682.12	18.201
682.44	13.147
682.77	17.727
683.09	16.176
683.41	17.544
683.73	17.337
684.06	17.259
684.38	17.266
684.70	17.090
685.02	14.069
685.34	13.808
685.67	14.822
685.99	17.565
686.31	15.485
686.63	14.369
686.96	14.431
687.28	14.579
687.60	14.168
687.92	14.346
688.24	18.105
688.56	14.945
688.89	17.123
689.21	13.256
689.53	15.857
689.85	15.696
690.17	14.706
690.49	14.824
690.82	15.971
691.14	16.188
691.46	14.250
691.78	14.354
692.10	13.761
692.42	15.596
692.74	16.588
693.06	13.494
693.39	15.764
693.71	15.116
694.03	13.285
694.35	12.871
694.67	17.812
694.99	17.251
695.31	15.014
695.63	16.757
695.95	16.011
696.27	18.980
696.59	14.243
696.91	17.094
697.23	14.327
697.56	14.767
697.88	15.691
698.20	11.380
698.52	15.625
698.84	14.787
699.16	14.512
699.48	16.230
699.80	15.659
700.12	15.427
700.44	9.440
700.76	17.350
701.08	14.603
701.40	17.763
701.72	19.333
702.04	18.707
702.36	15.082
702.68	15.772
703.00	15.142
703.32	12.874
703.64	14.196
703.96	14.241
704.28	13.732
704.60	15.068
704.91	13.816
705.23	11.228
705.55	16.357
705.87	15.108
706.19	13.546
706.51	11.328
706.83	18.315
707.15	16.271
707.47	17.066
707.79	12.607
708.11	14.286
708.43	13.867
708.74	12.842
709.06	13.497
709.38	11.573
709.70	13.636
710.02	15.734
710.34	11.348
710.66	12.360
710.98	17.133
711.29	18.213
711.61	10.284
711.93	11.985
712.25	14.340
712.57	12.109
712.89	19.592
713.20	13.306
713.52	9.756
713.84	8.394
714.16	18.581
714.48	15.017
714.80	12.121
715.11	13.746
715.43	11.604
715.75	9.825
716.07	12.727
716.39	18.089
716.70	12.800
717.02	16.532
717.34	11.255
717.66	13.636
717.97	12.500
718.29	13.333
718.61	15.315
718.93	10.924
719.24	10.879
719.56	14.732
719.88	14.510
720.20	7.692
720.51	12.719
720.83	12.134
721.15	14.286
721.46	10.549
721.78	13.420
722.10	15.116
722.42	15.217
722.73	6.335
723.05	7.373
723.37	11.765
723.68	12.796
724.00	13.889
724.32	14.019
724.63	6.787
724.95	11.416
725.27	13.615
725.58	16.895
725.90	6.306
726.22	12.227
726.53	11.475
726.85	13.333
727.16	12.146
727.48	13.306
727.80	8.676
728.11	15.556
728.43	11.523
728.74	8.772
729.06	13.100
729.38	16.279
729.69	8.400
730.01	10.460
730.32	9.562
730.64	11.154
730.96	8.880
731.27	10.039
731.59	12.458
731.90	10.197
732.22	10.631
732.53	7.018
732.85	7.394
733.16	12.088
733.48	11.940
733.80	9.818
734.11	9.929
734.43	9.025
734.74	13.084
735.06	11.576
735.37	11.502
735.69	5.282
736.00	11.111
736.32	10.490
736.63	12.593
736.95	6.226
737.26	11.594
737.58	4.015
737.89	9.434
738.21	10.687
738.52	13.115
738.83	10.684
739.15	10.455
739.46	0.000
739.78	10.811
740.09	7.143
740.41	9.848
740.72	9.562
741.04	12.253
741.35	14.798
741.66	12.366
741.98	8.673
742.29	13.990
742.61	7.514
742.92	14.216
743.23	13.433
743.55	5.699
743.86	14.010
744.18	7.500
744.49	11.111
744.80	10.215
745.12	13.333
745.43	11.230
745.74	10.695
746.06	10.920
746.37	9.444
746.68	13.514
747.00	5.525
747.31	11.518
747.62	11.053
747.94	12.264
748.25	12.808
748.56	14.646
748.88	10.383
749.19	7.772
749.50	15.882
749.82	13.000
750.13	9.709
750.44	9.871
750.75	12.800
751.07	3.347
751.38	5.859
751.69	16.270
752.01	5.462
752.32	10.331
752.63	12.227
752.94	13.600
753.26	8.219
753.57	9.479
753.88	5.116
754.19	8.811
754.51	5.021
754.82	8.750
755.13	6.195
755.44	14.719
755.75	11.245
756.07	9.442
756.38	11.297
756.69	8.302
757.00	7.801
757.31	12.803
757.63	9.804
757.94	7.879
758.25	9.226
758.56	10.000
758.87	12.798
759.18	15.888
759.50	10.676
759.81	9.266
760.12	8.897
760.43	9.302
760.74	13.772
761.05	8.333
761.36	12.760
761.67	8.511
761.99	11.037
762.30	10.182
762.61	9.350
762.92	12.000
763.23	9.302
763.54	8.629
763.85	15.385
764.16	6.522
764.47	6.957
764.78	12.097
765.10	9.843
765.41	6.020
765.72	7.358
766.03	9.030
766.34	9.470
766.65	10.156
766.96	8.000
767.27	14.525
767.58	11.321
767.89	12.338
768.20	8.108
768.51	6.897
768.82	6.875
769.13	9.259
769.44	6.132
769.75	4.412
770.06	6.796
770.37	6.915
770.68	8.205
770.99	8.629
771.30	6.701
771.61	8.520
771.92	8.019
772.23	8.173
772.54	5.882
772.85	-2.740
773.16	2.581
773.47	3.822
773.78	13.772
774.09	7.237
774.39	0.735
774.70	10.526
775.01	7.692
775.32	4.762
775.63	-1.575
775.94	-1.887
776.25	8.148
776.56	14.545
776.87	4.274
777.18	10.000
777.48	-2.885
777.79	-2.778
778.10	1.887
778.41	11.765
778.72	0.000
779.03	2.632
779.34	7.563
779.65	4.930
779.95	5.036
780.26	5.645
780.57	5.072
780.88	-7.339
781.19	10.185
781.50	4.098
781.80	6.569
782.11	3.846
782.42	-8.276
782.73	12.587
783.04	-0.800
783.34	3.200
783.65	5.691
783.96	-3.279
784.27	-1.681
784.57	-9.346
784.88	9.821
785.19	-2.062
785.50	1.053
785.81	8.000
786.11	5.941
786.42	-24.706
786.73	-5.208
787.04	4.082
787.34	1.852
787.65	13.208
787.96	-11.340
788.26	-8.911
788.57	1.739
788.88	-7.339
789.19	-2.479
789.49	7.826
789.80	9.483
790.11	-19.512
790.41	5.618
790.72	-5.814
791.03	-3.488
791.33	-15.584
791.64	1.220
791.95	-2.439
792.25	-9.639
792.56	-12.346
792.87	-7.042
793.17	-1.205
793.48	-4.706
793.79	-7.500
794.09	-13.333
794.40	1.087
794.70	-4.348
795.01	-5.505
795.32	-3.150
795.62	-6.863
795.93	0.000
796.23	4.040
796.54	1.163
796.85	-13.043
797.15	-9.375
797.46	-6.780
797.76	9.836
798.07	6.579
798.37	-14.516
798.68	-3.125
798.99	-1.538
799.29	-13.636
799.60	5.797
799.90	11.429
800.21	-22.807
800.51	0.000
800.82	-7.547
801.12	-15.686
801.43	-27.419
801.73	-6.452
802.04	-4.000
802.34	0.000
802.65	-36.842
802.95	-3.636
803.26	-11.321
803.56	-11.475
803.87	-10.000
804.17	-22.222
804.48	-26.923
804.78	-22.449
805.09	-14.894
805.39	6.780
805.70	-39.583
806.00	-12.500
806.30	-8.475
806.61	-16.923
806.91	-9.231
807.22	-11.842
807.52	-12.857
807.83	-18.966
808.13	5.063
808.43	-13.115
808.74	1.639
809.04	4.054
809.35	9.259
809.65	-16.071
809.95	6.780
810.26	-42.857
810.56	-24.528
810.86	0.000
811.17	-32.432
811.47	-77.778
811.77	-19.608
812.08	-15.909
812.38	-58.333
812.69	-30.769
812.99	-4.762
813.29	-23.913
813.59	-11.429
813.90	-9.524
814.20	-9.091
814.50	-14.286
814.81	-27.451
815.11	-29.167
815.41	-7.317
815.72	-50.000
816.02	-4.255
816.32	3.125
816.62	-6.061
816.93	-39.394
817.23	-37.838
817.53	-50.000
817.84	-17.500
818.14	-55.882
818.44	-71.875
818.74	-85.714
819.04	-31.429
819.35	-2.857
819.65	-34.091
819.95	-17.949
820.25	-61.111
820.56	-20.690
820.86	-75.000
821.16	-113.043
821.46	-21.429
821.76	-9.259
822.07	-30.435
822.37	-28.571
822.67	-30.233
822.97	-60.870
823.27	-76.923
823.57	-48.148
823.88	-50.000
824.18	-23.077
824.48	-46.429
824.78	-9.091
825.08	-80.000
825.38	-57.500
825.69	-133.333
825.99	-48.148
826.29	-22.222
826.59	-62.963
826.89	-70.370
827.19	-35.714
827.49	-100.000
827.79	-118.182
828.09	-95.455
828.39	-95.652
828.70	-51.852
829.00	-57.143
829.30	7.143
829.60	-32.258
829.90	-88.462
830.20	-28.205
830.50	-59.091
830.80	-52.381
831.10	-127.778
831.40	-228.571
831.70	-70.370
832.00	-41.176
832.30	-21.739
832.60	-4.167
832.90	-181.818
833.20	-27.778
833.50	6.250
833.80	-30.769
834.10	-20.000
834.40	-50.000
834.70	-18.182
835.00	-65.385
835.30	-45.000
835.60	-210.000
835.90	-55.000
836.20	-135.714
836.50	-47.826
836.80	-50.000
837.10	-80.000
837.40	-230.000
837.70	-60.870
838.00	-28.571
838.30	2400.000
838.60	-12.000
838.90	-480.000
839.19	-144.444
839.49	-1200.000
839.79	-88.235
840.09	-200.000
840.39	-39.286
840.69	-94.444
840.99	-141.667
841.29	-41.379
841.59	-40.000
841.88	-154.545
842.18	-383.333
842.48	-118.750
842.78	-80.769
843.08	-111.765
843.38	-75.000
843.68	-115.385
843.97	-105.882
844.27	-110.000
844.57	-79.167
844.87	-172.727
845.17	-100.000
845.47	-72.222
845.76	-25.000
846.06	-80.952
846.36	-71.429
846.66	-355.556
846.96	-65.000
847.25	-180.000
847.55	-312.500
847.85	-80.000
848.15	-350.000
848.44	-57.895
848.74	-106.667
849.04	-42.105
849.34	-500.000
849.63	-366.667
849.93	-11.765
850.23	-163.636
850.53	-466.667
850.82	-240.000
851.12	-277.778
851.42	-242.857
851.71	-80.000
852.01	-28.571
852.31	-866.667
852.61	-161.538
852.90	-300.000
853.20	-255.556
853.50	-177.778
853.79	-160.000
854.09	-125.000
854.39	-84.211
854.68	-40.000
854.98	-475.000
855.28	-66.667
855.57	-171.429
855.87	-84.211
856.17	-68.750
856.46	-15.385
856.76	-53.333
857.05	-125.000
857.35	-41.667
857.65	-72.222
857.94	-37.500
858.24	-69.565
858.53	-320.000
858.83	-666.667
859.13	-236.364
859.42	-160.000
859.72	316.667
860.01	-23.077
860.31	-280.000
860.60	-312.500
860.90	-625.000
861.20	-266.667
861.49	-550.000
861.79	1000.000
862.08	-29.032
862.38	-78.947
862.67	-146.154
862.97	-290.000
863.26	-108.333
863.56	-47.826
863.85	-366.667
864.15	-85.714
864.44	-43.750
864.74	-158.333
865.03	-188.889
865.33	-533.333
865.62	-1200.000
865.92	-1000.000
866.21	-450.000
866.51	-118.182
866.80	-533.333
867.10	-314.286
867.39	-177.778
867.69	-158.333
867.98	320.000
868.27	-550.000
868.57	775.000
868.86	-100.000
869.16	-38.462
869.45	1450.000
869.75	-383.333
870.04	-183.333
870.33	-70.588
870.63	-128.571
870.92	69.565
871.22	-175.000
871.51	520.000
871.80	-93.750
872.10	-733.333
>>>>>End Processed Spectral Data<<<<<
