SpectraSuite Data File
++++++++++++++++++++++++++++++++++++
Date: Wed May 13 19:21:39 PDT 2015
User: schluterlab
Dark Spectrum Present: Yes
Reference Spectrum Present: Yes
Number of Sampled Component Spectra: 1
Spectrometers: USB2E3373
Integration Time (usec): 3000 (USB2E3373)
Spectra Averaged: 3 (USB2E3373)
Boxcar Smoothing: 0 (USB2E3373)
Correct for Electrical Dark: No (USB2E3373)
Strobe/Lamp Enabled: No (USB2E3373)
Correct for Detector Non-linearity: No (USB2E3373)
Correct for Stray Light: No (USB2E3373)
Number of Pixels in Processed Spectrum: 2048
>>>>>Begin Processed Spectral Data<<<<<
178.53	0.000
178.91	-1575.000
179.29	-1450.000
179.67	-272.222
180.04	-1575.000
180.42	3350.000
180.80	1280.000
181.18	-1300.000
181.56	857.143
181.94	0.000
182.31	-657.143
182.69	1900.000
183.07	-650.000
183.45	-555.556
183.83	590.909
184.20	-460.000
184.58	2350.000
184.96	5700.000
185.34	-1000.000
185.72	-687.500
186.09	-2700.000
186.47	3000.000
186.85	2750.000
187.23	6000.000
187.61	-1733.333
187.98	1575.000
188.36	636.364
188.74	527.273
189.12	-1180.000
189.49	630.000
189.87	-5500.000
190.25	-1275.000
190.63	492.857
191.00	446.154
191.38	983.333
191.76	-1200.000
192.14	1650.000
192.51	675.000
192.89	1066.667
193.27	700.000
193.65	-1550.000
194.02	600.000
194.40	1100.000
194.78	620.000
195.15	533.333
195.53	700.000
195.91	-2000.000
196.29	393.750
196.66	342.105
197.04	-440.000
197.42	0.000
197.79	690.000
198.17	-5800.000
198.55	757.143
198.92	825.000
199.30	1000.000
199.68	0.000
200.05	388.889
200.43	942.857
200.81	5800.000
201.18	1800.000
201.56	-1433.333
201.94	622.222
202.31	600.000
202.69	425.000
203.07	510.000
203.44	0.000
203.82	1425.000
204.19	828.571
204.57	428.571
204.95	700.000
205.32	1766.667
205.70	636.364
206.08	478.571
206.45	2800.000
206.83	368.750
207.20	1000.000
207.58	840.000
207.96	350.000
208.33	912.500
208.71	-900.000
209.08	914.286
209.46	766.667
209.84	536.364
210.21	-1766.667
210.59	1550.000
210.96	-662.500
211.34	2700.000
211.71	590.000
212.09	883.333
212.46	0.000
212.84	2000.000
213.22	1650.000
213.59	-5900.000
213.97	916.667
214.34	1000.000
214.72	700.000
215.09	1400.000
215.47	-2550.000
215.84	-2650.000
216.22	1766.667
216.59	478.571
216.97	1350.000
217.34	572.727
217.72	-716.667
218.09	0.000
218.47	-5800.000
218.84	688.889
219.22	985.714
219.59	1833.333
219.97	-700.000
220.34	1100.000
220.72	-1966.667
221.09	435.714
221.47	1550.000
221.84	-1000.000
222.22	0.000
222.59	1625.000
222.97	-2850.000
223.34	1260.000
223.72	507.692
224.09	1180.000
224.46	2650.000
224.84	-6300.000
225.21	-1180.000
225.59	-5800.000
225.96	640.000
226.34	335.000
226.71	3100.000
227.08	775.000
227.46	640.000
227.83	-1450.000
228.21	-2600.000
228.58	877.778
228.95	-2500.000
229.33	-2950.000
229.70	1966.667
230.08	771.429
230.45	-940.000
230.82	458.333
231.20	900.000
231.57	871.429
231.95	583.333
232.32	286.364
232.69	490.909
233.07	785.714
233.44	423.077
233.81	-2266.667
234.19	331.579
234.56	533.333
234.93	450.000
235.31	536.364
235.68	369.231
236.05	507.143
236.43	175.758
236.80	331.579
237.17	5400.000
237.55	290.476
237.92	267.857
238.29	314.286
238.67	203.226
239.04	248.276
239.41	183.333
239.79	147.826
240.16	173.810
240.53	161.364
240.91	150.980
241.28	148.000
241.65	132.000
242.02	110.145
242.40	120.968
242.77	125.000
243.14	86.022
243.51	97.753
243.89	103.529
244.26	94.444
244.63	93.548
245.00	85.106
245.38	87.129
245.75	91.589
246.12	73.394
246.49	83.942
246.87	83.200
247.24	89.231
247.61	70.714
247.98	69.935
248.36	77.703
248.73	78.344
249.10	70.064
249.47	65.537
249.84	64.171
250.22	62.567
250.59	65.089
250.96	64.646
251.33	61.611
251.70	65.842
252.08	62.381
252.45	59.193
252.82	54.348
253.19	61.702
253.56	54.118
253.94	56.017
254.31	53.906
254.68	56.923
255.05	57.196
255.42	57.317
255.79	54.779
256.16	58.123
256.54	51.237
256.91	58.719
257.28	47.482
257.65	50.825
258.02	53.727
258.39	50.789
258.76	50.502
259.14	49.107
259.51	47.112
259.88	48.758
260.25	48.338
260.62	45.954
260.99	49.379
261.36	51.351
261.73	45.559
262.10	52.035
262.47	49.859
262.85	47.911
263.22	45.014
263.59	49.573
263.96	46.703
264.33	48.303
264.70	48.421
265.07	50.128
265.44	45.202
265.81	43.309
266.18	44.472
266.55	47.561
266.92	47.666
267.29	48.843
267.66	46.560
268.03	42.727
268.40	45.794
268.77	44.391
269.14	45.495
269.51	45.372
269.88	47.552
270.25	44.921
270.62	44.494
270.99	44.086
271.36	43.991
271.73	44.860
272.10	43.696
272.47	46.022
272.84	45.455
273.21	45.073
273.58	43.231
273.95	39.623
274.32	41.736
274.69	46.039
275.06	40.748
275.43	45.319
275.80	42.285
276.17	44.196
276.54	41.996
276.91	43.281
277.28	41.602
277.65	40.232
278.02	42.443
278.39	43.164
278.76	40.000
279.13	40.755
279.50	42.272
279.87	41.434
280.23	41.317
280.60	41.586
280.97	40.296
281.34	43.186
281.71	39.455
282.08	42.802
282.45	41.273
282.82	39.609
283.19	38.324
283.56	39.123
283.92	39.425
284.29	38.977
284.66	41.016
285.03	36.890
285.40	39.261
285.77	38.889
286.14	39.551
286.51	39.167
286.87	39.316
287.24	38.599
287.61	34.992
287.98	38.799
288.35	35.975
288.72	37.383
289.08	37.246
289.45	37.562
289.82	36.423
290.19	34.380
290.56	36.294
290.93	34.139
291.29	37.577
291.66	35.841
292.03	35.610
292.40	35.389
292.77	32.692
293.13	35.522
293.50	32.362
293.87	34.370
294.24	32.889
294.60	30.568
294.97	31.977
295.34	34.979
295.71	33.665
296.08	30.342
296.44	31.224
296.81	30.515
297.18	33.333
297.55	29.156
297.91	28.628
298.28	32.129
298.65	31.070
299.02	30.303
299.38	30.412
299.75	29.111
300.12	28.097
300.48	30.625
300.85	28.977
301.22	30.955
301.59	27.778
301.95	30.353
302.32	28.113
302.69	29.152
303.05	30.061
303.42	27.778
303.79	29.219
304.15	28.089
304.52	28.042
304.89	27.642
305.25	27.262
305.62	27.633
305.99	28.808
306.35	26.510
306.72	29.148
307.09	28.080
307.45	28.716
307.82	28.013
308.19	28.035
308.55	28.695
308.92	27.605
309.29	27.666
309.65	27.890
310.02	26.533
310.38	28.710
310.75	28.617
311.12	27.840
311.48	28.945
311.85	28.826
312.22	28.616
312.58	27.131
312.95	29.989
313.31	27.573
313.68	29.314
314.05	30.473
314.41	29.045
314.78	28.097
315.14	27.507
315.51	29.145
315.87	28.317
316.24	28.401
316.61	29.045
316.97	29.746
317.34	30.333
317.70	30.402
318.07	30.895
318.43	32.485
318.80	31.771
319.16	32.109
319.53	31.614
319.89	33.905
320.26	34.400
320.62	34.425
320.99	35.960
321.35	35.253
321.72	35.626
322.08	36.821
322.45	37.910
322.81	39.535
323.18	39.981
323.54	39.425
323.91	40.189
324.27	40.535
324.64	39.981
325.00	39.044
325.37	41.765
325.73	42.460
326.10	42.718
326.46	42.563
326.83	45.298
327.19	46.712
327.56	45.470
327.92	47.682
328.29	47.737
328.65	48.527
329.01	48.014
329.38	49.769
329.74	48.661
330.11	49.293
330.47	50.597
330.84	50.735
331.20	49.818
331.56	51.376
331.93	51.574
332.29	50.577
332.66	51.947
333.02	52.194
333.38	53.207
333.75	51.693
334.11	51.779
334.48	52.884
334.84	52.757
335.20	54.182
335.57	52.221
335.93	52.946
336.29	53.846
336.66	54.283
337.02	52.308
337.38	54.722
337.75	52.585
338.11	54.521
338.47	54.696
338.84	53.804
339.20	53.853
339.56	54.197
339.93	54.818
340.29	55.163
340.65	54.189
341.02	54.276
341.38	55.071
341.74	54.737
342.11	55.895
342.47	54.890
342.83	54.024
343.20	55.931
343.56	53.580
343.92	54.825
344.28	54.677
344.65	55.116
345.01	53.788
345.37	54.631
345.73	53.469
346.10	54.987
346.46	54.492
346.82	55.766
347.19	54.720
347.55	54.187
347.91	54.854
348.27	55.711
348.63	55.853
349.00	55.340
349.36	54.433
349.72	53.569
350.08	53.566
350.45	55.330
350.81	54.346
351.17	54.538
351.53	55.037
351.89	54.373
352.26	55.091
352.62	55.734
352.98	54.295
353.34	54.889
353.70	54.664
354.07	54.919
354.43	53.810
354.79	55.511
355.15	55.227
355.51	57.234
355.87	57.143
356.24	55.782
356.60	54.852
356.96	56.476
357.32	54.947
357.68	56.457
358.04	55.819
358.40	56.295
358.77	56.808
359.13	54.380
359.49	54.431
359.85	56.587
360.21	56.938
360.57	55.875
360.93	56.769
361.29	55.707
361.66	54.102
362.02	55.970
362.38	55.513
362.74	56.176
363.10	56.033
363.46	55.979
363.82	56.765
364.18	55.286
364.54	55.869
364.90	56.728
365.26	56.397
365.62	57.049
365.98	56.465
366.35	56.089
366.71	56.833
367.07	58.121
367.43	57.837
367.79	58.458
368.15	57.830
368.51	57.703
368.87	58.315
369.23	56.840
369.59	58.726
369.95	57.426
370.31	57.194
370.67	57.246
371.03	56.929
371.39	58.090
371.75	59.118
372.11	57.681
372.47	57.111
372.83	59.510
373.19	57.731
373.55	59.497
373.91	59.647
374.27	57.663
374.63	58.764
374.99	58.828
375.35	57.013
375.71	57.642
376.07	58.779
376.42	57.978
376.78	58.582
377.14	59.227
377.50	60.132
377.86	58.644
378.22	59.229
378.58	57.644
378.94	58.391
379.30	58.524
379.66	58.693
380.02	58.968
380.38	57.498
380.74	58.703
381.09	59.291
381.45	58.513
381.81	60.627
382.17	60.000
382.53	59.371
382.89	59.938
383.25	58.161
383.61	59.108
383.97	58.474
384.32	59.139
384.68	58.612
385.04	59.250
385.40	58.266
385.76	58.108
386.12	59.650
386.48	60.604
386.83	61.450
387.19	60.544
387.55	60.111
387.91	58.888
388.27	58.553
388.62	59.189
388.98	58.538
389.34	59.887
389.70	57.511
390.06	60.520
390.42	60.506
390.77	60.814
391.13	59.477
391.49	60.279
391.85	59.453
392.20	59.621
392.56	59.722
392.92	59.388
393.28	58.876
393.64	58.393
393.99	57.728
394.35	60.298
394.71	59.159
395.07	58.006
395.42	59.085
395.78	59.606
396.14	58.349
396.50	61.090
396.85	60.585
397.21	57.768
397.57	58.896
397.92	59.255
398.28	57.623
398.64	58.363
399.00	58.030
399.35	58.150
399.71	58.449
400.07	59.077
400.42	58.773
400.78	59.409
401.14	59.268
401.49	59.104
401.85	58.197
402.21	58.563
402.57	58.174
402.92	60.025
403.28	59.400
403.63	59.097
403.99	59.554
404.35	57.818
404.70	57.854
405.06	58.358
405.42	59.201
405.77	58.800
406.13	56.603
406.49	57.303
406.84	57.767
407.20	57.801
407.55	58.073
407.91	60.267
408.27	58.711
408.62	57.435
408.98	58.824
409.34	58.303
409.69	59.161
410.05	58.178
410.40	58.104
410.76	58.303
411.11	57.720
411.47	56.486
411.83	58.216
412.18	57.823
412.54	57.970
412.89	57.169
413.25	57.025
413.60	58.308
413.96	56.527
414.31	56.926
414.67	57.224
415.03	57.152
415.38	57.796
415.74	57.942
416.09	58.981
416.45	57.095
416.80	56.246
417.16	57.842
417.51	57.930
417.87	56.712
418.22	56.972
418.58	57.779
418.93	58.108
419.29	57.034
419.64	57.242
420.00	57.073
420.35	55.768
420.71	57.681
421.06	55.847
421.42	56.316
421.77	56.446
422.12	54.969
422.48	55.100
422.83	56.785
423.19	56.022
423.54	56.761
423.90	55.768
424.25	55.891
424.61	55.476
424.96	57.201
425.31	54.430
425.67	55.169
426.02	55.714
426.38	57.570
426.73	55.413
427.09	56.778
427.44	56.527
427.79	56.239
428.15	55.952
428.50	55.647
428.85	55.244
429.21	54.832
429.56	53.810
429.92	54.303
430.27	54.667
430.62	54.071
430.98	54.229
431.33	53.093
431.68	55.131
432.04	54.739
432.39	54.654
432.74	55.117
433.10	55.291
433.45	55.569
433.80	54.601
434.16	53.526
434.51	54.000
434.86	55.530
435.22	55.420
435.57	55.137
435.92	54.593
436.28	54.923
436.63	54.415
436.98	53.921
437.34	54.502
437.69	55.309
438.04	54.637
438.39	55.224
438.75	54.968
439.10	54.302
439.45	54.073
439.81	55.106
440.16	54.150
440.51	54.306
440.86	54.777
441.22	54.338
441.57	54.406
441.92	54.145
442.27	54.467
442.63	54.397
442.98	55.437
443.33	53.913
443.68	54.466
444.03	54.563
444.39	53.700
444.74	54.113
445.09	54.178
445.44	53.964
445.79	53.538
446.15	52.938
446.50	53.904
446.85	53.751
447.20	53.391
447.55	55.611
447.91	53.944
448.26	54.424
448.61	53.985
448.96	55.039
449.31	54.499
449.66	54.080
450.02	54.763
450.37	53.912
450.72	53.694
451.07	53.382
451.42	53.617
451.77	54.198
452.12	52.598
452.47	54.353
452.83	56.469
453.18	52.445
453.53	53.803
453.88	54.519
454.23	53.736
454.58	54.088
454.93	55.435
455.28	53.367
455.63	53.398
455.98	54.345
456.34	53.580
456.69	53.914
457.04	53.560
457.39	52.601
457.74	52.699
458.09	53.076
458.44	53.478
458.79	52.766
459.14	51.749
459.49	52.131
459.84	53.019
460.19	53.270
460.54	51.157
460.89	52.057
461.24	54.584
461.59	53.225
461.94	51.788
462.29	53.531
462.64	54.371
462.99	50.683
463.34	54.200
463.69	52.033
464.04	52.696
464.39	51.304
464.74	51.040
465.09	51.749
465.44	50.637
465.79	50.503
466.14	50.848
466.49	50.278
466.84	52.189
467.19	51.479
467.54	51.687
467.89	51.621
468.24	50.844
468.59	51.221
468.94	50.580
469.29	52.185
469.64	52.744
469.99	52.503
470.34	52.510
470.68	52.945
471.03	51.633
471.38	53.718
471.73	52.698
472.08	51.447
472.43	51.759
472.78	51.810
473.13	51.348
473.48	51.186
473.83	51.341
474.17	51.027
474.52	50.993
474.87	49.737
475.22	50.145
475.57	48.845
475.92	49.973
476.27	49.211
476.61	50.138
476.96	50.027
477.31	49.084
477.66	50.274
478.01	48.876
478.36	50.555
478.70	49.481
479.05	49.201
479.40	49.591
479.75	49.466
480.10	49.205
480.45	47.977
480.79	48.543
481.14	49.560
481.49	48.647
481.84	47.782
482.19	48.796
482.53	48.624
482.88	48.395
483.23	48.178
483.58	48.999
483.92	48.969
484.27	47.277
484.62	47.845
484.97	47.576
485.31	47.021
485.66	45.452
486.01	43.368
486.36	41.943
486.70	42.094
487.05	43.054
487.40	45.403
487.75	46.988
488.09	47.619
488.44	47.865
488.79	49.222
489.13	48.892
489.48	47.512
489.83	48.338
490.17	48.312
490.52	47.697
490.87	46.766
491.22	46.839
491.56	46.697
491.91	47.231
492.26	46.762
492.60	46.406
492.95	45.837
493.30	46.636
493.64	46.944
493.99	47.075
494.34	46.670
494.68	46.658
495.03	46.852
495.37	46.533
495.72	47.222
496.07	46.032
496.41	45.044
496.76	45.602
497.11	44.800
497.45	46.577
497.80	46.161
498.14	45.217
498.49	46.244
498.84	45.829
499.18	46.524
499.53	46.344
499.87	45.340
500.22	45.360
500.56	45.874
500.91	45.337
501.26	45.567
501.60	45.800
501.95	43.905
502.29	45.501
502.64	44.460
502.98	44.834
503.33	44.698
503.67	44.269
504.02	45.276
504.36	44.034
504.71	44.797
505.06	43.759
505.40	45.455
505.75	44.262
506.09	43.878
506.44	44.943
506.78	44.082
507.13	45.331
507.47	45.000
507.82	44.529
508.16	44.174
508.51	44.597
508.85	43.694
509.19	44.745
509.54	44.541
509.88	43.483
510.23	44.524
510.57	45.872
510.92	45.106
511.26	44.296
511.61	43.983
511.95	43.163
512.30	43.637
512.64	44.116
512.98	45.070
513.33	44.004
513.67	44.237
514.02	43.615
514.36	43.528
514.70	43.331
515.05	43.726
515.39	43.859
515.74	42.736
516.08	43.600
516.42	43.729
516.77	44.816
517.11	43.674
517.46	44.582
517.80	45.064
518.14	43.602
518.49	44.924
518.83	43.750
519.17	43.707
519.52	43.916
519.86	43.697
520.20	44.220
520.55	44.405
520.89	44.282
521.23	44.331
521.58	44.178
521.92	44.581
522.26	42.404
522.61	43.988
522.95	43.094
523.29	43.396
523.64	43.537
523.98	43.376
524.32	43.546
524.66	43.295
525.01	43.199
525.35	44.052
525.69	42.980
526.04	43.364
526.38	42.587
526.72	41.656
527.06	42.185
527.41	42.141
527.75	43.473
528.09	43.738
528.43	42.702
528.78	42.348
529.12	42.485
529.46	43.417
529.80	43.564
530.15	43.489
530.49	41.046
530.83	43.165
531.17	43.342
531.51	44.617
531.86	42.645
532.20	43.807
532.54	43.049
532.88	43.389
533.22	41.224
533.57	42.284
533.91	40.819
534.25	41.191
534.59	41.916
534.93	41.404
535.27	42.426
535.62	41.697
535.96	42.498
536.30	41.259
536.64	42.627
536.98	43.331
537.32	41.804
537.66	43.067
538.01	42.989
538.35	40.142
538.69	42.246
539.03	39.766
539.37	41.022
539.71	40.441
540.05	40.915
540.39	41.794
540.73	41.009
541.07	42.375
541.42	42.792
541.76	41.548
542.10	40.944
542.44	41.722
542.78	42.029
543.12	39.859
543.46	41.443
543.80	41.509
544.14	40.116
544.48	41.397
544.82	40.731
545.16	41.184
545.50	40.103
545.84	40.591
546.18	41.010
546.52	40.468
546.86	40.893
547.20	40.189
547.54	40.615
547.88	39.923
548.22	40.535
548.56	38.868
548.90	40.397
549.24	40.337
549.58	39.359
549.92	40.934
550.26	41.335
550.60	39.765
550.94	40.141
551.28	39.649
551.62	40.187
551.96	39.018
552.30	40.068
552.64	40.771
552.98	39.525
553.32	39.110
553.66	41.172
554.00	40.494
554.34	39.821
554.68	39.413
555.02	39.492
555.36	39.666
555.69	38.836
556.03	39.435
556.37	38.199
556.71	37.926
557.05	38.025
557.39	39.118
557.73	38.956
558.07	39.884
558.41	39.146
558.75	39.236
559.08	40.641
559.42	40.438
559.76	39.118
560.10	38.116
560.44	38.574
560.78	38.390
561.12	38.127
561.45	38.070
561.79	37.574
562.13	38.498
562.47	38.593
562.81	38.145
563.15	37.525
563.48	37.865
563.82	38.030
564.16	37.868
564.50	38.021
564.84	36.346
565.17	37.967
565.51	37.444
565.85	37.310
566.19	36.506
566.52	38.125
566.86	35.865
567.20	37.146
567.54	36.130
567.88	36.339
568.21	36.402
568.55	36.047
568.89	35.311
569.23	34.269
569.56	34.008
569.90	33.623
570.24	33.118
570.57	33.016
570.91	32.321
571.25	33.169
571.59	32.725
571.92	32.373
572.26	32.785
572.60	33.724
572.93	32.594
573.27	33.245
573.61	33.054
573.95	32.481
574.28	32.085
574.62	32.046
574.96	31.947
575.29	31.959
575.63	32.546
575.97	32.466
576.30	32.422
576.64	32.247
576.98	31.988
577.31	31.608
577.65	31.183
577.98	31.564
578.32	30.977
578.66	31.300
578.99	31.911
579.33	31.736
579.67	32.158
580.00	32.007
580.34	32.772
580.67	31.789
581.01	31.909
581.35	31.540
581.68	30.686
582.02	30.173
582.35	30.561
582.69	30.756
583.02	31.241
583.36	32.004
583.70	32.517
584.03	32.654
584.37	32.806
584.70	32.811
585.04	32.094
585.37	31.081
585.71	31.790
586.04	31.529
586.38	32.001
586.72	32.367
587.05	31.377
587.39	31.214
587.72	31.564
588.06	32.471
588.39	31.907
588.73	31.593
589.06	32.409
589.40	32.896
589.73	33.122
590.07	32.171
590.40	33.687
590.73	32.865
591.07	34.025
591.40	33.615
591.74	33.939
592.07	33.551
592.41	33.237
592.74	31.760
593.08	30.979
593.41	30.908
593.75	31.012
594.08	31.177
594.41	32.167
594.75	31.941
595.08	32.498
595.42	32.224
595.75	32.443
596.09	32.069
596.42	33.084
596.75	32.250
597.09	33.117
597.42	32.209
597.75	33.333
598.09	33.043
598.42	32.646
598.76	31.455
599.09	30.483
599.42	30.786
599.76	30.930
600.09	30.965
600.42	30.752
600.76	31.179
601.09	30.638
601.42	31.164
601.76	31.461
602.09	31.581
602.42	32.205
602.76	32.971
603.09	31.983
603.42	31.745
603.76	31.174
604.09	31.214
604.42	31.227
604.76	32.602
605.09	32.285
605.42	30.996
605.75	31.416
606.09	31.842
606.42	31.631
606.75	31.730
607.09	31.394
607.42	30.980
607.75	30.802
608.08	31.220
608.42	32.138
608.75	31.199
609.08	31.637
609.41	32.128
609.75	31.586
610.08	31.385
610.41	31.937
610.74	32.261
611.07	32.164
611.41	31.501
611.74	32.127
612.07	33.126
612.40	33.106
612.73	33.000
613.07	32.812
613.40	32.385
613.73	31.620
614.06	31.882
614.39	32.354
614.72	32.579
615.06	31.670
615.39	31.476
615.72	31.186
616.05	30.728
616.38	32.740
616.71	33.135
617.05	32.862
617.38	32.291
617.71	32.012
618.04	32.212
618.37	32.466
618.70	32.670
619.03	33.618
619.36	32.519
619.69	34.014
620.03	33.379
620.36	32.754
620.69	33.767
621.02	33.997
621.35	33.986
621.68	32.866
622.01	33.359
622.34	34.191
622.67	34.068
623.00	31.915
623.33	33.024
623.66	32.094
623.99	33.137
624.32	31.598
624.65	32.486
624.99	31.941
625.32	31.282
625.65	33.283
625.98	32.590
626.31	33.515
626.64	33.878
626.97	33.666
627.30	34.081
627.63	33.634
627.96	34.651
628.29	33.683
628.62	34.492
628.95	35.189
629.28	35.036
629.61	34.647
629.94	34.571
630.26	34.795
630.59	34.128
630.92	34.866
631.25	34.551
631.58	33.634
631.91	33.874
632.24	34.916
632.57	34.942
632.90	34.978
633.23	34.899
633.56	35.254
633.89	36.467
634.22	35.074
634.55	36.568
634.88	37.006
635.20	36.679
635.53	35.542
635.86	36.386
636.19	35.529
636.52	33.679
636.85	36.655
637.18	33.871
637.51	36.643
637.83	35.018
638.16	37.724
638.49	36.272
638.82	36.030
639.15	37.125
639.48	36.035
639.81	36.595
640.13	37.240
640.46	36.510
640.79	36.988
641.12	33.838
641.45	35.894
641.77	36.230
642.10	35.380
642.43	37.988
642.76	37.771
643.09	37.883
643.41	37.633
643.74	38.889
644.07	39.329
644.40	37.270
644.73	39.055
645.05	38.352
645.38	37.283
645.71	37.681
646.04	37.874
646.36	43.072
646.69	39.130
647.02	35.544
647.35	38.832
647.67	38.938
648.00	35.935
648.33	35.149
648.66	34.848
648.98	36.132
649.31	35.277
649.64	36.173
649.96	36.662
650.29	34.755
650.62	36.731
650.94	37.115
651.27	41.047
651.60	38.769
651.92	38.179
652.25	36.319
652.58	36.604
652.90	36.493
653.23	35.747
653.56	37.165
653.88	37.242
654.21	37.283
654.54	39.934
654.86	37.072
655.19	32.297
655.52	22.893
655.84	19.600
656.17	25.686
656.49	35.528
656.82	38.516
657.15	30.444
657.47	23.727
657.80	18.712
658.13	20.209
658.45	31.193
658.78	31.979
659.10	34.619
659.43	35.773
659.75	38.365
660.08	41.076
660.41	42.179
660.73	41.550
661.06	40.924
661.38	42.545
661.71	39.038
662.03	42.604
662.36	35.984
662.68	39.157
663.01	39.192
663.33	38.854
663.66	40.336
663.98	39.957
664.31	35.924
664.63	36.640
664.96	36.419
665.28	40.369
665.61	38.596
665.93	37.827
666.26	38.540
666.58	38.494
666.91	40.592
667.23	42.022
667.56	39.525
667.88	42.735
668.21	41.578
668.53	37.744
668.86	39.177
669.18	40.299
669.50	37.174
669.83	39.869
670.15	39.333
670.48	38.126
670.80	39.871
671.13	39.915
671.45	40.426
671.77	40.530
672.10	39.187
672.42	35.866
672.75	35.323
673.07	35.739
673.39	35.081
673.72	34.570
674.04	40.000
674.37	36.311
674.69	36.605
675.01	37.029
675.34	41.478
675.66	40.211
675.98	40.733
676.31	39.706
676.63	40.127
676.95	39.413
677.28	39.019
677.60	38.462
677.92	40.084
678.25	38.604
678.57	37.052
678.89	36.673
679.22	38.114
679.54	37.595
679.86	37.798
680.18	36.315
680.51	37.411
680.83	37.367
681.15	37.925
681.48	37.996
681.80	35.783
682.12	38.314
682.44	32.495
682.77	37.475
683.09	40.129
683.41	38.803
683.73	38.852
684.06	38.017
684.38	34.834
684.70	37.791
685.02	37.148
685.34	34.799
685.67	35.140
685.99	32.474
686.31	34.983
686.63	31.625
686.96	34.643
687.28	37.365
687.60	33.152
687.92	37.112
688.24	34.411
688.56	38.554
688.89	38.174
689.21	38.428
689.53	37.787
689.85	37.916
690.17	36.232
690.49	39.278
690.82	38.785
691.14	35.714
691.46	36.287
691.78	37.550
692.10	36.983
692.42	37.325
692.74	36.722
693.06	35.106
693.39	35.729
693.71	37.336
694.03	37.895
694.35	35.065
694.67	36.842
694.99	40.000
695.31	38.480
695.63	35.646
695.95	38.631
696.27	36.802
696.59	39.119
696.91	38.860
697.23	33.568
697.56	36.247
697.88	33.333
698.20	35.625
698.52	36.774
698.84	36.748
699.16	36.636
699.48	37.767
699.80	40.338
700.12	44.416
700.44	40.318
700.76	41.436
701.08	40.517
701.40	39.385
701.72	41.108
702.04	43.466
702.36	37.110
702.68	41.926
703.00	41.274
703.32	35.638
703.64	40.214
703.96	42.061
704.28	41.570
704.60	37.830
704.91	40.356
705.23	39.883
705.55	46.179
705.87	46.179
706.19	43.463
706.51	42.991
706.83	42.727
707.15	43.417
707.47	37.374
707.79	39.803
708.11	36.530
708.43	35.238
708.74	38.265
709.06	40.260
709.38	37.795
709.70	42.151
710.02	40.059
710.34	38.788
710.66	41.791
710.98	43.750
711.29	39.826
711.61	40.118
711.93	37.179
712.25	43.408
712.57	44.853
712.89	41.176
713.20	38.602
713.52	39.803
713.84	40.823
714.16	38.720
714.48	40.517
714.80	45.897
715.11	38.329
715.43	40.059
715.75	41.159
716.07	40.256
716.39	45.141
716.70	44.186
717.02	41.367
717.34	43.816
717.66	44.776
717.97	49.801
718.29	44.444
718.61	48.540
718.93	41.176
719.24	42.907
719.56	37.966
719.88	47.458
720.20	44.932
720.51	44.251
720.83	42.751
721.15	40.299
721.46	40.780
721.78	41.935
722.10	45.660
722.42	44.737
722.73	43.820
723.05	44.672
723.37	47.368
723.68	47.104
724.00	43.089
724.32	42.339
724.63	46.341
724.95	44.770
725.27	46.559
725.58	44.922
725.90	41.241
726.22	41.132
726.53	41.667
726.85	39.932
727.16	42.705
727.48	40.426
727.80	41.288
728.11	46.377
728.43	43.077
728.74	40.502
729.06	44.891
729.38	45.956
729.69	44.484
730.01	39.590
730.32	42.014
730.64	42.140
730.96	38.944
731.27	43.046
731.59	40.979
731.90	39.942
732.22	44.410
732.53	38.390
732.85	39.744
733.16	38.907
733.48	37.874
733.80	42.532
734.11	41.720
734.43	41.420
734.74	38.286
735.06	36.103
735.37	37.861
735.69	38.217
736.00	42.157
736.32	42.679
736.63	37.061
736.95	38.019
737.26	37.415
737.58	39.677
737.89	38.796
738.21	41.638
738.52	42.500
738.83	42.642
739.15	43.846
739.46	41.971
739.78	42.014
740.09	40.308
740.41	42.581
740.72	39.721
741.04	44.074
741.35	42.083
741.66	48.000
741.98	42.925
742.29	44.976
742.61	47.414
742.92	47.511
743.23	45.726
743.55	42.800
743.86	46.053
744.18	48.230
744.49	52.153
744.80	53.991
745.12	49.545
745.43	44.053
745.74	50.000
746.06	46.330
746.37	49.327
746.68	45.701
747.00	52.315
747.31	46.667
747.62	46.903
747.94	45.815
748.25	43.404
748.56	51.542
748.88	42.574
749.19	55.000
749.50	47.442
749.82	39.837
750.13	44.082
750.44	41.241
750.75	42.807
751.07	39.871
751.38	40.418
751.69	43.682
752.01	41.353
752.32	41.877
752.63	43.262
752.94	42.213
753.26	46.800
753.57	41.870
753.88	45.312
754.19	42.500
754.51	46.528
754.82	38.267
755.13	45.660
755.44	46.617
755.75	44.161
756.07	38.298
756.38	39.416
756.69	39.262
757.00	37.425
757.31	36.202
757.63	35.673
757.94	32.708
758.25	36.275
758.56	32.099
758.87	37.097
759.18	38.788
759.50	35.423
759.81	38.318
760.12	36.875
760.43	36.390
760.74	36.957
761.05	34.746
761.36	35.561
761.67	38.636
761.99	39.130
762.30	41.319
762.61	41.985
762.92	42.969
763.23	48.319
763.54	48.800
763.85	41.016
764.16	45.385
764.47	44.487
764.78	41.343
765.10	39.241
765.41	40.708
765.72	36.228
766.03	37.304
766.34	38.333
766.65	47.660
766.96	48.291
767.27	48.223
767.58	50.000
767.89	56.842
768.20	54.023
768.51	48.731
768.82	49.541
769.13	43.089
769.44	41.700
769.75	44.206
770.06	38.073
770.37	45.249
770.68	46.759
770.99	42.222
771.30	40.574
771.61	47.982
771.92	43.852
772.23	44.958
772.54	50.769
772.85	55.497
773.16	52.660
773.47	49.457
773.78	56.345
774.09	57.738
774.39	54.386
774.70	51.852
775.01	60.145
775.32	58.170
775.63	53.947
775.94	51.799
776.25	66.142
776.56	71.642
776.87	73.770
777.18	63.281
777.48	67.939
777.79	61.364
778.10	62.963
778.41	75.000
778.72	46.715
779.03	55.705
779.34	57.047
779.65	60.135
779.95	56.442
780.26	57.516
780.57	65.517
780.88	73.437
781.19	59.398
781.50	59.459
781.80	56.604
782.11	49.718
782.42	56.329
782.73	51.534
783.04	66.892
783.34	58.451
783.65	69.863
783.96	75.373
784.27	55.245
784.57	59.712
784.88	62.963
785.19	70.635
785.50	79.245
785.81	67.164
786.11	73.770
786.42	73.643
786.73	61.947
787.04	78.302
787.34	75.893
787.65	73.000
787.96	72.973
788.26	67.769
788.57	66.949
788.88	76.860
789.19	61.806
789.49	71.970
789.80	59.542
790.11	84.762
790.41	82.178
790.72	83.133
791.03	76.087
791.33	80.233
791.64	80.412
791.95	68.317
792.25	80.000
792.56	98.701
792.87	94.872
793.17	98.734
793.48	102.299
793.79	85.057
794.09	85.227
794.40	76.471
794.70	58.824
795.01	57.037
795.32	62.590
795.62	60.630
795.93	56.897
796.23	76.106
796.54	80.000
796.85	87.838
797.15	92.958
797.46	98.485
797.76	92.771
798.07	81.013
798.37	101.538
798.68	103.030
798.99	88.732
799.29	74.026
799.60	88.636
799.90	119.178
800.21	111.940
800.51	110.345
800.82	129.825
801.12	109.836
801.43	116.667
801.73	72.973
802.04	115.873
802.34	100.000
802.65	112.500
802.95	122.034
803.26	107.813
803.56	90.000
803.87	93.846
804.17	101.471
804.48	131.481
804.78	98.276
805.09	105.882
805.39	115.385
805.70	110.714
806.00	114.754
806.30	92.424
806.61	91.463
806.91	92.405
807.22	96.053
807.52	97.015
807.83	109.859
808.13	117.187
808.43	116.667
808.74	77.632
809.04	91.304
809.35	104.478
809.65	92.105
809.95	129.032
810.26	118.644
810.56	100.000
810.86	145.455
811.17	176.190
811.47	123.333
811.77	90.741
812.08	125.455
812.38	138.000
812.69	175.000
812.99	154.545
813.29	130.612
813.59	100.000
813.90	144.898
814.20	112.727
814.50	103.077
814.81	122.059
815.11	130.612
815.41	116.393
815.72	173.810
816.02	136.364
816.32	154.762
816.62	132.500
816.93	158.537
817.23	159.524
817.53	152.273
817.84	203.030
818.14	139.130
818.44	155.556
818.74	188.235
819.04	155.000
819.35	188.571
819.65	158.824
819.95	182.143
820.25	300.000
820.56	187.179
820.86	140.909
821.16	144.186
821.46	153.846
821.76	156.000
822.07	217.143
822.37	172.500
822.67	212.121
822.97	109.804
823.27	257.143
823.57	170.270
823.88	190.000
824.18	223.333
824.48	142.857
824.78	240.000
825.08	187.500
825.38	202.703
825.69	180.488
825.99	220.833
826.29	210.345
826.59	192.105
826.89	173.684
827.19	185.294
827.49	206.452
827.79	186.364
828.09	152.273
828.39	121.277
828.70	151.020
829.00	240.741
829.30	190.323
829.60	152.500
829.90	373.333
830.20	221.429
830.50	217.391
830.80	260.870
831.10	190.000
831.40	210.000
831.70	230.435
832.00	273.077
832.30	251.852
832.60	356.250
832.90	256.667
833.20	471.429
833.50	209.677
833.80	182.759
834.10	209.375
834.40	234.615
834.70	322.222
835.00	328.571
835.30	171.429
835.60	376.923
835.90	244.828
836.20	385.714
836.50	200.000
836.80	216.000
837.10	194.444
837.40	300.000
837.70	341.176
838.00	225.926
838.30	238.095
838.60	319.048
838.90	261.538
839.19	305.000
839.49	450.000
839.79	370.000
840.09	295.000
840.39	290.476
840.69	291.304
840.99	333.333
841.29	600.000
841.59	466.667
841.88	368.750
842.18	179.310
842.48	271.429
842.78	226.667
843.08	265.217
843.38	237.500
843.68	1016.667
843.97	257.692
844.27	224.138
844.57	304.762
844.87	431.250
845.17	240.741
845.47	2000.000
845.76	522.222
846.06	352.941
846.36	662.500
846.66	421.429
846.96	350.000
847.25	409.091
847.55	500.000
847.85	278.261
848.15	600.000
848.44	414.286
848.74	344.444
849.04	329.412
849.34	540.000
849.63	268.421
849.93	490.909
850.23	1100.000
850.53	457.143
850.82	2750.000
851.12	-5300.000
851.42	4700.000
851.71	300.000
852.01	-1366.667
852.31	291.667
852.61	1966.667
852.90	266.667
853.20	224.000
853.50	358.824
853.79	333.333
854.09	258.333
854.39	368.750
854.68	191.892
854.98	200.000
855.28	223.333
855.57	213.793
855.87	225.926
856.17	278.947
856.46	253.333
856.76	370.588
857.05	189.655
857.35	283.333
857.65	333.333
857.94	269.565
858.24	284.615
858.53	310.000
858.83	304.545
859.13	506.667
859.42	0.000
859.72	611.111
860.01	572.727
860.31	290.909
860.60	321.053
860.90	282.609
861.20	533.333
861.49	458.333
861.79	-5400.000
862.08	662.500
862.38	347.619
862.67	430.769
862.97	364.706
863.26	644.444
863.56	283.333
863.85	533.333
864.15	725.000
864.44	413.333
864.74	783.333
865.03	762.500
865.33	300.000
865.62	509.091
865.92	500.000
866.21	350.000
866.51	0.000
866.80	481.818
867.10	1180.000
867.39	438.462
867.69	490.909
867.98	315.789
868.27	527.273
868.57	326.316
868.86	-4900.000
869.16	350.000
869.45	2800.000
869.75	-5700.000
870.04	600.000
870.33	785.714
870.63	1075.000
870.92	2950.000
871.22	771.429
871.51	417.647
871.80	266.667
872.10	450.000
>>>>>End Processed Spectral Data<<<<<
