SpectraSuite Data File
++++++++++++++++++++++++++++++++++++
Date: Wed May 13 19:50:58 PDT 2015
User: schluterlab
Dark Spectrum Present: Yes
Reference Spectrum Present: Yes
Number of Sampled Component Spectra: 1
Spectrometers: USB2E3373
Integration Time (usec): 3000 (USB2E3373)
Spectra Averaged: 3 (USB2E3373)
Boxcar Smoothing: 0 (USB2E3373)
Correct for Electrical Dark: No (USB2E3373)
Strobe/Lamp Enabled: No (USB2E3373)
Correct for Detector Non-linearity: No (USB2E3373)
Correct for Stray Light: No (USB2E3373)
Number of Pixels in Processed Spectrum: 2048
>>>>>Begin Processed Spectral Data<<<<<
178.53	0.000
178.91	-1075.000
179.29	-1300.000
179.67	-222.222
180.04	-1350.000
180.42	3250.000
180.80	1200.000
181.18	-1025.000
181.56	857.143
181.94	0.000
182.31	-628.571
182.69	2166.667
183.07	-500.000
183.45	-500.000
183.83	518.182
184.20	-440.000
184.58	2400.000
184.96	5400.000
185.34	-900.000
185.72	-525.000
186.09	-2400.000
186.47	3150.000
186.85	2550.000
187.23	5800.000
187.61	-1766.667
187.98	1425.000
188.36	536.364
188.74	518.182
189.12	-860.000
189.49	580.000
189.87	-4700.000
190.25	-1225.000
190.63	357.143
191.00	484.615
191.38	800.000
191.76	-1300.000
192.14	1250.000
192.51	687.500
192.89	1000.000
193.27	687.500
193.65	-975.000
194.02	540.000
194.40	920.000
194.78	620.000
195.15	466.667
195.53	690.000
195.91	-2300.000
196.29	318.750
196.66	342.105
197.04	-320.000
197.42	0.000
197.79	590.000
198.17	-4300.000
198.55	700.000
198.92	625.000
199.30	1180.000
199.68	0.000
200.05	288.889
200.43	828.571
200.81	4900.000
201.18	1900.000
201.56	-1333.333
201.94	555.556
202.31	766.667
202.69	466.667
203.07	600.000
203.44	0.000
203.82	1250.000
204.19	814.286
204.57	485.714
204.95	775.000
205.32	1633.333
205.70	609.091
206.08	421.429
206.45	2900.000
206.83	368.750
207.20	683.333
207.58	1040.000
207.96	377.778
208.33	887.500
208.71	-866.667
209.08	800.000
209.46	600.000
209.84	472.727
210.21	-1466.667
210.59	1475.000
210.96	-525.000
211.34	2700.000
211.71	620.000
212.09	733.333
212.46	0.000
212.84	1633.333
213.22	1450.000
213.59	-4900.000
213.97	783.333
214.34	857.143
214.72	563.636
215.09	940.000
215.47	-2400.000
215.84	-2900.000
216.22	1700.000
216.59	442.857
216.97	1200.000
217.34	554.545
217.72	-800.000
218.09	0.000
218.47	-5400.000
218.84	700.000
219.22	700.000
219.59	1600.000
219.97	-742.857
220.34	1020.000
220.72	-1900.000
221.09	385.714
221.47	1475.000
221.84	-1233.333
222.22	0.000
222.59	1500.000
222.97	-2550.000
223.34	1040.000
223.72	507.692
224.09	1040.000
224.46	1950.000
224.84	-5700.000
225.21	-980.000
225.59	-5300.000
225.96	630.000
226.34	300.000
226.71	2400.000
227.08	637.500
227.46	630.000
227.83	-1175.000
228.21	-2300.000
228.58	688.889
228.95	-2600.000
229.33	-2900.000
229.70	1833.333
230.08	714.286
230.45	-900.000
230.82	400.000
231.20	983.333
231.57	542.857
231.95	491.667
232.32	286.364
232.69	490.909
233.07	628.571
233.44	376.923
233.81	-1700.000
234.19	300.000
234.56	433.333
234.93	416.667
235.31	518.182
235.68	407.692
236.05	350.000
236.43	196.970
236.80	210.526
237.17	3800.000
237.55	242.857
237.92	192.857
238.29	242.857
238.67	154.839
239.04	186.207
239.41	133.333
239.79	110.870
240.16	116.667
240.53	104.545
240.91	90.196
241.28	84.000
241.65	108.000
242.02	81.159
242.40	67.742
242.77	70.000
243.14	60.215
243.51	66.292
243.89	65.882
244.26	47.778
244.63	51.613
245.00	44.681
245.38	45.545
245.75	48.598
246.12	39.450
246.49	46.715
246.87	45.600
247.24	33.846
247.61	40.000
247.98	42.484
248.36	20.946
248.73	30.573
249.10	33.121
249.47	32.768
249.84	33.155
250.22	24.064
250.59	24.852
250.96	27.778
251.33	24.645
251.70	32.178
252.08	28.095
252.45	22.870
252.82	23.043
253.19	23.830
253.56	27.451
253.94	23.651
254.31	22.656
254.68	22.308
255.05	23.616
255.42	16.667
255.79	19.853
256.16	20.939
256.54	15.194
256.91	22.064
257.28	12.590
257.65	19.802
258.02	21.118
258.39	19.243
258.76	17.391
259.14	19.643
259.51	14.590
259.88	16.770
260.25	16.918
260.62	17.919
260.99	15.528
261.36	19.820
261.73	16.619
262.10	15.988
262.47	16.901
262.85	13.928
263.22	11.966
263.59	18.519
263.96	13.462
264.33	16.971
264.70	16.579
265.07	16.113
265.44	14.646
265.81	12.895
266.18	14.070
266.55	14.878
266.92	11.548
267.29	11.343
267.66	11.927
268.03	14.545
268.40	12.150
268.77	12.649
269.14	12.162
269.51	16.253
269.88	14.918
270.25	11.964
270.62	11.236
270.99	14.624
271.36	13.305
271.73	11.215
272.10	13.261
272.47	12.903
272.84	14.069
273.21	13.417
273.58	9.825
273.95	10.901
274.32	11.983
274.69	12.420
275.06	9.843
275.43	13.404
275.80	10.621
276.17	12.016
276.54	12.890
276.91	12.055
277.28	9.375
277.65	10.832
278.02	10.559
278.39	11.133
278.76	11.273
279.13	12.453
279.50	11.732
279.87	12.151
280.23	10.778
280.60	8.317
280.97	10.536
281.34	12.566
281.71	12.727
282.08	10.557
282.45	9.636
282.82	11.545
283.19	7.130
283.56	10.877
283.92	10.491
284.29	9.347
284.66	11.434
285.03	9.584
285.40	9.331
285.77	8.754
286.14	8.981
286.51	10.167
286.87	9.060
287.24	10.749
287.61	9.791
287.98	9.740
288.35	9.984
288.72	9.034
289.08	10.955
289.45	9.885
289.82	8.293
290.19	7.221
290.56	6.126
290.93	7.402
291.29	6.902
291.66	7.375
292.03	10.174
292.40	9.398
292.77	8.136
293.13	10.448
293.50	8.601
293.87	8.593
294.24	8.148
294.60	7.569
294.97	7.849
295.34	9.732
295.71	8.949
296.08	6.268
296.44	7.153
296.81	6.737
297.18	8.401
297.55	5.277
297.91	8.047
298.28	8.166
298.65	7.441
299.02	8.300
299.38	8.101
299.75	5.795
300.12	5.619
300.48	6.500
300.85	6.535
301.22	7.134
301.59	6.566
301.95	6.423
302.32	6.932
302.69	7.168
303.05	6.788
303.42	6.296
303.79	6.455
304.15	5.594
304.52	4.983
304.89	7.085
305.25	6.845
305.62	7.361
305.99	6.375
306.35	6.152
306.72	7.063
307.09	7.547
307.45	8.446
307.82	5.692
308.19	6.733
308.55	6.257
308.92	6.337
309.29	5.491
309.65	5.514
310.02	5.391
310.38	6.989
310.75	6.336
311.12	6.858
311.48	6.270
311.85	7.128
312.22	6.139
312.58	6.965
312.95	6.547
313.31	5.534
313.68	7.069
314.05	8.580
314.41	6.432
314.78	6.546
315.14	5.760
315.51	6.591
315.87	7.723
316.24	7.051
316.61	5.945
316.97	6.654
317.34	6.654
317.70	6.979
318.07	6.930
318.43	6.654
318.80	7.310
319.16	7.345
319.53	7.317
319.89	8.190
320.26	7.900
320.62	8.036
320.99	7.879
321.35	7.576
321.72	8.316
322.08	8.095
322.45	8.756
322.81	7.946
323.18	9.056
323.54	7.792
323.91	8.019
324.27	7.361
324.64	7.549
325.00	7.394
325.37	8.098
325.73	8.169
326.10	6.884
326.46	7.437
326.83	8.628
327.19	7.173
327.56	8.014
327.92	7.612
328.29	7.897
328.65	8.564
329.01	9.116
329.38	6.846
329.74	9.972
330.11	8.765
330.47	8.724
330.84	8.824
331.20	7.286
331.56	9.358
331.93	8.704
332.29	8.518
332.66	9.646
333.02	9.049
333.38	8.311
333.75	9.180
334.11	8.452
334.48	7.808
334.84	8.272
335.20	8.182
335.57	8.522
335.93	6.964
336.29	7.326
336.66	8.115
337.02	8.778
337.38	8.333
337.75	7.932
338.11	7.968
338.47	7.643
338.84	8.433
339.20	7.431
339.56	9.124
339.93	8.364
340.29	8.062
340.65	8.467
341.02	8.202
341.38	8.808
341.74	7.719
342.11	8.122
342.47	8.546
342.83	8.134
343.20	8.485
343.56	8.172
343.92	7.895
344.28	7.738
344.65	8.512
345.01	8.249
345.37	6.861
345.73	7.953
346.10	7.417
346.46	7.627
346.82	8.320
347.19	6.850
347.55	7.718
347.91	8.172
348.27	8.217
348.63	7.860
349.00	8.495
349.36	7.882
349.72	8.340
350.08	6.726
350.45	8.788
350.81	8.205
351.17	8.185
351.53	7.535
351.89	7.096
352.26	8.208
352.62	7.939
352.98	6.645
353.34	7.067
353.70	7.283
354.07	7.823
354.43	7.937
354.79	7.804
355.15	7.263
355.51	7.834
355.87	7.347
356.24	7.899
356.60	6.576
356.96	7.401
357.32	7.931
357.68	6.457
358.04	7.601
358.40	8.155
358.77	7.668
359.13	6.867
359.49	6.667
359.85	6.190
360.21	7.656
360.57	7.938
360.93	7.231
361.29	7.332
361.66	6.966
362.02	7.910
362.38	7.833
362.74	7.812
363.10	7.106
363.46	7.043
363.82	7.029
364.18	7.195
364.54	7.652
364.90	7.082
365.26	6.838
365.62	7.159
365.98	6.063
366.35	6.232
366.71	6.797
367.07	6.919
367.43	6.604
367.79	7.423
368.15	7.687
368.51	6.177
368.87	6.567
369.23	6.364
369.59	6.951
369.95	5.956
370.31	7.692
370.67	6.812
371.03	7.940
371.39	6.706
371.75	6.618
372.11	7.539
372.47	7.478
372.83	7.637
373.19	6.936
373.55	7.095
373.91	7.216
374.27	6.804
374.63	5.818
374.99	7.486
375.35	5.513
375.71	6.991
376.07	7.545
376.42	6.740
376.78	7.157
377.14	6.649
377.50	7.550
377.86	6.051
378.22	6.953
378.58	6.015
378.94	6.348
379.30	6.043
379.66	6.409
380.02	7.125
380.38	5.889
380.74	5.942
381.09	6.724
381.45	6.699
381.81	7.555
382.17	6.815
382.53	5.975
382.89	6.605
383.25	5.691
383.61	6.010
383.97	6.754
384.32	6.862
384.68	6.506
385.04	5.900
385.40	6.192
385.76	6.327
386.12	6.541
386.48	6.671
386.83	6.543
387.19	6.308
387.55	6.741
387.91	7.316
388.27	6.193
388.62	6.638
388.98	6.143
389.34	7.572
389.70	6.560
390.06	6.971
390.42	6.809
390.77	6.743
391.13	6.063
391.49	6.916
391.85	6.684
392.20	6.246
392.56	6.187
392.92	6.180
393.28	5.858
393.64	6.415
393.99	6.659
394.35	6.203
394.71	6.775
395.07	6.044
395.42	5.933
395.78	6.743
396.14	6.580
396.50	6.391
396.85	7.184
397.21	5.919
397.57	6.200
397.92	6.791
398.28	4.989
398.64	6.989
399.00	6.491
399.35	6.035
399.71	6.829
400.07	6.919
400.42	6.564
400.78	7.358
401.14	5.427
401.49	5.851
401.85	6.110
402.21	6.168
402.57	6.724
402.92	6.242
403.28	6.496
403.63	6.064
403.99	5.924
404.35	6.606
404.70	6.115
405.06	6.290
405.42	6.925
405.77	6.229
406.13	6.264
406.49	5.855
406.84	6.320
407.20	5.969
407.55	7.147
407.91	6.333
408.27	5.999
408.62	6.382
408.98	5.944
409.34	6.888
409.69	6.387
410.05	6.877
410.40	6.606
410.76	6.691
411.11	6.755
411.47	5.942
411.83	7.208
412.18	5.937
412.54	6.538
412.89	6.145
413.25	5.962
413.60	6.177
413.96	6.497
414.31	6.683
414.67	7.478
415.03	6.358
415.38	7.023
415.74	7.395
416.09	6.793
416.45	6.627
416.80	6.742
417.16	8.110
417.51	6.636
417.87	6.423
418.22	6.877
418.58	7.037
418.93	6.941
419.29	6.747
419.64	6.738
420.00	7.561
420.35	6.725
420.71	7.651
421.06	6.802
421.42	6.374
421.77	7.119
422.12	5.671
422.48	5.990
422.83	6.465
423.19	6.630
423.54	6.210
423.90	7.072
424.25	6.198
424.61	7.143
424.96	6.122
425.31	6.700
425.67	7.135
426.02	6.229
426.38	6.777
426.73	6.671
427.09	6.626
427.44	6.038
427.79	6.325
428.15	6.845
428.50	6.671
428.85	7.271
429.21	6.129
429.56	5.858
429.92	6.543
430.27	5.660
430.62	5.120
430.98	7.058
431.33	6.443
431.68	6.911
432.04	6.709
432.39	5.939
432.74	6.822
433.10	6.395
433.45	6.880
433.80	6.098
434.16	6.517
434.51	6.368
434.86	6.328
435.22	6.059
435.57	6.687
435.92	5.851
436.28	6.406
436.63	7.616
436.98	5.953
437.34	7.156
437.69	7.001
438.04	6.071
438.39	6.269
438.75	6.566
439.10	6.592
439.45	7.025
439.81	6.224
440.16	5.985
440.51	7.147
440.86	6.891
441.22	6.007
441.57	7.006
441.92	6.499
442.27	6.781
442.63	6.266
442.98	6.761
443.33	6.522
443.68	6.453
444.03	6.296
444.39	5.794
444.74	6.277
445.09	6.361
445.44	6.397
445.79	6.333
446.15	6.247
446.50	6.300
446.85	6.321
447.20	6.323
447.55	6.588
447.91	6.067
448.26	6.344
448.61	6.670
448.96	6.811
449.31	6.130
449.66	6.753
450.02	6.072
450.37	5.782
450.72	6.486
451.07	5.911
451.42	5.653
451.77	7.046
452.12	6.409
452.47	7.027
452.83	6.469
453.18	6.663
453.53	6.865
453.88	6.025
454.23	7.173
454.58	6.723
454.93	7.438
455.28	6.546
455.63	6.978
455.98	7.024
456.34	6.281
456.69	6.575
457.04	6.811
457.39	6.604
457.74	6.732
458.09	7.073
458.44	6.670
458.79	6.074
459.14	6.151
459.49	6.363
459.84	6.537
460.19	6.070
460.54	6.655
460.89	6.637
461.24	6.072
461.59	7.496
461.94	6.658
462.29	6.588
462.64	6.573
462.99	6.962
463.34	7.067
463.69	6.942
464.04	6.725
464.39	7.130
464.74	6.595
465.09	6.152
465.44	6.094
465.79	5.705
466.14	6.404
466.49	6.174
466.84	6.130
467.19	7.242
467.54	6.937
467.89	6.543
468.24	7.213
468.59	6.777
468.94	6.414
469.29	6.877
469.64	6.961
469.99	6.360
470.34	5.812
470.68	6.897
471.03	6.463
471.38	6.254
471.73	7.195
472.08	6.842
472.43	6.407
472.78	6.715
473.13	6.547
473.48	6.367
473.83	6.707
474.17	6.161
474.52	6.141
474.87	6.772
475.22	6.500
475.57	6.394
475.92	6.426
476.27	6.032
476.61	6.343
476.96	5.992
477.31	6.436
477.66	6.236
478.01	5.802
478.36	6.610
478.70	5.556
479.05	6.550
479.40	6.039
479.75	5.592
480.10	5.616
480.45	5.712
480.79	5.686
481.14	5.431
481.49	5.173
481.84	5.716
482.19	5.407
482.53	5.963
482.88	6.003
483.23	5.654
483.58	5.551
483.92	5.904
484.27	5.142
484.62	5.302
484.97	4.848
485.31	4.932
485.66	4.081
486.01	3.648
486.36	3.545
486.70	3.660
487.05	3.857
487.40	4.316
487.75	4.107
488.09	4.610
488.44	4.403
488.79	4.991
489.13	4.851
489.48	4.690
489.83	4.920
490.17	5.436
490.52	5.226
490.87	5.337
491.22	5.184
491.56	4.784
491.91	5.491
492.26	4.961
492.60	5.484
492.95	4.958
493.30	5.093
493.64	5.320
493.99	4.782
494.34	5.088
494.68	5.449
495.03	5.686
495.37	5.165
495.72	5.214
496.07	5.151
496.41	5.044
496.76	5.057
497.11	5.178
497.45	5.356
497.80	5.470
498.14	4.928
498.49	4.780
498.84	5.321
499.18	5.000
499.53	5.271
499.87	4.753
500.22	5.652
500.56	5.583
500.91	5.288
501.26	5.358
501.60	5.743
501.95	5.133
502.29	5.061
502.64	4.888
502.98	5.002
503.33	4.845
503.67	4.872
504.02	5.519
504.36	5.428
504.71	5.129
505.06	5.639
505.40	4.959
505.75	5.207
506.09	5.005
506.44	5.131
506.78	5.163
507.13	5.300
507.47	5.859
507.82	5.572
508.16	5.319
508.51	5.327
508.85	5.313
509.19	4.898
509.54	5.255
509.88	5.976
510.23	4.987
510.57	5.779
510.92	5.489
511.26	5.858
511.61	5.498
511.95	4.958
512.30	4.825
512.64	5.212
512.98	5.520
513.33	6.317
513.67	5.550
514.02	4.978
514.36	6.008
514.70	5.313
515.05	5.243
515.39	5.889
515.74	5.743
516.08	5.925
516.42	5.383
516.77	6.355
517.11	5.272
517.46	5.869
517.80	5.807
518.14	4.922
518.49	5.659
518.83	5.739
519.17	5.485
519.52	6.055
519.86	6.047
520.20	6.069
520.55	6.403
520.89	6.204
521.23	5.730
521.58	6.303
521.92	5.940
522.26	5.613
522.61	5.794
522.95	5.341
523.29	5.052
523.64	6.037
523.98	6.408
524.32	6.273
524.66	5.893
525.01	5.760
525.35	5.762
525.69	5.480
526.04	6.231
526.38	5.796
526.72	6.442
527.06	6.026
527.41	5.693
527.75	5.466
528.09	5.973
528.43	6.310
528.78	6.392
529.12	5.818
529.46	6.307
529.80	6.436
530.15	7.040
530.49	5.969
530.83	6.392
531.17	6.332
531.51	7.004
531.86	5.742
532.20	6.845
532.54	6.726
532.88	6.226
533.22	6.059
533.57	6.173
533.91	5.719
534.25	6.258
534.59	6.284
534.93	6.068
535.27	6.216
535.62	5.678
535.96	6.842
536.30	5.976
536.64	6.825
536.98	6.238
537.32	6.649
537.66	5.867
538.01	6.452
538.35	6.529
538.69	6.956
539.03	6.238
539.37	5.431
539.71	5.055
540.05	5.882
540.39	6.047
540.73	6.080
541.07	6.684
541.42	6.523
541.76	7.355
542.10	6.856
542.44	5.894
542.78	6.653
543.12	5.246
543.46	7.541
543.80	6.311
544.14	6.162
544.48	6.984
544.82	5.837
545.16	6.181
545.50	5.720
545.84	5.914
546.18	6.061
546.52	5.919
546.86	6.460
547.20	7.148
547.54	6.480
547.88	7.589
548.22	6.040
548.56	6.226
548.90	5.698
549.24	5.926
549.58	6.139
549.92	6.181
550.26	6.747
550.60	6.432
550.94	6.338
551.28	6.291
551.62	7.117
551.96	5.895
552.30	6.485
552.64	6.288
552.98	6.508
553.32	5.799
553.66	7.021
554.00	6.658
554.34	6.901
554.68	6.223
555.02	6.700
555.36	6.959
555.69	5.886
556.03	6.864
556.37	5.935
556.71	6.753
557.05	6.162
557.39	6.018
557.73	6.210
558.07	6.381
558.41	6.151
558.75	6.613
559.08	6.711
559.42	6.652
559.76	6.471
560.10	6.495
560.44	5.940
560.78	5.655
561.12	6.596
561.45	6.454
561.79	6.131
562.13	6.036
562.47	5.943
562.81	5.579
563.15	5.819
563.48	6.300
563.82	5.936
564.16	5.625
564.50	5.534
564.84	6.195
565.17	5.920
565.51	5.815
565.85	6.218
566.19	5.322
566.52	6.016
566.86	5.726
567.20	5.130
567.54	5.708
567.88	4.400
568.21	5.661
568.55	5.511
568.89	4.377
569.23	4.545
569.56	4.696
569.90	4.189
570.24	3.983
570.57	4.216
570.91	3.943
571.25	3.922
571.59	3.888
571.92	4.003
572.26	4.159
572.60	3.874
572.93	4.288
573.27	4.111
573.61	3.992
573.95	3.824
574.28	3.518
574.62	3.596
574.96	3.943
575.29	3.540
575.63	3.786
575.97	3.957
576.30	3.771
576.64	3.690
576.98	3.719
577.31	3.396
577.65	3.583
577.98	3.317
578.32	3.475
578.66	3.522
578.99	3.447
579.33	3.365
579.67	3.600
580.00	3.380
580.34	3.797
580.67	3.687
581.01	3.553
581.35	3.334
581.68	3.515
582.02	2.991
582.35	3.309
582.69	3.392
583.02	3.202
583.36	3.620
583.70	3.796
584.03	3.683
584.37	4.348
584.70	3.448
585.04	3.767
585.37	3.728
585.71	3.806
586.04	3.648
586.38	3.814
586.72	4.502
587.05	3.613
587.39	3.404
587.72	3.710
588.06	3.682
588.39	4.143
588.73	3.696
589.06	4.456
589.40	3.805
589.73	4.153
590.07	4.021
590.40	4.238
590.73	4.450
591.07	4.681
591.40	4.808
591.74	4.848
592.07	4.538
592.41	4.134
592.74	4.607
593.08	4.097
593.41	4.018
593.75	3.935
594.08	4.492
594.41	4.595
594.75	4.325
595.08	4.617
595.42	4.483
595.75	4.060
596.09	4.544
596.42	4.676
596.75	4.643
597.09	5.758
597.42	4.427
597.75	4.787
598.09	4.957
598.42	4.338
598.76	4.337
599.09	4.599
599.42	4.112
599.76	4.392
600.09	4.044
600.42	3.908
600.76	4.286
601.09	4.517
601.42	4.376
601.76	4.402
602.09	4.466
602.42	4.857
602.76	4.877
603.09	4.524
603.42	4.295
603.76	4.840
604.09	4.343
604.42	4.647
604.76	5.441
605.09	4.806
605.42	4.874
605.75	4.760
606.09	4.351
606.42	4.822
606.75	4.687
607.09	5.107
607.42	4.236
607.75	4.388
608.08	4.299
608.42	5.199
608.75	4.779
609.08	4.672
609.41	5.093
609.75	5.098
610.08	5.608
610.41	4.236
610.74	4.115
611.07	4.545
611.41	4.220
611.74	6.234
612.07	4.710
612.40	5.299
612.73	5.053
613.07	5.065
613.40	5.055
613.73	4.824
614.06	5.161
614.39	5.558
614.72	6.105
615.06	5.305
615.39	4.777
615.72	5.010
616.05	4.944
616.38	5.003
616.71	5.285
617.05	6.302
617.38	5.232
617.71	5.045
618.04	6.550
618.37	5.145
618.70	5.912
619.03	7.039
619.36	6.246
619.69	5.915
620.03	6.799
620.36	6.952
620.69	6.301
621.02	6.268
621.35	5.638
621.68	6.776
622.01	6.037
622.34	6.657
622.67	5.703
623.00	5.796
623.33	5.933
623.66	6.147
623.99	5.891
624.32	6.134
624.65	6.073
624.99	5.453
625.32	5.069
625.65	6.461
625.98	6.533
626.31	6.843
626.64	6.286
626.97	6.151
627.30	7.648
627.63	7.219
627.96	7.317
628.29	6.999
628.62	8.051
628.95	9.340
629.28	7.938
629.61	8.341
629.94	7.238
630.26	6.959
630.59	7.626
630.92	8.238
631.25	6.417
631.58	7.808
631.91	8.114
632.24	7.700
632.57	8.604
632.90	8.772
633.23	8.725
633.56	9.040
633.89	8.267
634.22	8.400
634.55	8.521
634.88	8.263
635.20	9.438
635.53	9.639
635.86	8.663
636.19	7.647
636.52	8.304
636.85	8.018
637.18	8.065
637.51	8.392
637.83	6.165
638.16	9.463
638.49	9.194
638.82	10.746
639.15	8.625
639.48	10.100
639.81	8.847
640.13	10.156
640.46	8.993
640.79	9.247
641.12	8.528
641.45	9.777
641.77	8.837
642.10	10.088
642.43	9.610
642.76	8.050
643.09	10.429
643.41	11.229
643.74	10.802
644.07	10.213
644.40	11.963
644.73	10.394
645.05	12.837
645.38	11.532
645.71	11.272
646.04	11.296
646.36	12.855
646.69	11.371
647.02	10.204
647.35	11.856
647.67	9.381
648.00	13.333
648.33	9.406
648.66	11.818
648.98	11.244
649.31	8.371
649.64	10.164
649.96	11.475
650.29	10.269
650.62	10.356
650.94	12.480
651.27	11.318
651.60	11.481
651.92	11.661
652.25	9.609
652.58	10.592
652.90	9.795
653.23	9.553
653.56	9.606
653.88	11.094
654.21	12.164
654.54	10.066
654.86	11.838
655.19	7.568
655.52	4.662
655.84	2.360
656.17	2.632
656.49	3.369
656.82	3.548
657.15	2.773
657.47	2.232
657.80	1.832
658.13	1.886
658.45	2.888
658.78	2.921
659.10	3.700
659.43	3.846
659.75	4.645
660.08	4.937
660.41	6.983
660.73	8.767
661.06	10.510
661.38	12.364
661.71	14.038
662.03	11.637
662.36	12.127
662.68	14.056
663.01	12.121
663.33	11.040
663.66	12.395
663.98	12.959
664.31	10.924
664.63	13.360
664.96	10.463
665.28	15.369
665.61	12.671
665.93	10.865
666.26	12.576
666.58	12.762
666.91	15.011
667.23	13.708
667.56	11.663
667.88	13.462
668.21	13.859
668.53	13.232
668.86	11.255
669.18	14.925
669.50	13.913
669.83	15.251
670.15	14.889
670.48	13.290
670.80	15.086
671.13	14.650
671.45	10.851
671.77	14.868
672.10	12.754
672.42	12.367
672.75	10.614
673.07	9.683
673.39	9.403
673.72	12.500
674.04	11.961
674.37	12.039
674.69	10.020
675.01	10.460
675.34	14.784
675.66	15.579
675.98	12.016
676.31	14.286
676.63	14.437
676.95	12.998
677.28	9.813
677.60	10.549
677.92	14.979
678.25	14.374
678.57	12.550
678.89	12.024
679.22	14.145
679.54	12.405
679.86	13.394
680.18	12.701
680.51	11.702
680.83	11.566
681.15	13.208
681.48	14.745
681.80	11.605
682.12	14.176
682.44	10.058
682.77	13.849
683.09	18.240
683.41	13.969
683.73	14.128
684.06	13.843
684.38	11.742
684.70	12.984
685.02	12.570
685.34	11.172
685.67	9.615
685.99	12.027
686.31	8.362
686.63	9.187
686.96	9.107
687.28	11.733
687.60	10.326
687.92	12.797
688.24	11.407
688.56	13.052
688.89	12.448
689.21	13.100
689.53	13.779
689.85	13.304
690.17	13.043
690.49	13.163
690.82	14.019
691.14	14.286
691.46	12.447
691.78	12.851
692.10	13.430
692.42	14.571
692.74	12.033
693.06	14.894
693.39	12.320
693.71	13.100
694.03	14.526
694.35	13.203
694.67	12.357
694.99	16.341
695.31	12.500
695.63	15.072
695.95	14.670
696.27	12.944
696.59	14.767
696.91	14.508
697.23	11.737
697.56	14.286
697.88	10.429
698.20	13.333
698.52	13.333
698.84	12.472
699.16	11.982
699.48	14.727
699.80	13.768
700.12	17.662
700.44	17.507
700.76	14.917
701.08	13.793
701.40	17.039
701.72	18.076
702.04	19.886
702.36	14.731
702.68	17.564
703.00	15.789
703.32	14.096
703.64	14.477
703.96	16.435
704.28	17.151
704.60	18.182
704.91	16.914
705.23	20.528
705.55	19.269
705.87	19.934
706.19	18.728
706.51	18.692
706.83	17.879
707.15	14.566
707.47	15.909
707.79	16.953
708.11	15.525
708.43	15.476
708.74	14.541
709.06	13.506
709.38	15.223
709.70	17.151
710.02	16.914
710.34	16.061
710.66	19.104
710.98	19.318
711.29	17.442
711.61	20.059
711.93	15.385
712.25	20.257
712.57	21.324
712.89	18.685
713.20	19.757
713.52	19.737
713.84	15.823
714.16	17.073
714.48	15.517
714.80	20.973
715.11	16.138
715.43	16.914
715.75	15.362
716.07	14.696
716.39	19.749
716.70	20.930
717.02	21.942
717.34	20.141
717.66	21.642
717.97	24.303
718.29	20.000
718.61	21.168
718.93	20.956
719.24	14.879
719.56	16.610
719.88	20.339
720.20	23.986
720.51	20.906
720.83	22.677
721.15	19.776
721.46	21.631
721.78	19.355
722.10	18.113
722.42	24.436
722.73	16.854
723.05	19.262
723.37	20.648
723.68	23.166
724.00	22.764
724.32	20.968
724.63	18.293
724.95	18.410
725.27	23.077
725.58	24.219
725.90	21.168
726.22	24.528
726.53	18.056
726.85	21.843
727.16	21.708
727.48	17.376
727.80	25.000
728.11	23.188
728.43	23.077
728.74	18.280
729.06	19.708
729.38	24.632
729.69	21.708
730.01	18.771
730.32	18.056
730.64	20.401
730.96	19.472
731.27	19.536
731.59	19.572
731.90	19.825
732.22	18.944
732.53	16.099
732.85	19.551
733.16	19.293
733.48	19.601
733.80	19.481
734.11	21.656
734.43	19.231
734.74	16.286
735.06	16.905
735.37	18.497
735.69	15.924
736.00	18.627
736.32	23.364
736.63	15.655
736.95	20.128
737.26	14.626
737.58	19.355
737.89	19.064
738.21	21.843
738.52	22.500
738.83	23.396
739.15	19.231
739.46	21.533
739.78	19.097
740.09	18.462
740.41	21.613
740.72	16.028
741.04	22.593
741.35	21.250
741.66	28.444
741.98	21.698
742.29	25.837
742.61	30.172
742.92	21.719
743.23	24.359
743.55	23.200
743.86	24.561
744.18	26.549
744.49	28.230
744.80	30.047
745.12	28.182
745.43	29.956
745.74	30.180
746.06	28.899
746.37	25.112
746.68	23.982
747.00	27.315
747.31	26.190
747.62	23.451
747.94	22.907
748.25	18.298
748.56	28.634
748.88	27.228
749.19	36.000
749.50	26.512
749.82	26.016
750.13	26.939
750.44	23.723
750.75	23.860
751.07	23.473
751.38	22.997
751.69	23.105
752.01	21.053
752.32	20.217
752.63	19.858
752.94	20.492
753.26	29.600
753.57	17.073
753.88	26.953
754.19	19.286
754.51	22.569
754.82	18.412
755.13	24.906
755.44	22.556
755.75	22.263
756.07	17.376
756.38	17.518
756.69	22.483
757.00	15.868
757.31	14.837
757.63	16.082
757.94	16.354
758.25	17.892
758.56	14.815
758.87	15.054
759.18	21.818
759.50	15.674
759.81	19.003
760.12	17.500
760.43	17.479
760.74	17.391
761.05	16.667
761.36	16.310
761.67	15.625
761.99	18.323
762.30	20.486
762.61	24.809
762.92	26.172
763.23	23.529
763.54	24.400
763.85	16.797
764.16	24.615
764.47	23.954
764.78	18.728
765.10	13.608
765.41	16.224
765.72	21.557
766.03	16.614
766.34	23.000
766.65	23.830
766.96	26.068
767.27	24.365
767.58	28.646
767.89	33.684
768.20	29.885
768.51	27.919
768.82	30.275
769.13	22.764
769.44	23.887
769.75	25.322
770.06	21.101
770.37	25.339
770.68	27.778
770.99	23.556
771.30	23.770
771.61	21.973
771.92	22.541
772.23	25.210
772.54	29.744
772.85	31.937
773.16	31.383
773.47	30.435
773.78	34.518
774.09	29.167
774.39	32.164
774.70	28.395
775.01	33.333
775.32	40.523
775.63	36.842
775.94	35.971
776.25	47.244
776.56	41.791
776.87	44.262
777.18	53.906
777.48	45.038
777.79	46.212
778.10	42.963
778.41	41.964
778.72	42.336
779.03	34.228
779.34	33.557
779.65	26.351
779.95	38.037
780.26	35.948
780.57	42.069
780.88	43.750
781.19	42.105
781.50	38.514
781.80	33.962
782.11	39.548
782.42	24.684
782.73	31.288
783.04	33.784
783.34	35.915
783.65	45.890
783.96	41.791
784.27	38.462
784.57	29.496
784.88	41.667
785.19	51.587
785.50	52.830
785.81	49.254
786.11	56.557
786.42	44.186
786.73	44.248
787.04	50.943
787.34	50.893
787.65	55.000
787.96	38.739
788.26	44.628
788.57	55.085
788.88	39.669
789.19	43.056
789.49	41.667
789.80	41.221
790.11	58.095
790.41	62.376
790.72	49.398
791.03	48.913
791.33	55.814
791.64	51.546
791.95	64.356
792.25	62.222
792.56	67.532
792.87	73.077
793.17	77.215
793.48	85.057
793.79	70.115
794.09	64.773
794.40	45.378
794.70	46.324
795.01	38.519
795.32	41.007
795.62	44.882
795.93	52.586
796.23	52.212
796.54	58.824
796.85	68.919
797.15	101.408
797.46	80.303
797.76	73.494
798.07	69.620
798.37	73.846
798.68	60.606
798.99	69.014
799.29	66.234
799.60	46.591
799.90	93.151
800.21	71.642
800.51	91.379
800.82	101.754
801.12	91.803
801.43	93.939
801.73	75.676
802.04	82.540
802.34	92.593
802.65	87.500
802.95	108.475
803.26	100.000
803.56	58.571
803.87	67.692
804.17	79.412
804.48	105.556
804.78	93.103
805.09	83.824
805.39	84.615
805.70	108.929
806.00	100.000
806.30	71.212
806.61	76.829
806.91	54.430
807.22	64.474
807.52	55.224
807.83	76.056
808.13	84.375
808.43	101.667
808.74	61.842
809.04	72.464
809.35	95.522
809.65	71.053
809.95	103.226
810.26	86.441
810.56	92.063
810.86	115.909
811.17	128.571
811.47	103.333
811.77	118.519
812.08	90.909
812.38	130.000
812.69	127.778
812.99	145.455
813.29	124.490
813.59	95.238
813.90	114.286
814.20	94.545
814.50	84.615
814.81	102.941
815.11	112.245
815.41	91.803
815.72	119.048
816.02	112.727
816.32	152.381
816.62	112.500
816.93	121.951
817.23	102.381
817.53	134.091
817.84	133.333
818.14	100.000
818.44	124.444
818.74	141.176
819.04	142.500
819.35	111.429
819.65	150.000
819.95	150.000
820.25	240.000
820.56	153.846
820.86	115.909
821.16	146.512
821.46	153.846
821.76	130.000
822.07	205.714
822.37	135.000
822.67	154.545
822.97	100.000
823.27	185.714
823.57	151.351
823.88	167.500
824.18	163.333
824.48	140.476
824.78	192.000
825.08	175.000
825.38	143.243
825.69	124.390
825.99	245.833
826.29	175.862
826.59	121.053
826.89	155.263
827.19	179.412
827.49	190.323
827.79	134.091
828.09	122.727
828.39	121.277
828.70	130.612
829.00	144.444
829.30	145.161
829.60	137.500
829.90	200.000
830.20	189.286
830.50	200.000
830.80	200.000
831.10	180.000
831.40	166.667
831.70	195.652
832.00	215.385
832.30	177.778
832.60	368.750
832.90	220.000
833.20	492.857
833.50	180.645
833.80	189.655
834.10	184.375
834.40	242.308
834.70	266.667
835.00	276.190
835.30	162.857
835.60	269.231
835.90	200.000
836.20	314.286
836.50	193.103
836.80	196.000
837.10	155.556
837.40	238.095
837.70	247.059
838.00	222.222
838.30	204.762
838.60	300.000
838.90	230.769
839.19	285.000
839.49	421.429
839.79	335.000
840.09	265.000
840.39	257.143
840.69	247.826
840.99	316.667
841.29	510.000
841.59	258.333
841.88	325.000
842.18	200.000
842.48	280.952
842.78	210.000
843.08	213.043
843.38	171.875
843.68	850.000
843.97	200.000
844.27	224.138
844.57	304.762
844.87	362.500
845.17	188.889
845.47	1566.667
845.76	555.556
846.06	341.176
846.36	675.000
846.66	335.714
846.96	300.000
847.25	427.273
847.55	436.364
847.85	286.957
848.15	440.000
848.44	400.000
848.74	238.889
849.04	311.765
849.34	560.000
849.63	231.579
849.93	400.000
850.23	1100.000
850.53	357.143
850.82	2450.000
851.12	-3800.000
851.42	5000.000
851.71	300.000
852.01	-1366.667
852.31	258.333
852.61	1566.667
852.90	290.476
853.20	240.000
853.50	305.882
853.79	266.667
854.09	225.000
854.39	306.250
854.68	170.270
854.98	164.516
855.28	186.667
855.57	200.000
855.87	211.111
856.17	284.211
856.46	300.000
856.76	241.176
857.05	186.207
857.35	204.167
857.65	300.000
857.94	226.087
858.24	273.077
858.53	285.000
858.83	231.818
859.13	406.667
859.42	0.000
859.72	544.444
860.01	472.727
860.31	250.000
860.60	226.316
860.90	213.043
861.20	500.000
861.49	491.667
861.79	-4300.000
862.08	562.500
862.38	276.190
862.67	330.769
862.97	376.471
863.26	655.556
863.56	288.889
863.85	450.000
864.15	625.000
864.44	480.000
864.74	750.000
865.03	787.500
865.33	357.895
865.62	454.545
865.92	415.385
866.21	425.000
866.51	0.000
866.80	409.091
867.10	1080.000
867.39	461.538
867.69	509.091
867.98	268.421
868.27	472.727
868.57	268.421
868.86	-4500.000
869.16	387.500
869.45	2250.000
869.75	-4000.000
870.04	466.667
870.33	614.286
870.63	1175.000
870.92	2550.000
871.22	800.000
871.51	352.941
871.80	257.143
872.10	385.714
>>>>>End Processed Spectral Data<<<<<
