SpectraSuite Data File
++++++++++++++++++++++++++++++++++++
Date: Tue May 12 19:58:33 PDT 2015
User: schluterlab
Dark Spectrum Present: Yes
Reference Spectrum Present: Yes
Number of Sampled Component Spectra: 1
Spectrometers: USB2E3373
Integration Time (usec): 3000 (USB2E3373)
Spectra Averaged: 3 (USB2E3373)
Boxcar Smoothing: 0 (USB2E3373)
Correct for Electrical Dark: No (USB2E3373)
Strobe/Lamp Enabled: No (USB2E3373)
Correct for Detector Non-linearity: No (USB2E3373)
Correct for Stray Light: No (USB2E3373)
Number of Pixels in Processed Spectrum: 2048
>>>>>Begin Processed Spectral Data<<<<<
178.53	0.000
178.91	-190.000
179.29	-400.000
179.67	733.333
180.04	0.000
180.42	-380.000
180.80	-833.333
181.18	850.000
181.56	-650.000
181.94	566.667
182.31	2400.000
182.69	-200.000
183.07	0.000
183.45	300.000
183.83	360.000
184.20	300.000
184.58	800.000
184.96	516.667
185.34	-800.000
185.72	-71.429
186.09	-333.333
186.47	-1900.000
186.85	-220.000
187.23	250.000
187.61	-371.429
187.98	-380.000
188.36	1100.000
188.74	-400.000
189.12	-133.333
189.49	-70.000
189.87	550.000
190.25	211.111
190.63	733.333
191.00	580.000
191.38	-666.667
191.76	560.000
192.14	-271.429
192.51	-190.000
192.89	-160.000
193.27	-440.000
193.65	-533.333
194.02	-200.000
194.40	1000.000
194.78	-237.500
195.15	-314.286
195.53	466.667
195.91	300.000
196.29	-600.000
196.66	-566.667
197.04	-314.286
197.42	300.000
197.79	-350.000
198.17	-175.000
198.55	-1400.000
198.92	-188.889
199.30	1150.000
199.68	-550.000
200.05	-950.000
200.43	-44.444
200.81	-208.333
201.18	600.000
201.56	-750.000
201.94	-2200.000
202.31	-183.333
202.69	-122.222
203.07	-133.333
203.44	-525.000
203.82	0.000
204.19	400.000
204.57	-866.667
204.95	254.545
205.32	340.000
205.70	525.000
206.08	-700.000
206.45	-140.000
206.83	2100.000
207.20	-177.778
207.58	-30.769
207.96	600.000
208.33	900.000
208.71	566.667
209.08	450.000
209.46	-33.333
209.84	1133.333
210.21	-966.667
210.59	1000.000
210.96	322.222
211.34	-350.000
211.71	1350.000
212.09	-360.000
212.46	-250.000
212.84	-262.500
213.22	385.714
213.59	-187.500
213.97	0.000
214.34	-800.000
214.72	-800.000
215.09	1250.000
215.47	-53.333
215.84	-137.500
216.22	-1900.000
216.59	2400.000
216.97	-108.333
217.34	-266.667
217.72	-38.889
218.09	575.000
218.47	-52.632
218.84	-262.500
219.22	-35.714
219.59	-180.000
219.97	-200.000
220.34	383.333
220.72	200.000
221.09	-1250.000
221.47	0.000
221.84	850.000
222.22	-475.000
222.59	-600.000
222.97	-39.130
223.34	80.000
223.72	385.714
224.09	-383.333
224.46	153.846
224.84	-126.667
225.21	-850.000
225.59	-450.000
225.96	0.000
226.34	450.000
226.71	220.000
227.08	-76.923
227.46	-242.857
227.83	-141.667
228.21	-800.000
228.58	300.000
228.95	-63.158
229.33	-43.750
229.70	-350.000
230.08	-288.889
230.45	-666.667
230.82	-1800.000
231.20	-61.905
231.57	-400.000
231.95	-833.333
232.32	255.556
232.69	-1050.000
233.07	-6.250
233.44	-137.500
233.81	-3.226
234.19	-440.000
234.56	-77.778
234.93	-400.000
235.31	3.704
235.68	-44.444
236.05	-42.308
236.43	-73.684
236.80	0.000
237.17	-250.000
237.55	-70.000
237.92	-16.279
238.29	-22.581
238.67	-57.143
239.04	-2.857
239.41	-29.412
239.79	-6.000
240.16	-17.500
240.53	-8.621
240.91	5.479
241.28	-9.859
241.65	4.687
242.02	-10.526
242.40	2.667
242.77	10.526
243.14	1.176
243.51	9.677
243.89	2.857
244.26	11.111
244.63	3.061
245.00	-2.679
245.38	-0.840
245.75	11.017
246.12	7.031
246.49	11.200
246.87	4.098
247.24	7.746
247.61	13.907
247.98	14.607
248.36	11.321
248.73	7.955
249.10	12.222
249.47	7.812
249.84	8.122
250.22	5.208
250.59	8.427
250.96	14.091
251.33	18.868
251.70	14.220
252.08	18.182
252.45	9.796
252.82	9.283
253.19	12.451
253.56	15.686
253.94	11.382
254.31	16.906
254.68	14.931
255.05	17.219
255.42	16.364
255.79	17.219
256.16	14.931
256.54	16.061
256.91	17.628
257.28	14.286
257.65	11.148
258.02	19.219
258.39	17.523
258.76	18.960
259.14	15.294
259.51	19.155
259.88	19.597
260.25	12.784
260.62	13.202
260.99	17.270
261.36	13.793
261.73	14.933
262.10	16.621
262.47	17.906
262.85	19.794
263.22	13.710
263.59	17.158
263.96	16.449
264.33	12.668
264.70	16.462
265.07	19.212
265.44	21.077
265.81	20.241
266.18	15.925
266.55	16.667
266.92	19.866
267.29	15.556
267.66	15.227
268.03	16.344
268.40	18.535
268.77	16.258
269.14	16.176
269.51	14.706
269.88	18.376
270.25	16.245
270.62	20.378
270.99	16.000
271.36	15.894
271.73	16.458
272.10	18.672
272.47	14.800
272.84	14.650
273.21	16.493
273.58	14.898
273.95	16.733
274.32	16.054
274.69	17.025
275.06	15.197
275.43	14.600
275.80	16.061
276.17	14.625
276.54	18.441
276.91	18.234
277.28	18.375
277.65	15.312
278.02	16.856
278.39	17.423
278.76	17.877
279.13	20.751
279.50	17.509
279.87	15.660
280.23	16.576
280.60	16.961
280.97	18.102
281.34	15.424
281.71	15.098
282.08	17.174
282.45	16.578
282.82	16.667
283.19	18.182
283.56	18.942
283.92	15.324
284.29	16.920
284.66	15.752
285.03	13.894
285.40	17.667
285.77	17.241
286.14	16.799
286.51	15.434
286.87	18.314
287.24	15.705
287.61	16.667
287.98	16.432
288.35	17.054
288.72	16.208
289.08	14.465
289.45	15.601
289.82	13.820
290.19	14.545
290.56	16.208
290.93	15.066
291.29	16.028
291.66	15.730
292.03	16.356
292.40	16.403
292.77	12.536
293.13	13.656
293.50	14.463
293.87	13.731
294.24	14.747
294.60	16.257
294.97	14.266
295.34	13.425
295.71	12.760
296.08	13.934
296.44	13.570
296.81	11.643
297.18	14.489
297.55	14.447
297.91	13.706
298.28	12.788
298.65	13.195
299.02	14.550
299.38	13.648
299.75	13.127
300.12	13.309
300.48	13.380
300.85	12.592
301.22	13.582
301.59	12.895
301.95	14.268
302.32	13.609
302.69	11.296
303.05	11.570
303.42	12.319
303.79	12.022
304.15	11.891
304.52	12.514
304.89	11.048
305.25	13.073
305.62	12.614
305.99	13.438
306.35	12.416
306.72	13.399
307.09	13.058
307.45	12.729
307.82	12.807
308.19	13.421
308.55	12.975
308.92	12.288
309.29	12.866
309.65	12.693
310.02	12.474
310.38	12.687
310.75	12.705
311.12	13.225
311.48	13.052
311.85	13.576
312.22	12.810
312.58	12.487
312.95	14.682
313.31	13.963
313.68	14.995
314.05	15.889
314.41	13.949
314.78	14.774
315.14	15.573
315.51	14.499
315.87	16.016
316.24	14.738
316.61	16.117
316.97	14.706
317.34	15.981
317.70	13.912
318.07	16.393
318.43	15.784
318.80	18.488
319.16	15.843
319.53	17.075
319.89	18.655
320.26	18.584
320.62	17.636
320.99	18.673
321.35	19.565
321.72	20.404
322.08	19.703
322.45	19.921
322.81	22.365
323.18	21.093
323.54	21.422
323.91	22.391
324.27	23.626
324.64	24.086
325.00	23.294
325.37	24.371
325.73	23.540
326.10	24.431
326.46	25.113
326.83	27.001
327.19	27.162
327.56	28.117
327.92	25.608
328.29	26.792
328.65	29.002
329.01	28.807
329.38	29.293
329.74	29.434
330.11	28.705
330.47	29.609
330.84	27.820
331.20	30.499
331.56	28.679
331.93	29.552
332.29	30.712
332.66	31.465
333.02	29.991
333.38	31.250
333.75	30.375
334.11	31.374
334.48	31.664
334.84	31.831
335.20	30.349
335.57	32.788
335.93	33.302
336.29	32.176
336.66	31.512
337.02	32.638
337.38	33.208
337.75	33.727
338.11	33.820
338.47	33.148
338.84	32.044
339.20	34.189
339.56	32.339
339.93	32.432
340.29	32.366
340.65	31.963
341.02	32.772
341.38	33.274
341.74	33.007
342.11	32.538
342.47	33.304
342.83	32.437
343.20	32.007
343.56	32.780
343.92	32.721
344.28	31.647
344.65	33.305
345.01	33.624
345.37	33.333
345.73	33.333
346.10	32.671
346.46	32.269
346.82	33.050
347.19	33.137
347.55	34.184
347.91	32.678
348.27	33.867
348.63	32.584
349.00	33.723
349.36	33.718
349.72	33.333
350.08	33.388
350.45	33.198
350.81	32.948
351.17	32.455
351.53	33.494
351.89	33.592
352.26	32.520
352.62	33.442
352.98	32.552
353.34	33.166
353.70	32.840
354.07	33.526
354.43	32.471
354.79	32.623
355.15	33.172
355.51	32.111
355.87	34.055
356.24	33.497
356.60	33.472
356.96	31.912
357.32	33.992
357.68	33.811
358.04	33.630
358.40	34.943
358.77	33.092
359.13	34.056
359.49	33.360
359.85	33.413
360.21	32.910
360.57	33.652
360.93	34.204
361.29	32.632
361.66	32.492
362.02	33.046
362.38	33.877
362.74	33.666
363.10	32.805
363.46	33.785
363.82	33.461
364.18	33.308
364.54	32.901
364.90	32.667
365.26	33.085
365.62	34.444
365.98	34.033
366.35	33.812
366.71	33.383
367.07	33.432
367.43	32.852
367.79	32.849
368.15	30.764
368.51	33.783
368.87	33.774
369.23	33.989
369.59	34.338
369.95	33.159
370.31	33.939
370.67	34.286
371.03	33.591
371.39	34.063
371.75	32.912
372.11	33.556
372.47	34.373
372.83	34.405
373.19	34.111
373.55	34.132
373.91	34.545
374.27	35.320
374.63	34.536
374.99	34.334
375.35	33.817
375.71	32.783
376.07	33.640
376.42	35.892
376.78	33.449
377.14	34.846
377.50	34.337
377.86	35.028
378.22	34.478
378.58	35.263
378.94	34.971
379.30	34.620
379.66	33.675
380.02	35.283
380.38	35.941
380.74	35.488
381.09	35.388
381.45	35.683
381.81	34.758
382.17	35.765
382.53	35.371
382.89	35.920
383.25	35.447
383.61	34.520
383.97	35.478
384.32	35.419
384.68	35.441
385.04	34.500
385.40	35.719
385.76	34.978
386.12	34.851
386.48	35.682
386.83	35.484
387.19	36.015
387.55	34.650
387.91	34.953
388.27	33.973
388.62	35.751
388.98	35.687
389.34	35.264
389.70	35.641
390.06	36.436
390.42	35.159
390.77	36.217
391.13	36.630
391.49	36.388
391.85	35.595
392.20	36.106
392.56	34.381
392.92	35.560
393.28	35.428
393.64	35.275
393.99	35.065
394.35	36.340
394.71	34.503
395.07	35.875
395.42	35.492
395.78	35.887
396.14	35.443
396.50	36.158
396.85	34.898
397.21	34.799
397.57	33.970
397.92	34.987
398.28	35.372
398.64	33.714
399.00	34.475
399.35	34.760
399.71	34.371
400.07	34.466
400.42	35.192
400.78	34.293
401.14	34.785
401.49	32.979
401.85	34.222
402.21	34.962
402.57	33.548
402.92	35.193
403.28	34.525
403.63	34.679
403.99	33.487
404.35	33.376
404.70	33.186
405.06	33.292
405.42	33.377
405.77	34.007
406.13	32.915
406.49	33.438
406.84	32.690
407.20	33.953
407.55	34.603
407.91	33.846
408.27	33.644
408.62	31.511
408.98	32.497
409.34	32.266
409.69	31.773
410.05	32.837
410.40	31.471
410.76	32.192
411.11	31.868
411.47	32.381
411.83	31.809
412.18	32.853
412.54	31.436
412.89	32.124
413.25	32.665
413.60	31.569
413.96	31.197
414.31	31.294
414.67	32.343
415.03	30.844
415.38	31.128
415.74	31.699
416.09	31.358
416.45	30.786
416.80	30.668
417.16	31.030
417.51	30.812
417.87	30.780
418.22	29.947
418.58	29.855
418.93	29.916
419.29	29.986
419.64	31.113
420.00	28.946
420.35	29.253
420.71	29.257
421.06	29.202
421.42	29.109
421.77	29.903
422.12	29.061
422.48	29.583
422.83	29.058
423.19	28.824
423.54	28.772
423.90	28.245
424.25	29.366
424.61	28.065
424.96	28.563
425.31	28.804
425.67	27.273
426.02	27.702
426.38	27.606
426.73	27.788
427.09	28.102
427.44	28.827
427.79	28.403
428.15	27.711
428.50	27.136
428.85	27.453
429.21	27.615
429.56	26.243
429.92	26.501
430.27	25.813
430.62	26.122
430.98	26.276
431.33	26.585
431.68	25.985
432.04	26.812
432.39	26.084
432.74	25.364
433.10	25.591
433.45	25.966
433.80	25.595
434.16	26.122
434.51	25.697
434.86	26.103
435.22	25.495
435.57	26.253
435.92	25.139
436.28	24.907
436.63	25.403
436.98	24.012
437.34	25.976
437.69	24.691
438.04	24.459
438.39	24.543
438.75	24.862
439.10	25.536
439.45	25.995
439.81	23.365
440.16	25.232
440.51	22.429
440.86	23.864
441.22	24.300
441.57	24.501
441.92	24.186
442.27	24.800
442.63	24.774
442.98	25.183
443.33	25.264
443.68	23.905
444.03	23.557
444.39	24.102
444.74	24.098
445.09	24.085
445.44	22.799
445.79	23.786
446.15	23.732
446.50	23.077
446.85	23.377
447.20	23.468
447.55	22.746
447.91	23.457
448.26	23.323
448.61	23.021
448.96	23.241
449.31	22.845
449.66	22.276
450.02	22.663
450.37	22.296
450.72	23.040
451.07	22.544
451.42	23.123
451.77	22.699
452.12	23.308
452.47	22.222
452.83	23.101
453.18	22.755
453.53	23.514
453.88	22.272
454.23	23.578
454.58	23.107
454.93	21.049
455.28	22.200
455.63	22.092
455.98	22.970
456.34	22.572
456.69	22.139
457.04	22.113
457.39	23.034
457.74	21.871
458.09	22.215
458.44	22.256
458.79	21.790
459.14	21.884
459.49	21.975
459.84	21.879
460.19	22.952
460.54	21.970
460.89	21.412
461.24	22.013
461.59	22.334
461.94	22.222
462.29	22.995
462.64	22.284
462.99	22.045
463.34	21.905
463.69	21.879
464.04	22.194
464.39	22.379
464.74	21.025
465.09	22.572
465.44	21.656
465.79	21.781
466.14	20.644
466.49	22.249
466.84	21.499
467.19	21.897
467.54	20.491
467.89	21.555
468.24	21.528
468.59	22.251
468.94	21.587
469.29	20.692
469.64	21.809
469.99	21.629
470.34	20.651
470.68	21.308
471.03	20.292
471.38	21.242
471.73	21.875
472.08	21.281
472.43	21.438
472.78	20.522
473.13	22.456
473.48	21.300
473.83	22.061
474.17	21.014
474.52	21.500
474.87	21.212
475.22	21.792
475.57	21.857
475.92	20.694
476.27	20.916
476.61	21.631
476.96	21.280
477.31	20.662
477.66	21.790
478.01	21.012
478.36	21.318
478.70	21.296
479.05	20.604
479.40	21.338
479.75	21.088
480.10	20.942
480.45	20.995
480.79	21.380
481.14	20.770
481.49	20.617
481.84	21.364
482.19	20.585
482.53	20.882
482.88	21.251
483.23	20.854
483.58	20.644
483.92	20.854
484.27	20.474
484.62	21.075
484.97	20.606
485.31	20.070
485.66	19.852
486.01	19.699
486.36	19.756
486.70	19.893
487.05	20.073
487.40	19.608
487.75	20.040
488.09	19.799
488.44	20.226
488.79	19.992
489.13	20.116
489.48	20.804
489.83	20.943
490.17	20.300
490.52	19.646
490.87	21.365
491.22	20.809
491.56	20.504
491.91	20.884
492.26	20.908
492.60	21.276
492.95	21.920
493.30	20.544
493.64	21.095
493.99	20.637
494.34	21.237
494.68	20.961
495.03	19.625
495.37	20.578
495.72	20.464
496.07	20.690
496.41	20.455
496.76	20.439
497.11	20.876
497.45	20.944
497.80	20.924
498.14	20.855
498.49	21.356
498.84	19.759
499.18	20.291
499.53	20.820
499.87	20.993
500.22	20.987
500.56	20.984
500.91	21.657
501.26	20.735
501.60	20.387
501.95	21.034
502.29	20.831
502.64	20.159
502.98	19.738
503.33	19.271
503.67	20.316
504.02	20.889
504.36	21.161
504.71	19.787
505.06	20.139
505.40	20.965
505.75	20.169
506.09	20.314
506.44	20.708
506.78	20.824
507.13	20.575
507.47	21.163
507.82	20.982
508.16	21.381
508.51	21.116
508.85	21.484
509.19	21.558
509.54	20.397
509.88	20.541
510.23	21.685
510.57	20.727
510.92	20.522
511.26	21.252
511.61	20.719
511.95	21.400
512.30	21.971
512.64	21.056
512.98	21.559
513.33	20.692
513.67	20.719
514.02	21.454
514.36	21.530
514.70	21.615
515.05	21.402
515.39	21.706
515.74	22.180
516.08	21.532
516.42	21.815
516.77	21.429
517.11	20.795
517.46	23.111
517.80	22.527
518.14	23.466
518.49	21.992
518.83	22.244
519.17	22.429
519.52	22.423
519.86	22.293
520.20	21.401
520.55	21.932
520.89	22.200
521.23	21.710
521.58	21.958
521.92	21.696
522.26	22.405
522.61	22.662
522.95	22.192
523.29	22.065
523.64	22.592
523.98	22.379
524.32	23.030
524.66	21.278
525.01	22.131
525.35	21.614
525.69	22.092
526.04	23.397
526.38	23.372
526.72	23.542
527.06	23.840
527.41	22.892
527.75	22.541
528.09	21.570
528.43	20.695
528.78	22.502
529.12	21.301
529.46	21.927
529.80	20.762
530.15	21.821
530.49	22.594
530.83	22.704
531.17	22.387
531.51	23.198
531.86	22.969
532.20	21.284
532.54	23.597
532.88	22.109
533.22	22.270
533.57	23.103
533.91	22.023
534.25	22.675
534.59	22.902
534.93	21.961
535.27	22.088
535.62	22.755
535.96	22.540
536.30	22.408
536.64	21.960
536.98	22.861
537.32	21.949
537.66	21.848
538.01	21.870
538.35	22.109
538.69	21.444
539.03	21.990
539.37	21.608
539.71	22.174
540.05	21.418
540.39	22.150
540.73	22.344
541.07	21.765
541.42	22.238
541.76	21.439
542.10	21.234
542.44	22.471
542.78	21.114
543.12	20.144
543.46	21.982
543.80	21.944
544.14	22.079
544.48	21.544
544.82	21.434
545.16	21.014
545.50	22.999
545.84	22.092
546.18	22.622
546.52	22.444
546.86	22.188
547.20	21.742
547.54	21.380
547.88	21.652
548.22	21.308
548.56	21.705
548.90	20.912
549.24	21.564
549.58	22.876
549.92	20.376
550.26	22.239
550.60	22.046
550.94	21.111
551.28	21.870
551.62	21.622
551.96	21.645
552.30	21.008
552.64	22.164
552.98	21.248
553.32	20.758
553.66	21.472
554.00	22.239
554.34	22.578
554.68	21.053
555.02	20.794
555.36	21.843
555.69	20.907
556.03	21.434
556.37	21.530
556.71	21.719
557.05	21.406
557.39	21.847
557.73	21.462
558.07	21.127
558.41	20.910
558.75	21.079
559.08	22.468
559.42	21.906
559.76	20.809
560.10	23.227
560.44	20.823
560.78	21.262
561.12	20.586
561.45	21.280
561.79	20.631
562.13	20.904
562.47	21.789
562.81	20.470
563.15	20.760
563.48	20.599
563.82	20.597
564.16	20.319
564.50	21.705
564.84	20.695
565.17	20.601
565.51	21.816
565.85	21.972
566.19	21.503
566.52	21.147
566.86	21.175
567.20	21.158
567.54	20.230
567.88	20.328
568.21	20.750
568.55	19.525
568.89	19.835
569.23	19.880
569.56	19.632
569.90	19.700
570.24	19.858
570.57	19.037
570.91	19.687
571.25	19.353
571.59	18.787
571.92	17.984
572.26	18.235
572.60	19.147
572.93	18.238
573.27	18.722
573.61	19.003
573.95	18.897
574.28	18.290
574.62	18.101
574.96	17.757
575.29	17.888
575.63	17.667
575.97	17.823
576.30	18.392
576.64	18.467
576.98	17.845
577.31	18.364
577.65	18.476
577.98	18.110
578.32	18.043
578.66	17.795
578.99	18.426
579.33	18.103
579.67	18.206
580.00	17.913
580.34	18.073
580.67	17.777
581.01	17.908
581.35	17.931
581.68	17.984
582.02	17.727
582.35	17.744
582.69	18.221
583.02	17.566
583.36	18.308
583.70	18.305
584.03	18.503
584.37	18.327
584.70	18.440
585.04	17.900
585.37	17.915
585.71	17.850
586.04	18.074
586.38	18.387
586.72	18.605
587.05	18.190
587.39	17.686
587.72	18.283
588.06	18.251
588.39	18.376
588.73	18.239
589.06	18.221
589.40	18.691
589.73	18.586
590.07	18.738
590.40	18.861
590.73	19.450
591.07	18.961
591.40	19.507
591.74	18.377
592.07	18.959
592.41	18.697
592.74	18.960
593.08	18.257
593.41	18.341
593.75	19.009
594.08	18.198
594.41	18.839
594.75	18.363
595.08	18.972
595.42	18.438
595.75	18.409
596.09	19.696
596.42	18.562
596.75	18.955
597.09	18.563
597.42	18.817
597.75	18.809
598.09	18.446
598.42	18.599
598.76	18.944
599.09	19.412
599.42	17.860
599.76	18.125
600.09	18.347
600.42	18.047
600.76	18.014
601.09	18.275
601.42	18.076
601.76	18.141
602.09	18.726
602.42	18.411
602.76	18.717
603.09	18.712
603.42	18.101
603.76	17.961
604.09	18.463
604.42	18.806
604.76	17.983
605.09	18.139
605.42	18.863
605.75	18.502
606.09	18.356
606.42	18.110
606.75	19.139
607.09	19.030
607.42	19.091
607.75	18.457
608.08	18.756
608.42	18.235
608.75	19.010
609.08	18.122
609.41	19.233
609.75	18.957
610.08	17.778
610.41	18.779
610.74	18.150
611.07	18.350
611.41	19.058
611.74	19.532
612.07	18.527
612.40	19.387
612.73	18.808
613.07	19.025
613.40	19.666
613.73	19.645
614.06	18.384
614.39	19.566
614.72	19.185
615.06	20.034
615.39	18.880
615.72	18.757
616.05	18.783
616.38	18.921
616.71	18.532
617.05	18.907
617.38	18.645
617.71	19.726
618.04	19.842
618.37	19.163
618.70	19.769
619.03	20.885
619.36	20.766
619.69	19.129
620.03	19.985
620.36	20.862
620.69	20.325
621.02	20.507
621.35	20.936
621.68	20.252
622.01	20.232
622.34	21.189
622.67	20.405
623.00	20.311
623.33	20.551
623.66	21.036
623.99	20.494
624.32	20.492
624.65	19.922
624.99	19.844
625.32	20.932
625.65	18.335
625.98	21.833
626.31	20.779
626.64	22.072
626.97	20.312
627.30	20.833
627.63	21.488
627.96	20.670
628.29	21.702
628.62	20.000
628.95	21.964
629.28	21.798
629.61	21.212
629.94	21.992
630.26	20.607
630.59	22.513
630.92	20.232
631.25	20.894
631.58	21.977
631.91	21.526
632.24	22.485
632.57	21.879
632.90	23.370
633.23	22.968
633.56	21.761
633.89	21.768
634.22	22.436
634.55	22.470
634.88	22.758
635.20	23.014
635.53	23.184
635.86	24.457
636.19	22.510
636.52	22.911
636.85	20.339
637.18	22.539
637.51	22.764
637.83	20.810
638.16	23.329
638.49	23.487
638.82	21.519
639.15	22.714
639.48	22.416
639.81	22.802
640.13	22.665
640.46	20.630
640.79	21.550
641.12	22.171
641.45	23.017
641.77	20.541
642.10	24.267
642.43	20.707
642.76	21.326
643.09	21.626
643.41	21.864
643.74	24.653
644.07	20.282
644.40	24.007
644.73	22.836
645.05	24.237
645.38	24.038
645.71	22.710
646.04	25.465
646.36	24.053
646.69	23.404
647.02	26.758
647.35	23.600
647.67	25.451
648.00	25.243
648.33	24.085
648.66	24.490
648.98	23.051
649.31	23.580
649.64	23.064
649.96	21.115
650.29	21.770
650.62	22.820
650.94	24.399
651.27	21.965
651.60	20.650
651.92	23.282
652.25	18.356
652.58	24.596
652.90	22.776
653.23	19.927
653.56	23.264
653.88	20.438
654.21	22.684
654.54	21.951
654.86	22.662
655.19	21.613
655.52	21.715
655.84	18.408
656.17	17.244
656.49	23.024
656.82	25.922
657.15	20.474
657.47	15.554
657.80	11.659
658.13	9.667
658.45	16.847
658.78	16.125
659.10	16.283
659.43	16.145
659.75	15.859
660.08	16.972
660.41	16.979
660.73	17.729
661.06	19.818
661.38	21.774
661.71	22.976
662.03	24.537
662.36	20.764
662.68	21.103
663.01	24.760
663.33	22.170
663.66	25.598
663.98	24.205
664.31	23.659
664.63	22.936
664.96	24.228
665.28	24.586
665.61	25.467
665.93	21.659
666.26	23.620
666.58	23.394
666.91	24.122
667.23	22.906
667.56	25.432
667.88	23.308
668.21	23.604
668.53	22.589
668.86	21.939
669.18	22.589
669.50	24.679
669.83	24.250
670.15	20.500
670.48	21.053
670.80	25.381
671.13	25.060
671.45	22.449
671.77	22.222
672.10	21.978
672.42	21.116
672.75	22.524
673.07	20.748
673.39	21.595
673.72	23.347
674.04	23.830
674.37	21.940
674.69	24.065
675.01	23.023
675.34	18.627
675.66	20.238
675.98	20.960
676.31	25.189
676.63	18.814
676.95	22.062
677.28	23.267
677.60	23.810
677.92	21.554
678.25	21.578
678.57	19.954
678.89	21.101
679.22	20.413
679.54	22.272
679.86	22.056
680.18	20.921
680.51	19.918
680.83	18.958
681.15	21.786
681.48	20.000
681.80	22.826
682.12	21.199
682.44	20.474
682.77	20.909
683.09	21.569
683.41	23.058
683.73	21.859
684.06	21.066
684.38	20.624
684.70	22.633
685.02	19.048
685.34	16.318
685.67	19.368
685.99	21.956
686.31	21.269
686.63	19.612
686.96	19.512
687.28	23.409
687.60	21.766
687.92	17.722
688.24	18.737
688.56	18.022
688.89	21.005
689.21	20.698
689.53	18.926
689.85	24.051
690.17	21.324
690.49	19.765
690.82	22.359
691.14	22.977
691.46	16.500
691.78	19.378
692.10	22.706
692.42	21.101
692.74	23.460
693.06	18.072
693.39	20.197
693.71	20.465
694.03	18.116
694.35	21.782
694.67	20.356
694.99	19.137
695.31	20.397
695.63	18.649
695.95	20.787
696.27	21.246
696.59	20.475
696.91	21.652
697.23	18.911
697.56	19.948
697.88	20.141
698.20	17.433
698.52	17.788
698.84	23.308
699.16	19.789
699.48	19.634
699.80	19.780
700.12	19.284
700.44	17.404
700.76	20.189
701.08	16.508
701.40	23.026
701.72	22.333
702.04	17.687
702.36	20.984
702.68	21.141
703.00	17.981
703.32	17.066
703.64	20.820
703.96	22.785
704.28	16.901
704.60	19.178
704.91	17.763
705.23	20.702
705.55	16.357
705.87	21.583
706.19	21.514
706.51	17.578
706.83	19.048
707.15	21.017
707.47	20.359
707.79	15.759
708.11	20.899
708.43	18.400
708.74	17.760
709.06	20.245
709.38	18.694
709.70	14.935
710.02	20.979
710.34	18.440
710.66	19.101
710.98	24.476
711.29	20.962
711.61	15.957
711.93	20.599
712.25	19.245
712.57	20.313
712.89	21.224
713.20	19.758
713.52	14.634
713.84	19.708
714.16	21.284
714.48	19.454
714.80	18.519
715.11	18.557
715.43	16.382
715.75	18.947
716.07	24.364
716.39	21.502
716.70	18.800
717.02	12.097
717.34	16.450
717.66	19.545
717.97	15.741
718.29	23.556
718.61	14.414
718.93	15.126
719.24	15.481
719.56	20.089
719.88	18.039
720.20	14.103
720.51	18.860
720.83	17.992
721.15	19.184
721.46	17.300
721.78	19.481
722.10	22.093
722.42	21.304
722.73	15.385
723.05	20.737
723.37	17.195
723.68	18.957
724.00	20.370
724.32	12.617
724.63	17.195
724.95	20.091
725.27	18.310
725.58	18.265
725.90	13.964
726.22	15.284
726.53	14.344
726.85	17.407
727.16	19.433
727.48	14.919
727.80	12.329
728.11	16.444
728.43	21.811
728.74	17.982
729.06	17.467
729.38	19.380
729.69	16.400
730.01	13.808
730.32	17.530
730.64	20.000
730.96	14.672
731.27	19.691
731.59	18.519
731.90	16.118
732.22	18.605
732.53	12.632
732.85	14.437
733.16	20.879
733.48	13.806
733.80	17.818
734.11	18.440
734.43	15.884
734.74	12.461
735.06	18.971
735.37	14.377
735.69	10.563
736.00	13.704
736.32	18.182
736.63	19.630
736.95	10.895
737.26	13.768
737.58	11.314
737.89	18.868
738.21	17.939
738.52	22.131
738.83	16.239
739.15	14.545
739.46	9.910
739.78	16.602
740.09	13.492
740.41	14.773
740.72	17.530
741.04	18.182
741.35	21.525
741.66	19.892
741.98	10.204
742.29	11.399
742.61	17.341
742.92	15.686
743.23	27.363
743.55	19.171
743.86	14.010
744.18	14.000
744.49	8.889
744.80	22.581
745.12	17.949
745.43	17.112
745.74	16.578
746.06	20.690
746.37	9.444
746.68	21.622
747.00	8.840
747.31	16.230
747.62	17.895
747.94	18.868
748.25	22.660
748.56	20.707
748.88	14.208
749.19	19.171
749.50	10.588
749.82	20.500
750.13	17.476
750.44	12.446
750.75	17.200
751.07	16.318
751.38	8.984
751.69	18.651
752.01	15.126
752.32	19.008
752.63	14.847
752.94	19.200
753.26	15.068
753.57	19.905
753.88	8.837
754.19	13.216
754.51	14.644
754.82	14.583
755.13	12.389
755.44	12.121
755.75	17.269
756.07	12.446
756.38	14.226
756.69	17.358
757.00	17.021
757.31	15.225
757.63	13.072
757.94	13.333
758.25	17.560
758.56	14.595
758.87	13.690
759.18	20.561
759.50	18.149
759.81	14.672
760.12	12.100
760.43	16.279
760.74	19.162
761.05	16.667
761.36	16.617
761.67	14.286
761.99	14.047
762.30	14.545
762.61	18.699
762.92	17.333
763.23	17.674
763.54	16.244
763.85	16.290
764.16	4.783
764.47	13.478
764.78	16.129
765.10	10.630
765.41	16.054
765.72	17.726
766.03	14.381
766.34	10.606
766.65	12.891
766.96	15.111
767.27	20.670
767.58	19.497
767.89	12.338
768.20	8.108
768.51	22.414
768.82	8.125
769.13	14.815
769.44	15.094
769.75	10.294
770.06	8.738
770.37	12.766
770.68	17.436
770.99	13.198
771.30	13.918
771.61	11.659
771.92	14.623
772.23	7.212
772.54	12.941
772.85	8.904
773.16	13.548
773.47	12.739
773.78	20.958
774.09	7.895
774.39	13.235
774.70	13.534
775.01	3.077
775.32	15.873
775.63	7.874
775.94	2.830
776.25	22.222
776.56	10.909
776.87	23.932
777.18	11.000
777.48	8.654
777.79	8.333
778.10	9.434
778.41	16.667
778.72	3.774
779.03	5.263
779.34	0.000
779.65	12.676
779.95	2.878
780.26	9.677
780.57	15.217
780.88	-3.670
781.19	11.111
781.50	5.738
781.80	9.489
782.11	7.051
782.42	1.379
782.73	15.385
783.04	4.800
783.34	1.600
783.65	4.878
783.96	4.098
784.27	8.403
784.57	0.935
784.88	6.250
785.19	16.495
785.50	7.368
785.81	3.000
786.11	2.970
786.42	-20.000
786.73	-4.167
787.04	0.000
787.34	11.111
787.65	0.000
787.96	-6.186
788.26	14.851
788.57	3.478
788.88	-5.505
789.19	6.612
789.49	-6.957
789.80	23.276
790.11	-3.659
790.41	11.236
790.72	-10.465
791.03	-8.140
791.33	-2.597
791.64	-2.439
791.95	8.537
792.25	-2.410
792.56	-2.469
792.87	-1.408
793.17	12.048
793.48	5.882
793.79	2.500
794.09	-18.333
794.40	11.957
794.70	-1.739
795.01	7.339
795.32	11.024
795.62	-0.980
795.93	4.902
796.23	2.020
796.54	3.488
796.85	-13.043
797.15	-7.812
797.46	-16.949
797.76	-3.279
798.07	0.000
798.37	-17.742
798.68	-1.562
798.99	9.231
799.29	-4.545
799.60	-13.043
799.90	0.000
800.21	-1.754
800.51	-15.517
800.82	-18.868
801.12	-15.686
801.43	-14.516
801.73	-8.065
802.04	16.000
802.34	-15.094
802.65	-52.632
802.95	5.455
803.26	-3.774
803.56	-6.557
803.87	-2.000
804.17	-11.111
804.48	11.538
804.78	-24.490
805.09	-10.638
805.39	15.254
805.70	-39.583
806.00	-8.929
806.30	0.000
806.61	-10.769
806.91	-20.000
807.22	-1.316
807.52	-2.857
807.83	3.448
808.13	3.797
808.43	-4.918
808.74	4.918
809.04	6.757
809.35	3.704
809.65	-5.357
809.95	-16.949
810.26	-10.204
810.56	7.547
810.86	-15.686
811.17	-16.216
811.47	-77.778
811.77	-21.569
812.08	-20.455
812.38	-75.000
812.69	-25.641
812.99	-9.524
813.29	6.522
813.59	-31.429
813.90	-33.333
814.20	3.636
814.50	-8.163
814.81	-35.294
815.11	-31.250
815.41	-46.341
815.72	-30.769
816.02	-21.277
816.32	-6.250
816.62	-39.394
816.93	-39.394
817.23	-5.405
817.53	-35.294
817.84	0.000
818.14	-44.118
818.44	0.000
818.74	-90.476
819.04	-31.429
819.35	-20.000
819.65	-20.455
819.95	10.256
820.25	-100.000
820.56	-44.828
820.86	-39.286
821.16	-43.478
821.46	-38.095
821.76	-5.556
822.07	-86.957
822.37	-20.408
822.67	-32.558
822.97	-26.087
823.27	-30.769
823.57	-37.037
823.88	-46.429
824.18	-15.385
824.48	-7.143
824.78	-36.364
825.08	-100.000
825.38	-2.500
825.69	-72.222
825.99	-37.037
826.29	0.000
826.59	-44.444
826.89	-40.741
827.19	-39.286
827.49	-95.455
827.79	-77.273
828.09	-77.273
828.39	-73.913
828.70	-37.037
829.00	-42.857
829.30	-16.667
829.60	-35.484
829.90	-46.154
830.20	-20.513
830.50	-77.273
830.80	-47.619
831.10	-77.778
831.40	-128.571
831.70	-29.630
832.00	-35.294
832.30	-34.783
832.60	-54.167
832.90	-163.636
833.20	-77.778
833.50	-28.125
833.80	-26.923
834.10	0.000
834.40	-95.833
834.70	-72.727
835.00	-30.769
835.30	-55.000
835.60	-100.000
835.90	0.000
836.20	-85.714
836.50	-65.217
836.80	-72.222
837.10	-53.333
837.40	-250.000
837.70	-30.435
838.00	-100.000
838.30	2600.000
838.60	20.000
838.90	-500.000
839.19	-88.889
839.49	-750.000
839.79	-117.647
840.09	-55.556
840.39	17.857
840.69	-122.222
840.99	-125.000
841.29	-37.931
841.59	-120.000
841.88	-100.000
842.18	-350.000
842.48	-31.250
842.78	-19.231
843.08	-58.824
843.38	-55.000
843.68	-138.462
843.97	-111.765
844.27	-270.000
844.57	-33.333
844.87	-54.545
845.17	-63.158
845.47	-38.889
845.76	0.000
846.06	-66.667
846.36	-92.857
846.66	-311.111
846.96	-40.000
847.25	-220.000
847.55	-225.000
847.85	-106.667
848.15	-225.000
848.44	-36.842
848.74	-46.667
849.04	-42.105
849.34	-500.000
849.63	-216.667
849.93	-35.294
850.23	-218.182
850.53	-633.333
850.82	-280.000
851.12	-255.556
851.42	-228.571
851.71	-400.000
852.01	-121.429
852.31	-600.000
852.61	-146.154
852.90	-160.000
853.20	-200.000
853.50	-222.222
853.79	-90.000
854.09	-145.000
854.39	-110.526
854.68	-35.000
854.98	-750.000
855.28	-50.000
855.57	-150.000
855.87	-84.211
856.17	-118.750
856.46	-26.923
856.76	-20.000
857.05	-68.750
857.35	-25.000
857.65	-44.444
857.94	-125.000
858.24	-26.087
858.53	-220.000
858.83	-533.333
859.13	-254.545
859.42	-280.000
859.72	316.667
860.01	-76.923
860.31	-190.000
860.60	-262.500
860.90	-550.000
861.20	-266.667
861.49	-350.000
861.79	950.000
862.08	22.581
862.38	-52.632
862.67	-61.538
862.97	-200.000
863.26	-116.667
863.56	-21.739
863.85	-283.333
864.15	-50.000
864.44	-56.250
864.74	-200.000
865.03	-122.222
865.33	-466.667
865.62	-1900.000
865.92	-1250.000
866.21	-366.667
866.51	-181.818
866.80	-666.667
867.10	-242.857
867.39	-144.444
867.69	-108.333
867.98	140.000
868.27	-425.000
868.57	650.000
868.86	-33.333
869.16	-46.154
869.45	1300.000
869.75	-366.667
870.04	-141.667
870.33	-70.588
870.63	-157.143
870.92	8.696
871.22	-162.500
871.51	600.000
871.80	-56.250
872.10	-533.333
>>>>>End Processed Spectral Data<<<<<
