SpectraSuite Data File
++++++++++++++++++++++++++++++++++++
Date: Wed May 13 19:47:43 PDT 2015
User: schluterlab
Dark Spectrum Present: Yes
Reference Spectrum Present: Yes
Number of Sampled Component Spectra: 1
Spectrometers: USB2E3373
Integration Time (usec): 3000 (USB2E3373)
Spectra Averaged: 3 (USB2E3373)
Boxcar Smoothing: 0 (USB2E3373)
Correct for Electrical Dark: No (USB2E3373)
Strobe/Lamp Enabled: No (USB2E3373)
Correct for Detector Non-linearity: No (USB2E3373)
Correct for Stray Light: No (USB2E3373)
Number of Pixels in Processed Spectrum: 2048
>>>>>Begin Processed Spectral Data<<<<<
178.53	0.000
178.91	-1025.000
179.29	-1450.000
179.67	-233.333
180.04	-1375.000
180.42	3150.000
180.80	1180.000
181.18	-975.000
181.56	714.286
181.94	0.000
182.31	-571.429
182.69	1900.000
183.07	-562.500
183.45	-544.444
183.83	436.364
184.20	-440.000
184.58	2450.000
184.96	4800.000
185.34	-800.000
185.72	-612.500
186.09	-2250.000
186.47	2700.000
186.85	2650.000
187.23	4900.000
187.61	-1533.333
187.98	1375.000
188.36	445.455
188.74	563.636
189.12	-1020.000
189.49	490.000
189.87	-4900.000
190.25	-1225.000
190.63	421.429
191.00	500.000
191.38	850.000
191.76	-1325.000
192.14	1275.000
192.51	712.500
192.89	816.667
193.27	587.500
193.65	-1100.000
194.02	610.000
194.40	900.000
194.78	530.000
195.15	516.667
195.53	680.000
195.91	-2250.000
196.29	337.500
196.66	331.579
197.04	-450.000
197.42	0.000
197.79	630.000
198.17	-5000.000
198.55	614.286
198.92	750.000
199.30	900.000
199.68	0.000
200.05	350.000
200.43	857.143
200.81	4400.000
201.18	1600.000
201.56	-1600.000
201.94	555.556
202.31	600.000
202.69	466.667
203.07	520.000
203.44	0.000
203.82	1200.000
204.19	742.857
204.57	457.143
204.95	662.500
205.32	1633.333
205.70	481.818
206.08	385.714
206.45	2700.000
206.83	437.500
207.20	900.000
207.58	920.000
207.96	300.000
208.33	700.000
208.71	-833.333
209.08	857.143
209.46	588.889
209.84	590.909
210.21	-1466.667
210.59	1525.000
210.96	-600.000
211.34	2800.000
211.71	600.000
212.09	783.333
212.46	0.000
212.84	1700.000
213.22	1550.000
213.59	-3600.000
213.97	800.000
214.34	771.429
214.72	563.636
215.09	960.000
215.47	-2250.000
215.84	-2400.000
216.22	1500.000
216.59	357.143
216.97	1000.000
217.34	472.727
217.72	-583.333
218.09	0.000
218.47	-5000.000
218.84	688.889
219.22	671.429
219.59	1766.667
219.97	-742.857
220.34	920.000
220.72	-1900.000
221.09	428.571
221.47	1425.000
221.84	-883.333
222.22	0.000
222.59	1525.000
222.97	-2750.000
223.34	1200.000
223.72	430.769
224.09	1100.000
224.46	2300.000
224.84	-4000.000
225.21	-1020.000
225.59	-4600.000
225.96	590.000
226.34	305.000
226.71	3100.000
227.08	675.000
227.46	570.000
227.83	-1125.000
228.21	-2300.000
228.58	611.111
228.95	-2250.000
229.33	-2200.000
229.70	1633.333
230.08	971.429
230.45	-740.000
230.82	491.667
231.20	783.333
231.57	714.286
231.95	475.000
232.32	240.909
232.69	390.909
233.07	685.714
233.44	476.923
233.81	-1633.333
234.19	289.474
234.56	491.667
234.93	400.000
235.31	490.909
235.68	300.000
236.05	371.429
236.43	184.848
236.80	247.368
237.17	5700.000
237.55	214.286
237.92	203.571
238.29	228.571
238.67	174.194
239.04	182.759
239.41	166.667
239.79	104.348
240.16	166.667
240.53	109.091
240.91	105.882
241.28	92.000
241.65	118.000
242.02	92.754
242.40	93.548
242.77	88.333
243.14	72.043
243.51	75.281
243.89	64.706
244.26	62.222
244.63	66.667
245.00	63.830
245.38	63.366
245.75	54.206
246.12	54.128
246.49	63.504
246.87	60.000
247.24	60.000
247.61	47.143
247.98	41.176
248.36	37.162
248.73	44.586
249.10	43.312
249.47	48.023
249.84	43.316
250.22	36.898
250.59	39.645
250.96	38.889
251.33	38.863
251.70	42.574
252.08	44.286
252.45	31.390
252.82	34.348
253.19	39.574
253.56	37.647
253.94	34.855
254.31	35.156
254.68	35.385
255.05	29.520
255.42	25.203
255.79	33.088
256.16	33.574
256.54	26.855
256.91	27.402
257.28	24.101
257.65	27.723
258.02	27.329
258.39	30.599
258.76	27.759
259.14	27.083
259.51	29.787
259.88	23.913
260.25	30.514
260.62	27.746
260.99	27.640
261.36	31.231
261.73	24.355
262.10	25.000
262.47	26.761
262.85	25.627
263.22	24.501
263.59	29.345
263.96	25.824
264.33	24.543
264.70	25.263
265.07	26.854
265.44	25.000
265.81	25.061
266.18	26.633
266.55	24.634
266.92	25.553
267.29	25.694
267.66	24.771
268.03	24.318
268.40	24.533
268.77	23.150
269.14	24.775
269.51	24.379
269.88	25.641
270.25	21.219
270.62	23.820
270.99	26.452
271.36	23.391
271.73	21.495
272.10	24.565
272.47	24.731
272.84	22.078
273.21	25.577
273.58	19.869
273.95	20.126
274.32	20.661
274.69	22.912
275.06	22.047
275.43	24.043
275.80	22.445
276.17	20.774
276.54	22.037
276.91	21.937
277.28	19.727
277.65	22.244
278.02	20.911
278.39	22.656
278.76	22.364
279.13	22.075
279.50	21.229
279.87	21.514
280.23	20.559
280.60	20.696
280.97	17.745
281.34	23.540
281.71	21.091
282.08	21.689
282.45	20.909
282.82	20.782
283.19	19.430
283.56	21.404
283.92	19.797
284.29	20.459
284.66	20.327
285.03	22.242
285.40	17.958
285.77	19.360
286.14	18.826
286.51	21.167
286.87	20.684
287.24	21.498
287.61	19.262
287.98	20.617
288.35	18.384
288.72	21.028
289.08	18.310
289.45	17.792
289.82	17.886
290.19	15.856
290.56	18.989
290.93	17.523
291.29	18.098
291.66	16.667
292.03	19.041
292.40	18.502
292.77	18.343
293.13	17.612
293.50	17.347
293.87	16.889
294.24	15.704
294.60	16.594
294.97	16.860
295.34	16.643
295.71	15.767
296.08	16.239
296.44	16.919
296.81	15.588
297.18	17.751
297.55	14.380
297.91	15.699
298.28	17.403
298.65	15.274
299.02	16.864
299.38	15.139
299.75	14.420
300.12	16.092
300.48	15.250
300.85	15.783
301.22	15.032
301.59	13.889
301.95	14.232
302.32	15.918
302.69	15.054
303.05	13.576
303.42	14.568
303.79	14.156
304.15	13.636
304.52	13.905
304.89	13.473
305.25	12.877
305.62	15.402
305.99	14.050
306.35	13.423
306.72	14.798
307.09	14.317
307.45	14.302
307.82	12.835
308.19	15.673
308.55	14.995
308.92	13.319
309.29	13.305
309.65	12.937
310.02	12.262
310.38	13.656
310.75	13.833
311.12	13.306
311.48	14.107
311.85	13.208
312.22	12.487
312.58	12.578
312.95	14.678
313.31	12.039
313.68	13.514
314.05	15.286
314.41	14.673
314.78	13.293
315.14	13.505
315.51	14.212
315.87	14.356
316.24	13.009
316.61	12.281
316.97	13.014
317.34	12.524
317.70	14.914
318.07	13.474
318.43	13.014
318.80	13.308
319.16	13.371
319.53	13.133
319.89	13.333
320.26	12.900
320.62	13.194
320.99	13.030
321.35	13.838
321.72	12.628
322.08	13.524
322.45	14.527
322.81	12.694
323.18	15.896
323.54	14.378
323.91	13.396
324.27	14.149
324.64	12.675
325.00	11.722
325.37	12.921
325.73	13.914
326.10	13.063
326.46	11.738
326.83	14.150
327.19	13.407
327.56	11.934
327.92	12.948
328.29	13.487
328.65	14.088
329.01	12.635
329.38	12.303
329.74	13.850
330.11	12.818
330.47	13.407
330.84	13.603
331.20	13.843
331.56	13.028
331.93	12.037
332.29	13.576
332.66	13.186
333.02	12.157
333.38	13.279
333.75	14.528
334.11	12.989
334.48	13.132
334.84	12.132
335.20	12.182
335.57	11.786
335.93	12.857
336.29	11.355
336.66	12.534
337.02	12.308
337.38	13.148
337.75	12.745
338.11	12.086
338.47	12.523
338.84	13.199
339.20	11.101
339.56	13.321
339.93	13.091
340.29	12.138
340.65	13.012
341.02	13.438
341.38	13.523
341.74	11.842
342.11	13.974
342.47	12.335
342.83	12.243
343.20	12.035
343.56	11.626
343.92	12.368
344.28	12.840
344.65	11.866
345.01	11.532
345.37	11.664
345.73	13.283
346.10	12.447
346.46	12.458
346.82	12.109
347.19	11.195
347.55	11.823
347.91	12.217
348.27	12.325
348.63	13.043
349.00	12.379
349.36	13.383
349.72	12.911
350.08	12.237
350.45	12.286
350.81	12.510
351.17	11.831
351.53	12.449
351.89	11.881
352.26	13.654
352.62	11.708
352.98	12.642
353.34	12.490
353.70	11.538
354.07	12.097
354.43	11.825
354.79	11.585
355.15	10.774
355.51	11.990
355.87	12.408
356.24	11.889
356.60	11.468
356.96	11.263
357.32	11.447
357.68	12.362
358.04	12.114
358.40	12.668
358.77	12.363
359.13	11.760
359.49	10.510
359.85	10.317
360.21	10.447
360.57	12.062
360.93	11.615
361.29	11.187
361.66	10.759
362.02	11.269
362.38	12.091
362.74	11.682
363.10	10.881
363.46	11.299
363.82	11.262
364.18	11.380
364.54	11.813
364.90	11.827
365.26	11.471
365.62	12.126
365.98	11.030
366.35	10.960
366.71	10.991
367.07	11.216
367.43	10.668
367.79	12.348
368.15	12.356
368.51	10.102
368.87	11.635
369.23	11.119
369.59	11.151
369.95	11.103
370.31	11.538
370.67	11.304
371.03	11.610
371.39	10.860
371.75	10.882
372.11	11.095
372.47	12.537
372.83	11.816
373.19	10.983
373.55	11.086
373.91	11.635
374.27	10.790
374.63	10.764
374.99	11.511
375.35	10.119
375.71	11.241
376.07	12.003
376.42	10.867
376.78	11.133
377.14	10.787
377.50	10.795
377.86	10.505
378.22	10.430
378.58	9.398
378.94	9.679
379.30	9.351
379.66	10.977
380.02	10.197
380.38	9.897
380.74	10.804
381.09	10.575
381.45	10.080
381.81	10.381
382.17	10.318
382.53	10.629
382.89	10.741
383.25	10.569
383.61	10.719
383.97	10.569
384.32	10.730
384.68	9.727
385.04	10.387
385.40	10.093
385.76	9.889
386.12	10.751
386.48	10.447
386.83	10.904
387.19	11.070
387.55	11.070
387.91	10.278
388.27	10.055
388.62	11.125
388.98	9.337
389.34	11.139
389.70	10.791
390.06	11.027
390.42	10.506
390.77	10.051
391.13	10.147
391.49	10.089
391.85	9.994
392.20	9.464
392.56	9.785
392.92	9.829
393.28	9.231
393.64	10.552
393.99	10.385
394.35	8.933
394.71	10.226
395.07	9.595
395.42	10.012
395.78	10.051
396.14	10.180
396.50	10.777
396.85	10.235
397.21	9.741
397.57	10.043
397.92	9.555
398.28	9.417
398.64	10.454
399.00	9.513
399.35	9.193
399.71	9.954
400.07	10.112
400.42	10.429
400.78	11.218
401.14	9.573
401.49	10.269
401.85	9.679
402.21	9.521
402.57	9.624
402.92	10.277
403.28	10.119
403.63	9.592
403.99	8.599
404.35	9.939
404.70	9.353
405.06	9.552
405.42	9.857
405.77	8.914
406.13	9.819
406.49	9.994
406.84	10.337
407.20	9.279
407.55	10.338
407.91	9.600
408.27	8.870
408.62	9.874
408.98	9.314
409.34	9.164
409.69	9.935
410.05	9.480
410.40	9.358
410.76	9.737
411.11	10.374
411.47	8.946
411.83	9.469
412.18	9.029
412.54	9.527
412.89	9.940
413.25	9.740
413.60	9.759
413.96	9.107
414.31	9.478
414.67	9.886
415.03	9.669
415.38	10.309
415.74	9.775
416.09	9.863
416.45	9.705
416.80	9.518
417.16	10.389
417.51	10.086
417.87	9.634
418.22	10.410
418.58	10.200
418.93	10.074
419.29	9.675
419.64	10.453
420.00	10.427
420.35	10.319
420.71	10.161
421.06	9.129
421.42	9.942
421.77	9.529
422.12	9.040
422.48	8.473
422.83	9.843
423.19	9.558
423.54	9.634
423.90	10.145
424.25	9.269
424.61	9.643
424.96	9.796
425.31	9.635
425.67	9.438
426.02	9.486
426.38	9.951
426.73	9.596
427.09	9.301
427.44	10.293
427.79	9.661
428.15	10.476
428.50	10.415
428.85	10.489
429.21	9.277
429.56	8.968
429.92	9.160
430.27	9.980
430.62	9.063
430.98	9.600
431.33	9.691
431.68	9.581
432.04	10.064
432.39	9.195
432.74	9.695
433.10	9.281
433.45	10.379
433.80	9.978
434.16	10.043
434.51	9.526
434.86	9.407
435.22	10.061
435.57	10.213
435.92	9.070
436.28	10.854
436.63	10.486
436.98	9.388
437.34	9.958
437.69	10.968
438.04	9.500
438.39	10.328
438.75	10.110
439.10	10.000
439.45	10.272
439.81	9.245
440.16	10.051
440.51	9.666
440.86	10.365
441.22	9.844
441.57	9.766
441.92	9.724
442.27	9.903
442.63	9.637
442.98	9.859
443.33	10.435
443.68	9.654
444.03	9.566
444.39	9.250
444.74	10.444
445.09	9.865
445.44	9.732
445.79	10.292
446.15	10.111
446.50	9.908
446.85	9.250
447.20	9.893
447.55	9.883
447.91	9.928
448.26	10.351
448.61	10.062
448.96	10.299
449.31	10.405
449.66	9.961
450.02	8.969
450.37	9.524
450.72	9.927
451.07	9.811
451.42	10.152
451.77	10.335
452.12	10.508
452.47	10.137
452.83	10.781
453.18	10.391
453.53	9.895
453.88	10.337
454.23	10.341
454.58	10.842
454.93	10.235
455.28	10.910
455.63	9.405
455.98	11.071
456.34	9.925
456.69	10.269
457.04	10.031
457.39	10.579
457.74	10.505
458.09	10.121
458.44	10.718
458.79	10.033
459.14	10.327
459.49	10.566
459.84	10.249
460.19	10.018
460.54	9.722
460.89	10.752
461.24	9.836
461.59	10.866
461.94	10.111
462.29	11.098
462.64	11.104
462.99	9.889
463.34	11.467
463.69	10.632
464.04	10.203
464.39	9.623
464.74	10.636
465.09	9.891
465.44	9.252
465.79	9.340
466.14	10.454
466.49	9.733
466.84	10.741
467.19	10.682
467.54	11.062
467.89	10.384
468.24	10.762
468.59	11.233
468.94	10.385
469.29	9.512
469.64	11.847
469.99	10.622
470.34	10.106
470.68	11.279
471.03	10.408
471.38	10.702
471.73	9.993
472.08	11.382
472.43	11.181
472.78	9.941
473.13	10.783
473.48	10.424
473.83	10.732
474.17	9.956
474.52	11.228
474.87	10.391
475.22	10.157
475.57	9.833
475.92	9.347
476.27	10.034
476.61	10.480
476.96	9.731
477.31	10.256
477.66	10.667
478.01	10.037
478.36	10.735
478.70	9.605
479.05	10.011
479.40	10.082
479.75	9.964
480.10	9.940
480.45	10.043
480.79	9.412
481.14	9.442
481.49	9.777
481.84	9.328
482.19	9.950
482.53	10.229
482.88	9.772
483.23	10.047
483.58	10.555
483.92	9.794
484.27	9.281
484.62	9.397
484.97	9.578
485.31	9.384
485.66	7.915
486.01	7.424
486.36	7.509
486.70	7.815
487.05	7.961
487.40	7.916
487.75	8.598
488.09	8.735
488.44	9.373
488.79	9.837
489.13	9.626
489.48	9.502
489.83	9.452
490.17	9.908
490.52	9.787
490.87	9.317
491.22	9.641
491.56	8.929
491.91	9.912
492.26	9.187
492.60	9.816
492.95	9.027
493.30	10.000
493.64	9.846
493.99	9.285
494.34	9.528
494.68	9.982
495.03	9.868
495.37	9.679
495.72	10.088
496.07	10.302
496.41	9.381
496.76	10.070
497.11	9.545
497.45	10.247
497.80	9.885
498.14	9.275
498.49	9.463
498.84	9.636
499.18	9.429
499.53	9.687
499.87	9.320
500.22	9.279
500.56	10.291
500.91	9.856
501.26	9.199
501.60	10.157
501.95	9.349
502.29	10.403
502.64	9.916
502.98	9.444
503.33	9.552
503.67	10.023
504.02	9.869
504.36	10.108
504.71	9.868
505.06	10.361
505.40	9.966
505.75	9.595
506.09	9.864
506.44	9.768
506.78	10.521
507.13	9.743
507.47	10.303
507.82	10.233
508.16	9.980
508.51	9.589
508.85	10.228
509.19	9.643
509.54	10.459
509.88	10.149
510.23	9.820
510.57	10.939
510.92	10.823
511.26	10.123
511.61	10.322
511.95	9.395
512.30	10.392
512.64	10.478
512.98	10.772
513.33	10.653
513.67	10.566
514.02	9.686
514.36	10.978
514.70	10.957
515.05	9.927
515.39	10.320
515.74	10.191
516.08	10.565
516.42	10.821
516.77	10.870
517.11	9.989
517.46	10.609
517.80	10.221
518.14	10.133
518.49	10.910
518.83	11.136
519.17	10.508
519.52	10.696
519.86	10.382
520.20	10.867
520.55	11.071
520.89	11.314
521.23	11.399
521.58	11.285
521.92	11.145
522.26	10.982
522.61	10.841
522.95	10.681
523.29	11.321
523.64	11.341
523.98	11.522
524.32	11.520
524.66	10.764
525.01	11.397
525.35	10.967
525.69	10.961
526.04	11.215
526.38	10.616
526.72	11.779
527.06	10.797
527.41	10.520
527.75	10.997
528.09	12.075
528.43	10.453
528.78	11.002
529.12	10.788
529.46	11.574
529.80	12.067
530.15	10.903
530.49	10.892
530.83	11.329
531.17	12.402
531.51	11.154
531.86	11.097
532.20	12.647
532.54	11.723
532.88	11.746
533.22	10.806
533.57	11.358
533.91	10.897
534.25	11.300
534.59	11.348
534.93	11.422
535.27	11.527
535.62	11.416
535.96	11.927
536.30	10.807
536.64	11.784
536.98	11.612
537.32	11.192
537.66	10.800
538.01	11.323
538.35	11.248
538.69	11.997
539.03	11.436
539.37	10.543
539.71	9.592
540.05	11.569
540.39	11.960
540.73	11.320
541.07	12.395
541.42	11.220
541.76	10.903
542.10	12.484
542.44	11.258
542.78	12.055
543.12	10.301
543.46	12.000
543.80	11.646
544.14	11.232
544.48	11.365
544.82	10.584
545.16	11.516
545.50	11.054
545.84	11.828
546.18	11.515
546.52	12.044
546.86	10.790
547.20	11.328
547.54	11.222
547.88	11.798
548.22	11.644
548.56	11.761
548.90	11.396
549.24	11.313
549.58	11.119
549.92	12.225
550.26	13.068
550.60	11.826
550.94	11.831
551.28	11.631
551.62	11.718
551.96	11.509
552.30	12.560
552.64	11.427
552.98	12.881
553.32	11.531
553.66	12.883
554.00	11.736
554.34	10.973
554.68	12.017
555.02	11.707
555.36	11.482
555.69	12.246
556.03	12.248
556.37	11.733
556.71	11.733
557.05	12.675
557.39	11.966
557.73	11.927
558.07	11.385
558.41	12.084
558.75	11.903
559.08	11.857
559.42	13.076
559.76	12.794
560.10	11.420
560.44	11.321
560.78	11.510
561.12	12.137
561.45	13.233
561.79	11.009
562.13	11.603
562.47	11.885
562.81	11.227
563.15	11.304
563.48	12.003
563.82	10.502
564.16	11.642
564.50	10.547
564.84	11.568
565.17	11.133
565.51	10.735
565.85	11.231
566.19	11.396
566.52	11.653
566.86	11.573
567.20	11.557
567.54	10.160
567.88	10.538
568.21	11.481
568.55	10.313
568.89	9.971
569.23	10.339
569.56	9.838
569.90	9.736
570.24	9.365
570.57	9.623
570.91	9.082
571.25	9.172
571.59	9.367
571.92	8.900
572.26	9.070
572.60	9.640
572.93	9.385
573.27	9.820
573.61	9.157
573.95	9.018
574.28	8.819
574.62	8.989
574.96	8.507
575.29	8.729
575.63	8.968
575.97	8.826
576.30	9.187
576.64	8.971
576.98	8.872
577.31	8.618
577.65	8.578
577.98	8.424
578.32	8.360
578.66	8.847
578.99	8.834
579.33	8.666
579.67	8.781
580.00	9.182
580.34	8.733
580.67	8.698
581.01	8.905
581.35	8.591
581.68	8.425
582.02	8.204
582.35	8.354
582.69	8.565
583.02	8.768
583.36	8.992
583.70	9.341
584.03	9.013
584.37	9.750
584.70	9.143
585.04	9.222
585.37	8.900
585.71	9.328
586.04	9.278
586.38	9.091
586.72	9.804
587.05	9.155
587.39	8.945
587.72	9.431
588.06	8.991
588.39	9.739
588.73	9.622
589.06	9.847
589.40	9.832
589.73	9.715
590.07	10.214
590.40	9.755
590.73	10.304
591.07	10.501
591.40	10.418
591.74	10.563
592.07	9.424
592.41	10.335
592.74	9.775
593.08	9.694
593.41	9.332
593.75	8.932
594.08	9.688
594.41	9.756
594.75	9.686
595.08	9.628
595.42	9.807
595.75	10.043
596.09	10.327
596.42	10.609
596.75	10.173
597.09	10.433
597.42	9.570
597.75	10.091
598.09	10.565
598.42	10.052
598.76	9.404
599.09	10.072
599.42	9.279
599.76	10.029
600.09	9.435
600.42	9.496
600.76	9.607
601.09	9.800
601.42	9.665
601.76	10.209
602.09	10.237
602.42	10.311
602.76	10.036
603.09	9.953
603.42	10.894
603.76	10.252
604.09	9.500
604.42	10.355
604.76	10.713
605.09	10.354
605.42	10.475
605.75	10.348
606.09	9.557
606.42	9.849
606.75	10.452
607.09	10.423
607.42	10.484
607.75	9.705
608.08	10.030
608.42	10.758
608.75	10.009
609.08	10.407
609.41	10.043
609.75	10.148
610.08	10.320
610.41	9.637
610.74	10.265
611.07	10.820
611.41	10.157
611.74	11.011
612.07	11.387
612.40	11.228
612.73	11.158
613.07	10.884
613.40	11.322
613.73	10.435
614.06	10.645
614.39	10.802
614.72	11.368
615.06	11.502
615.39	10.881
615.72	10.532
616.05	10.739
616.38	10.951
616.71	10.986
617.05	11.955
617.38	11.425
617.71	10.511
618.04	10.817
618.37	11.236
618.70	11.388
619.03	12.105
619.36	12.220
619.69	11.972
620.03	12.500
620.36	12.032
620.69	12.466
621.02	12.389
621.35	12.216
621.68	11.916
622.01	11.687
622.34	12.481
622.67	12.395
623.00	11.445
623.33	11.437
623.66	11.294
623.99	12.592
624.32	12.268
624.65	11.723
624.99	11.331
625.32	10.789
625.65	11.796
625.98	12.606
626.31	13.064
626.64	13.551
626.97	12.635
627.30	11.970
627.63	12.715
627.96	13.541
628.29	12.773
628.62	14.181
628.95	14.340
629.28	13.686
629.61	14.574
629.94	12.952
630.26	13.441
630.59	13.632
630.92	13.506
631.25	13.425
631.58	14.615
631.91	13.692
632.24	13.924
632.57	14.900
632.90	13.706
633.23	14.206
633.56	15.932
633.89	15.629
634.22	14.188
634.55	15.030
634.88	14.012
635.20	15.054
635.53	15.301
635.86	15.099
636.19	14.706
636.52	16.263
636.85	15.235
637.18	13.249
637.51	15.839
637.83	13.317
638.16	15.217
638.49	15.239
638.82	15.171
639.15	16.250
639.48	15.337
639.81	15.416
640.13	16.667
640.46	17.047
640.79	16.777
641.12	15.406
641.45	15.642
641.77	16.495
642.10	15.936
642.43	16.216
642.76	15.325
643.09	16.258
643.41	15.478
643.74	17.747
644.07	17.073
644.40	17.485
644.73	18.425
645.05	17.433
645.38	15.640
645.71	16.908
646.04	16.279
646.36	17.195
646.69	17.893
647.02	16.156
647.35	17.526
647.67	16.991
648.00	18.049
648.33	15.182
648.66	16.667
648.98	16.792
649.31	15.097
649.64	15.247
649.96	16.393
650.29	15.166
650.62	15.534
650.94	18.314
651.27	18.919
651.60	17.637
651.92	19.010
652.25	15.472
652.58	16.044
652.90	16.272
653.23	17.411
653.56	15.906
653.88	17.908
654.21	18.167
654.54	15.512
654.86	16.355
655.19	13.784
655.52	9.564
655.84	6.293
656.17	7.803
656.49	10.641
656.82	11.365
657.15	9.235
657.47	7.094
657.80	5.641
658.13	6.111
658.45	9.441
658.78	9.971
659.10	10.862
659.43	12.083
659.75	12.774
660.08	13.671
660.41	15.363
660.73	17.535
661.06	16.242
661.38	20.000
661.71	21.538
662.03	20.316
662.36	17.495
662.68	20.482
663.01	18.788
663.33	18.259
663.66	19.118
663.98	16.847
664.31	17.857
664.63	17.409
664.96	17.505
665.28	19.057
665.61	17.934
665.93	18.712
666.26	18.458
666.58	19.665
666.91	19.873
667.23	22.022
667.56	19.438
667.88	21.581
668.21	17.910
668.53	20.174
668.86	19.264
669.18	22.601
669.50	18.478
669.83	21.569
670.15	18.222
670.48	18.519
670.80	19.612
671.13	19.745
671.45	19.787
671.77	20.570
672.10	19.224
672.42	17.845
672.75	17.247
673.07	16.901
673.39	18.264
673.72	19.336
674.04	18.235
674.37	18.447
674.69	17.791
675.01	17.782
675.34	20.945
675.66	20.632
675.98	20.367
676.31	19.748
676.63	19.533
676.95	20.964
677.28	18.458
677.60	17.802
677.92	21.308
678.25	18.686
678.57	19.920
678.89	20.040
679.22	21.415
679.54	19.275
679.86	18.716
680.18	15.564
680.51	16.489
680.83	19.929
681.15	17.358
681.48	19.660
681.80	18.569
682.12	18.008
682.44	17.988
682.77	17.923
683.09	20.815
683.41	21.064
683.73	21.192
684.06	22.521
684.38	18.591
684.70	20.155
685.02	19.137
685.34	19.780
685.67	16.434
685.99	17.354
686.31	16.724
686.63	15.724
686.96	15.893
687.28	18.231
687.60	14.312
687.92	17.002
688.24	17.300
688.56	20.482
688.89	21.784
689.21	20.524
689.53	19.207
689.85	19.069
690.17	18.219
690.49	21.019
690.82	18.224
691.14	19.643
691.46	18.354
691.78	20.281
692.10	21.074
692.42	19.960
692.74	17.427
693.06	18.936
693.39	19.097
693.71	20.306
694.03	19.368
694.35	21.212
694.67	19.451
694.99	21.951
695.31	21.569
695.63	18.900
695.95	20.049
696.27	20.051
696.59	19.430
696.91	22.798
697.23	17.136
697.56	20.469
697.88	15.746
698.20	20.625
698.52	19.355
698.84	21.826
699.16	19.355
699.48	20.665
699.80	21.014
700.12	23.896
700.44	22.812
700.76	22.376
701.08	20.977
701.40	22.626
701.72	23.615
702.04	26.989
702.36	26.062
702.68	23.796
703.00	21.330
703.32	21.011
703.64	23.592
703.96	22.563
704.28	27.035
704.60	22.874
704.91	23.739
705.23	25.220
705.55	27.575
705.87	27.243
706.19	21.908
706.51	24.299
706.83	26.667
707.15	22.969
707.47	19.192
707.79	22.113
708.11	22.146
708.43	21.429
708.74	19.898
709.06	21.818
709.38	24.672
709.70	22.965
710.02	24.036
710.34	18.485
710.66	23.881
710.98	22.727
711.29	26.163
711.61	25.664
711.93	23.077
712.25	24.437
712.57	27.206
712.89	24.567
713.20	29.179
713.52	26.645
713.84	24.684
714.16	25.610
714.48	23.276
714.80	26.444
715.11	21.614
715.43	21.958
715.75	24.928
716.07	22.045
716.39	25.392
716.70	26.246
717.02	27.338
717.34	25.795
717.66	30.597
717.97	31.873
718.29	27.407
718.61	22.993
718.93	27.206
719.24	26.644
719.56	21.017
719.88	25.763
720.20	28.716
720.51	29.617
720.83	26.766
721.15	24.627
721.46	28.723
721.78	26.882
722.10	31.698
722.42	27.820
722.73	29.963
723.05	23.361
723.37	28.340
723.68	24.324
724.00	27.236
724.32	27.016
724.63	28.862
724.95	28.033
725.27	28.745
725.58	29.297
725.90	30.657
726.22	26.038
726.53	22.917
726.85	32.082
727.16	25.267
727.48	28.014
727.80	25.000
728.11	27.536
728.43	28.077
728.74	23.656
729.06	30.292
729.38	27.574
729.69	28.114
730.01	25.256
730.32	25.347
730.64	21.739
730.96	24.752
731.27	24.503
731.59	24.465
731.90	23.324
732.22	24.224
732.53	22.291
732.85	24.038
733.16	26.367
733.48	26.910
733.80	26.299
734.11	23.248
734.43	22.781
734.74	18.857
735.06	20.057
735.37	23.988
735.69	22.930
736.00	25.817
736.32	22.741
736.63	19.808
736.95	22.364
737.26	17.687
737.58	22.258
737.89	22.408
738.21	23.549
738.52	30.357
738.83	24.906
739.15	23.462
739.46	27.372
739.78	28.125
740.09	25.231
740.41	27.419
740.72	24.739
741.04	26.667
741.35	24.583
741.66	36.889
741.98	28.774
742.29	34.928
742.61	33.621
742.92	25.792
743.23	29.915
743.55	28.000
743.86	32.456
744.18	34.071
744.49	28.708
744.80	39.437
745.12	35.909
745.43	33.921
745.74	36.486
746.06	31.651
746.37	33.184
746.68	29.412
747.00	30.093
747.31	31.429
747.62	23.451
747.94	25.991
748.25	31.064
748.56	35.683
748.88	26.238
749.19	35.500
749.50	30.233
749.82	28.862
750.13	25.714
750.44	23.723
750.75	28.421
751.07	28.617
751.38	24.739
751.69	25.271
752.01	24.812
752.32	22.022
752.63	24.468
752.94	27.869
753.26	28.800
753.57	26.829
753.88	31.250
754.19	23.571
754.51	30.208
754.82	23.827
755.13	26.792
755.44	27.820
755.75	27.007
756.07	29.078
756.38	25.912
756.69	30.537
757.00	21.257
757.31	23.442
757.63	22.222
757.94	17.962
758.25	19.363
758.56	20.494
758.87	20.161
759.18	25.455
759.50	21.630
759.81	22.430
760.12	18.125
760.43	23.782
760.74	23.370
761.05	24.576
761.36	18.717
761.67	25.568
761.99	21.118
762.30	25.000
762.61	22.519
762.92	29.687
763.23	27.311
763.54	28.800
763.85	25.781
764.16	29.231
764.47	31.179
764.78	22.968
765.10	24.367
765.41	20.944
765.72	21.257
766.03	24.138
766.34	27.333
766.65	28.936
766.96	31.624
767.27	35.533
767.58	34.896
767.89	41.053
768.20	36.207
768.51	33.503
768.82	35.780
769.13	28.455
769.44	25.101
769.75	29.185
770.06	24.771
770.37	36.652
770.68	34.722
770.99	30.222
771.30	27.049
771.61	28.700
771.92	31.967
772.23	30.672
772.54	34.359
772.85	37.173
773.16	40.957
773.47	33.696
773.78	36.548
774.09	36.310
774.39	35.673
774.70	38.889
775.01	37.681
775.32	45.752
775.63	42.763
775.94	43.885
776.25	56.693
776.56	46.269
776.87	47.541
777.18	52.344
777.48	44.275
777.79	45.455
778.10	53.333
778.41	53.571
778.72	36.496
779.03	42.953
779.34	37.584
779.65	38.514
779.95	38.650
780.26	46.405
780.57	41.379
780.88	54.688
781.19	44.361
781.50	46.622
781.80	35.849
782.11	33.333
782.42	32.911
782.73	28.221
783.04	44.595
783.34	47.183
783.65	43.836
783.96	44.776
784.27	37.063
784.57	38.849
784.88	37.963
785.19	46.825
785.50	48.113
785.81	53.731
786.11	52.459
786.42	48.837
786.73	46.018
787.04	48.113
787.34	52.679
787.65	56.000
787.96	51.351
788.26	45.455
788.57	55.085
788.88	52.066
789.19	50.694
789.49	46.212
789.80	48.855
790.11	59.048
790.41	65.347
790.72	60.241
791.03	64.130
791.33	62.791
791.64	67.010
791.95	62.376
792.25	61.111
792.56	67.532
792.87	76.923
793.17	82.278
793.48	62.069
793.79	68.966
794.09	59.091
794.40	57.983
794.70	50.000
795.01	37.037
795.32	45.324
795.62	44.882
795.93	55.172
796.23	52.212
796.54	56.471
796.85	70.270
797.15	78.873
797.46	81.818
797.76	74.699
798.07	68.354
798.37	61.538
798.68	83.333
798.99	61.972
799.29	71.429
799.60	69.318
799.90	82.192
800.21	88.060
800.51	74.138
800.82	92.982
801.12	77.049
801.43	80.303
801.73	77.027
802.04	87.302
802.34	76.543
802.65	73.438
802.95	83.051
803.26	95.312
803.56	81.429
803.87	80.000
804.17	89.706
804.48	87.037
804.78	82.759
805.09	77.941
805.39	80.769
805.70	92.857
806.00	103.279
806.30	86.364
806.61	67.073
806.91	64.557
807.22	78.947
807.52	73.134
807.83	85.915
808.13	89.062
808.43	110.000
808.74	71.053
809.04	79.710
809.35	77.612
809.65	96.053
809.95	90.323
810.26	79.661
810.56	88.889
810.86	138.636
811.17	140.476
811.47	95.000
811.77	105.556
812.08	94.545
812.38	118.000
812.69	133.333
812.99	122.727
813.29	128.571
813.59	107.143
813.90	114.286
814.20	87.273
814.50	89.231
814.81	102.941
815.11	104.082
815.41	93.443
815.72	128.571
816.02	114.545
816.32	135.714
816.62	137.500
816.93	126.829
817.23	128.571
817.53	109.091
817.84	151.515
818.14	128.261
818.44	128.889
818.74	173.529
819.04	140.000
819.35	157.143
819.65	167.647
819.95	189.286
820.25	185.000
820.56	161.538
820.86	136.364
821.16	125.581
821.46	128.205
821.76	144.000
822.07	148.571
822.37	142.500
822.67	163.636
822.97	100.000
823.27	203.571
823.57	164.865
823.88	160.000
824.18	170.000
824.48	152.381
824.78	164.000
825.08	183.333
825.38	113.514
825.69	121.951
825.99	237.500
826.29	158.621
826.59	160.526
826.89	126.316
827.19	155.882
827.49	151.613
827.79	138.636
828.09	109.091
828.39	110.638
828.70	132.653
829.00	188.889
829.30	158.065
829.60	135.000
829.90	246.667
830.20	200.000
830.50	160.870
830.80	186.957
831.10	196.667
831.40	160.000
831.70	169.565
832.00	223.077
832.30	207.407
832.60	300.000
832.90	176.667
833.20	364.286
833.50	206.452
833.80	186.207
834.10	193.750
834.40	203.846
834.70	305.556
835.00	290.476
835.30	145.714
835.60	300.000
835.90	196.552
836.20	300.000
836.50	175.862
836.80	192.000
837.10	158.333
837.40	238.095
837.70	323.529
838.00	181.481
838.30	209.524
838.60	261.905
838.90	223.077
839.19	270.000
839.49	371.429
839.79	325.000
840.09	290.000
840.39	247.619
840.69	239.130
840.99	294.444
841.29	550.000
841.59	358.333
841.88	318.750
842.18	210.345
842.48	166.667
842.78	190.000
843.08	213.043
843.38	150.000
843.68	700.000
843.97	215.385
844.27	172.414
844.57	295.238
844.87	362.500
845.17	225.926
845.47	1600.000
845.76	566.667
846.06	317.647
846.36	562.500
846.66	350.000
846.96	287.500
847.25	418.182
847.55	427.273
847.85	243.478
848.15	580.000
848.44	350.000
848.74	283.333
849.04	323.529
849.34	540.000
849.63	268.421
849.93	372.727
850.23	1020.000
850.53	364.286
850.82	2300.000
851.12	-3900.000
851.42	4500.000
851.71	275.000
852.01	-1166.667
852.31	275.000
852.61	1566.667
852.90	247.619
853.20	196.000
853.50	270.588
853.79	252.381
854.09	229.167
854.39	268.750
854.68	162.162
854.98	193.548
855.28	153.333
855.57	220.690
855.87	203.704
856.17	252.632
856.46	260.000
856.76	323.529
857.05	162.069
857.35	220.833
857.65	320.000
857.94	221.739
858.24	226.923
858.53	305.000
858.83	245.455
859.13	346.667
859.42	0.000
859.72	466.667
860.01	454.545
860.31	213.636
860.60	263.158
860.90	195.652
861.20	611.111
861.49	516.667
861.79	-4100.000
862.08	612.500
862.38	242.857
862.67	346.154
862.97	341.176
863.26	511.111
863.56	277.778
863.85	475.000
864.15	550.000
864.44	320.000
864.74	733.333
865.03	537.500
865.33	242.105
865.62	445.455
865.92	346.154
866.21	366.667
866.51	0.000
866.80	427.273
867.10	1000.000
867.39	407.692
867.69	445.455
867.98	257.895
868.27	409.091
868.57	331.579
868.86	-4100.000
869.16	331.250
869.45	2150.000
869.75	-4100.000
870.04	375.000
870.33	814.286
870.63	1325.000
870.92	2550.000
871.22	671.429
871.51	329.412
871.80	238.095
872.10	400.000
>>>>>End Processed Spectral Data<<<<<
