SpectraSuite Data File
++++++++++++++++++++++++++++++++++++
Date: Wed May 13 19:32:17 PDT 2015
User: schluterlab
Dark Spectrum Present: Yes
Reference Spectrum Present: Yes
Number of Sampled Component Spectra: 1
Spectrometers: USB2E3373
Integration Time (usec): 3000 (USB2E3373)
Spectra Averaged: 3 (USB2E3373)
Boxcar Smoothing: 0 (USB2E3373)
Correct for Electrical Dark: No (USB2E3373)
Strobe/Lamp Enabled: No (USB2E3373)
Correct for Detector Non-linearity: No (USB2E3373)
Correct for Stray Light: No (USB2E3373)
Number of Pixels in Processed Spectrum: 2048
>>>>>Begin Processed Spectral Data<<<<<
178.53	0.000
178.91	-1300.000
179.29	-1675.000
179.67	-238.889
180.04	-1525.000
180.42	3000.000
180.80	1040.000
181.18	-900.000
181.56	728.571
181.94	0.000
182.31	-600.000
182.69	1933.333
183.07	-600.000
183.45	-611.111
183.83	545.455
184.20	-390.000
184.58	2300.000
184.96	5500.000
185.34	-840.000
185.72	-512.500
186.09	-2450.000
186.47	2950.000
186.85	2600.000
187.23	4900.000
187.61	-1500.000
187.98	1425.000
188.36	590.909
188.74	518.182
189.12	-1040.000
189.49	630.000
189.87	-4700.000
190.25	-1250.000
190.63	500.000
191.00	415.385
191.38	933.333
191.76	-1275.000
192.14	1575.000
192.51	712.500
192.89	966.667
193.27	537.500
193.65	-1275.000
194.02	500.000
194.40	900.000
194.78	610.000
195.15	450.000
195.53	690.000
195.91	-2900.000
196.29	350.000
196.66	368.421
197.04	-480.000
197.42	0.000
197.79	680.000
198.17	-4200.000
198.55	942.857
198.92	712.500
199.30	980.000
199.68	0.000
200.05	355.556
200.43	757.143
200.81	5200.000
201.18	1866.667
201.56	-1700.000
201.94	500.000
202.31	644.444
202.69	408.333
203.07	530.000
203.44	0.000
203.82	1275.000
204.19	871.429
204.57	392.857
204.95	675.000
205.32	1666.667
205.70	527.273
206.08	428.571
206.45	3300.000
206.83	287.500
207.20	1033.333
207.58	820.000
207.96	355.556
208.33	700.000
208.71	-950.000
209.08	785.714
209.46	622.222
209.84	472.727
210.21	-1833.333
210.59	1475.000
210.96	-625.000
211.34	2700.000
211.71	630.000
212.09	850.000
212.46	0.000
212.84	1833.333
213.22	1225.000
213.59	-4100.000
213.97	700.000
214.34	871.429
214.72	590.909
215.09	980.000
215.47	-1950.000
215.84	-2850.000
216.22	1733.333
216.59	342.857
216.97	1475.000
217.34	463.636
217.72	-783.333
218.09	0.000
218.47	-5100.000
218.84	711.111
219.22	671.429
219.59	1833.333
219.97	-514.286
220.34	1060.000
220.72	-1933.333
221.09	464.286
221.47	1450.000
221.84	-1100.000
222.22	0.000
222.59	1425.000
222.97	-2750.000
223.34	1160.000
223.72	407.692
224.09	1100.000
224.46	2200.000
224.84	-5200.000
225.21	-1100.000
225.59	-5400.000
225.96	640.000
226.34	340.000
226.71	2750.000
227.08	700.000
227.46	570.000
227.83	-1000.000
228.21	-2400.000
228.58	533.333
228.95	-2600.000
229.33	-2150.000
229.70	1966.667
230.08	728.571
230.45	-720.000
230.82	466.667
231.20	800.000
231.57	757.143
231.95	491.667
232.32	263.636
232.69	381.818
233.07	728.571
233.44	338.462
233.81	-1633.333
234.19	294.737
234.56	408.333
234.93	391.667
235.31	463.636
235.68	230.769
236.05	350.000
236.43	145.455
236.80	252.632
237.17	4000.000
237.55	242.857
237.92	200.000
238.29	228.571
238.67	174.194
239.04	196.552
239.41	172.222
239.79	136.957
240.16	130.952
240.53	111.364
240.91	100.000
241.28	104.000
241.65	100.000
242.02	88.406
242.40	69.355
242.77	68.333
243.14	73.118
243.51	69.663
243.89	71.765
244.26	64.444
244.63	52.688
245.00	52.128
245.38	56.436
245.75	46.729
246.12	44.954
246.49	55.474
246.87	61.600
247.24	53.846
247.61	42.857
247.98	42.484
248.36	31.757
248.73	33.758
249.10	36.306
249.47	33.333
249.84	40.642
250.22	36.364
250.59	35.503
250.96	38.384
251.33	33.175
251.70	33.168
252.08	34.762
252.45	29.596
252.82	26.957
253.19	28.936
253.56	32.157
253.94	28.631
254.31	30.469
254.68	26.923
255.05	24.723
255.42	28.862
255.79	22.059
256.16	25.632
256.54	27.208
256.91	24.199
257.28	18.705
257.65	23.102
258.02	25.776
258.39	23.344
258.76	19.064
259.14	20.536
259.51	20.061
259.88	17.391
260.25	20.544
260.62	22.832
260.99	21.118
261.36	19.520
261.73	18.911
262.10	15.116
262.47	19.155
262.85	16.992
263.22	18.234
263.59	20.228
263.96	18.681
264.33	19.321
264.70	17.632
265.07	20.205
265.44	17.424
265.81	14.355
266.18	18.844
266.55	16.829
266.92	17.199
267.29	17.824
267.66	15.138
268.03	16.136
268.40	14.720
268.77	13.604
269.14	16.216
269.51	15.801
269.88	18.182
270.25	17.607
270.62	13.933
270.99	20.000
271.36	16.094
271.73	14.019
272.10	15.870
272.47	17.849
272.84	14.935
273.21	18.449
273.58	15.284
273.95	14.675
274.32	13.430
274.69	14.989
275.06	14.370
275.43	14.255
275.80	13.828
276.17	13.238
276.54	15.177
276.91	13.834
277.28	15.625
277.65	14.894
278.02	15.528
278.39	15.430
278.76	14.000
279.13	12.642
279.50	15.084
279.87	16.135
280.23	13.972
280.60	13.540
280.97	15.342
281.34	14.159
281.71	12.000
282.08	12.668
282.45	13.455
282.82	12.789
283.19	12.478
283.56	13.684
283.92	15.059
284.29	11.993
284.66	12.704
285.03	11.935
285.40	11.796
285.77	14.310
286.14	12.608
286.51	13.000
286.87	13.162
287.24	13.844
287.61	13.323
287.98	13.961
288.35	12.995
288.72	12.461
289.08	13.615
289.45	11.038
289.82	14.146
290.19	13.187
290.56	12.098
290.93	11.782
291.29	11.656
291.66	14.159
292.03	15.262
292.40	16.300
292.77	12.278
293.13	11.343
293.50	13.703
293.87	13.630
294.24	12.444
294.60	11.790
294.97	13.953
295.34	13.822
295.71	13.068
296.08	10.969
296.44	12.655
296.81	13.606
297.18	14.499
297.55	10.818
297.91	12.137
298.28	12.450
298.65	13.446
299.02	12.121
299.38	12.616
299.75	11.590
300.12	12.261
300.48	13.125
300.85	12.700
301.22	12.484
301.59	12.121
301.95	12.217
302.32	11.810
302.69	13.381
303.05	11.394
303.42	11.852
303.79	12.458
304.15	11.655
304.52	13.673
304.89	12.079
305.25	11.949
305.62	13.137
305.99	14.050
306.35	12.864
306.72	12.780
307.09	14.206
307.45	14.640
307.82	11.496
308.19	13.024
308.55	13.916
308.92	12.889
309.29	11.932
309.65	12.619
310.02	12.896
310.38	14.409
310.75	13.728
311.12	14.330
311.48	13.793
311.85	14.885
312.22	13.840
312.58	13.929
312.95	14.678
313.31	14.951
313.68	13.721
314.05	15.483
314.41	15.176
314.78	14.300
315.14	14.101
315.51	15.448
315.87	16.040
316.24	15.591
316.61	14.815
316.97	14.873
317.34	15.851
317.70	15.105
318.07	15.688
318.43	15.851
318.80	16.307
319.16	16.478
319.53	15.572
319.89	16.571
320.26	17.200
320.62	17.560
320.99	17.778
321.35	16.061
321.72	16.735
322.08	17.374
322.45	17.811
322.81	17.829
323.18	18.979
323.54	18.646
323.91	18.491
324.27	17.878
324.64	17.894
325.00	18.215
325.37	18.835
325.73	19.659
326.10	19.771
326.46	17.921
326.83	19.758
327.19	18.531
327.56	19.686
327.92	19.948
328.29	19.343
328.65	20.074
329.01	19.224
329.38	20.074
329.74	19.668
330.11	19.133
330.47	19.284
330.84	19.945
331.20	20.583
331.56	20.550
331.93	19.722
332.29	19.077
332.66	20.354
333.02	19.378
333.38	20.145
333.75	20.499
334.11	20.196
334.48	18.722
334.84	19.669
335.20	19.909
335.57	19.764
335.93	17.946
336.29	19.139
336.66	19.567
337.02	18.552
337.38	19.167
337.75	18.895
338.11	19.248
338.47	20.166
338.84	19.432
339.20	18.532
339.56	19.708
339.93	19.545
340.29	19.565
340.65	18.806
341.02	20.244
341.38	19.484
341.74	19.912
342.11	19.301
342.47	19.648
342.83	17.723
343.20	20.087
343.56	18.281
343.92	19.386
344.28	19.133
344.65	18.143
345.01	19.108
345.37	18.525
345.73	18.190
346.10	19.523
346.46	19.407
346.82	19.193
347.19	18.797
347.55	18.966
347.91	19.822
348.27	19.474
348.63	18.813
349.00	17.718
349.36	18.719
349.72	18.685
350.08	19.044
350.45	19.528
350.81	18.603
351.17	18.963
351.53	18.346
351.89	18.977
352.26	19.653
352.62	20.369
352.98	19.854
353.34	19.145
353.70	18.822
354.07	18.790
354.43	18.016
354.79	18.504
355.15	18.755
355.51	20.064
355.87	18.531
356.24	19.544
356.60	18.605
356.96	19.147
357.32	18.888
357.68	20.472
358.04	18.765
358.40	19.161
358.77	19.562
359.13	18.153
359.49	19.843
359.85	18.254
360.21	18.979
360.57	20.000
360.93	18.538
361.29	19.123
361.66	18.653
362.02	18.955
362.38	19.696
362.74	18.824
363.10	18.431
363.46	17.828
363.82	19.501
364.18	19.824
364.54	20.951
364.90	19.972
365.26	19.044
365.62	19.722
365.98	19.065
366.35	18.840
366.71	19.089
367.07	18.937
367.43	20.029
367.79	19.700
368.15	20.761
368.51	19.113
368.87	19.343
369.23	19.678
369.59	20.854
369.95	19.926
370.31	19.943
370.67	20.000
371.03	20.599
371.39	19.606
371.75	19.412
372.11	19.417
372.47	20.821
372.83	20.965
373.19	19.436
373.55	21.212
373.91	22.018
374.27	20.344
374.63	20.582
374.99	20.763
375.35	18.981
375.71	20.356
376.07	20.576
376.42	20.495
376.78	19.814
377.14	20.217
377.50	21.722
377.86	20.346
378.22	20.986
378.58	19.424
378.94	20.302
379.30	21.247
379.66	21.320
380.02	21.622
380.38	20.704
380.74	20.348
381.09	20.416
381.45	21.758
381.81	21.069
382.17	20.701
382.53	20.629
382.89	21.049
383.25	20.575
383.61	20.632
383.97	21.076
384.32	21.522
384.68	21.499
385.04	20.774
385.40	20.619
385.76	21.192
386.12	21.956
386.48	21.208
386.83	21.167
387.19	22.449
387.55	21.707
387.91	21.161
388.27	21.091
388.62	22.250
388.98	20.639
389.34	22.028
389.70	21.337
390.06	21.800
390.42	21.855
390.77	22.455
391.13	21.825
391.49	22.335
391.85	22.724
392.20	19.811
392.56	21.275
392.92	21.483
393.28	21.124
393.64	21.882
393.99	22.724
394.35	21.526
394.71	22.459
395.07	20.685
395.42	21.632
395.78	22.392
396.14	21.229
396.50	23.434
396.85	22.632
397.21	21.887
397.57	21.761
397.92	21.454
398.28	21.357
398.64	21.924
399.00	21.600
399.35	21.038
399.71	21.933
400.07	21.762
400.42	22.270
400.78	22.497
401.14	21.890
401.49	22.090
401.85	20.932
402.21	21.018
402.57	21.345
402.92	21.753
403.28	22.611
403.63	21.658
403.99	21.911
404.35	21.818
404.70	21.643
405.06	21.083
405.42	21.772
405.77	21.486
406.13	21.501
406.49	21.762
406.84	21.796
407.20	20.626
407.55	22.017
407.91	22.467
408.27	21.761
408.62	21.011
408.98	21.262
409.34	21.956
409.69	21.097
410.05	21.933
410.40	22.018
410.76	21.087
411.11	22.376
411.47	22.109
411.83	22.419
412.18	21.583
412.54	21.108
412.89	21.566
413.25	20.661
413.60	22.236
413.96	21.311
414.31	21.385
414.67	21.800
415.03	21.854
415.38	22.165
415.74	21.222
416.09	21.424
416.45	21.954
416.80	22.472
417.16	22.252
417.51	21.898
417.87	21.644
418.22	22.397
418.58	21.498
418.93	22.236
419.29	22.406
419.64	21.537
420.00	21.524
420.35	22.319
420.71	22.295
421.06	21.539
421.42	22.105
421.77	21.637
422.12	20.775
422.48	21.263
422.83	22.539
423.19	22.155
423.54	20.604
423.90	21.681
424.25	22.278
424.61	21.786
424.96	21.691
425.31	21.152
425.67	21.404
426.02	21.143
426.38	23.077
426.73	20.655
427.09	21.459
427.44	21.392
427.79	21.622
428.15	21.845
428.50	21.533
428.85	22.706
429.21	20.983
429.56	21.514
429.92	22.194
430.27	21.152
430.62	20.635
430.98	22.263
431.33	21.495
431.68	21.571
432.04	21.619
432.39	21.873
432.74	21.604
433.10	22.128
433.45	21.749
433.80	21.619
434.16	21.902
434.51	21.053
434.86	21.779
435.22	21.456
435.57	22.371
435.92	21.943
436.28	22.064
436.63	22.241
436.98	21.294
437.34	22.123
437.69	21.762
438.04	21.922
438.39	21.254
438.75	22.429
439.10	21.061
439.45	21.960
439.81	23.142
440.16	21.174
440.51	21.968
440.86	21.482
441.22	20.968
441.57	21.975
441.92	21.494
442.27	21.421
442.63	21.538
442.98	22.197
443.33	21.087
443.68	21.838
444.03	21.620
444.39	20.983
444.74	21.537
445.09	21.671
445.44	22.253
445.79	21.128
446.15	21.175
446.50	20.302
446.85	21.223
447.20	20.959
447.55	21.385
447.91	21.842
448.26	21.870
448.61	21.425
448.96	21.429
449.31	21.991
449.66	21.666
450.02	20.836
450.37	21.599
450.72	21.263
451.07	21.146
451.42	21.824
451.77	22.548
452.12	21.132
452.47	21.517
452.83	21.503
453.18	21.149
453.53	21.892
453.88	20.378
454.23	20.741
454.58	20.654
454.93	21.488
455.28	21.259
455.63	21.056
455.98	22.143
456.34	21.482
456.69	21.290
457.04	21.424
457.39	21.040
457.74	20.488
458.09	20.932
458.44	20.924
458.79	19.685
459.14	21.163
459.49	21.308
459.84	20.388
460.19	19.800
460.54	20.775
460.89	20.406
461.24	21.129
461.59	21.325
461.94	20.777
462.29	21.543
462.64	20.740
462.99	20.950
463.34	21.000
463.69	21.201
464.04	20.638
464.39	20.870
464.74	19.667
465.09	20.084
465.44	20.277
465.79	19.966
466.14	19.814
466.49	19.689
466.84	20.198
467.19	19.734
467.54	20.625
467.89	20.288
468.24	20.593
468.59	21.001
468.94	19.853
469.29	20.501
469.64	20.683
469.99	20.907
470.34	20.740
470.68	20.761
471.03	20.000
471.38	20.778
471.73	19.920
472.08	20.395
472.43	19.975
472.78	19.882
473.13	19.961
473.48	21.099
473.83	19.451
474.17	19.477
474.52	19.975
474.87	19.848
475.22	19.675
475.57	19.022
475.92	19.543
476.27	19.335
476.61	19.470
476.96	18.417
477.31	19.152
477.66	19.530
478.01	18.923
478.36	19.355
478.70	18.795
479.05	19.329
479.40	18.680
479.75	18.607
480.10	19.135
480.45	18.515
480.79	18.299
481.14	18.591
481.49	17.845
481.84	17.970
482.19	18.174
482.53	18.211
482.88	18.660
483.23	17.710
483.58	18.380
483.92	18.744
484.27	17.560
484.62	17.457
484.97	17.383
485.31	17.089
485.66	16.445
486.01	15.733
486.36	15.340
486.70	15.282
487.05	15.787
487.40	16.062
487.75	16.457
488.09	16.439
488.44	16.978
488.79	17.251
489.13	17.112
489.48	16.803
489.83	16.918
490.17	17.010
490.52	17.582
490.87	16.644
491.22	16.508
491.56	16.401
491.91	16.985
492.26	16.307
492.60	17.143
492.95	16.604
493.30	16.449
493.64	16.519
493.99	17.177
494.34	16.651
494.68	17.033
495.03	16.259
495.37	16.473
495.72	16.764
496.07	17.262
496.41	16.549
496.76	16.535
497.11	16.749
497.45	16.302
497.80	15.931
498.14	15.797
498.49	16.634
498.84	16.107
499.18	15.952
499.53	15.907
499.87	16.170
500.22	16.015
500.56	16.311
500.91	16.010
501.26	16.074
501.60	16.327
501.95	15.857
502.29	16.261
502.64	16.015
502.98	15.615
503.33	15.311
503.67	15.638
504.02	15.435
504.36	16.425
504.71	15.730
505.06	16.096
505.40	15.800
505.75	15.718
506.09	15.598
506.44	15.738
506.78	16.366
507.13	16.204
507.47	15.303
507.82	16.363
508.16	15.552
508.51	15.424
508.85	15.094
509.19	14.898
509.54	15.816
509.88	15.920
510.23	15.733
510.57	16.047
510.92	15.640
511.26	15.982
511.61	15.612
511.95	14.927
512.30	15.111
512.64	15.959
512.98	15.648
513.33	16.221
513.67	15.261
514.02	15.043
514.36	15.074
514.70	14.942
515.05	15.282
515.39	15.816
515.74	15.878
516.08	16.098
516.42	15.705
516.77	15.663
517.11	14.706
517.46	16.253
517.80	15.563
518.14	14.708
518.49	15.461
518.83	15.568
519.17	15.647
519.52	15.789
519.86	14.775
520.20	15.723
520.55	15.380
520.89	15.024
521.23	15.682
521.58	15.006
521.92	16.228
522.26	14.826
522.61	15.576
522.95	15.470
523.29	15.277
523.64	15.732
523.98	16.081
524.32	14.596
524.66	15.093
525.01	15.502
525.35	14.994
525.69	15.025
526.04	15.888
526.38	14.826
526.72	15.031
527.06	15.191
527.41	13.614
527.75	15.563
528.09	14.965
528.43	15.551
528.78	14.628
529.12	15.152
529.46	15.370
529.80	14.851
530.15	15.763
530.49	14.831
530.83	15.443
531.17	16.188
531.51	15.953
531.86	14.710
532.20	14.798
532.54	16.208
532.88	14.763
533.22	14.866
533.57	15.185
533.91	14.570
534.25	14.277
534.59	14.399
534.93	15.526
535.27	14.424
535.62	14.835
535.96	15.066
536.30	14.177
536.64	15.583
536.98	15.328
537.32	14.549
537.66	14.667
538.01	14.681
538.35	15.320
538.69	15.571
539.03	14.035
539.37	13.930
539.71	13.027
540.05	13.987
540.39	14.352
540.73	13.713
541.07	14.666
541.42	14.808
541.76	15.226
542.10	14.618
542.44	13.709
542.78	14.888
543.12	13.500
543.46	14.295
543.80	14.314
544.14	12.837
544.48	13.651
544.82	14.047
545.16	14.379
545.50	13.946
545.84	13.642
546.18	14.209
546.52	13.696
546.86	13.127
547.20	14.295
547.54	14.429
547.88	14.541
548.22	13.761
548.56	14.277
548.90	13.892
549.24	13.266
549.58	14.529
549.92	14.560
550.26	14.134
550.60	14.454
550.94	14.366
551.28	13.460
551.62	13.875
551.96	13.965
552.30	14.608
552.64	13.928
552.98	14.034
553.32	13.891
553.66	15.610
554.00	14.207
554.34	12.974
554.68	14.235
555.02	14.175
555.36	13.779
555.69	12.449
556.03	13.392
556.37	13.302
556.71	13.097
557.05	13.725
557.39	13.996
557.73	13.761
558.07	12.980
558.41	12.808
558.75	14.034
559.08	14.541
559.42	13.379
559.76	13.382
560.10	12.348
560.44	13.557
560.78	13.107
561.12	13.522
561.45	13.233
561.79	12.327
562.13	12.609
562.47	13.046
562.81	13.180
563.15	13.244
563.48	12.931
563.82	13.177
564.16	12.884
564.50	12.044
564.84	12.579
565.17	12.870
565.51	12.843
565.85	12.563
566.19	11.709
566.52	12.856
566.86	12.176
567.20	12.500
567.54	12.728
567.88	11.950
568.21	13.016
568.55	11.628
568.89	11.673
569.23	11.364
569.56	10.688
569.90	10.943
570.24	10.764
570.57	10.235
570.91	10.860
571.25	9.852
571.59	10.574
571.92	10.167
572.26	10.341
572.60	10.090
572.93	10.165
573.27	10.115
573.61	10.274
573.95	10.181
574.28	9.749
574.62	9.645
574.96	9.534
575.29	9.578
575.63	10.010
575.97	9.789
576.30	9.772
576.64	9.275
576.98	9.796
577.31	9.797
577.65	9.425
577.98	9.288
578.32	9.095
578.66	9.727
578.99	9.541
579.33	9.417
579.67	9.219
580.00	9.470
580.34	9.421
580.67	9.525
581.01	9.714
581.35	9.184
581.68	9.150
582.02	9.148
582.35	9.222
582.69	9.058
583.02	9.186
583.36	9.684
583.70	9.466
584.03	9.352
584.37	9.829
584.70	9.457
585.04	9.565
585.37	9.553
585.71	9.633
586.04	9.133
586.38	9.457
586.72	9.749
587.05	9.291
587.39	9.050
587.72	9.559
588.06	9.418
588.39	10.014
588.73	9.534
589.06	10.003
589.40	9.562
589.73	9.504
590.07	10.107
590.40	9.828
590.73	10.500
591.07	10.745
591.40	10.038
591.74	10.909
592.07	10.253
592.41	10.376
592.74	9.850
593.08	9.993
593.41	9.427
593.75	9.463
594.08	9.621
594.41	9.579
594.75	9.427
595.08	9.699
595.42	9.982
595.75	9.366
596.09	9.914
596.42	11.081
596.75	9.751
597.09	10.866
597.42	10.497
597.75	9.832
598.09	10.261
598.42	9.880
598.76	9.809
599.09	9.730
599.42	9.389
599.76	9.553
600.09	9.435
600.42	9.642
600.76	9.429
601.09	9.872
601.42	9.513
601.76	10.171
602.09	9.842
602.42	9.992
602.76	10.117
603.09	9.913
603.42	10.269
603.76	8.841
604.09	9.267
604.42	10.192
604.76	10.375
605.09	10.354
605.42	10.475
605.75	9.561
606.09	9.435
606.42	9.644
606.75	9.996
607.09	10.088
607.42	10.013
607.75	9.620
608.08	9.683
608.42	10.220
608.75	9.784
609.08	9.528
609.41	9.900
609.75	10.148
610.08	10.226
610.41	10.009
610.74	9.272
611.07	9.437
611.41	10.010
611.74	10.508
612.07	10.145
612.40	10.388
612.73	10.526
613.07	11.476
613.40	10.005
613.73	9.439
614.06	10.161
614.39	10.278
614.72	10.053
615.06	10.767
615.39	9.554
615.72	10.123
616.05	9.729
616.38	10.506
616.71	10.629
617.05	11.249
617.38	9.862
617.71	10.871
618.04	11.118
618.37	10.526
618.70	11.699
619.03	11.250
619.36	10.183
619.69	11.338
620.03	11.264
620.36	11.230
620.69	11.986
621.02	11.357
621.35	10.885
621.68	11.760
622.01	10.913
622.34	11.422
622.67	10.875
623.00	10.638
623.33	11.222
623.66	10.508
623.99	10.530
624.32	11.341
624.65	10.169
624.99	10.765
625.32	10.717
625.65	10.894
625.98	10.992
626.31	12.364
626.64	12.327
626.97	10.308
627.30	10.474
627.63	11.977
627.96	11.690
628.29	12.336
628.62	13.175
628.95	13.396
629.28	12.682
629.61	13.199
629.94	11.714
630.26	12.107
630.59	11.344
630.92	11.686
631.25	11.155
631.58	12.012
631.91	12.272
632.24	12.869
632.57	13.012
632.90	13.158
633.23	12.640
633.56	14.237
633.89	13.703
634.22	14.302
634.55	14.201
634.88	12.695
635.20	13.740
635.53	13.373
635.86	12.995
636.19	14.000
636.52	13.149
636.85	14.089
637.18	13.825
637.51	14.775
637.83	12.454
638.16	14.450
638.49	13.476
638.82	15.550
639.15	14.250
639.48	14.838
639.81	12.735
640.13	14.844
640.46	15.034
640.79	14.135
641.12	13.893
641.45	14.804
641.77	15.022
642.10	14.912
642.43	13.664
642.76	13.158
643.09	15.951
643.41	14.719
643.74	15.741
644.07	15.091
644.40	16.871
644.73	16.850
645.05	17.750
645.38	15.008
645.71	17.069
646.04	17.110
646.36	17.529
646.69	17.391
647.02	16.327
647.35	15.636
647.67	15.929
648.00	14.797
648.33	15.017
648.66	15.606
648.98	16.792
649.31	13.602
649.64	14.948
649.96	14.605
650.29	15.482
650.62	14.725
650.94	17.666
651.27	17.736
651.60	15.641
651.92	16.134
652.25	13.355
652.58	14.642
652.90	16.114
653.23	13.713
653.56	14.016
653.88	14.897
654.21	17.220
654.54	15.842
654.86	16.511
655.19	13.784
655.52	8.069
655.84	5.777
656.17	7.438
656.49	9.767
656.82	10.397
657.15	8.048
657.47	5.923
657.80	4.657
658.13	5.001
658.45	7.390
658.78	7.160
659.10	8.404
659.43	8.543
659.75	9.781
660.08	10.696
660.41	12.291
660.73	14.612
661.06	14.013
661.38	17.455
661.71	17.885
662.03	19.132
662.36	15.507
662.68	19.880
663.01	18.990
663.33	16.985
663.66	17.647
663.98	16.847
664.31	16.597
664.63	15.587
664.96	15.493
665.28	18.238
665.61	15.595
665.93	14.889
666.26	18.458
666.58	18.410
666.91	17.336
667.23	17.978
667.56	15.983
667.88	18.162
668.21	18.763
668.53	17.570
668.86	14.935
669.18	19.403
669.50	15.870
669.83	19.390
670.15	18.667
670.48	18.301
670.80	17.241
671.13	18.471
671.45	17.447
671.77	17.719
672.10	17.560
672.42	16.784
672.75	14.096
673.07	15.141
673.39	14.286
673.72	16.406
674.04	14.902
674.37	15.922
674.69	13.292
675.01	16.736
675.34	20.123
675.66	22.105
675.98	18.941
676.31	18.908
676.63	19.533
676.95	19.706
677.28	17.757
677.60	17.802
677.92	19.831
678.25	19.097
678.57	16.932
678.89	16.633
679.22	14.735
679.54	16.031
679.86	15.596
680.18	15.921
680.51	14.894
680.83	17.260
681.15	19.057
681.48	18.147
681.80	16.828
682.12	17.816
682.44	14.507
682.77	16.497
683.09	18.455
683.41	19.069
683.73	16.998
684.06	17.562
684.38	16.830
684.70	17.829
685.02	15.572
685.34	15.201
685.67	15.909
685.99	13.230
686.31	14.334
686.63	13.958
686.96	16.964
687.28	15.523
687.60	15.580
687.92	16.088
688.24	16.540
688.56	17.470
688.89	17.220
689.21	18.122
689.53	18.372
689.85	19.290
690.17	16.149
690.49	17.834
690.82	18.224
691.14	15.625
691.46	14.768
691.78	17.269
692.10	17.355
692.42	16.966
692.74	18.672
693.06	17.660
693.39	18.480
693.71	17.904
694.03	18.316
694.35	18.831
694.67	15.103
694.99	19.512
695.31	20.343
695.63	19.139
695.95	18.582
696.27	15.228
696.59	17.098
696.91	20.466
697.23	15.023
697.56	17.058
697.88	15.133
698.20	18.333
698.52	17.419
698.84	18.708
699.16	14.977
699.48	18.527
699.80	17.391
700.12	21.558
700.44	19.894
700.76	20.166
701.08	20.115
701.40	19.832
701.72	19.825
702.04	24.148
702.36	15.864
702.68	21.246
703.00	21.330
703.32	16.489
703.64	21.180
703.96	19.499
704.28	18.314
704.60	21.701
704.91	23.145
705.23	21.994
705.55	25.914
705.87	26.910
706.19	23.675
706.51	20.872
706.83	23.333
707.15	21.849
707.47	17.929
707.79	18.182
708.11	18.950
708.43	20.000
708.74	17.092
709.06	20.260
709.38	20.735
709.70	25.581
710.02	23.739
710.34	20.909
710.66	26.567
710.98	24.148
711.29	18.895
711.61	23.894
711.93	18.910
712.25	23.473
712.57	19.118
712.89	21.107
713.20	27.356
713.52	23.355
713.84	21.203
714.16	24.695
714.48	21.839
714.80	27.660
715.11	19.885
715.43	22.849
715.75	19.130
716.07	23.003
716.39	26.019
716.70	26.246
717.02	24.820
717.34	25.795
717.66	29.851
717.97	30.279
718.29	26.296
718.61	23.723
718.93	25.368
719.24	26.990
719.56	25.085
719.88	22.034
720.20	22.973
720.51	24.390
720.83	23.048
721.15	22.761
721.46	23.759
721.78	24.014
722.10	29.434
722.42	27.820
722.73	28.839
723.05	25.000
723.37	24.291
723.68	29.730
724.00	23.577
724.32	25.000
724.63	22.764
724.95	25.523
725.27	24.696
725.58	26.562
725.90	27.007
726.22	23.019
726.53	23.611
726.85	24.232
727.16	27.046
727.48	20.922
727.80	27.652
728.11	23.913
728.43	23.462
728.74	22.939
729.06	30.292
729.38	26.103
729.69	28.826
730.01	20.478
730.32	22.569
730.64	26.756
730.96	20.792
731.27	26.821
731.59	29.052
731.90	22.157
732.22	16.770
732.53	22.910
732.85	21.474
733.16	23.151
733.48	22.259
733.80	22.078
734.11	25.478
734.43	22.781
734.74	19.429
735.06	19.198
735.37	27.457
735.69	22.611
736.00	24.183
736.32	26.168
736.63	23.003
736.95	23.962
737.26	15.986
737.58	23.226
737.89	23.746
738.21	25.939
738.52	26.071
738.83	24.151
739.15	22.692
739.46	22.993
739.78	23.611
740.09	22.769
740.41	23.548
740.72	21.951
741.04	22.963
741.35	24.167
741.66	33.778
741.98	24.528
742.29	33.971
742.61	33.190
742.92	33.937
743.23	32.051
743.55	26.800
743.86	30.263
744.18	32.743
744.49	32.536
744.80	33.803
745.12	30.000
745.43	28.194
745.74	33.333
746.06	27.982
746.37	31.839
746.68	30.317
747.00	29.167
747.31	28.571
747.62	23.894
747.94	28.194
748.25	22.979
748.56	33.040
748.88	30.693
749.19	31.000
749.50	28.372
749.82	26.423
750.13	27.755
750.44	24.818
750.75	23.509
751.07	26.367
751.38	25.436
751.69	24.188
752.01	27.444
752.32	22.383
752.63	26.596
752.94	25.820
753.26	27.200
753.57	24.390
753.88	27.734
754.19	23.929
754.51	25.347
754.82	26.354
755.13	22.642
755.44	25.940
755.75	21.168
756.07	20.922
756.38	23.723
756.69	20.470
757.00	21.557
757.31	21.958
757.63	22.807
757.94	23.056
758.25	18.382
758.56	15.802
758.87	16.667
759.18	21.818
759.50	22.257
759.81	22.741
760.12	17.812
760.43	20.057
760.74	18.207
761.05	23.729
761.36	17.112
761.67	21.875
761.99	20.807
762.30	25.347
762.61	26.718
762.92	26.953
763.23	24.790
763.54	31.600
763.85	26.953
764.16	30.769
764.47	29.278
764.78	22.615
765.10	22.468
765.41	19.469
765.72	20.359
766.03	25.078
766.34	25.000
766.65	27.660
766.96	26.923
767.27	31.980
767.58	35.938
767.89	38.421
768.20	32.184
768.51	32.995
768.82	27.982
769.13	25.203
769.44	25.506
769.75	26.609
770.06	25.688
770.37	33.484
770.68	27.315
770.99	24.000
771.30	25.000
771.61	30.045
771.92	26.230
772.23	27.731
772.54	31.795
772.85	31.937
773.16	42.021
773.47	33.152
773.78	35.025
774.09	37.500
774.39	37.427
774.70	38.272
775.01	48.551
775.32	43.791
775.63	40.132
775.94	43.165
776.25	41.732
776.56	54.478
776.87	46.721
777.18	47.656
777.48	52.672
777.79	49.242
778.10	53.333
778.41	45.536
778.72	43.796
779.03	45.638
779.34	35.570
779.65	35.135
779.95	34.356
780.26	43.791
780.57	43.448
780.88	54.688
781.19	42.857
781.50	45.946
781.80	36.478
782.11	34.463
782.42	34.810
782.73	33.742
783.04	43.243
783.34	40.141
783.65	48.630
783.96	40.299
784.27	38.462
784.57	35.971
784.88	47.222
785.19	50.794
785.50	56.604
785.81	55.224
786.11	51.639
786.42	48.837
786.73	49.558
787.04	59.434
787.34	46.429
787.65	45.000
787.96	45.946
788.26	57.025
788.57	42.373
788.88	59.504
789.19	43.056
789.49	50.000
789.80	44.275
790.11	61.905
790.41	60.396
790.72	55.422
791.03	60.870
791.33	55.814
791.64	70.103
791.95	59.406
792.25	64.444
792.56	67.532
792.87	79.487
793.17	96.203
793.48	71.264
793.79	68.966
794.09	54.545
794.40	50.420
794.70	57.353
795.01	48.148
795.32	42.446
795.62	55.118
795.93	54.310
796.23	51.327
796.54	65.882
796.85	70.270
797.15	88.732
797.46	72.727
797.76	73.494
798.07	73.418
798.37	72.308
798.68	78.788
798.99	69.014
799.29	84.416
799.60	67.045
799.90	86.301
800.21	86.567
800.51	98.276
800.82	96.491
801.12	86.885
801.43	75.758
801.73	72.973
802.04	87.302
802.34	83.951
802.65	96.875
802.95	94.915
803.26	110.938
803.56	77.143
803.87	83.077
804.17	100.000
804.48	133.333
804.78	86.207
805.09	89.706
805.39	80.769
805.70	112.500
806.00	96.721
806.30	83.333
806.61	67.073
806.91	72.152
807.22	69.737
807.52	62.687
807.83	78.873
808.13	89.062
808.43	105.000
808.74	68.421
809.04	85.507
809.35	92.537
809.65	80.263
809.95	98.387
810.26	91.525
810.56	100.000
810.86	129.545
811.17	135.714
811.47	111.667
811.77	96.296
812.08	127.273
812.38	126.000
812.69	161.111
812.99	143.182
813.29	97.959
813.59	107.143
813.90	132.653
814.20	109.091
814.50	93.846
814.81	108.824
815.11	128.571
815.41	88.525
815.72	152.381
816.02	130.909
816.32	119.048
816.62	122.500
816.93	148.780
817.23	119.048
817.53	129.545
817.84	145.455
818.14	117.391
818.44	120.000
818.74	138.235
819.04	125.000
819.35	134.286
819.65	194.118
819.95	207.143
820.25	220.000
820.56	161.538
820.86	136.364
821.16	151.163
821.46	135.897
821.76	130.000
822.07	168.571
822.37	140.000
822.67	166.667
822.97	127.451
823.27	192.857
823.57	162.162
823.88	165.000
824.18	183.333
824.48	133.333
824.78	228.000
825.08	175.000
825.38	175.676
825.69	165.854
825.99	225.000
826.29	162.069
826.59	144.737
826.89	134.211
827.19	132.353
827.49	164.516
827.79	134.091
828.09	134.091
828.39	119.149
828.70	134.694
829.00	122.222
829.30	167.742
829.60	120.000
829.90	313.333
830.20	221.429
830.50	239.130
830.80	239.130
831.10	193.333
831.40	203.333
831.70	200.000
832.00	215.385
832.30	222.222
832.60	293.750
832.90	210.000
833.20	385.714
833.50	177.419
833.80	182.759
834.10	212.500
834.40	219.231
834.70	272.222
835.00	290.476
835.30	171.429
835.60	307.692
835.90	193.103
836.20	357.143
836.50	186.207
836.80	172.000
837.10	186.111
837.40	228.571
837.70	317.647
838.00	211.111
838.30	257.143
838.60	242.857
838.90	215.385
839.19	260.000
839.49	378.571
839.79	270.000
840.09	255.000
840.39	257.143
840.69	256.522
840.99	305.556
841.29	460.000
841.59	341.667
841.88	362.500
842.18	193.103
842.48	290.476
842.78	173.333
843.08	239.130
843.38	175.000
843.68	816.667
843.97	273.077
844.27	196.552
844.57	266.667
844.87	368.750
845.17	214.815
845.47	1566.667
845.76	566.667
846.06	341.176
846.36	587.500
846.66	335.714
846.96	381.250
847.25	400.000
847.55	372.727
847.85	226.087
848.15	500.000
848.44	378.571
848.74	261.111
849.04	352.941
849.34	570.000
849.63	273.684
849.93	400.000
850.23	940.000
850.53	435.714
850.82	2050.000
851.12	-4100.000
851.42	5300.000
851.71	260.000
852.01	-1500.000
852.31	216.667
852.61	1666.667
852.90	252.381
853.20	232.000
853.50	341.176
853.79	238.095
854.09	225.000
854.39	318.750
854.68	164.865
854.98	206.452
855.28	180.000
855.57	224.138
855.87	192.593
856.17	257.895
856.46	280.000
856.76	282.353
857.05	179.310
857.35	266.667
857.65	413.333
857.94	230.435
858.24	230.769
858.53	285.000
858.83	272.727
859.13	326.667
859.42	0.000
859.72	588.889
860.01	481.818
860.31	236.364
860.60	305.263
860.90	252.174
861.20	577.778
861.49	475.000
861.79	-5000.000
862.08	662.500
862.38	242.857
862.67	369.231
862.97	341.176
863.26	511.111
863.56	300.000
863.85	433.333
864.15	612.500
864.44	340.000
864.74	950.000
865.03	712.500
865.33	305.263
865.62	418.182
865.92	453.846
866.21	333.333
866.51	0.000
866.80	563.636
867.10	1180.000
867.39	430.769
867.69	527.273
867.98	278.947
868.27	490.909
868.57	342.105
868.86	-4900.000
869.16	331.250
869.45	2200.000
869.75	-3800.000
870.04	391.667
870.33	685.714
870.63	1450.000
870.92	2350.000
871.22	757.143
871.51	376.471
871.80	233.333
872.10	400.000
>>>>>End Processed Spectral Data<<<<<
