SpectraSuite Data File
++++++++++++++++++++++++++++++++++++
Date: Wed May 13 19:45:33 PDT 2015
User: schluterlab
Dark Spectrum Present: Yes
Reference Spectrum Present: Yes
Number of Sampled Component Spectra: 1
Spectrometers: USB2E3373
Integration Time (usec): 3000 (USB2E3373)
Spectra Averaged: 3 (USB2E3373)
Boxcar Smoothing: 0 (USB2E3373)
Correct for Electrical Dark: No (USB2E3373)
Strobe/Lamp Enabled: No (USB2E3373)
Correct for Detector Non-linearity: No (USB2E3373)
Correct for Stray Light: No (USB2E3373)
Number of Pixels in Processed Spectrum: 2048
>>>>>Begin Processed Spectral Data<<<<<
178.53	0.000
178.91	-1175.000
179.29	-1325.000
179.67	-261.111
180.04	-1250.000
180.42	1950.000
180.80	1040.000
181.18	-1050.000
181.56	800.000
181.94	0.000
182.31	-571.429
182.69	2033.333
183.07	-562.500
183.45	-444.444
183.83	481.818
184.20	-390.000
184.58	2300.000
184.96	4500.000
185.34	-840.000
185.72	-737.500
186.09	-2600.000
186.47	2250.000
186.85	2400.000
187.23	5200.000
187.61	-1666.667
187.98	1200.000
188.36	554.545
188.74	527.273
189.12	-880.000
189.49	620.000
189.87	-3900.000
190.25	-1325.000
190.63	392.857
191.00	415.385
191.38	716.667
191.76	-1250.000
192.14	1025.000
192.51	762.500
192.89	1016.667
193.27	600.000
193.65	-1325.000
194.02	440.000
194.40	1180.000
194.78	540.000
195.15	425.000
195.53	590.000
195.91	-2000.000
196.29	368.750
196.66	368.421
197.04	-350.000
197.42	0.000
197.79	550.000
198.17	-4500.000
198.55	614.286
198.92	712.500
199.30	1080.000
199.68	0.000
200.05	305.556
200.43	885.714
200.81	4800.000
201.18	1433.333
201.56	-1333.333
201.94	488.889
202.31	600.000
202.69	400.000
203.07	500.000
203.44	0.000
203.82	1400.000
204.19	785.714
204.57	392.857
204.95	600.000
205.32	1466.667
205.70	463.636
206.08	364.286
206.45	2750.000
206.83	337.500
207.20	900.000
207.58	800.000
207.96	344.444
208.33	737.500
208.71	-816.667
209.08	671.429
209.46	488.889
209.84	390.909
210.21	-1500.000
210.59	1475.000
210.96	-487.500
211.34	2400.000
211.71	620.000
212.09	733.333
212.46	0.000
212.84	1733.333
213.22	1275.000
213.59	-4100.000
213.97	900.000
214.34	800.000
214.72	572.727
215.09	1080.000
215.47	-2000.000
215.84	-2450.000
216.22	1600.000
216.59	335.714
216.97	1350.000
217.34	436.364
217.72	-833.333
218.09	0.000
218.47	-4300.000
218.84	688.889
219.22	785.714
219.59	1500.000
219.97	-628.571
220.34	880.000
220.72	-1666.667
221.09	464.286
221.47	1450.000
221.84	-933.333
222.22	0.000
222.59	1300.000
222.97	-2300.000
223.34	1120.000
223.72	400.000
224.09	1060.000
224.46	1850.000
224.84	-4900.000
225.21	-1060.000
225.59	-4600.000
225.96	560.000
226.34	350.000
226.71	2300.000
227.08	612.500
227.46	400.000
227.83	-1200.000
228.21	-2300.000
228.58	622.222
228.95	-2700.000
229.33	-2650.000
229.70	1633.333
230.08	742.857
230.45	-840.000
230.82	408.333
231.20	783.333
231.57	671.429
231.95	433.333
232.32	231.818
232.69	400.000
233.07	685.714
233.44	400.000
233.81	-1433.333
234.19	326.316
234.56	383.333
234.93	350.000
235.31	427.273
235.68	384.615
236.05	378.571
236.43	175.758
236.80	289.474
237.17	4200.000
237.55	257.143
237.92	189.286
238.29	252.381
238.67	187.097
239.04	220.690
239.41	136.111
239.79	134.783
240.16	150.000
240.53	143.182
240.91	121.569
241.28	130.000
241.65	110.000
242.02	101.449
242.40	101.613
242.77	100.000
243.14	88.172
243.51	85.393
243.89	80.000
244.26	77.778
244.63	78.495
245.00	60.638
245.38	79.208
245.75	69.159
246.12	78.899
246.49	67.153
246.87	72.000
247.24	66.923
247.61	62.143
247.98	63.399
248.36	52.027
248.73	63.057
249.10	57.325
249.47	56.497
249.84	57.754
250.22	50.802
250.59	50.888
250.96	55.051
251.33	54.502
251.70	52.475
252.08	47.619
252.45	50.673
252.82	46.087
253.19	45.106
253.56	47.451
253.94	46.058
254.31	47.656
254.68	51.154
255.05	49.446
255.42	48.374
255.79	46.691
256.16	45.487
256.54	40.283
256.91	48.043
257.28	42.446
257.65	43.894
258.02	42.236
258.39	42.902
258.76	41.472
259.14	41.667
259.51	42.249
259.88	43.168
260.25	42.598
260.62	40.462
260.99	42.547
261.36	44.144
261.73	40.401
262.10	40.988
262.47	44.507
262.85	39.554
263.22	38.746
263.59	43.020
263.96	39.011
264.33	39.426
264.70	39.737
265.07	41.944
265.44	39.899
265.81	35.523
266.18	38.442
266.55	38.780
266.92	39.312
267.29	36.111
267.66	38.761
268.03	37.955
268.40	37.617
268.77	36.277
269.14	34.910
269.51	39.278
269.88	39.394
270.25	35.440
270.62	36.180
270.99	38.710
271.36	38.627
271.73	36.916
272.10	35.652
272.47	38.065
272.84	37.229
273.21	35.639
273.58	32.533
273.95	34.591
274.32	35.331
274.69	35.546
275.06	32.087
275.43	35.745
275.80	33.467
276.17	34.216
276.54	36.798
276.91	36.166
277.28	35.156
277.65	35.783
278.02	37.888
278.39	34.766
278.76	34.364
279.13	34.906
279.50	33.147
279.87	34.462
280.23	36.128
280.60	33.656
280.97	35.305
281.34	32.389
281.71	34.182
282.08	32.246
282.45	31.636
282.82	35.169
283.19	31.907
283.56	32.456
283.92	32.995
284.29	33.686
284.66	30.853
285.03	32.188
285.40	30.986
285.77	32.660
286.14	32.642
286.51	32.667
286.87	30.940
287.24	32.248
287.61	31.942
287.98	31.981
288.35	31.062
288.72	29.128
289.08	30.360
289.45	31.301
289.82	29.919
290.19	28.571
290.56	29.709
290.93	29.003
291.29	28.988
291.66	26.844
292.03	29.651
292.40	28.928
292.77	27.811
293.13	27.164
293.50	29.592
293.87	28.000
294.24	27.111
294.60	27.511
294.97	27.762
295.34	27.221
295.71	25.994
296.08	25.783
296.44	26.960
296.81	26.552
297.18	27.100
297.55	25.726
297.91	26.385
298.28	25.837
298.65	24.804
299.02	25.823
299.38	24.037
299.75	23.854
300.12	23.116
300.48	24.500
300.85	24.661
301.22	25.605
301.59	23.106
301.95	23.174
302.32	23.235
302.69	23.178
303.05	23.273
303.42	23.457
303.79	23.443
304.15	24.126
304.52	22.132
304.89	23.810
305.25	21.810
305.62	23.103
305.99	22.314
306.35	23.490
306.72	22.758
307.09	22.309
307.45	24.550
307.82	21.317
308.19	22.406
308.55	23.301
308.92	21.912
309.29	23.020
309.65	22.481
310.02	21.987
310.38	23.011
310.75	22.386
311.12	22.211
311.48	21.735
311.85	21.593
312.22	22.893
312.58	22.557
312.95	23.020
313.31	20.971
313.68	22.765
314.05	23.866
314.41	23.920
314.78	22.256
315.14	22.939
315.51	23.378
315.87	22.178
316.24	22.642
316.61	23.392
316.97	22.798
317.34	22.114
317.70	23.327
318.07	24.254
318.43	23.777
318.80	24.649
319.16	25.612
319.53	24.484
319.89	25.524
320.26	25.700
320.62	24.603
320.99	24.949
321.35	25.354
321.72	26.386
322.08	26.061
322.45	26.269
322.81	25.872
323.18	26.975
323.54	26.994
323.91	26.792
324.27	28.203
324.64	27.493
325.00	26.961
325.37	28.662
325.73	29.264
326.10	28.067
326.46	28.047
326.83	29.508
327.19	28.523
327.56	28.571
327.92	29.309
328.29	29.015
328.65	30.939
329.01	30.596
329.38	29.972
329.74	30.102
330.11	29.972
330.47	30.854
330.84	30.607
331.20	30.328
331.56	30.000
331.93	30.556
332.29	29.370
332.66	31.858
333.02	30.530
333.38	30.623
333.75	30.838
334.11	30.961
334.48	32.121
334.84	31.250
335.20	31.000
335.57	30.734
335.93	31.071
336.29	30.403
336.66	30.207
337.02	29.683
337.38	30.370
337.75	30.392
338.11	30.797
338.47	30.755
338.84	31.256
339.20	30.275
339.56	31.569
339.93	30.909
340.29	29.891
340.65	31.194
341.02	31.937
341.38	31.495
341.74	30.877
342.11	30.306
342.47	29.692
342.83	29.795
343.20	30.303
343.56	30.413
343.92	30.439
344.28	29.847
344.65	31.126
345.01	29.798
345.37	29.846
345.73	30.288
346.10	29.753
346.46	29.407
346.82	30.807
347.19	29.574
347.55	29.146
347.91	30.259
348.27	30.649
348.63	29.933
349.00	29.531
349.36	28.982
349.72	29.912
350.08	29.092
350.45	29.862
350.81	30.382
351.17	29.417
351.53	29.730
351.89	29.868
352.26	29.597
352.62	30.393
352.98	30.470
353.34	30.156
353.70	29.787
354.07	30.323
354.43	29.365
354.79	28.962
355.15	29.689
355.51	30.616
355.87	29.469
356.24	30.293
356.60	29.190
356.96	30.008
357.32	29.109
357.68	29.764
358.04	29.295
358.40	30.879
358.77	29.499
359.13	28.887
359.49	30.118
359.85	28.889
360.21	29.904
360.57	30.117
360.93	29.692
361.29	28.345
361.66	29.257
362.02	29.776
362.38	30.038
362.74	28.720
363.10	29.090
363.46	30.301
363.82	29.478
364.18	29.222
364.54	29.866
364.90	29.745
365.26	29.559
365.62	29.657
365.98	28.634
366.35	29.155
366.71	29.140
367.07	30.153
367.43	29.463
367.79	30.478
368.15	29.813
368.51	28.779
368.87	29.265
369.23	29.700
369.59	30.558
369.95	28.971
370.31	29.345
370.67	29.638
371.03	30.412
371.39	29.155
371.75	30.882
372.11	28.450
372.47	30.572
372.83	30.043
373.19	29.408
373.55	30.155
373.91	30.781
374.27	29.485
374.63	30.400
374.99	29.732
375.35	28.960
375.71	30.775
376.07	31.070
376.42	30.055
376.78	30.086
377.14	29.919
377.50	30.861
377.86	29.189
378.22	29.899
378.58	29.511
378.94	28.724
379.30	29.071
379.66	30.964
380.02	31.143
380.38	29.205
380.74	30.972
381.09	29.279
381.45	30.977
381.81	30.897
382.17	30.637
382.53	29.245
382.89	30.926
383.25	29.956
383.61	30.545
383.97	29.956
384.32	29.070
384.68	29.492
385.04	31.039
385.40	29.783
385.76	29.791
386.12	30.505
386.48	30.963
386.83	30.917
387.19	31.478
387.55	31.045
387.91	30.834
388.27	30.166
388.62	30.424
388.98	29.054
389.34	30.100
389.70	29.675
390.06	30.735
390.42	30.934
390.77	30.980
391.13	30.951
391.49	30.838
391.85	30.236
392.20	29.590
392.56	31.187
392.92	30.606
393.28	29.231
393.64	30.875
393.99	30.238
394.35	30.583
394.71	31.054
395.07	30.530
395.42	31.768
395.78	29.962
396.14	29.671
396.50	31.892
396.85	31.532
397.21	31.196
397.57	30.316
397.92	30.889
398.28	30.157
398.64	30.287
399.00	29.994
399.35	30.175
399.71	30.208
400.07	29.864
400.42	30.859
400.78	31.001
401.14	30.976
401.49	30.388
401.85	30.369
402.21	30.180
402.57	29.673
402.92	31.337
403.28	32.042
403.63	30.817
403.99	30.892
404.35	30.727
404.70	30.156
405.06	29.586
405.42	31.379
405.77	29.257
406.13	29.571
406.49	30.160
406.84	29.711
407.20	29.728
407.55	30.440
407.91	31.067
408.27	29.675
408.62	30.584
408.98	30.515
409.34	29.766
409.69	30.903
410.05	30.421
410.40	30.336
410.76	30.227
411.11	29.554
411.47	30.096
411.83	30.055
412.18	30.427
412.54	30.075
412.89	30.060
413.25	29.929
413.60	31.069
413.96	29.447
414.31	29.465
414.67	29.658
415.03	30.861
415.38	30.284
415.74	29.646
416.09	30.895
416.45	30.723
416.80	30.073
417.16	30.496
417.51	30.591
417.87	30.058
418.22	30.662
418.58	30.923
418.93	29.607
419.29	30.045
419.64	29.849
420.00	29.817
420.35	30.145
420.71	30.544
421.06	29.415
421.42	29.649
421.77	30.045
422.12	29.366
422.48	28.710
422.83	29.819
423.19	30.221
423.54	29.251
423.90	30.319
424.25	30.039
424.61	30.417
424.96	29.038
425.31	29.070
425.67	28.933
426.02	29.600
426.38	30.159
426.73	29.023
427.09	28.754
427.44	29.327
427.79	29.500
428.15	28.810
428.50	28.438
428.85	31.049
429.21	29.763
429.56	28.771
429.92	28.284
430.27	29.394
430.62	27.803
430.98	29.268
431.33	28.814
431.68	29.005
432.04	27.529
432.39	29.983
432.74	29.204
433.10	29.994
433.45	29.796
433.80	29.933
434.16	29.434
434.51	28.632
434.86	29.704
435.22	28.571
435.57	29.726
435.92	27.970
436.28	29.419
436.63	30.077
436.98	29.422
437.34	29.696
437.69	29.288
438.04	28.387
438.39	29.672
438.75	29.227
439.10	29.441
439.45	29.339
439.81	29.245
440.16	27.950
440.51	29.408
440.86	28.952
441.22	28.587
441.57	29.034
441.92	29.580
442.27	28.687
442.63	29.121
442.98	30.197
443.33	28.913
443.68	28.498
444.03	28.648
444.39	27.945
444.74	29.329
445.09	28.571
445.44	28.486
445.79	28.204
446.15	28.692
446.50	29.079
446.85	28.828
447.20	28.506
447.55	29.313
447.91	28.406
448.26	29.215
448.61	28.717
448.96	28.793
449.31	28.965
449.66	27.912
450.02	27.967
450.37	27.948
450.72	28.934
451.07	27.971
451.42	28.328
451.77	29.184
452.12	28.811
452.47	28.669
452.83	28.205
453.18	28.362
453.53	28.819
453.88	27.112
454.23	27.794
454.58	29.558
454.93	28.862
455.28	28.491
455.63	28.823
455.98	29.524
456.34	29.397
456.69	29.555
457.04	28.607
457.39	27.995
457.74	27.858
458.09	28.695
458.44	27.822
458.79	26.573
459.14	28.330
459.49	28.838
459.84	27.922
460.19	28.521
460.54	26.910
460.89	28.579
461.24	29.205
461.59	28.879
461.94	27.744
462.29	29.199
462.64	27.824
462.99	28.107
463.34	28.467
463.69	28.518
464.04	28.406
464.39	27.478
464.74	27.867
465.09	27.744
465.44	27.258
465.79	27.573
466.14	27.148
466.49	27.253
466.84	27.496
467.19	27.640
467.54	28.250
467.89	27.071
468.24	28.214
468.59	27.289
468.94	26.756
469.29	28.599
469.64	28.179
469.99	27.673
470.34	27.147
470.68	27.945
471.03	27.007
471.38	28.006
471.73	27.448
472.08	28.289
472.43	26.884
472.78	27.847
473.13	26.444
473.48	27.154
473.83	27.134
474.17	26.198
474.52	27.233
474.87	27.554
475.22	26.872
475.57	26.384
475.92	26.129
476.27	26.325
476.61	26.806
476.96	26.168
477.31	26.688
477.66	26.805
478.01	26.189
478.36	26.441
478.70	26.947
479.05	26.571
479.40	26.356
479.75	25.674
480.10	25.746
480.45	24.988
480.79	24.988
481.14	26.076
481.49	25.724
481.84	25.149
482.19	26.124
482.53	25.550
482.88	25.500
483.23	25.374
483.58	25.660
483.92	26.007
484.27	23.922
484.62	25.733
484.97	24.359
485.31	25.342
485.66	24.213
486.01	23.729
486.36	22.559
486.70	22.987
487.05	22.824
487.40	23.264
487.75	23.932
488.09	24.446
488.44	24.416
488.79	24.412
489.13	25.057
489.48	24.225
489.83	25.162
490.17	25.077
490.52	25.066
490.87	24.649
491.22	24.966
491.56	24.146
491.91	24.290
492.26	24.759
492.60	25.253
492.95	24.088
493.30	24.112
493.64	24.078
493.99	24.002
494.34	24.376
494.68	24.267
495.03	24.530
495.37	24.197
495.72	24.610
496.07	24.316
496.41	23.496
496.76	24.362
497.11	24.268
497.45	24.406
497.80	24.472
498.14	24.251
498.49	24.293
498.84	24.305
499.18	24.429
499.53	24.264
499.87	23.719
500.22	23.316
500.56	23.689
500.91	23.173
501.26	23.898
501.60	24.917
501.95	23.465
502.29	24.180
502.64	24.255
502.98	23.983
503.33	23.492
503.67	24.037
504.02	23.199
504.36	23.210
504.71	23.986
505.06	23.711
505.40	23.918
505.75	23.047
506.09	23.664
506.44	24.174
506.78	23.380
507.13	24.028
507.47	23.788
507.82	24.012
508.16	23.506
508.51	24.353
508.85	23.436
509.19	23.418
509.54	23.163
509.88	23.442
510.23	23.805
510.57	24.355
510.92	23.252
511.26	23.124
511.61	23.029
511.95	22.443
512.30	22.428
512.64	23.375
512.98	24.169
513.33	22.912
513.67	23.106
514.02	23.431
514.36	22.774
514.70	24.018
515.05	22.030
515.39	24.061
515.74	23.255
516.08	24.427
516.42	24.140
516.77	23.300
517.11	21.920
517.46	23.533
517.80	23.577
518.14	22.756
518.49	24.154
518.83	23.125
519.17	24.076
519.52	22.977
519.86	22.932
520.20	23.699
520.55	22.920
520.89	23.723
521.23	24.065
521.58	23.289
521.92	22.964
522.26	21.721
522.61	23.240
522.95	23.327
523.29	22.520
523.64	23.415
523.98	22.366
524.32	22.618
524.66	23.873
525.01	23.162
525.35	23.296
525.69	22.599
526.04	23.115
526.38	22.697
526.72	22.822
527.06	22.850
527.41	22.153
527.75	23.794
528.09	23.378
528.43	23.773
528.78	23.479
529.12	22.545
529.46	23.393
529.80	23.453
530.15	22.928
530.49	22.831
530.83	23.165
531.17	24.217
531.51	24.319
531.86	22.194
532.20	23.990
532.54	24.023
532.88	22.914
533.22	21.924
533.57	22.346
533.91	21.975
534.25	22.357
534.59	22.636
534.93	22.070
535.27	22.752
535.62	23.382
535.96	22.473
536.30	21.678
536.64	22.215
536.98	22.230
537.32	22.581
537.66	22.000
538.01	22.383
538.35	23.400
538.69	22.272
539.03	21.897
539.37	21.917
539.71	20.674
540.05	22.092
540.39	22.525
540.73	21.475
541.07	22.907
541.42	22.766
541.76	22.000
542.10	22.186
542.44	21.854
542.78	23.057
543.12	21.753
543.46	23.016
543.80	23.162
544.14	22.336
544.48	23.238
544.82	20.718
545.16	21.731
545.50	21.787
545.84	21.640
546.18	22.357
546.52	22.712
546.86	22.337
547.20	22.252
547.54	22.311
547.88	23.023
548.22	21.980
548.56	21.006
548.90	21.575
549.24	21.347
549.58	22.647
549.92	21.566
550.26	22.017
550.60	21.369
550.94	21.690
551.28	21.434
551.62	22.502
551.96	22.105
552.30	22.184
552.64	22.177
552.98	22.169
553.32	21.443
553.66	23.313
554.00	22.237
554.34	21.601
554.68	22.246
555.02	21.157
555.36	21.851
555.69	20.771
556.03	22.544
556.37	21.623
556.71	21.282
557.05	22.199
557.39	21.274
557.73	21.101
558.07	22.408
558.41	20.550
558.75	22.190
559.08	22.371
559.42	21.391
559.76	22.500
560.10	21.842
560.44	21.873
560.78	21.291
561.12	21.966
561.45	22.425
561.79	21.292
562.13	21.529
562.47	22.199
562.81	21.130
563.15	22.007
563.48	21.817
563.82	20.744
564.16	21.321
564.50	20.638
564.84	20.923
565.17	21.557
565.51	20.575
565.85	20.685
566.19	20.664
566.52	21.089
566.86	20.313
567.20	20.873
567.54	20.148
567.88	20.587
568.21	21.217
568.55	20.526
568.89	20.282
569.23	19.340
569.56	19.069
569.90	19.396
570.24	19.412
570.57	19.177
570.91	18.487
571.25	18.962
571.59	18.763
571.92	18.577
572.26	18.775
572.60	18.589
572.93	18.891
573.27	19.166
573.61	19.095
573.95	19.225
574.28	18.794
574.62	18.537
574.96	18.351
575.29	18.041
575.63	18.496
575.97	18.485
576.30	18.640
576.64	18.373
576.98	18.401
577.31	18.554
577.65	18.350
577.98	18.215
578.32	18.050
578.66	18.092
578.99	18.352
579.33	18.034
579.67	17.952
580.00	18.629
580.34	18.035
580.67	18.199
581.01	18.215
581.35	18.225
581.68	18.263
582.02	17.649
582.35	17.848
582.69	17.965
583.02	17.870
583.36	18.331
583.70	18.531
584.03	18.443
584.37	19.051
584.70	18.051
585.04	18.518
585.37	18.430
585.71	18.891
586.04	17.879
586.38	18.887
586.72	18.696
587.05	18.283
587.39	18.153
587.72	18.475
588.06	17.983
588.39	18.464
588.73	18.246
589.06	18.697
589.40	18.653
589.73	19.007
590.07	19.288
590.40	18.378
590.73	19.048
591.07	19.333
591.40	18.895
591.74	19.870
592.07	19.241
592.41	18.975
592.74	18.989
593.08	19.087
593.41	18.475
593.75	17.708
594.08	18.840
594.41	18.770
594.75	18.817
595.08	19.041
595.42	18.564
595.75	18.661
596.09	19.752
596.42	19.489
596.75	19.080
597.09	19.307
597.42	18.465
597.75	18.499
598.09	18.826
598.42	18.729
598.76	19.051
599.09	18.054
599.42	18.195
599.76	18.741
600.09	17.377
600.42	18.225
600.76	18.321
601.09	18.397
601.42	18.189
601.76	18.178
602.09	18.340
602.42	19.387
602.76	18.823
603.09	18.411
603.42	18.821
603.76	18.140
604.09	17.953
604.42	19.119
604.76	19.275
605.09	18.087
605.42	18.085
605.75	18.295
606.09	18.219
606.42	18.390
606.75	18.416
607.09	19.087
607.42	18.442
607.75	18.734
608.08	17.890
608.42	18.960
608.75	18.665
609.08	18.733
609.41	18.848
609.75	19.104
610.08	18.756
610.41	18.622
610.74	18.212
611.07	19.022
611.41	19.480
611.74	18.904
612.07	19.462
612.40	19.937
612.73	18.421
613.07	19.450
613.40	18.957
613.73	17.829
614.06	19.624
614.39	18.458
614.72	18.474
615.06	18.803
615.39	19.214
615.72	19.018
616.05	19.351
616.38	18.844
616.71	20.131
617.05	19.317
617.38	19.543
617.71	18.198
618.04	20.673
618.37	18.924
618.70	19.726
619.03	20.132
619.36	19.552
619.69	19.014
620.03	19.643
620.36	20.254
620.69	19.658
621.02	20.649
621.35	19.421
621.68	19.237
622.01	20.124
622.34	20.802
622.67	19.848
623.00	19.516
623.33	19.299
623.66	20.157
623.99	20.103
624.32	19.258
624.65	19.421
624.99	18.697
625.32	19.986
625.65	19.083
625.98	20.215
626.31	20.140
626.64	20.816
626.97	20.116
627.30	19.119
627.63	20.673
627.96	20.774
628.29	20.122
628.62	20.677
628.95	21.792
629.28	20.803
629.61	21.723
629.94	21.143
630.26	19.352
630.59	21.258
630.92	20.307
631.25	20.928
631.58	19.319
631.91	19.675
632.24	21.203
632.57	21.511
632.90	20.833
633.23	21.700
633.56	22.034
633.89	21.404
634.22	21.339
634.55	21.775
634.88	21.796
635.20	23.059
635.53	21.807
635.86	22.030
636.19	20.941
636.52	22.145
636.85	21.993
637.18	20.507
637.51	21.749
637.83	19.482
638.16	21.355
638.49	22.418
638.82	23.009
639.15	22.625
639.48	22.195
639.81	23.324
640.13	22.917
640.46	22.416
640.79	22.061
641.12	20.220
641.45	22.905
641.77	22.680
642.10	22.953
642.43	20.420
642.76	23.375
643.09	23.620
643.41	23.369
643.74	25.463
644.07	24.543
644.40	25.153
644.73	24.409
645.05	25.198
645.38	21.959
645.71	25.121
646.04	23.090
646.36	24.708
646.69	24.916
647.02	25.000
647.35	24.742
647.67	23.186
648.00	26.341
648.33	23.102
648.66	22.273
648.98	24.738
649.31	21.674
649.64	22.123
649.96	24.441
650.29	23.697
650.62	22.816
650.94	23.825
651.27	24.662
651.60	22.795
651.92	24.121
652.25	23.941
652.58	24.455
652.90	24.329
653.23	23.883
653.56	23.937
653.88	23.613
654.21	24.171
654.54	22.607
654.86	22.741
655.19	20.811
655.52	16.258
655.84	14.636
656.17	18.986
656.49	25.694
656.82	25.980
657.15	19.573
657.47	14.163
657.80	10.900
658.13	11.382
658.45	16.888
658.78	17.000
659.10	17.944
659.43	19.027
659.75	19.339
660.08	21.772
660.41	23.464
660.73	23.888
661.06	24.522
661.38	24.364
661.71	25.769
662.03	26.036
662.36	25.447
662.68	25.100
663.01	25.859
663.33	25.265
663.66	24.370
663.98	25.702
664.31	24.580
664.63	25.911
664.96	24.145
665.28	24.385
665.61	26.121
665.93	24.748
666.26	25.558
666.58	26.151
666.91	28.753
667.23	27.191
667.56	22.246
667.88	25.000
668.21	24.520
668.53	25.813
668.86	25.974
669.18	29.211
669.50	27.174
669.83	29.630
670.15	25.111
670.48	23.965
670.80	26.724
671.13	26.539
671.45	24.681
671.77	25.866
672.10	25.323
672.42	24.028
672.75	23.881
673.07	24.648
673.39	23.508
673.72	24.219
674.04	25.098
674.37	23.301
674.69	23.313
675.01	24.059
675.34	28.131
675.66	26.737
675.98	26.884
676.31	26.261
676.63	25.690
676.95	24.319
677.28	27.103
677.60	25.055
677.92	25.738
678.25	24.230
678.57	24.303
678.89	25.251
679.22	23.379
679.54	26.336
679.86	25.505
680.18	24.329
680.51	25.887
680.83	24.021
681.15	25.472
681.48	25.709
681.80	23.404
682.12	26.054
682.44	22.050
682.77	24.644
683.09	29.185
683.41	26.164
683.73	27.152
684.06	24.587
684.38	25.245
684.70	27.326
685.02	25.891
685.34	25.092
685.67	23.776
685.99	22.680
686.31	22.867
686.63	22.261
686.96	23.571
687.28	24.007
687.60	25.362
687.92	26.691
688.24	24.905
688.56	25.904
688.89	26.556
689.21	26.638
689.53	23.800
689.85	25.721
690.17	25.673
690.49	28.450
690.82	22.664
691.14	24.330
691.46	25.527
691.78	26.305
692.10	24.174
692.42	25.150
692.74	21.784
693.06	26.170
693.39	24.641
693.71	24.236
694.03	28.211
694.35	26.190
694.67	24.027
694.99	28.293
695.31	23.284
695.63	26.794
695.95	26.650
696.27	25.127
696.59	26.166
696.91	29.275
697.23	22.300
697.56	24.947
697.88	23.313
698.20	24.375
698.52	26.022
698.84	25.390
699.16	24.885
699.48	24.228
699.80	26.329
700.12	31.169
700.44	30.504
700.76	28.453
701.08	29.885
701.40	28.492
701.72	30.321
702.04	31.250
702.36	28.329
702.68	29.745
703.00	26.039
703.32	25.266
703.64	25.469
703.96	29.805
704.28	31.105
704.60	33.431
704.91	26.409
705.23	31.672
705.55	31.561
705.87	34.551
706.19	28.622
706.51	31.153
706.83	31.515
707.15	31.933
707.47	26.263
707.79	26.781
708.11	28.539
708.43	23.333
708.74	26.531
709.06	28.571
709.38	25.197
709.70	28.779
710.02	31.751
710.34	26.667
710.66	29.552
710.98	30.966
711.29	27.616
711.61	30.383
711.93	27.564
712.25	35.048
712.57	30.147
712.89	27.682
713.20	28.571
713.52	30.921
713.84	32.278
714.16	27.134
714.48	31.609
714.80	31.003
715.11	29.683
715.43	27.300
715.75	26.667
716.07	28.115
716.39	31.348
716.70	32.558
717.02	29.137
717.34	33.569
717.66	35.448
717.97	36.255
718.29	30.000
718.61	30.657
718.93	36.397
719.24	33.910
719.56	31.186
719.88	33.220
720.20	36.149
720.51	33.449
720.83	33.829
721.15	30.224
721.46	30.851
721.78	32.616
722.10	32.453
722.42	37.218
722.73	32.210
723.05	38.115
723.37	33.198
723.68	33.591
724.00	32.520
724.32	32.661
724.63	35.366
724.95	29.707
725.27	35.223
725.58	34.375
725.90	35.036
726.22	34.340
726.53	29.167
726.85	32.082
727.16	32.384
727.48	26.950
727.80	35.985
728.11	34.783
728.43	31.538
728.74	32.616
729.06	31.387
729.38	39.706
729.69	32.740
730.01	30.717
730.32	30.208
730.64	33.110
730.96	30.363
731.27	29.139
731.59	32.110
731.90	28.863
732.22	28.882
732.53	28.173
732.85	31.731
733.16	27.974
733.48	32.226
733.80	30.519
734.11	29.618
734.43	30.473
734.74	27.429
735.06	26.074
735.37	29.191
735.69	26.752
736.00	28.431
736.32	29.595
736.63	32.907
736.95	28.754
737.26	26.871
737.58	29.677
737.89	31.773
738.21	33.447
738.52	32.143
738.83	32.830
739.15	33.077
739.46	35.766
739.78	30.208
740.09	33.846
740.41	34.516
740.72	28.223
741.04	32.222
741.35	31.250
741.66	40.444
741.98	36.792
742.29	37.799
742.61	36.638
742.92	37.557
743.23	36.752
743.55	40.000
743.86	36.404
744.18	38.496
744.49	44.498
744.80	40.845
745.12	40.455
745.43	33.480
745.74	40.991
746.06	38.991
746.37	40.359
746.68	40.271
747.00	41.204
747.31	39.524
747.62	31.858
747.94	33.040
748.25	33.617
748.56	40.969
748.88	37.624
749.19	40.500
749.50	38.140
749.82	31.707
750.13	30.204
750.44	32.117
750.75	33.684
751.07	36.013
751.38	32.056
751.69	32.852
752.01	30.827
752.32	35.018
752.63	31.915
752.94	34.426
753.26	38.800
753.57	29.675
753.88	35.547
754.19	32.500
754.51	36.111
754.82	30.686
755.13	33.208
755.44	31.955
755.75	33.212
756.07	30.851
756.38	31.387
756.69	31.879
757.00	32.934
757.31	27.893
757.63	27.778
757.94	27.614
758.25	27.451
758.56	28.642
758.87	28.495
759.18	28.485
759.50	29.781
759.81	28.660
760.12	27.812
760.43	28.940
760.74	28.533
761.05	27.119
761.36	27.273
761.67	30.682
761.99	30.435
762.30	33.681
762.61	32.061
762.92	33.984
763.23	30.252
763.54	35.600
763.85	33.203
764.16	38.077
764.47	34.981
764.78	31.095
765.10	26.582
765.41	29.499
765.72	33.832
766.03	34.169
766.34	30.667
766.65	33.617
766.96	38.034
767.27	40.102
767.58	40.104
767.89	44.211
768.20	46.552
768.51	38.579
768.82	37.156
769.13	31.707
769.44	33.603
769.75	37.339
770.06	31.651
770.37	38.462
770.68	36.111
770.99	36.000
771.30	35.656
771.61	35.426
771.92	33.197
772.23	39.496
772.54	37.949
772.85	40.314
773.16	38.298
773.47	49.457
773.78	42.640
774.09	45.238
774.39	46.199
774.70	43.210
775.01	50.725
775.32	45.752
775.63	55.921
775.94	41.727
776.25	53.543
776.56	44.776
776.87	55.738
777.18	50.000
777.48	57.252
777.79	46.970
778.10	57.778
778.41	56.250
778.72	40.876
779.03	51.678
779.34	48.322
779.65	43.919
779.95	44.172
780.26	47.712
780.57	46.207
780.88	55.469
781.19	51.880
781.50	54.054
781.80	49.686
782.11	39.548
782.42	45.570
782.73	41.718
783.04	51.351
783.34	47.887
783.65	51.370
783.96	54.478
784.27	46.853
784.57	46.763
784.88	53.704
785.19	66.667
785.50	50.943
785.81	58.955
786.11	50.000
786.42	55.039
786.73	46.018
787.04	58.491
787.34	53.571
787.65	62.000
787.96	58.559
788.26	61.983
788.57	59.322
788.88	56.198
789.19	50.000
789.49	55.303
789.80	52.672
790.11	66.667
790.41	65.347
790.72	69.880
791.03	71.739
791.33	70.930
791.64	69.072
791.95	68.317
792.25	70.000
792.56	72.727
792.87	85.897
793.17	91.139
793.48	78.161
793.79	74.713
794.09	75.000
794.40	57.143
794.70	65.441
795.01	41.481
795.32	47.482
795.62	50.394
795.93	53.448
796.23	53.982
796.54	70.588
796.85	71.622
797.15	90.141
797.46	96.970
797.76	87.952
798.07	81.013
798.37	81.538
798.68	92.424
798.99	81.690
799.29	79.221
799.60	76.136
799.90	91.781
800.21	92.537
800.51	77.586
800.82	107.018
801.12	95.082
801.43	83.333
801.73	71.622
802.04	90.476
802.34	90.123
802.65	92.188
802.95	100.000
803.26	114.063
803.56	90.000
803.87	84.615
804.17	66.176
804.48	101.852
804.78	89.655
805.09	82.353
805.39	88.462
805.70	98.214
806.00	101.639
806.30	78.788
806.61	85.366
806.91	68.354
807.22	65.789
807.52	77.612
807.83	84.507
808.13	85.938
808.43	96.667
808.74	78.947
809.04	86.957
809.35	95.522
809.65	82.895
809.95	116.129
810.26	101.695
810.56	96.825
810.86	122.727
811.17	121.429
811.47	101.667
811.77	101.852
812.08	100.000
812.38	114.000
812.69	141.667
812.99	150.000
813.29	114.286
813.59	92.857
813.90	120.408
814.20	103.636
814.50	93.846
814.81	97.059
815.11	116.327
815.41	100.000
815.72	154.762
816.02	125.455
816.32	116.667
816.62	125.000
816.93	124.390
817.23	121.429
817.53	127.273
817.84	175.758
818.14	123.913
818.44	124.444
818.74	179.412
819.04	127.500
819.35	125.714
819.65	155.882
819.95	214.286
820.25	220.000
820.56	148.718
820.86	122.727
821.16	116.279
821.46	153.846
821.76	132.000
822.07	165.714
822.37	140.000
822.67	181.818
822.97	101.961
823.27	192.857
823.57	164.865
823.88	155.000
824.18	190.000
824.48	135.714
824.78	164.000
825.08	150.000
825.38	167.568
825.69	141.463
825.99	200.000
826.29	182.759
826.59	163.158
826.89	139.474
827.19	158.824
827.49	177.419
827.79	113.636
828.09	131.818
828.39	110.638
828.70	130.612
829.00	166.667
829.30	138.710
829.60	147.500
829.90	326.667
830.20	178.571
830.50	178.261
830.80	182.609
831.10	203.333
831.40	183.333
831.70	169.565
832.00	238.462
832.30	200.000
832.60	343.750
832.90	206.667
833.20	421.429
833.50	203.226
833.80	168.966
834.10	175.000
834.40	203.846
834.70	305.556
835.00	261.905
835.30	151.429
835.60	400.000
835.90	200.000
836.20	357.143
836.50	189.655
836.80	184.000
837.10	172.222
837.40	228.571
837.70	276.471
838.00	218.519
838.30	204.762
838.60	271.429
838.90	253.846
839.19	245.000
839.49	357.143
839.79	320.000
840.09	255.000
840.39	285.714
840.69	195.652
840.99	216.667
841.29	480.000
841.59	383.333
841.88	362.500
842.18	213.793
842.48	295.238
842.78	176.667
843.08	260.870
843.38	162.500
843.68	850.000
843.97	215.385
844.27	162.069
844.57	271.429
844.87	331.250
845.17	218.519
845.47	1633.333
845.76	566.667
846.06	270.588
846.36	500.000
846.66	321.429
846.96	318.750
847.25	445.455
847.55	390.909
847.85	234.783
848.15	510.000
848.44	364.286
848.74	233.333
849.04	282.353
849.34	510.000
849.63	236.842
849.93	545.455
850.23	960.000
850.53	378.571
850.82	2650.000
851.12	-4900.000
851.42	4600.000
851.71	240.000
852.01	-1500.000
852.31	204.167
852.61	1666.667
852.90	242.857
853.20	208.000
853.50	352.941
853.79	257.143
854.09	229.167
854.39	356.250
854.68	170.270
854.98	196.774
855.28	166.667
855.57	217.241
855.87	222.222
856.17	215.789
856.46	293.333
856.76	300.000
857.05	189.655
857.35	212.500
857.65	326.667
857.94	260.870
858.24	207.692
858.53	275.000
858.83	250.000
859.13	306.667
859.42	0.000
859.72	500.000
860.01	390.909
860.31	222.727
860.60	268.421
860.90	243.478
861.20	533.333
861.49	516.667
861.79	-5000.000
862.08	587.500
862.38	247.619
862.67	353.846
862.97	305.882
863.26	422.222
863.56	277.778
863.85	408.333
864.15	587.500
864.44	406.667
864.74	950.000
865.03	687.500
865.33	263.158
865.62	445.455
865.92	415.385
866.21	333.333
866.51	0.000
866.80	372.727
867.10	1060.000
867.39	384.615
867.69	472.727
867.98	305.263
868.27	418.182
868.57	357.895
868.86	-4500.000
869.16	306.250
869.45	2300.000
869.75	-3700.000
870.04	408.333
870.33	714.286
870.63	1050.000
870.92	2200.000
871.22	814.286
871.51	294.118
871.80	252.381
872.10	350.000
>>>>>End Processed Spectral Data<<<<<
