SpectraSuite Data File
++++++++++++++++++++++++++++++++++++
Date: Wed May 13 19:58:29 PDT 2015
User: schluterlab
Dark Spectrum Present: Yes
Reference Spectrum Present: Yes
Number of Sampled Component Spectra: 1
Spectrometers: USB2E3373
Integration Time (usec): 3000 (USB2E3373)
Spectra Averaged: 3 (USB2E3373)
Boxcar Smoothing: 0 (USB2E3373)
Correct for Electrical Dark: No (USB2E3373)
Strobe/Lamp Enabled: No (USB2E3373)
Correct for Detector Non-linearity: No (USB2E3373)
Correct for Stray Light: No (USB2E3373)
Number of Pixels in Processed Spectrum: 2048
>>>>>Begin Processed Spectral Data<<<<<
178.53	0.000
178.91	-1350.000
179.29	-1000.000
179.67	-222.222
180.04	-1150.000
180.42	1750.000
180.80	1140.000
181.18	-900.000
181.56	700.000
181.94	0.000
182.31	-600.000
182.69	1600.000
183.07	-562.500
183.45	-533.333
183.83	490.909
184.20	-360.000
184.58	2150.000
184.96	5600.000
185.34	-840.000
185.72	-637.500
186.09	-2250.000
186.47	2800.000
186.85	2500.000
187.23	4900.000
187.61	-1800.000
187.98	1275.000
188.36	554.545
188.74	545.455
189.12	-860.000
189.49	630.000
189.87	-4500.000
190.25	-1150.000
190.63	478.571
191.00	530.769
191.38	1000.000
191.76	-1225.000
192.14	1325.000
192.51	637.500
192.89	1016.667
193.27	587.500
193.65	-1100.000
194.02	550.000
194.40	1060.000
194.78	570.000
195.15	533.333
195.53	580.000
195.91	-2100.000
196.29	343.750
196.66	305.263
197.04	-400.000
197.42	0.000
197.79	660.000
198.17	-4600.000
198.55	714.286
198.92	725.000
199.30	900.000
199.68	0.000
200.05	333.333
200.43	757.143
200.81	5300.000
201.18	1600.000
201.56	-1300.000
201.94	622.222
202.31	522.222
202.69	383.333
203.07	590.000
203.44	0.000
203.82	1350.000
204.19	871.429
204.57	492.857
204.95	775.000
205.32	1766.667
205.70	509.091
206.08	435.714
206.45	2650.000
206.83	400.000
207.20	1000.000
207.58	820.000
207.96	327.778
208.33	712.500
208.71	-983.333
209.08	900.000
209.46	588.889
209.84	490.909
210.21	-1666.667
210.59	1400.000
210.96	-437.500
211.34	2750.000
211.71	610.000
212.09	883.333
212.46	0.000
212.84	1666.667
213.22	1350.000
213.59	-4500.000
213.97	866.667
214.34	814.286
214.72	527.273
215.09	1040.000
215.47	-2550.000
215.84	-2550.000
216.22	1766.667
216.59	442.857
216.97	1200.000
217.34	536.364
217.72	-783.333
218.09	0.000
218.47	-4700.000
218.84	622.222
219.22	800.000
219.59	1833.333
219.97	-800.000
220.34	1140.000
220.72	-1566.667
221.09	457.143
221.47	1525.000
221.84	-983.333
222.22	0.000
222.59	1275.000
222.97	-3050.000
223.34	1100.000
223.72	415.385
224.09	1060.000
224.46	2100.000
224.84	-4900.000
225.21	-1140.000
225.59	-4700.000
225.96	580.000
226.34	325.000
226.71	2750.000
227.08	775.000
227.46	600.000
227.83	-1175.000
228.21	-2800.000
228.58	644.444
228.95	-2050.000
229.33	-1750.000
229.70	2033.333
230.08	942.857
230.45	-820.000
230.82	533.333
231.20	900.000
231.57	700.000
231.95	450.000
232.32	295.455
232.69	454.545
233.07	728.571
233.44	361.538
233.81	-1866.667
234.19	305.263
234.56	450.000
234.93	483.333
235.31	518.182
235.68	392.308
236.05	464.286
236.43	163.636
236.80	300.000
237.17	4600.000
237.55	214.286
237.92	242.857
238.29	347.619
238.67	203.226
239.04	241.379
239.41	191.667
239.79	147.826
240.16	171.429
240.53	163.636
240.91	127.451
241.28	134.000
241.65	146.000
242.02	113.043
242.40	116.129
242.77	101.667
243.14	84.946
243.51	108.989
243.89	109.412
244.26	98.889
244.63	78.495
245.00	90.426
245.38	93.069
245.75	90.654
246.12	79.817
246.49	78.832
246.87	84.000
247.24	86.923
247.61	77.857
247.98	67.320
248.36	77.027
248.73	70.064
249.10	73.248
249.47	69.492
249.84	69.519
250.22	64.706
250.59	66.864
250.96	67.677
251.33	62.085
251.70	65.842
252.08	65.238
252.45	58.744
252.82	62.609
253.19	61.277
253.56	62.353
253.94	66.390
254.31	58.594
254.68	60.000
255.05	59.041
255.42	60.163
255.79	58.456
256.16	57.401
256.54	52.297
256.91	53.381
257.28	52.518
257.65	53.465
258.02	52.484
258.39	49.842
258.76	52.843
259.14	52.679
259.51	52.888
259.88	51.553
260.25	53.776
260.62	52.312
260.99	52.484
261.36	54.955
261.73	53.582
262.10	55.233
262.47	54.366
262.85	50.975
263.22	47.863
263.59	54.986
263.96	49.176
264.33	49.086
264.70	51.316
265.07	49.872
265.44	48.990
265.81	51.582
266.18	51.005
266.55	50.732
266.92	48.403
267.29	50.000
267.66	47.018
268.03	50.455
268.40	47.196
268.77	47.733
269.14	45.721
269.51	47.856
269.88	50.816
270.25	48.533
270.62	49.438
270.99	48.387
271.36	46.781
271.73	47.664
272.10	46.304
272.47	50.538
272.84	47.186
273.21	45.073
273.58	46.507
273.95	46.541
274.32	46.901
274.69	47.323
275.06	41.732
275.43	48.298
275.80	44.289
276.17	46.029
276.54	44.491
276.91	45.850
277.28	45.703
277.65	46.035
278.02	44.928
278.39	47.266
278.76	43.818
279.13	46.038
279.50	44.693
279.87	42.629
280.23	45.509
280.60	45.261
280.97	44.732
281.34	45.487
281.71	44.545
282.08	45.489
282.45	42.182
282.82	43.162
283.19	39.750
283.56	42.632
283.92	43.655
284.29	43.034
284.66	42.831
285.03	42.134
285.40	41.373
285.77	41.919
286.14	41.623
286.51	41.500
286.87	40.684
287.24	42.020
287.61	42.055
287.98	41.071
288.35	39.461
288.72	40.031
289.08	41.315
289.45	39.703
289.82	38.699
290.19	37.677
290.56	40.582
290.93	36.254
291.29	39.110
291.66	36.726
292.03	38.808
292.40	38.913
292.77	36.538
293.13	39.701
293.50	37.318
293.87	37.481
294.24	37.185
294.60	36.972
294.97	34.884
295.34	37.800
295.71	36.790
296.08	33.618
296.44	33.425
296.81	34.478
297.18	35.772
297.55	32.058
297.91	33.377
298.28	35.074
298.65	33.943
299.02	33.992
299.38	33.865
299.75	32.615
300.12	33.206
300.48	31.875
300.85	32.182
301.22	32.994
301.59	32.323
301.95	32.872
302.32	32.606
302.69	32.258
303.05	31.636
303.42	31.975
303.79	32.163
304.15	30.769
304.52	32.213
304.89	30.430
305.25	30.046
305.62	31.370
305.99	33.294
306.35	30.313
306.72	31.502
307.09	29.523
307.45	33.784
307.82	30.134
308.19	31.347
308.55	31.715
308.92	31.472
309.29	30.306
309.65	29.905
310.02	29.810
310.38	30.430
310.75	29.567
311.12	30.706
311.48	29.781
311.85	33.229
312.22	31.426
312.58	31.809
312.95	31.468
313.31	30.388
313.68	31.913
314.05	32.544
314.41	32.261
314.78	31.521
315.14	32.274
315.51	32.338
315.87	33.069
316.24	32.373
316.61	32.066
316.97	33.953
317.34	33.659
317.70	35.086
318.07	34.841
318.43	36.204
318.80	36.832
319.16	38.136
319.53	35.647
319.89	37.810
320.26	40.200
320.62	40.774
320.99	39.293
321.35	41.414
321.72	41.581
322.08	42.744
322.45	45.871
322.81	45.640
323.18	46.050
323.54	46.475
323.91	47.547
324.27	50.000
324.64	50.792
325.00	48.783
325.37	54.413
325.73	53.950
326.10	53.751
326.46	55.466
326.83	57.895
327.19	58.412
327.56	60.714
327.92	62.905
328.29	62.822
328.65	65.562
329.01	64.892
329.38	66.698
329.74	69.160
330.11	71.348
330.47	68.136
330.84	68.015
331.20	69.763
331.56	73.028
331.93	74.167
332.29	70.896
332.66	74.336
333.02	73.583
333.38	75.790
333.75	74.599
334.11	76.246
334.48	75.954
334.84	77.665
335.20	76.909
335.57	77.335
335.93	77.411
336.29	79.487
336.66	79.441
337.02	78.824
337.38	80.000
337.75	80.125
338.11	80.931
338.47	81.492
338.84	81.760
339.20	83.761
339.56	84.854
339.93	83.182
340.29	80.344
340.65	80.481
341.02	82.024
341.38	84.075
341.74	84.035
342.11	83.581
342.47	85.198
342.83	83.818
343.20	85.281
343.56	82.056
343.92	83.860
344.28	83.078
344.65	85.039
345.01	83.586
345.37	84.906
345.73	85.533
346.10	86.616
346.46	85.763
346.82	85.173
347.19	85.380
347.55	85.550
347.91	86.084
348.27	87.017
348.63	87.709
349.00	87.460
349.36	87.356
349.72	86.367
350.08	86.629
350.45	89.829
350.81	87.327
351.17	87.925
351.53	88.698
351.89	89.521
352.26	89.424
352.62	88.532
352.98	88.898
353.34	90.140
353.70	89.771
354.07	89.355
354.43	88.175
354.79	89.944
355.15	90.583
355.51	92.006
355.87	92.735
356.24	92.264
356.60	91.820
356.96	93.805
357.32	94.849
357.68	93.701
358.04	91.449
358.40	94.220
358.77	92.801
359.13	93.054
359.49	95.137
359.85	95.079
360.21	96.252
360.57	97.198
360.93	97.308
361.29	94.785
361.66	96.981
362.02	98.433
362.38	97.871
362.74	97.321
363.10	97.557
363.46	98.826
363.82	100.000
364.18	97.797
364.54	100.743
364.90	100.212
365.26	101.250
365.62	104.310
365.98	101.023
366.35	102.077
366.71	101.374
367.07	104.224
367.43	105.733
367.79	105.710
368.15	105.388
368.51	104.797
368.87	105.353
369.23	106.364
369.59	106.662
369.95	106.691
370.31	107.123
370.67	108.551
371.03	109.663
371.39	110.131
371.75	108.015
372.11	108.179
372.47	110.411
372.83	111.383
373.19	110.694
373.55	114.486
373.91	114.728
374.27	111.134
374.63	115.564
374.99	115.678
375.35	115.143
375.71	114.805
376.07	115.295
376.42	117.331
376.78	116.899
377.14	117.164
377.50	120.596
377.86	118.152
378.22	118.647
378.58	118.170
378.94	120.553
379.30	123.664
379.66	122.589
380.02	122.052
380.38	121.251
380.74	123.529
381.09	124.572
381.45	125.814
381.81	124.509
382.17	127.516
382.53	126.730
382.89	129.012
383.25	129.331
383.61	129.678
383.97	130.519
384.32	128.384
384.68	129.306
385.04	131.039
385.40	130.279
385.76	131.450
386.12	132.383
386.48	132.914
386.83	136.626
387.19	136.425
387.55	135.560
387.91	135.248
388.27	134.948
388.62	135.095
388.98	137.961
389.34	138.423
389.70	139.301
390.06	139.987
390.42	140.078
390.77	138.232
391.13	143.714
391.49	143.211
391.85	141.820
392.20	142.839
392.56	142.929
392.92	145.026
393.28	144.142
393.64	144.065
393.99	142.456
394.35	146.774
394.71	144.103
395.07	143.863
395.42	149.444
395.78	149.109
396.14	147.424
396.50	150.752
396.85	151.049
397.21	150.308
397.57	149.597
397.92	151.803
398.28	149.103
398.64	149.821
399.00	151.763
399.35	152.228
399.71	152.894
400.07	152.986
400.42	155.153
400.78	155.308
401.14	155.976
401.49	156.836
401.85	155.414
402.21	154.850
402.57	156.447
402.92	157.755
403.28	158.526
403.63	159.530
403.99	161.210
404.35	158.545
404.70	158.453
405.06	159.289
405.42	161.447
405.77	159.886
406.13	159.876
406.49	161.561
406.84	158.358
407.20	160.993
407.55	163.050
407.91	165.600
408.27	165.220
408.62	162.131
408.98	164.032
409.34	165.252
409.69	165.226
410.05	164.808
410.40	164.771
410.76	164.994
411.11	163.691
411.47	164.537
411.83	166.585
412.18	164.935
412.54	168.867
412.89	165.542
413.25	166.588
413.60	171.093
413.96	166.545
414.31	168.894
414.67	170.152
415.03	168.940
415.38	171.456
415.74	170.804
416.09	173.155
416.45	171.553
416.80	172.703
417.16	173.324
417.51	174.652
417.87	171.484
418.22	175.268
418.58	174.693
418.93	174.386
419.29	175.175
419.64	175.819
420.00	174.451
420.35	173.623
420.71	176.270
421.06	175.418
421.42	176.316
421.77	177.354
422.12	177.597
422.48	179.277
422.83	180.315
423.19	178.785
423.54	179.687
423.90	180.638
424.25	179.229
424.61	180.179
424.96	184.431
425.31	178.350
425.67	178.989
426.02	181.257
426.38	184.432
426.73	181.159
427.09	183.951
427.44	183.151
427.79	185.049
428.15	181.310
428.50	185.079
428.85	184.505
429.21	184.263
429.56	187.144
429.92	183.946
430.27	185.055
430.62	183.257
430.98	184.172
431.33	185.000
431.68	187.277
432.04	185.623
432.39	190.120
432.74	191.263
433.10	189.870
433.45	192.536
433.80	191.131
434.16	189.263
434.51	186.895
434.86	190.593
435.22	191.829
435.57	194.650
435.92	192.569
436.28	194.781
436.63	190.784
436.98	191.757
437.34	193.262
437.69	196.033
438.04	197.189
438.39	195.701
438.75	196.804
439.10	197.765
439.45	197.639
439.81	198.912
440.16	197.911
440.51	200.176
440.86	199.479
441.22	197.775
441.57	197.611
441.92	199.846
442.27	200.000
442.63	198.210
442.98	200.958
443.33	199.946
443.68	199.380
444.03	200.049
444.39	200.974
444.74	202.435
445.09	200.485
445.44	200.383
445.79	199.357
446.15	197.830
446.50	202.639
446.85	203.083
447.20	201.122
447.55	205.974
447.91	204.413
448.26	203.228
448.61	203.957
448.96	205.814
449.31	206.412
449.66	203.320
450.02	204.847
450.37	204.195
450.72	207.445
451.07	206.155
451.42	204.255
451.77	205.461
452.12	203.695
452.47	205.100
452.83	207.110
453.18	205.012
453.53	207.545
453.88	206.084
454.23	207.412
454.58	207.511
454.93	210.426
455.28	204.676
455.63	209.891
455.98	210.774
456.34	206.407
456.69	208.892
457.04	208.854
457.39	206.312
457.74	205.804
458.09	207.188
458.44	208.894
458.79	204.555
459.14	206.490
459.49	206.597
459.84	204.321
460.19	203.241
460.54	200.231
460.89	206.637
461.24	208.561
461.59	206.450
461.94	206.227
462.29	207.715
462.64	206.254
462.99	202.863
463.34	207.267
463.69	207.380
464.04	206.667
464.39	203.188
464.74	203.684
465.09	204.282
465.44	202.659
465.79	203.244
466.14	200.876
466.49	201.557
466.84	203.561
467.19	200.121
467.54	204.562
467.89	203.421
468.24	200.989
468.59	204.151
468.94	205.864
469.29	210.154
469.64	205.957
469.99	209.743
470.34	209.974
470.68	206.753
471.03	205.918
471.38	210.771
471.73	205.796
472.08	209.671
472.43	204.523
472.78	204.411
473.13	203.787
473.48	205.056
473.83	206.707
474.17	203.547
474.52	203.846
474.87	206.888
475.22	202.902
475.57	200.591
475.92	202.230
476.27	203.551
476.61	203.861
476.96	203.299
477.31	200.890
477.66	204.212
478.01	198.380
478.36	204.495
478.70	201.454
479.05	202.503
479.40	202.047
479.75	202.237
480.10	203.280
480.45	198.191
480.79	198.567
481.14	201.957
481.49	200.854
481.84	199.726
482.19	201.545
482.53	196.651
482.88	200.047
483.23	200.467
483.58	199.409
483.92	200.047
484.27	194.989
484.62	199.267
484.97	194.561
485.31	194.863
485.66	186.283
486.01	179.274
486.36	174.525
486.70	175.128
487.05	179.026
487.40	183.121
487.75	186.309
488.09	187.716
488.44	188.692
488.79	193.454
489.13	193.583
489.48	194.617
489.83	197.022
490.17	197.589
490.52	194.641
490.87	196.608
491.22	198.090
491.56	194.715
491.91	194.602
492.26	194.901
492.60	195.207
492.95	194.995
493.30	192.850
493.64	196.827
493.99	195.218
494.34	195.097
494.68	195.147
495.03	195.160
495.37	193.160
495.72	198.246
496.07	195.731
496.41	190.000
496.76	192.172
497.11	190.590
497.45	192.315
497.80	193.618
498.14	194.589
498.49	195.463
498.84	195.206
499.18	192.238
499.53	192.735
499.87	191.193
500.22	191.757
500.56	194.466
500.91	191.971
501.26	192.366
501.60	193.593
501.95	189.826
502.29	193.205
502.64	192.598
502.98	192.473
503.33	188.208
503.67	188.677
504.02	189.570
504.36	187.787
504.71	192.281
505.06	188.867
505.40	190.569
505.75	188.669
506.09	189.456
506.44	193.389
506.78	190.550
507.13	193.993
507.47	191.212
507.82	192.351
508.16	191.793
508.51	192.897
508.85	189.027
509.19	192.398
509.54	189.796
509.88	190.778
510.23	192.545
510.57	194.840
510.92	193.475
511.26	191.110
511.61	189.523
511.95	189.823
512.30	191.888
512.64	193.606
512.98	192.122
513.33	193.094
513.67	187.086
514.02	193.074
514.36	194.812
514.70	193.304
515.05	195.427
515.39	193.045
515.74	194.876
516.08	193.069
516.42	193.785
516.77	194.872
517.11	192.342
517.46	192.099
517.80	197.619
518.14	193.457
518.49	195.974
518.83	190.966
519.17	196.594
519.52	194.341
519.86	194.295
520.20	193.468
520.55	196.170
520.89	198.966
521.23	197.768
521.58	196.339
521.92	197.428
522.26	192.800
522.61	199.688
522.95	196.992
523.29	196.105
523.64	194.939
523.98	196.796
524.32	194.511
524.66	192.063
525.01	194.608
525.35	195.601
525.69	192.118
526.04	194.019
526.38	195.058
526.72	192.515
527.06	196.234
527.41	189.233
527.75	196.720
528.09	197.110
528.43	195.092
528.78	191.948
529.12	190.121
529.46	193.448
529.80	193.007
530.15	193.769
530.49	189.723
530.83	192.152
531.17	197.650
531.51	195.396
531.86	190.194
532.20	193.025
532.54	191.544
532.88	190.372
533.22	188.132
533.57	188.395
533.91	185.310
534.25	188.761
534.59	189.079
534.93	183.403
535.27	185.697
535.62	187.546
535.96	188.010
536.30	190.655
536.64	188.925
536.98	190.312
537.32	188.216
537.66	191.533
538.01	191.376
538.35	187.524
538.69	187.556
539.03	185.250
539.37	184.984
539.71	185.936
540.05	189.477
540.39	188.904
540.73	183.247
541.07	187.411
541.42	189.498
541.76	185.097
542.10	185.705
542.44	189.338
542.78	188.340
543.12	180.294
543.46	183.869
543.80	184.580
544.14	183.761
544.48	183.175
544.82	182.938
545.16	186.597
545.50	182.648
545.84	183.938
546.18	186.667
546.52	187.887
546.86	186.942
547.20	185.637
547.54	182.966
547.88	182.334
548.22	180.199
548.56	179.308
548.90	178.233
549.24	183.502
549.58	183.083
549.92	184.409
550.26	189.489
550.60	180.982
550.94	187.183
551.28	186.686
551.62	185.047
551.96	184.140
552.30	183.208
552.64	182.691
552.98	183.458
553.32	179.164
553.66	179.482
554.00	183.802
554.34	179.779
554.68	186.695
555.02	183.216
555.36	181.559
555.69	178.011
556.03	180.754
556.37	181.310
556.71	180.150
557.05	184.314
557.39	180.266
557.73	180.875
558.07	185.134
558.41	183.719
558.75	183.542
559.08	186.130
559.42	189.342
559.76	184.265
560.10	181.870
560.44	181.342
560.78	179.774
561.12	179.090
561.45	179.205
561.79	177.324
562.13	180.416
562.47	179.986
562.81	182.008
563.15	176.589
563.48	179.111
563.82	177.560
564.16	176.324
564.50	177.539
564.84	173.515
565.17	177.542
565.51	177.380
565.85	173.033
566.19	176.143
566.52	178.214
566.86	173.116
567.20	173.762
567.54	172.888
567.88	169.690
568.21	167.989
568.55	166.431
568.89	167.218
569.23	160.918
569.56	160.324
569.90	159.094
570.24	157.445
570.57	156.069
570.91	151.745
571.25	151.668
571.59	149.278
571.92	150.691
572.26	151.155
572.60	151.832
572.93	149.145
573.27	149.068
573.61	148.827
573.95	148.140
574.28	146.910
574.62	146.526
574.96	144.994
575.29	144.665
575.63	146.443
575.97	145.092
576.30	145.008
576.64	146.753
576.98	144.944
577.31	144.663
577.65	143.974
577.98	142.984
578.32	140.727
578.66	142.138
578.99	142.525
579.33	144.517
579.67	143.323
580.00	142.460
580.34	145.515
580.67	143.347
581.01	143.580
581.35	142.381
581.68	140.878
582.02	139.636
582.35	139.349
582.69	140.610
583.02	142.373
583.36	144.316
583.70	145.480
584.03	145.481
584.37	145.323
584.70	146.970
585.04	142.857
585.37	143.313
585.71	142.505
586.04	143.682
586.38	146.526
586.72	146.893
587.05	144.906
587.39	144.011
587.72	144.473
588.06	145.224
588.39	146.091
588.73	146.935
589.06	148.333
589.40	149.495
589.73	151.637
590.07	150.214
590.40	150.055
590.73	153.942
591.07	154.457
591.40	154.281
591.74	155.065
592.07	152.923
592.41	153.204
592.74	149.213
593.08	146.269
593.41	147.643
593.75	144.597
594.08	144.921
594.41	147.861
594.75	150.573
595.08	147.924
595.42	147.285
595.75	148.647
596.09	150.845
596.42	149.902
596.75	152.174
597.09	152.771
597.42	149.073
597.75	152.566
598.09	151.957
598.42	149.570
598.76	149.169
599.09	146.408
599.42	146.252
599.76	148.316
600.09	145.173
600.42	145.508
600.76	144.714
601.09	144.627
601.42	147.565
601.76	146.414
602.09	147.866
602.42	148.089
602.76	147.561
603.09	148.938
603.42	148.887
603.76	146.265
604.09	146.297
604.42	147.860
604.76	148.882
605.09	149.148
605.42	146.045
605.75	148.469
606.09	148.109
606.42	148.141
606.75	147.532
607.09	146.379
607.42	148.652
607.75	146.962
608.08	148.024
608.42	148.454
608.75	146.213
609.08	147.225
609.41	148.120
609.75	149.643
610.08	150.613
610.41	148.790
610.74	150.095
611.07	151.038
611.41	150.098
611.74	151.332
612.07	152.795
612.40	152.308
612.73	150.842
613.07	151.670
613.40	151.764
613.73	150.079
614.06	151.344
614.39	149.187
614.72	147.842
615.06	150.683
615.39	150.106
615.72	147.290
616.05	150.399
616.38	153.696
616.71	156.354
617.05	155.654
617.38	153.758
617.71	156.396
618.04	155.349
618.37	152.868
618.70	155.072
619.03	159.079
619.36	155.940
619.69	159.859
620.03	158.448
620.36	156.417
620.69	157.260
621.02	161.578
621.35	162.099
621.68	159.969
622.01	159.907
622.34	161.195
622.67	162.738
623.00	159.501
623.33	156.540
623.66	159.757
623.99	160.383
624.32	156.705
624.65	158.828
624.99	157.082
625.32	158.291
625.65	160.030
625.98	164.105
626.31	159.953
626.64	163.837
626.97	162.594
627.30	162.760
627.63	161.690
627.96	166.442
628.29	165.267
628.62	163.678
628.95	168.679
629.28	166.606
629.61	165.628
629.94	172.095
630.26	170.925
630.59	167.874
630.92	168.774
631.25	167.325
631.58	167.267
631.91	168.560
632.24	174.156
632.57	169.255
632.90	172.039
633.23	174.161
633.56	176.158
633.89	172.367
634.22	174.801
634.55	175.858
634.88	174.970
635.20	178.973
635.53	177.590
635.86	179.084
636.19	172.000
636.52	172.780
636.85	171.707
637.18	170.161
637.51	172.695
637.83	171.023
638.16	181.969
638.49	172.670
638.82	178.761
639.15	175.500
639.48	173.317
639.81	179.088
640.13	176.563
640.46	177.987
640.79	172.919
641.12	177.029
641.45	180.726
641.77	187.040
642.10	180.556
642.43	183.183
642.76	185.139
643.09	184.202
643.41	180.425
643.74	184.105
644.07	183.232
644.40	181.135
644.73	182.205
645.05	185.103
645.38	182.938
645.71	182.126
646.04	187.209
646.36	191.319
646.69	189.130
647.02	185.374
647.35	189.175
647.67	192.389
648.00	177.724
648.33	182.508
648.66	172.121
648.98	175.562
649.31	176.233
649.64	175.934
649.96	175.112
650.29	178.831
650.62	181.877
650.94	178.282
651.27	187.500
651.60	184.193
651.92	173.962
652.25	177.036
652.58	177.414
652.90	176.619
653.23	173.960
653.56	174.016
653.88	174.326
654.21	175.355
654.54	182.013
654.86	174.143
655.19	165.270
655.52	120.442
655.84	106.460
656.17	100.000
656.49	100.000
656.82	100.000
657.15	100.000
657.47	100.000
657.80	100.000
658.13	126.945
658.45	154.312
658.78	124.797
659.10	128.488
659.43	133.526
659.75	138.946
660.08	150.000
660.41	162.756
660.73	171.156
661.06	177.389
661.38	184.000
661.71	185.000
662.03	185.207
662.36	181.312
662.68	184.538
663.01	183.232
663.33	188.110
663.66	188.445
663.98	192.009
664.31	190.126
664.63	178.947
664.96	179.074
665.28	184.631
665.61	180.312
665.93	184.507
666.26	186.207
666.58	186.402
666.91	190.486
667.23	194.157
667.56	181.641
667.88	183.974
668.21	181.450
668.53	185.249
668.86	184.632
669.18	183.795
669.50	183.261
669.83	186.275
670.15	186.667
670.48	185.621
670.80	185.991
671.13	180.467
671.45	179.787
671.77	180.448
672.10	166.174
672.42	165.548
672.75	161.692
673.07	172.007
673.39	174.864
673.72	181.445
674.04	171.373
674.37	173.592
674.69	178.937
675.01	180.962
675.34	176.797
675.66	180.211
675.98	175.967
676.31	179.832
676.63	179.406
676.95	174.214
677.28	190.654
677.60	180.000
677.92	178.059
678.25	176.797
678.57	179.084
678.89	173.747
679.22	170.530
679.54	168.702
679.86	165.138
680.18	162.612
680.51	163.830
680.83	161.922
681.15	170.377
681.48	170.321
681.80	168.472
682.12	165.900
682.44	166.538
682.77	171.690
683.09	177.253
683.41	183.814
683.73	173.731
684.06	170.455
684.38	161.057
684.70	167.248
685.02	163.039
685.34	159.890
685.67	156.818
685.99	157.732
686.31	161.263
686.63	156.537
686.96	157.321
687.28	155.054
687.60	159.239
687.92	161.974
688.24	162.738
688.56	167.871
688.89	167.427
689.21	170.524
689.53	162.213
689.85	175.388
690.17	160.870
690.49	167.091
690.82	176.402
691.14	168.750
691.46	163.080
691.78	161.446
692.10	167.975
692.42	161.477
692.74	159.129
693.06	162.766
693.39	156.674
693.71	167.467
694.03	162.737
694.35	160.173
694.67	166.819
694.99	168.780
695.31	169.363
695.63	171.292
695.95	170.905
696.27	176.396
696.59	173.316
696.91	170.466
697.23	163.615
697.56	155.864
697.88	151.329
698.20	157.500
698.52	160.215
698.84	160.579
699.16	162.673
699.48	164.846
699.80	168.116
700.12	177.403
700.44	173.740
700.76	175.414
701.08	176.724
701.40	172.626
701.72	181.050
702.04	175.852
702.36	164.589
702.68	175.354
703.00	170.360
703.32	167.021
703.64	165.416
703.96	169.359
704.28	172.674
704.60	176.833
704.91	174.184
705.23	167.742
705.55	182.060
705.87	182.060
706.19	183.392
706.51	169.159
706.83	169.697
707.15	165.826
707.47	157.071
707.79	158.722
708.11	150.228
708.43	153.571
708.74	156.122
709.06	160.000
709.38	155.381
709.70	167.733
710.02	164.095
710.34	168.788
710.66	164.776
710.98	156.818
711.29	162.500
711.61	161.947
711.93	169.231
712.25	168.810
712.57	188.971
712.89	170.934
713.20	156.231
713.52	170.066
713.84	162.658
714.16	157.622
714.48	159.770
714.80	168.389
715.11	157.349
715.43	158.160
715.75	156.232
716.07	164.537
716.39	160.188
716.70	173.090
717.02	174.460
717.34	163.958
717.66	176.866
717.97	179.283
718.29	164.444
718.61	172.993
718.93	173.897
719.24	164.706
719.56	154.237
719.88	163.390
720.20	159.122
720.51	164.111
720.83	170.632
721.15	167.910
721.46	159.929
721.78	161.290
722.10	167.925
722.42	164.662
722.73	163.296
723.05	176.230
723.37	176.518
723.68	161.776
724.00	169.512
724.32	160.887
724.63	171.951
724.95	170.711
725.27	168.826
725.58	164.844
725.90	164.964
726.22	166.038
726.53	155.208
726.85	152.218
727.16	159.075
727.48	160.638
727.80	164.394
728.11	158.333
728.43	167.692
728.74	156.631
729.06	160.949
729.38	155.882
729.69	158.007
730.01	147.782
730.32	150.347
730.64	147.492
730.96	146.865
731.27	154.305
731.59	148.012
731.90	139.067
732.22	149.689
732.53	147.059
732.85	146.474
733.16	142.122
733.48	148.505
733.80	148.701
734.11	146.178
734.43	135.503
734.74	140.000
735.06	138.968
735.37	145.087
735.69	148.089
736.00	146.732
736.32	139.875
736.63	137.061
736.95	140.575
737.26	148.299
737.58	141.290
737.89	147.157
738.21	150.171
738.52	148.571
738.83	141.887
739.15	153.077
739.46	145.985
739.78	147.222
740.09	136.615
740.41	137.097
740.72	144.599
741.04	147.037
741.35	161.250
741.66	160.889
741.98	158.962
742.29	167.464
742.61	153.879
742.92	159.729
743.23	159.402
743.55	149.200
743.86	153.070
744.18	163.717
744.49	164.593
744.80	162.441
745.12	161.818
745.43	154.626
745.74	163.964
746.06	159.174
746.37	156.502
746.68	156.561
747.00	163.889
747.31	166.667
747.62	155.310
747.94	155.947
748.25	153.617
748.56	155.066
748.88	167.822
749.19	168.500
749.50	159.070
749.82	143.902
750.13	148.571
750.44	148.905
750.75	141.404
751.07	141.479
751.38	143.206
751.69	145.848
752.01	148.496
752.32	143.321
752.63	142.199
752.94	153.689
753.26	153.600
753.57	148.374
753.88	144.141
754.19	137.857
754.51	139.583
754.82	137.545
755.13	138.491
755.44	141.729
755.75	141.971
756.07	136.170
756.38	141.606
756.69	136.577
757.00	124.251
757.31	124.926
757.63	131.287
757.94	130.027
758.25	117.157
758.56	119.753
758.87	119.624
759.18	128.485
759.50	127.586
759.81	134.268
760.12	131.875
760.43	131.519
760.74	121.739
761.05	128.249
761.36	118.449
761.67	128.409
761.99	129.814
762.30	136.458
762.61	137.405
762.92	132.422
763.23	139.076
763.54	143.600
763.85	136.328
764.16	141.154
764.47	145.627
764.78	131.802
765.10	123.101
765.41	125.664
765.72	123.653
766.03	126.019
766.34	126.000
766.65	151.915
766.96	141.453
767.27	151.777
767.58	150.521
767.89	148.947
768.20	156.322
768.51	146.193
768.82	140.367
769.13	130.488
769.44	129.150
769.75	140.773
770.06	147.248
770.37	137.557
770.68	141.667
770.99	137.778
771.30	127.459
771.61	143.946
771.92	133.197
772.23	135.294
772.54	143.077
772.85	147.644
773.16	142.553
773.47	144.565
773.78	144.162
774.09	153.571
774.39	145.614
774.70	151.235
775.01	173.913
775.32	156.863
775.63	151.974
775.94	164.748
776.25	177.953
776.56	156.716
776.87	172.131
777.18	157.031
777.48	170.992
777.79	155.303
778.10	147.407
778.41	183.929
778.72	154.015
779.03	150.336
779.34	159.732
779.65	154.730
779.95	146.626
780.26	149.673
780.57	146.897
780.88	171.094
781.19	156.391
781.50	154.054
781.80	143.396
782.11	140.113
782.42	146.203
782.73	141.718
783.04	155.405
783.34	148.592
783.65	150.685
783.96	160.448
784.27	147.552
784.57	146.763
784.88	165.741
785.19	169.841
785.50	168.868
785.81	147.761
786.11	163.115
786.42	152.713
786.73	165.487
787.04	164.151
787.34	164.286
787.65	189.000
787.96	175.676
788.26	151.240
788.57	169.492
788.88	162.810
789.19	140.278
789.49	150.000
789.80	136.641
790.11	175.238
790.41	163.366
790.72	180.723
791.03	169.565
791.33	184.884
791.64	158.763
791.95	153.465
792.25	180.000
792.56	202.597
792.87	208.974
793.17	198.734
793.48	177.011
793.79	182.759
794.09	171.591
794.40	152.101
794.70	140.441
795.01	133.333
795.32	138.849
795.62	135.433
795.93	150.862
796.23	145.133
796.54	167.059
796.85	187.838
797.15	214.085
797.46	190.909
797.76	171.084
798.07	181.013
798.37	216.923
798.68	203.030
798.99	173.239
799.29	172.727
799.60	159.091
799.90	195.890
800.21	183.582
800.51	217.241
800.82	224.561
801.12	222.951
801.43	218.182
801.73	172.973
802.04	206.349
802.34	159.259
802.65	206.250
802.95	205.085
803.26	203.125
803.56	172.857
803.87	164.615
804.17	175.000
804.48	229.630
804.78	196.552
805.09	180.882
805.39	217.308
805.70	192.857
806.00	200.000
806.30	181.818
806.61	159.756
806.91	151.899
807.22	164.474
807.52	155.224
807.83	187.324
808.13	187.500
808.43	200.000
808.74	176.316
809.04	182.609
809.35	180.597
809.65	184.211
809.95	208.065
810.26	201.695
810.56	163.492
810.86	265.909
811.17	269.048
811.47	206.667
811.77	224.074
812.08	194.545
812.38	192.000
812.69	255.556
812.99	268.182
813.29	224.490
813.59	226.190
813.90	228.571
814.20	196.364
814.50	160.000
814.81	173.529
815.11	228.571
815.41	177.049
815.72	273.810
816.02	196.364
816.32	226.190
816.62	230.000
816.93	234.146
817.23	252.381
817.53	215.909
817.84	281.818
818.14	228.261
818.44	193.333
818.74	288.235
819.04	220.000
819.35	231.429
819.65	297.059
819.95	292.857
820.25	425.000
820.56	238.462
820.86	225.000
821.16	237.209
821.46	243.590
821.76	240.000
822.07	308.571
822.37	247.500
822.67	278.788
822.97	203.922
823.27	346.429
823.57	237.838
823.88	252.500
824.18	310.000
824.48	235.714
824.78	312.000
825.08	316.667
825.38	235.135
825.69	202.439
825.99	379.167
826.29	265.517
826.59	250.000
826.89	239.474
827.19	264.706
827.49	277.419
827.79	234.091
828.09	202.273
828.39	176.596
828.70	187.755
829.00	303.704
829.30	290.323
829.60	232.500
829.90	580.000
830.20	289.286
830.50	369.565
830.80	378.261
831.10	240.000
831.40	280.000
831.70	260.870
832.00	296.154
832.30	270.370
832.60	462.500
832.90	290.000
833.20	592.857
833.50	280.645
833.80	279.310
834.10	300.000
834.40	307.692
834.70	433.333
835.00	400.000
835.30	242.857
835.60	561.538
835.90	272.414
836.20	492.857
836.50	303.448
836.80	308.000
837.10	244.444
837.40	357.143
837.70	400.000
838.00	333.333
838.30	319.048
838.60	371.429
838.90	300.000
839.19	335.000
839.49	542.857
839.79	390.000
840.09	380.000
840.39	390.476
840.69	300.000
840.99	333.333
841.29	650.000
841.59	450.000
841.88	456.250
842.18	237.931
842.48	357.143
842.78	253.333
843.08	295.652
843.38	250.000
843.68	983.333
843.97	319.231
844.27	220.690
844.57	371.429
844.87	475.000
845.17	270.370
845.47	1766.667
845.76	633.333
846.06	452.941
846.36	700.000
846.66	550.000
846.96	456.250
847.25	518.182
847.55	545.455
847.85	252.174
848.15	610.000
848.44	442.857
848.74	372.222
849.04	435.294
849.34	730.000
849.63	289.474
849.93	536.364
850.23	1460.000
850.53	528.571
850.82	3600.000
851.12	-6200.000
851.42	6600.000
851.71	365.000
852.01	-1666.667
852.31	279.167
852.61	2000.000
852.90	342.857
853.20	268.000
853.50	435.294
853.79	295.238
854.09	308.333
854.39	493.750
854.68	208.108
854.98	235.484
855.28	230.000
855.57	310.345
855.87	237.037
856.17	284.211
856.46	373.333
856.76	329.412
857.05	220.690
857.35	266.667
857.65	413.333
857.94	291.304
858.24	288.462
858.53	370.000
858.83	304.545
859.13	353.333
859.42	0.000
859.72	688.889
860.01	536.364
860.31	290.909
860.60	347.368
860.90	269.565
861.20	677.778
861.49	641.667
861.79	-6100.000
862.08	737.500
862.38	342.857
862.67	392.308
862.97	388.235
863.26	711.111
863.56	372.222
863.85	533.333
864.15	737.500
864.44	413.333
864.74	933.333
865.03	787.500
865.33	284.211
865.62	509.091
865.92	500.000
866.21	533.333
866.51	0.000
866.80	527.273
867.10	1340.000
867.39	438.462
867.69	472.727
867.98	331.579
868.27	527.273
868.57	336.842
868.86	-5800.000
869.16	406.250
869.45	2700.000
869.75	-5300.000
870.04	508.333
870.33	957.143
870.63	1525.000
870.92	2800.000
871.22	942.857
871.51	347.059
871.80	271.429
872.10	400.000
>>>>>End Processed Spectral Data<<<<<
