SpectraSuite Data File
++++++++++++++++++++++++++++++++++++
Date: Wed May 13 19:33:34 PDT 2015
User: schluterlab
Dark Spectrum Present: Yes
Reference Spectrum Present: Yes
Number of Sampled Component Spectra: 1
Spectrometers: USB2E3373
Integration Time (usec): 3000 (USB2E3373)
Spectra Averaged: 3 (USB2E3373)
Boxcar Smoothing: 0 (USB2E3373)
Correct for Electrical Dark: No (USB2E3373)
Strobe/Lamp Enabled: No (USB2E3373)
Correct for Detector Non-linearity: No (USB2E3373)
Correct for Stray Light: No (USB2E3373)
Number of Pixels in Processed Spectrum: 2048
>>>>>Begin Processed Spectral Data<<<<<
178.53	0.000
178.91	-1375.000
179.29	-1400.000
179.67	-283.333
180.04	-1400.000
180.42	2450.000
180.80	1220.000
181.18	-1300.000
181.56	785.714
181.94	0.000
182.31	-757.143
182.69	1766.667
183.07	-575.000
183.45	-622.222
183.83	590.909
184.20	-480.000
184.58	2550.000
184.96	7200.000
185.34	-1040.000
185.72	-625.000
186.09	-2700.000
186.47	3100.000
186.85	2400.000
187.23	6100.000
187.61	-1833.333
187.98	1425.000
188.36	572.727
188.74	527.273
189.12	-1100.000
189.49	650.000
189.87	-5700.000
190.25	-1175.000
190.63	514.286
191.00	469.231
191.38	1133.333
191.76	-1225.000
192.14	1725.000
192.51	712.500
192.89	966.667
193.27	675.000
193.65	-1625.000
194.02	550.000
194.40	1140.000
194.78	580.000
195.15	500.000
195.53	620.000
195.91	-2400.000
196.29	443.750
196.66	315.789
197.04	-470.000
197.42	0.000
197.79	620.000
198.17	-4800.000
198.55	714.286
198.92	737.500
199.30	960.000
199.68	0.000
200.05	355.556
200.43	857.143
200.81	5500.000
201.18	2066.667
201.56	-1966.667
201.94	488.889
202.31	733.333
202.69	466.667
203.07	700.000
203.44	0.000
203.82	1525.000
204.19	785.714
204.57	421.429
204.95	700.000
205.32	2033.333
205.70	527.273
206.08	407.143
206.45	2300.000
206.83	362.500
207.20	950.000
207.58	760.000
207.96	350.000
208.33	750.000
208.71	-933.333
209.08	857.143
209.46	588.889
209.84	481.818
210.21	-1633.333
210.59	1350.000
210.96	-550.000
211.34	2400.000
211.71	710.000
212.09	783.333
212.46	0.000
212.84	1433.333
213.22	1325.000
213.59	-5400.000
213.97	866.667
214.34	742.857
214.72	672.727
215.09	1020.000
215.47	-2450.000
215.84	-2800.000
216.22	1766.667
216.59	392.857
216.97	1325.000
217.34	481.818
217.72	-750.000
218.09	0.000
218.47	-5500.000
218.84	766.667
219.22	928.571
219.59	1933.333
219.97	-642.857
220.34	1140.000
220.72	-1966.667
221.09	392.857
221.47	1450.000
221.84	-900.000
222.22	0.000
222.59	1475.000
222.97	-2900.000
223.34	1220.000
223.72	430.769
224.09	1040.000
224.46	2450.000
224.84	-5300.000
225.21	-1180.000
225.59	-4700.000
225.96	530.000
226.34	320.000
226.71	2700.000
227.08	637.500
227.46	610.000
227.83	-1425.000
228.21	-2450.000
228.58	722.222
228.95	-2500.000
229.33	-1850.000
229.70	1900.000
230.08	828.571
230.45	-820.000
230.82	550.000
231.20	816.667
231.57	728.571
231.95	475.000
232.32	286.364
232.69	463.636
233.07	814.286
233.44	430.769
233.81	-1500.000
234.19	310.526
234.56	483.333
234.93	433.333
235.31	509.091
235.68	330.769
236.05	357.143
236.43	169.697
236.80	321.053
237.17	4600.000
237.55	247.619
237.92	225.000
238.29	219.048
238.67	161.290
239.04	189.655
239.41	166.667
239.79	113.043
240.16	116.667
240.53	122.727
240.91	100.000
241.28	100.000
241.65	86.000
242.02	92.754
242.40	77.419
242.77	51.667
243.14	76.344
243.51	76.404
243.89	67.059
244.26	63.333
244.63	53.763
245.00	51.064
245.38	43.564
245.75	43.925
246.12	42.202
246.49	45.255
246.87	48.000
247.24	46.154
247.61	44.286
247.98	47.059
248.36	35.135
248.73	37.580
249.10	40.764
249.47	32.768
249.84	27.807
250.22	30.481
250.59	28.402
250.96	28.283
251.33	29.858
251.70	31.188
252.08	27.143
252.45	23.318
252.82	25.652
253.19	22.979
253.56	24.706
253.94	25.726
254.31	21.875
254.68	26.923
255.05	25.461
255.42	20.732
255.79	23.897
256.16	22.383
256.54	21.201
256.91	15.302
257.28	14.388
257.65	22.112
258.02	17.391
258.39	20.820
258.76	17.726
259.14	19.940
259.51	18.541
259.88	17.391
260.25	17.523
260.62	17.341
260.99	17.702
261.36	17.718
261.73	14.900
262.10	18.023
262.47	18.028
262.85	15.042
263.22	16.524
263.59	20.513
263.96	15.110
264.33	15.927
264.70	16.579
265.07	18.159
265.44	15.909
265.81	14.112
266.18	16.332
266.55	14.390
266.92	15.725
267.29	16.435
267.66	15.367
268.03	14.091
268.40	14.486
268.77	12.411
269.14	13.063
269.51	15.350
269.88	13.986
270.25	11.964
270.62	15.056
270.99	16.129
271.36	12.661
271.73	11.215
272.10	14.130
272.47	15.484
272.84	14.719
273.21	14.046
273.58	11.354
273.95	11.740
274.32	10.331
274.69	12.420
275.06	12.598
275.43	12.979
275.80	12.826
276.17	12.220
276.54	15.593
276.91	12.648
277.28	10.938
277.65	11.992
278.02	12.008
278.39	12.305
278.76	13.636
279.13	11.321
279.50	13.966
279.87	11.753
280.23	12.575
280.60	11.219
280.97	10.721
281.34	12.566
281.71	14.545
282.08	12.092
282.45	12.182
282.82	11.190
283.19	10.339
283.56	11.930
283.92	11.844
284.29	10.758
284.66	10.708
285.03	9.946
285.40	10.563
285.77	10.774
286.14	8.636
286.51	12.167
286.87	11.795
287.24	10.749
287.61	11.396
287.98	11.688
288.35	9.033
288.72	11.682
289.08	10.798
289.45	9.226
289.82	10.732
290.19	9.576
290.56	9.954
290.93	8.157
291.29	9.969
291.66	10.029
292.03	11.337
292.40	12.041
292.77	9.763
293.13	8.955
293.50	11.370
293.87	8.889
294.24	10.074
294.60	8.588
294.97	9.593
295.34	8.463
295.71	8.949
296.08	8.974
296.44	8.528
296.81	9.643
297.18	10.569
297.55	6.728
297.91	8.707
298.28	8.701
298.65	10.183
299.02	8.959
299.38	9.562
299.75	5.930
300.12	8.046
300.48	7.375
300.85	8.755
301.22	7.261
301.59	7.449
301.95	7.557
302.32	8.858
302.69	7.407
303.05	8.485
303.42	7.778
303.79	7.588
304.15	7.576
304.52	5.678
304.89	7.549
305.25	8.121
305.62	8.267
305.99	7.556
306.35	6.600
306.72	7.399
307.09	7.658
307.45	7.432
307.82	6.808
308.19	8.499
308.55	9.277
308.92	6.874
309.29	6.230
309.65	6.893
310.02	7.717
310.38	7.097
310.75	7.603
311.12	7.574
311.48	7.628
311.85	8.281
312.22	7.804
312.58	7.277
312.95	7.497
313.31	6.214
313.68	7.588
314.05	8.679
314.41	6.834
314.78	7.654
315.14	6.653
315.51	6.076
315.87	7.624
316.24	6.455
316.61	6.823
316.97	6.360
317.34	6.164
317.70	7.648
318.07	7.411
318.43	8.317
318.80	7.591
319.16	7.250
319.53	6.567
319.89	6.952
320.26	7.400
320.62	7.242
320.99	8.485
321.35	7.475
321.72	7.598
322.08	7.897
322.45	7.960
322.81	8.430
323.18	8.863
323.54	8.442
323.91	8.208
324.27	7.553
324.64	6.244
325.00	6.673
325.37	7.916
325.73	8.438
326.10	8.385
326.46	7.527
326.83	7.765
327.19	8.027
327.56	7.666
327.92	8.136
328.29	8.341
328.65	8.379
329.01	8.755
329.38	8.141
329.74	8.126
330.11	8.106
330.47	8.632
330.84	9.467
331.20	8.834
331.56	8.807
331.93	8.148
332.29	8.962
332.66	9.115
333.02	9.689
333.38	9.033
333.75	9.091
334.11	8.630
334.48	8.252
334.84	9.467
335.20	8.182
335.57	8.885
335.93	8.304
336.29	7.418
336.66	8.296
337.02	8.145
337.38	9.352
337.75	8.111
338.11	8.236
338.47	8.379
338.84	8.983
339.20	7.431
339.56	8.942
339.93	6.636
340.29	8.333
340.65	8.913
341.02	8.028
341.38	8.185
341.74	7.281
342.11	8.472
342.47	7.841
342.83	8.733
343.20	9.004
343.56	8.256
343.92	8.772
344.28	8.163
344.65	8.255
345.01	8.165
345.37	7.290
345.73	9.137
346.10	8.696
346.46	8.475
346.82	7.743
347.19	7.185
347.55	7.718
347.91	8.172
348.27	7.970
348.63	8.110
349.00	7.524
349.36	9.031
349.72	8.019
350.08	8.347
350.45	8.055
350.81	8.123
351.17	8.590
351.53	8.436
351.89	7.178
352.26	8.998
352.62	7.779
352.98	6.807
353.34	7.395
353.70	7.529
354.07	8.710
354.43	7.222
354.79	6.597
355.15	7.662
355.51	7.834
355.87	7.265
356.24	7.166
356.60	6.255
356.96	6.838
357.32	7.441
357.68	8.189
358.04	7.838
358.40	8.076
358.77	7.746
359.13	6.946
359.49	7.608
359.85	5.794
360.21	7.257
360.57	8.716
360.93	7.846
361.29	8.088
361.66	7.121
362.02	7.836
362.38	6.616
362.74	7.143
363.10	6.736
363.46	7.043
363.82	6.500
364.18	7.489
364.54	7.578
364.90	7.295
365.26	6.765
365.62	6.720
365.98	6.282
366.35	6.447
366.71	7.809
367.07	6.628
367.43	6.676
367.79	7.352
368.15	8.405
368.51	6.177
368.87	7.066
369.23	6.657
369.59	7.169
369.95	5.956
370.31	7.336
370.67	7.246
371.03	6.891
371.39	7.070
371.75	6.691
372.11	7.183
372.47	7.185
372.83	7.349
373.19	7.153
373.55	6.652
373.91	8.321
374.27	6.804
374.63	6.473
374.99	7.698
375.35	5.652
375.71	6.717
376.07	6.996
376.42	6.327
376.78	6.693
377.14	6.174
377.50	6.026
377.86	6.250
378.22	6.574
378.58	5.827
378.94	6.097
379.30	5.407
379.66	6.345
380.02	6.204
380.38	5.889
380.74	6.543
381.09	5.623
381.45	6.454
381.81	6.695
382.17	6.433
382.53	6.415
382.89	6.296
383.25	5.691
383.61	6.010
383.97	6.817
384.32	5.490
384.68	6.134
385.04	6.761
385.40	5.263
385.76	6.388
386.12	5.894
386.48	6.797
386.83	6.414
387.19	6.865
387.55	6.061
387.91	5.865
388.27	6.131
388.62	7.130
388.98	5.528
389.34	7.071
389.70	5.947
390.06	6.781
390.42	6.420
390.77	6.743
391.13	6.254
391.49	6.472
391.85	6.365
392.20	5.174
392.56	6.061
392.92	6.121
393.28	5.030
393.64	6.295
393.99	6.231
394.35	6.266
394.71	5.583
395.07	6.044
395.42	5.995
395.78	6.170
396.14	6.828
396.50	6.516
396.85	6.294
397.21	6.104
397.57	5.704
397.92	5.950
398.28	4.204
398.64	6.810
399.00	5.876
399.35	5.979
399.71	5.729
400.07	6.328
400.42	6.319
400.78	6.273
401.14	6.341
401.49	5.493
401.85	6.413
402.21	5.509
402.57	5.429
402.92	6.053
403.28	6.184
403.63	5.693
403.99	5.605
404.35	5.818
404.70	5.516
405.06	5.941
405.42	5.427
405.77	5.657
406.13	6.264
406.49	5.736
406.84	6.320
407.20	5.260
407.55	5.361
407.91	6.333
408.27	5.297
408.62	6.081
408.98	6.434
409.34	5.781
409.69	6.516
410.05	5.576
410.40	5.688
410.76	5.376
411.11	6.393
411.47	5.942
411.83	6.292
412.18	5.813
412.54	5.978
412.89	6.265
413.25	5.726
413.60	6.238
413.96	5.343
414.31	6.075
414.67	6.844
415.03	5.894
415.38	6.508
415.74	6.431
416.09	6.793
416.45	5.489
416.80	5.816
417.16	6.233
417.51	6.967
417.87	6.294
418.22	6.057
418.58	6.649
418.93	6.634
419.29	7.257
419.64	6.675
420.00	6.220
420.35	6.725
420.71	6.635
421.06	6.146
421.42	6.374
421.77	5.942
422.12	5.222
422.48	5.559
422.83	5.708
423.19	6.243
423.54	6.152
423.90	6.261
424.25	6.198
424.61	5.536
424.96	5.948
425.31	5.980
425.67	5.787
426.02	5.657
426.38	6.471
426.73	5.325
427.09	6.201
427.44	6.095
427.79	5.865
428.15	6.726
428.50	6.085
428.85	6.019
429.21	5.964
429.56	4.977
429.92	5.234
430.27	5.462
430.62	5.274
430.98	6.279
431.33	5.773
431.68	5.602
432.04	5.857
432.39	6.511
432.74	6.643
433.10	5.546
433.45	5.656
433.80	5.876
434.16	5.769
434.51	5.842
434.86	5.986
435.22	5.948
435.57	6.444
435.92	6.027
436.28	6.228
436.63	6.954
436.98	6.354
437.34	6.202
437.69	6.768
438.04	5.790
438.39	6.507
438.75	6.043
439.10	6.089
439.45	7.025
439.81	5.982
440.16	5.816
440.51	6.268
440.86	6.833
441.22	5.784
441.57	6.423
441.92	6.244
442.27	5.867
442.63	6.161
442.98	6.028
443.33	5.870
443.68	6.040
444.03	5.759
444.39	5.063
444.74	6.277
445.09	6.469
445.44	6.616
445.79	6.136
446.15	6.829
446.50	6.193
446.85	6.064
447.20	5.813
447.55	5.918
447.91	6.343
448.26	5.899
448.61	5.766
448.96	6.368
449.31	6.637
449.66	6.584
450.02	6.128
450.37	5.442
450.72	6.148
451.07	6.094
451.42	5.410
451.77	6.753
452.12	7.102
452.47	5.784
452.83	6.469
453.18	6.601
453.53	6.555
453.88	6.143
454.23	6.157
454.58	7.026
454.93	7.057
455.28	5.923
455.63	6.371
455.98	6.726
456.34	6.658
456.69	7.138
457.04	7.121
457.39	6.780
457.74	6.674
458.09	7.303
458.44	6.499
458.79	6.453
459.14	6.659
459.49	6.188
459.84	6.260
460.19	6.423
460.54	6.481
460.89	6.308
461.24	7.347
461.59	7.205
461.94	6.227
462.29	6.944
462.64	7.020
462.99	6.441
463.34	7.800
463.69	7.004
464.04	6.899
464.39	6.551
464.74	6.952
465.09	6.695
465.44	5.706
465.79	5.649
466.14	6.787
466.49	6.841
466.84	7.064
467.19	7.363
467.54	7.375
467.89	6.543
468.24	6.923
468.59	7.448
468.94	5.987
469.29	6.748
469.64	7.430
469.99	6.766
470.34	6.539
470.68	6.968
471.03	6.939
471.38	7.297
471.73	6.929
472.08	7.500
472.43	6.533
472.78	6.847
473.13	7.125
473.48	7.241
473.83	7.195
474.17	6.409
474.52	7.134
474.87	7.297
475.22	6.616
475.57	6.394
475.92	6.054
476.27	6.877
476.61	6.729
476.96	5.992
477.31	6.803
477.66	6.400
478.01	6.273
478.36	6.452
478.70	6.490
479.05	6.496
479.40	6.807
479.75	5.440
480.10	5.765
480.45	5.997
480.79	5.590
481.14	6.018
481.49	6.360
481.84	6.036
482.19	5.725
482.53	6.376
482.88	6.282
483.23	6.168
483.58	6.142
483.92	6.326
484.27	5.447
484.62	5.733
484.97	5.479
485.31	5.377
485.66	4.621
486.01	3.924
486.36	3.883
486.70	3.971
487.05	4.398
487.40	4.750
487.75	4.491
488.09	5.156
488.44	5.003
488.79	5.570
489.13	5.233
489.48	5.873
489.83	5.568
490.17	5.699
490.52	6.333
490.87	5.699
491.22	5.366
491.56	5.148
491.91	5.910
492.26	5.328
492.60	5.806
492.95	5.426
493.30	6.075
493.64	5.366
493.99	5.664
494.34	5.920
494.68	5.861
495.03	6.015
495.37	5.910
495.72	5.556
496.07	6.172
496.41	5.664
496.76	6.332
497.11	5.538
497.45	5.776
497.80	6.238
498.14	5.749
498.49	5.707
498.84	6.280
499.18	5.619
499.53	5.651
499.87	6.477
500.22	6.547
500.56	6.359
500.91	5.577
501.26	6.022
501.60	6.122
501.95	6.004
502.29	6.186
502.64	6.145
502.98	5.657
503.33	5.622
503.67	5.800
504.02	6.221
504.36	5.943
504.71	5.667
505.06	6.024
505.40	5.980
505.75	5.593
506.09	5.539
506.44	5.821
506.78	6.137
507.13	6.159
507.47	6.667
507.82	6.332
508.16	5.826
508.51	6.139
508.85	5.114
509.19	6.122
509.54	6.173
509.88	6.079
510.23	5.913
510.57	6.863
510.92	6.629
511.26	6.423
511.61	6.483
511.95	5.898
512.30	6.045
512.64	6.233
512.98	6.324
513.33	6.585
513.67	6.137
514.02	5.682
514.36	6.772
514.70	6.862
515.05	6.414
515.39	7.235
515.74	6.419
516.08	6.708
516.42	6.659
516.77	7.023
517.11	6.770
517.46	7.280
517.80	6.736
518.14	6.312
518.49	6.884
518.83	6.761
519.17	7.102
519.52	6.904
519.86	6.560
520.20	7.630
520.55	7.421
520.89	7.421
521.23	7.901
521.58	6.783
521.92	6.736
522.26	6.894
522.61	7.040
522.95	6.139
523.29	6.999
523.64	6.951
523.98	6.778
524.32	6.393
524.66	7.456
525.01	7.047
525.35	7.497
525.69	6.897
526.04	6.978
526.38	7.810
526.72	7.362
527.06	7.282
527.41	7.054
527.75	7.460
528.09	7.579
528.43	7.011
528.78	7.744
529.12	7.030
529.46	6.859
529.80	7.797
530.15	7.664
530.49	7.877
530.83	7.595
531.17	7.963
531.51	7.912
531.86	7.419
532.20	7.692
532.54	7.751
532.88	7.574
533.22	7.308
533.57	7.346
533.91	7.586
534.25	7.290
534.59	6.528
534.93	7.615
535.27	7.664
535.62	7.387
535.96	7.847
536.30	6.929
536.64	7.534
536.98	7.764
537.32	6.781
537.66	6.933
538.01	6.715
538.35	8.209
538.69	7.722
539.03	7.602
539.37	6.709
539.71	6.935
540.05	7.647
540.39	7.243
540.73	6.986
541.07	7.333
541.42	7.958
541.76	8.323
542.10	7.891
542.44	7.351
542.78	8.564
543.12	7.102
543.46	8.066
543.80	7.612
544.14	6.996
544.48	7.937
544.82	7.377
545.16	6.831
545.50	7.455
545.84	7.191
546.18	8.754
546.52	7.639
546.86	6.873
547.20	7.889
547.54	7.415
547.88	8.227
548.22	7.597
548.56	7.862
548.90	7.426
549.24	6.936
549.58	8.049
549.92	8.104
550.26	7.670
550.60	7.676
550.94	7.394
551.28	7.096
551.62	7.405
551.96	7.719
552.30	8.942
552.64	7.776
552.98	7.797
553.32	8.159
553.66	8.862
554.00	8.579
554.34	6.832
554.68	8.298
555.02	7.969
555.36	7.585
555.69	7.781
556.03	8.479
556.37	7.913
556.71	6.685
557.05	7.703
557.39	8.188
557.73	7.904
558.07	7.977
558.41	7.525
558.75	7.568
559.08	7.905
559.42	8.390
559.76	8.603
560.10	7.637
560.44	7.966
560.78	6.919
561.12	7.454
561.45	8.475
561.79	7.185
562.13	6.908
562.47	7.377
562.81	6.974
563.15	7.559
563.48	7.891
563.82	7.306
564.16	7.652
564.50	6.706
564.84	7.649
565.17	7.400
565.51	6.901
565.85	7.234
566.19	7.138
566.52	7.030
566.86	6.751
567.20	7.547
567.54	6.792
567.88	5.921
568.21	6.720
568.55	5.763
568.89	6.274
569.23	6.150
569.56	5.749
569.90	5.660
570.24	5.310
570.57	5.100
570.91	4.751
571.25	5.127
571.59	5.302
571.92	5.069
572.26	5.142
572.60	5.465
572.93	4.648
573.27	5.383
573.61	5.053
573.95	4.961
574.28	4.774
574.62	4.616
574.96	4.779
575.29	4.631
575.63	4.802
575.97	4.999
576.30	4.992
576.64	4.524
576.98	4.594
577.31	4.506
577.65	4.625
577.98	4.383
578.32	4.388
578.66	4.822
578.99	4.656
579.33	4.745
579.67	4.451
580.00	4.627
580.34	4.841
580.67	4.538
581.01	4.857
581.35	4.357
581.68	4.259
582.02	4.163
582.35	4.376
582.69	4.529
583.02	4.541
583.36	4.842
583.70	4.995
584.03	4.728
584.37	5.059
584.70	4.781
585.04	5.015
585.37	5.009
585.71	4.723
586.04	5.098
586.38	5.120
586.72	5.164
587.05	4.890
587.39	4.591
587.72	5.128
588.06	5.016
588.39	5.021
588.73	5.075
589.06	5.391
589.40	5.354
589.73	5.104
590.07	5.374
590.40	5.663
590.73	5.621
591.07	6.105
591.40	6.242
591.74	6.753
592.07	6.152
592.41	5.912
592.74	5.506
593.08	5.829
593.41	5.062
593.75	5.153
594.08	5.464
594.41	5.726
594.75	5.582
595.08	5.906
595.42	5.499
595.75	5.413
596.09	5.670
596.42	5.737
596.75	5.994
597.09	6.407
597.42	5.691
597.75	6.425
598.09	6.174
598.42	5.241
598.76	5.756
599.09	5.321
599.42	5.349
599.76	5.600
600.09	5.246
600.42	5.588
600.76	5.357
601.09	5.319
601.42	5.594
601.76	5.693
602.09	5.494
602.42	6.051
602.76	6.489
603.09	5.901
603.42	6.013
603.76	5.755
604.09	5.390
604.42	5.300
604.76	6.326
605.09	5.898
605.42	6.156
605.75	5.671
606.09	5.449
606.42	5.599
606.75	5.931
607.09	5.818
607.42	5.734
607.75	5.401
608.08	5.688
608.42	6.006
608.75	6.132
609.08	6.244
609.41	6.140
609.75	6.241
610.08	5.938
610.41	6.052
610.74	5.676
611.07	6.621
611.41	6.428
611.74	6.988
612.07	6.263
612.40	6.978
612.73	6.053
613.07	6.735
613.40	7.162
613.73	6.240
614.06	6.667
614.39	6.922
614.72	7.211
615.06	7.038
615.39	5.892
615.72	6.442
616.05	6.061
616.38	6.670
616.71	6.651
617.05	7.538
617.38	6.975
617.71	6.486
618.04	7.332
618.37	6.446
618.70	7.405
619.03	7.763
619.36	7.875
619.69	7.676
620.03	7.761
620.36	8.422
620.69	7.808
621.02	8.112
621.35	7.909
621.68	8.022
622.01	9.056
622.34	7.791
622.67	7.681
623.00	7.410
623.33	6.433
623.66	7.648
623.99	7.364
624.32	7.917
624.65	7.345
624.99	6.728
625.32	7.531
625.65	7.663
625.98	8.839
626.31	9.253
626.64	8.408
626.97	8.562
627.30	8.229
627.63	8.532
627.96	8.747
628.29	8.486
628.62	9.790
628.95	10.943
629.28	8.759
629.61	9.624
629.94	9.143
630.26	8.198
630.59	8.770
630.92	9.100
631.25	8.193
631.58	9.710
631.91	9.128
632.24	8.966
632.57	9.444
632.90	9.759
633.23	9.396
633.56	10.395
633.89	11.212
634.22	11.464
634.55	10.414
634.88	8.862
635.20	12.186
635.53	10.120
635.86	9.158
636.19	10.941
636.52	10.611
636.85	9.164
637.18	9.908
637.51	11.702
637.83	8.755
638.16	10.102
638.49	10.453
638.82	13.401
639.15	10.500
639.48	11.471
639.81	12.064
640.13	10.547
640.46	11.409
640.79	13.078
641.12	11.692
641.45	10.754
641.77	11.929
642.10	13.304
642.43	12.012
642.76	11.300
643.09	12.577
643.41	11.229
643.74	14.198
644.07	12.043
644.40	13.804
644.73	11.969
645.05	14.422
645.38	12.638
645.71	12.560
646.04	14.618
646.36	13.189
646.69	14.381
647.02	12.585
647.35	13.402
647.67	13.982
648.00	13.496
648.33	12.706
648.66	12.273
648.98	12.444
649.31	13.154
649.64	13.004
649.96	13.115
650.29	12.480
650.62	13.107
650.94	14.587
651.27	15.709
651.60	14.476
651.92	14.377
652.25	12.866
652.58	12.617
652.90	13.270
653.23	11.402
653.56	12.283
653.88	12.520
654.21	14.376
654.54	11.221
654.86	14.174
655.19	11.216
655.52	5.499
655.84	3.146
656.17	3.329
656.49	4.633
656.82	5.025
657.15	4.079
657.47	3.208
657.80	2.689
658.13	2.856
658.45	4.578
658.78	4.678
659.10	5.470
659.43	6.229
659.75	6.744
660.08	7.532
660.41	9.311
660.73	11.944
661.06	11.306
661.38	16.000
661.71	14.038
662.03	13.215
662.36	14.513
662.68	14.859
663.01	12.525
663.33	15.499
663.66	13.866
663.98	14.903
664.31	12.395
664.63	14.575
664.96	15.493
665.28	15.779
665.61	14.620
665.93	14.085
666.26	14.402
666.58	13.598
666.91	14.376
667.23	15.056
667.56	13.607
667.88	17.735
668.21	19.190
668.53	15.618
668.86	14.935
669.18	15.991
669.50	17.609
669.83	18.954
670.15	16.444
670.48	15.686
670.80	16.164
671.13	16.773
671.45	15.319
671.77	15.479
672.10	15.896
672.42	14.134
672.75	13.101
673.07	13.028
673.39	13.924
673.72	12.305
674.04	13.725
674.37	15.534
674.69	12.679
675.01	15.063
675.34	16.427
675.66	17.474
675.98	15.886
676.31	16.807
676.63	15.499
676.95	16.143
677.28	14.953
677.60	16.703
677.92	14.557
678.25	15.811
678.57	14.542
678.89	15.230
679.22	14.342
679.54	13.359
679.86	14.862
680.18	13.775
680.51	13.652
680.83	13.345
681.15	15.094
681.48	16.824
681.80	15.087
682.12	13.602
682.44	12.186
682.77	16.497
683.09	17.167
683.41	13.969
683.73	15.673
684.06	14.669
684.38	14.481
684.70	14.147
685.02	14.822
685.34	13.553
685.67	12.762
685.99	13.402
686.31	12.287
686.63	13.604
686.96	10.536
687.28	14.982
687.60	12.319
687.92	13.528
688.24	13.498
688.56	14.859
688.89	15.975
689.21	16.376
689.53	13.570
689.85	16.408
690.17	12.215
690.49	20.170
690.82	15.187
691.14	13.393
691.46	14.346
691.78	18.474
692.10	14.463
692.42	14.970
692.74	14.315
693.06	14.894
693.39	17.043
693.71	13.100
694.03	17.895
694.35	14.935
694.67	16.247
694.99	15.854
695.31	14.951
695.63	17.225
695.95	19.560
696.27	13.452
696.59	17.617
696.91	16.321
697.23	15.962
697.56	15.991
697.88	11.656
698.20	14.583
698.52	15.484
698.84	17.595
699.16	18.203
699.48	16.152
699.80	16.667
700.12	20.519
700.44	18.833
700.76	19.061
701.08	19.540
701.40	18.156
701.72	20.408
702.04	21.875
702.36	17.847
702.68	20.113
703.00	18.837
703.32	17.553
703.64	17.694
703.96	17.270
704.28	19.477
704.60	21.994
704.91	20.475
705.23	22.287
705.55	23.588
705.87	23.588
706.19	22.615
706.51	22.741
706.83	22.121
707.15	20.728
707.47	17.424
707.79	16.708
708.11	17.352
708.43	17.143
708.74	14.796
709.06	18.961
709.38	17.060
709.70	19.477
710.02	21.662
710.34	17.576
710.66	20.597
710.98	19.034
711.29	19.477
711.61	20.354
711.93	19.231
712.25	21.865
712.57	17.279
712.89	21.107
713.20	21.277
713.52	21.053
713.84	19.620
714.16	22.256
714.48	17.241
714.80	22.492
715.11	20.461
715.43	17.211
715.75	18.841
716.07	21.406
716.39	18.809
716.70	22.259
717.02	23.381
717.34	21.555
717.66	26.493
717.97	23.506
718.29	28.519
718.61	20.073
718.93	24.632
719.24	22.491
719.56	17.627
719.88	20.339
720.20	23.311
720.51	24.042
720.83	24.535
721.15	26.119
721.46	19.504
721.78	26.882
722.10	24.151
722.42	21.805
722.73	24.719
723.05	25.410
723.37	23.077
723.68	27.799
724.00	23.577
724.32	27.823
724.63	24.797
724.95	26.360
725.27	21.862
725.58	26.562
725.90	27.007
726.22	23.396
726.53	22.569
726.85	26.280
727.16	23.488
727.48	20.922
727.80	19.318
728.11	21.739
728.43	22.692
728.74	24.731
729.06	25.912
729.38	25.368
729.69	27.046
730.01	19.113
730.32	19.792
730.64	24.415
730.96	20.132
731.27	21.523
731.59	20.795
731.90	20.700
732.22	19.255
732.53	21.672
732.85	19.551
733.16	19.614
733.48	18.272
733.80	21.104
734.11	21.975
734.43	20.710
734.74	17.714
735.06	17.765
735.37	22.254
735.69	16.879
736.00	24.837
736.32	22.118
736.63	18.211
736.95	22.364
737.26	18.707
737.58	18.065
737.89	23.746
738.21	23.549
738.52	18.929
738.83	19.245
739.15	23.077
739.46	20.803
739.78	19.097
740.09	19.692
740.41	20.000
740.72	20.209
741.04	21.852
741.35	23.333
741.66	32.000
741.98	25.943
742.29	30.144
742.61	29.310
742.92	27.149
743.23	28.205
743.55	27.200
743.86	28.070
744.18	31.858
744.49	31.579
744.80	30.047
745.12	34.091
745.43	32.159
745.74	36.486
746.06	27.064
746.37	28.700
746.68	28.054
747.00	31.944
747.31	34.286
747.62	26.549
747.94	22.907
748.25	29.362
748.56	30.396
748.88	28.218
749.19	31.500
749.50	26.047
749.82	21.545
750.13	21.224
750.44	23.723
750.75	21.404
751.07	22.508
751.38	20.906
751.69	23.466
752.01	25.564
752.32	20.578
752.63	24.823
752.94	22.951
753.26	25.600
753.57	24.797
753.88	26.562
754.19	19.286
754.51	23.264
754.82	17.329
755.13	22.264
755.44	25.564
755.75	22.263
756.07	20.213
756.38	21.168
756.69	18.792
757.00	20.060
757.31	19.585
757.63	21.053
757.94	17.694
758.25	16.176
758.56	16.543
758.87	18.011
759.18	22.424
759.50	21.317
759.81	19.938
760.12	18.750
760.43	16.905
760.74	16.304
761.05	20.339
761.36	19.786
761.67	20.170
761.99	19.255
762.30	25.000
762.61	23.282
762.92	27.344
763.23	23.109
763.54	24.800
763.85	22.656
764.16	26.923
764.47	26.236
764.78	21.555
765.10	19.304
765.41	18.289
765.72	19.760
766.03	18.495
766.34	22.333
766.65	27.660
766.96	25.214
767.27	33.503
767.58	34.896
767.89	35.263
768.20	33.333
768.51	30.964
768.82	29.817
769.13	25.610
769.44	21.862
769.75	27.039
770.06	24.771
770.37	30.317
770.68	30.093
770.99	30.667
771.30	26.230
771.61	26.906
771.92	23.361
772.23	33.193
772.54	33.846
772.85	34.031
773.16	31.383
773.47	37.500
773.78	38.579
774.09	30.952
774.39	35.088
774.70	38.272
775.01	38.406
775.32	41.830
775.63	40.789
775.94	38.849
776.25	54.331
776.56	48.507
776.87	50.000
777.18	42.969
777.48	48.092
777.79	44.697
778.10	50.370
778.41	45.536
778.72	33.577
779.03	40.268
779.34	38.926
779.65	34.459
779.95	37.423
780.26	35.948
780.57	39.310
780.88	52.344
781.19	37.594
781.50	43.919
781.80	40.252
782.11	32.768
782.42	29.747
782.73	36.196
783.04	47.973
783.34	41.549
783.65	51.370
783.96	45.522
784.27	37.762
784.57	30.935
784.88	37.037
785.19	42.063
785.50	56.604
785.81	47.015
786.11	57.377
786.42	48.062
786.73	53.097
787.04	50.943
787.34	50.893
787.65	52.000
787.96	45.946
788.26	42.975
788.57	55.085
788.88	42.975
789.19	49.306
789.49	52.273
789.80	52.672
790.11	59.048
790.41	62.376
790.72	51.807
791.03	51.087
791.33	53.488
791.64	53.608
791.95	62.376
792.25	71.111
792.56	80.519
792.87	71.795
793.17	92.405
793.48	88.506
793.79	62.069
794.09	67.045
794.40	50.420
794.70	47.059
795.01	42.963
795.32	38.129
795.62	46.457
795.93	44.828
796.23	46.018
796.54	71.765
796.85	58.108
797.15	85.915
797.46	71.212
797.76	66.265
798.07	55.696
798.37	70.769
798.68	68.182
798.99	76.056
799.29	85.714
799.60	69.318
799.90	83.562
800.21	94.030
800.51	94.828
800.82	94.737
801.12	96.721
801.43	96.970
801.73	75.676
802.04	98.413
802.34	83.951
802.65	90.625
802.95	101.695
803.26	96.875
803.56	90.000
803.87	69.231
804.17	89.706
804.48	100.000
804.78	98.276
805.09	91.176
805.39	82.692
805.70	78.571
806.00	101.639
806.30	74.242
806.61	84.146
806.91	74.684
807.22	64.474
807.52	61.194
807.83	84.507
808.13	95.312
808.43	100.000
808.74	76.316
809.04	92.754
809.35	100.000
809.65	61.842
809.95	93.548
810.26	91.525
810.56	87.302
810.86	115.909
811.17	119.048
811.47	96.667
811.77	81.481
812.08	116.364
812.38	112.000
812.69	133.333
812.99	147.727
813.29	140.816
813.59	92.857
813.90	116.327
814.20	101.818
814.50	66.154
814.81	101.471
815.11	114.286
815.41	98.361
815.72	123.810
816.02	107.273
816.32	128.571
816.62	127.500
816.93	131.707
817.23	138.095
817.53	134.091
817.84	166.667
818.14	147.826
818.44	128.889
818.74	155.882
819.04	117.500
819.35	137.143
819.65	164.706
819.95	167.857
820.25	200.000
820.56	161.538
820.86	159.091
821.16	130.233
821.46	138.462
821.76	136.000
822.07	140.000
822.37	137.500
822.67	154.545
822.97	111.765
823.27	182.143
823.57	170.270
823.88	160.000
824.18	190.000
824.48	159.524
824.78	232.000
825.08	170.833
825.38	164.865
825.69	146.341
825.99	216.667
826.29	131.034
826.59	173.684
826.89	136.842
827.19	173.529
827.49	177.419
827.79	150.000
828.09	163.636
828.39	129.787
828.70	130.612
829.00	159.259
829.30	154.839
829.60	150.000
829.90	333.333
830.20	200.000
830.50	182.609
830.80	200.000
831.10	196.667
831.40	166.667
831.70	204.348
832.00	211.538
832.30	222.222
832.60	275.000
832.90	190.000
833.20	392.857
833.50	196.774
833.80	165.517
834.10	200.000
834.40	242.308
834.70	300.000
835.00	300.000
835.30	185.714
835.60	323.077
835.90	213.793
836.20	321.429
836.50	206.897
836.80	224.000
837.10	180.556
837.40	247.619
837.70	347.059
838.00	207.407
838.30	233.333
838.60	304.762
838.90	238.462
839.19	240.000
839.49	385.714
839.79	370.000
840.09	230.000
840.39	261.905
840.69	247.826
840.99	261.111
841.29	530.000
841.59	366.667
841.88	381.250
842.18	189.655
842.48	242.857
842.78	213.333
843.08	243.478
843.38	193.750
843.68	883.333
843.97	215.385
844.27	182.759
844.57	314.286
844.87	381.250
845.17	259.259
845.47	1700.000
845.76	500.000
846.06	294.118
846.36	600.000
846.66	371.429
846.96	318.750
847.25	545.455
847.55	436.364
847.85	265.217
848.15	510.000
848.44	300.000
848.74	288.889
849.04	264.706
849.34	560.000
849.63	289.474
849.93	454.545
850.23	980.000
850.53	450.000
850.82	2150.000
851.12	-4900.000
851.42	4100.000
851.71	270.000
852.01	-1266.667
852.31	250.000
852.61	1866.667
852.90	266.667
853.20	236.000
853.50	347.059
853.79	271.429
854.09	208.333
854.39	387.500
854.68	159.459
854.98	187.097
855.28	206.667
855.57	203.448
855.87	207.407
856.17	205.263
856.46	253.333
856.76	294.118
857.05	200.000
857.35	237.500
857.65	326.667
857.94	278.261
858.24	257.692
858.53	305.000
858.83	254.545
859.13	353.333
859.42	0.000
859.72	577.778
860.01	436.364
860.31	240.909
860.60	305.263
860.90	230.435
861.20	600.000
861.49	516.667
861.79	-4800.000
862.08	612.500
862.38	242.857
862.67	376.923
862.97	400.000
863.26	477.778
863.56	316.667
863.85	458.333
864.15	675.000
864.44	360.000
864.74	833.333
865.03	687.500
865.33	278.947
865.62	490.909
865.92	392.308
866.21	416.667
866.51	0.000
866.80	490.909
867.10	1160.000
867.39	438.462
867.69	490.909
867.98	310.526
868.27	418.182
868.57	305.263
868.86	-5200.000
869.16	375.000
869.45	2650.000
869.75	-4300.000
870.04	491.667
870.33	814.286
870.63	1150.000
870.92	2700.000
871.22	728.571
871.51	394.118
871.80	252.381
872.10	407.143
>>>>>End Processed Spectral Data<<<<<
