SpectraSuite Data File
++++++++++++++++++++++++++++++++++++
Date: Tue May 12 19:40:37 PDT 2015
User: schluterlab
Dark Spectrum Present: Yes
Reference Spectrum Present: Yes
Number of Sampled Component Spectra: 1
Spectrometers: USB2E3373
Integration Time (usec): 3000 (USB2E3373)
Spectra Averaged: 3 (USB2E3373)
Boxcar Smoothing: 0 (USB2E3373)
Correct for Electrical Dark: No (USB2E3373)
Strobe/Lamp Enabled: No (USB2E3373)
Correct for Detector Non-linearity: No (USB2E3373)
Correct for Stray Light: No (USB2E3373)
Number of Pixels in Processed Spectrum: 2048
>>>>>Begin Processed Spectral Data<<<<<
178.53	0.000
178.91	-50.000
179.29	-133.333
179.67	166.667
180.04	0.000
180.42	-160.000
180.80	-600.000
181.18	550.000
181.56	100.000
181.94	200.000
182.31	1400.000
182.69	-114.286
183.07	0.000
183.45	158.333
183.83	260.000
184.20	366.667
184.58	950.000
184.96	283.333
185.34	-166.667
185.72	-7.143
186.09	-33.333
186.47	-700.000
186.85	20.000
187.23	133.333
187.61	-157.143
187.98	-140.000
188.36	100.000
188.74	-150.000
189.12	-44.444
189.49	-40.000
189.87	275.000
190.25	55.556
190.63	366.667
191.00	40.000
191.38	-333.333
191.76	460.000
192.14	-57.143
192.51	-50.000
192.89	0.000
193.27	-20.000
193.65	-233.333
194.02	0.000
194.40	1100.000
194.78	0.000
195.15	-57.143
195.53	-100.000
195.91	120.000
196.29	-175.000
196.66	-233.333
197.04	-71.429
197.42	60.000
197.79	-75.000
198.17	-58.333
198.55	-300.000
198.92	-22.222
199.30	800.000
199.68	-200.000
200.05	-450.000
200.43	-22.222
200.81	-83.333
201.18	400.000
201.56	-350.000
201.94	-1200.000
202.31	8.333
202.69	66.667
203.07	-16.667
203.44	-550.000
203.82	0.000
204.19	237.500
204.57	-100.000
204.95	200.000
205.32	200.000
205.70	175.000
206.08	-500.000
206.45	-100.000
206.83	1900.000
207.20	-33.333
207.58	-15.385
207.96	433.333
208.33	633.333
208.71	266.667
209.08	400.000
209.46	77.778
209.84	666.667
210.21	-266.667
210.59	200.000
210.96	277.778
211.34	-100.000
211.71	950.000
212.09	-80.000
212.46	-200.000
212.84	-50.000
213.22	14.286
213.59	-62.500
213.97	0.000
214.34	-150.000
214.72	-300.000
215.09	500.000
215.47	-13.333
215.84	12.500
216.22	-1800.000
216.59	600.000
216.97	-33.333
217.34	-33.333
217.72	38.889
218.09	425.000
218.47	-63.158
218.84	-50.000
219.22	7.143
219.59	-60.000
219.97	-100.000
220.34	133.333
220.72	-9.091
221.09	-500.000
221.47	0.000
221.84	-150.000
222.22	-175.000
222.59	-325.000
222.97	-4.348
223.34	126.667
223.72	271.429
224.09	-233.333
224.46	169.231
224.84	-66.667
225.21	-300.000
225.59	0.000
225.96	80.000
226.34	50.000
226.71	70.000
227.08	-46.154
227.46	-85.714
227.83	33.333
228.21	-350.000
228.58	283.333
228.95	-47.368
229.33	6.250
229.70	-150.000
230.08	-33.333
230.45	-33.333
230.82	0.000
231.20	9.524
231.57	-240.000
231.95	33.333
232.32	22.222
232.69	-150.000
233.07	-12.500
233.44	-37.500
233.81	41.935
234.19	-260.000
234.56	-5.556
234.93	-166.667
235.31	0.000
235.68	29.630
236.05	-15.385
236.43	0.000
236.80	18.182
237.17	-85.714
237.55	30.000
237.92	27.907
238.29	16.129
238.67	14.286
239.04	5.714
239.41	5.882
239.79	14.000
240.16	12.500
240.53	-8.621
240.91	10.959
241.28	8.451
241.65	12.500
242.02	5.263
242.40	5.333
242.77	7.368
243.14	17.647
243.51	6.452
243.89	5.714
244.26	7.407
244.63	20.408
245.00	3.571
245.38	5.882
245.75	5.932
246.12	10.156
246.49	19.200
246.87	13.115
247.24	5.634
247.61	13.907
247.98	17.416
248.36	12.579
248.73	11.932
249.10	8.333
249.47	12.500
249.84	8.122
250.22	8.854
250.59	6.742
250.96	15.000
251.33	15.094
251.70	17.431
252.08	17.749
252.45	12.653
252.82	9.705
253.19	14.397
253.56	16.078
253.94	18.699
254.31	17.266
254.68	13.194
255.05	17.550
255.42	15.636
255.79	17.550
256.16	16.319
256.54	17.273
256.91	15.064
257.28	15.909
257.65	15.738
258.02	13.814
258.39	15.710
258.76	15.291
259.14	13.235
259.51	15.493
259.88	17.867
260.25	13.068
260.62	13.764
260.99	15.042
261.36	13.793
261.73	13.600
262.10	16.894
262.47	14.876
262.85	17.995
263.22	14.785
263.59	15.282
263.96	16.188
264.33	9.973
264.70	14.988
265.07	13.547
265.44	14.520
265.81	18.313
266.18	15.691
266.55	16.190
266.92	15.179
267.29	17.556
267.66	14.091
268.03	16.774
268.40	16.247
268.77	16.927
269.14	12.815
269.51	12.217
269.88	14.103
270.25	14.135
270.62	17.227
270.99	14.316
271.36	13.024
271.73	14.167
272.10	16.805
272.47	13.800
272.84	13.163
273.21	13.152
273.58	13.673
273.95	14.741
274.32	14.507
274.69	16.047
275.06	13.884
275.43	13.800
275.80	16.252
276.17	13.834
276.54	16.350
276.91	14.971
277.28	17.215
277.65	12.098
278.02	13.068
278.39	15.245
278.76	13.594
279.13	16.100
279.50	15.884
279.87	14.151
280.23	15.301
280.60	12.367
280.97	14.763
281.34	15.932
281.71	14.210
282.08	15.206
282.45	12.875
282.82	14.478
283.19	12.795
283.56	15.529
283.92	12.480
284.29	15.567
284.66	13.097
285.03	14.237
285.40	15.500
285.77	15.928
286.14	13.154
286.51	15.273
286.87	14.911
287.24	11.859
287.61	11.883
287.98	16.119
288.35	13.178
288.72	13.609
289.08	12.107
289.45	12.949
289.82	12.733
290.19	13.182
290.56	14.327
290.93	11.521
291.29	13.191
291.66	13.202
292.03	14.060
292.40	15.540
292.77	12.245
293.13	11.894
293.50	13.361
293.87	12.760
294.24	12.360
294.60	12.568
294.97	11.773
295.34	12.740
295.71	10.818
296.08	9.426
296.44	13.702
296.81	11.643
297.18	11.255
297.55	11.432
297.91	12.310
298.28	10.997
298.65	10.608
299.02	12.084
299.38	11.480
299.75	11.326
300.12	12.590
300.48	11.268
300.85	10.758
301.22	11.779
301.59	10.706
301.95	12.927
302.32	9.478
302.69	9.512
303.05	9.681
303.42	10.386
303.79	9.438
304.15	10.532
304.52	10.838
304.89	10.034
305.25	10.092
305.62	10.795
305.99	10.862
306.35	10.179
306.72	10.784
307.09	10.229
307.45	10.464
307.82	10.779
308.19	12.321
308.55	10.443
308.92	9.852
309.29	10.983
309.65	10.114
310.02	10.063
310.38	9.701
310.75	11.373
311.12	10.885
311.48	10.483
311.85	10.638
312.22	10.124
312.58	10.775
312.95	10.883
313.31	11.209
313.68	10.526
314.05	11.221
314.41	11.100
314.78	8.744
315.14	10.186
315.51	10.129
315.87	11.230
316.24	10.287
316.61	10.485
316.97	9.804
317.34	10.048
317.70	10.644
318.07	10.318
318.43	11.059
318.80	10.200
319.16	9.786
319.53	11.321
319.89	9.186
320.26	10.718
320.62	10.271
320.99	12.449
321.35	11.561
321.72	12.121
322.08	11.584
322.45	11.637
322.81	10.837
323.18	11.314
323.54	10.237
323.91	11.006
324.27	10.415
324.64	10.590
325.00	11.010
325.37	11.781
325.73	10.766
326.10	11.384
326.46	10.698
326.83	11.170
327.19	12.227
327.56	12.555
327.92	10.938
328.29	12.186
328.65	12.147
329.01	12.110
329.38	11.846
329.74	11.885
330.11	12.395
330.47	11.825
330.84	12.030
331.20	12.200
331.56	11.792
331.93	11.528
332.29	11.286
332.66	12.568
333.02	12.999
333.38	12.960
333.75	12.260
334.11	11.935
334.48	11.896
334.84	12.019
335.20	11.817
335.57	13.806
335.93	12.093
336.29	13.071
336.66	12.933
337.02	11.423
337.38	11.792
337.75	11.818
338.11	13.674
338.47	13.278
338.84	12.431
339.20	13.841
339.56	12.675
339.93	12.432
340.29	12.511
340.65	12.055
341.02	12.046
341.38	12.974
341.74	13.612
342.11	12.909
342.47	11.451
342.83	13.617
343.20	12.644
343.56	12.850
343.92	13.736
344.28	12.178
344.65	12.842
345.01	13.415
345.37	13.675
345.73	12.059
346.10	13.224
346.46	13.115
346.82	12.744
347.19	12.700
347.55	14.626
347.91	12.695
348.27	13.648
348.63	13.829
349.00	14.775
349.36	15.169
349.72	14.122
350.08	14.730
350.45	14.809
350.81	14.121
351.17	13.674
351.53	14.251
351.89	14.508
352.26	13.577
352.62	14.554
352.98	14.812
353.34	13.283
353.70	13.745
354.07	14.992
354.43	15.275
354.79	14.016
355.15	14.286
355.51	13.773
355.87	13.988
356.24	15.686
356.60	13.940
356.96	14.613
357.32	15.802
357.68	15.593
358.04	15.397
358.40	14.894
358.77	14.137
359.13	15.582
359.49	14.560
359.85	15.188
360.21	14.195
360.57	14.753
360.93	15.044
361.29	14.330
361.66	14.826
362.02	14.129
362.38	16.162
362.74	13.912
363.10	14.027
363.46	14.748
363.82	14.701
364.18	14.005
364.54	14.656
364.90	14.370
365.26	13.860
365.62	14.383
365.98	14.243
366.35	15.507
366.71	15.758
367.07	15.572
367.43	14.368
367.79	14.172
368.15	15.345
368.51	15.281
368.87	16.226
369.23	15.519
369.59	15.882
369.95	14.531
370.31	15.000
370.67	16.165
371.03	15.789
371.39	16.314
371.75	15.007
372.11	15.778
372.47	15.367
372.83	15.340
373.19	15.286
373.55	14.970
373.91	15.000
374.27	16.262
374.63	15.832
374.99	14.275
375.35	14.877
375.71	15.782
376.07	15.124
376.42	17.151
376.78	15.679
377.14	16.899
377.50	14.706
377.86	15.599
378.22	15.192
378.58	16.316
378.94	15.717
379.30	15.508
379.66	15.877
380.02	15.575
380.38	16.031
380.74	15.911
381.09	14.803
381.45	15.365
381.81	15.561
382.17	15.831
382.53	16.042
382.89	15.779
383.25	16.804
383.61	15.893
383.97	16.179
384.32	15.484
384.68	17.178
385.04	15.850
385.40	15.719
385.76	16.951
386.12	15.908
386.48	16.308
386.83	16.129
387.19	15.581
387.55	16.969
387.91	15.078
388.27	15.355
388.62	15.997
388.98	16.858
389.34	15.094
389.70	16.282
390.06	16.238
390.42	15.754
390.77	16.499
391.13	16.005
391.49	16.442
391.85	16.101
392.20	16.832
392.56	16.241
392.92	15.955
393.28	16.098
393.64	16.403
393.99	16.753
394.35	16.353
394.71	16.093
395.07	16.844
395.42	16.190
395.78	16.398
396.14	16.256
396.50	17.076
396.85	16.986
397.21	16.365
397.57	16.327
397.92	16.985
398.28	16.906
398.64	17.079
399.00	17.528
399.35	15.533
399.71	16.048
400.07	16.924
400.42	18.205
400.78	17.019
401.14	17.235
401.49	16.615
401.85	16.952
402.21	17.132
402.57	15.840
402.92	17.663
403.28	17.360
403.63	17.308
403.99	17.900
404.35	16.561
404.70	16.656
405.06	17.855
405.42	16.591
405.77	17.182
406.13	16.129
406.49	16.656
406.84	17.684
407.20	16.853
407.55	17.902
407.91	16.853
408.27	17.487
408.62	17.235
408.98	18.147
409.34	17.222
409.69	17.057
410.05	17.293
410.40	16.313
410.76	16.936
411.11	17.195
411.47	18.027
411.83	17.643
412.18	18.521
412.54	17.529
412.89	17.358
413.25	18.245
413.60	18.686
413.96	17.540
414.31	17.782
414.67	18.704
415.03	18.465
415.38	18.733
415.74	17.797
416.09	17.919
416.45	16.631
416.80	16.690
417.16	18.054
417.51	17.974
417.87	17.989
418.22	18.182
418.58	17.139
418.93	17.924
419.29	18.250
419.64	18.681
420.00	17.878
420.35	17.702
420.71	18.118
421.06	18.300
421.42	18.507
421.77	18.453
422.12	18.074
422.48	19.189
422.83	18.116
423.19	19.118
423.54	18.571
423.90	17.676
424.25	19.275
424.61	18.839
424.96	19.226
425.31	18.961
425.67	18.606
426.02	18.509
426.38	18.340
426.73	18.629
427.09	19.895
427.44	19.198
427.79	19.678
428.15	18.643
428.50	19.975
428.85	19.500
429.21	20.502
429.56	19.116
429.92	18.929
430.27	19.093
430.62	19.037
430.98	19.022
431.33	19.410
431.68	19.694
432.04	19.735
432.39	18.835
432.74	20.557
433.10	20.376
433.45	19.886
433.80	21.429
434.16	20.311
434.51	20.011
434.86	19.577
435.22	20.198
435.57	21.240
435.92	19.814
436.28	20.486
436.63	21.109
436.98	20.741
437.34	20.985
437.69	21.049
438.04	20.433
438.39	21.932
438.75	21.231
439.10	21.429
439.45	21.630
439.81	21.016
440.16	20.903
440.51	21.066
440.86	22.222
441.22	21.501
441.57	21.481
441.92	21.811
442.27	22.457
442.63	21.614
442.98	23.289
443.33	21.739
443.68	22.518
444.03	22.062
444.39	22.176
444.74	22.782
445.09	22.668
445.44	22.741
445.79	22.708
446.15	21.983
446.50	22.788
446.85	23.267
447.20	23.249
447.55	22.048
447.91	23.457
448.26	23.917
448.61	22.840
448.96	23.596
449.31	22.363
449.66	22.337
450.02	23.254
450.37	23.329
450.72	22.861
451.07	23.336
451.42	23.320
451.77	22.825
452.12	23.058
452.47	24.187
452.83	23.288
453.18	23.025
453.53	23.906
453.88	24.633
454.23	24.345
454.58	24.413
454.93	23.569
455.28	23.693
455.63	24.107
455.98	23.921
456.34	24.313
456.69	24.171
457.04	23.163
457.39	24.220
457.74	23.451
458.09	23.958
458.44	24.280
458.79	23.322
459.14	24.270
459.49	24.713
459.84	25.149
460.19	24.203
460.54	23.232
460.89	23.647
461.24	24.026
461.59	24.543
461.94	25.247
462.29	23.496
462.64	24.164
462.99	25.381
463.34	25.055
463.69	24.417
464.04	24.952
464.39	24.116
464.74	23.945
465.09	25.080
465.44	23.755
465.79	24.308
466.14	23.687
466.49	25.104
466.84	23.587
467.19	25.146
467.54	23.674
467.89	24.624
468.24	24.306
468.59	25.458
468.94	25.891
469.29	24.775
469.64	26.550
469.99	25.883
470.34	23.833
470.68	25.154
471.03	25.109
471.38	25.729
471.73	25.581
472.08	26.121
472.43	26.279
472.78	25.598
473.13	25.965
473.48	25.795
473.83	25.826
474.17	25.083
474.52	26.524
474.87	25.631
475.22	26.429
475.57	25.441
475.92	25.810
476.27	25.618
476.61	26.418
476.96	26.378
477.31	26.313
477.66	26.612
478.01	26.251
478.36	26.189
478.70	26.535
479.05	26.059
479.40	25.041
479.75	26.416
480.10	26.569
480.45	26.021
480.79	26.155
481.14	26.885
481.49	26.581
481.84	26.616
482.19	25.854
482.53	27.157
482.88	26.131
483.23	26.583
483.58	26.287
483.92	26.533
484.27	26.379
484.62	26.733
484.97	25.879
485.31	26.179
485.66	25.828
486.01	25.113
486.36	24.717
486.70	24.931
487.05	25.114
487.40	25.278
487.75	25.021
488.09	25.031
488.44	24.929
488.79	26.147
489.13	26.101
489.48	26.148
489.83	26.537
490.17	26.910
490.52	25.813
490.87	26.805
491.22	26.677
491.56	26.828
491.91	27.309
492.26	26.976
492.60	27.398
492.95	27.361
493.30	26.817
493.64	27.485
493.99	28.388
494.34	27.167
494.68	26.462
495.03	25.710
495.37	27.065
495.72	27.690
496.07	27.586
496.41	26.630
496.76	27.316
497.11	27.474
497.45	26.770
497.80	27.518
498.14	27.825
498.49	28.564
498.84	27.044
499.18	27.296
499.53	27.934
499.87	27.855
500.22	28.104
500.56	28.938
500.91	28.422
501.26	27.874
501.60	27.727
501.95	27.994
502.29	28.887
502.64	27.725
502.98	27.663
503.33	28.407
503.67	28.025
504.02	28.294
504.36	27.940
504.71	28.085
505.06	29.566
505.40	28.150
505.75	28.383
506.09	28.440
506.44	29.453
506.78	28.212
507.13	27.959
507.47	29.640
507.82	29.129
508.16	29.176
508.51	29.048
508.85	29.286
509.19	29.841
509.54	29.802
509.88	29.747
510.23	29.494
510.57	30.153
510.92	29.762
511.26	30.270
511.61	30.765
511.95	29.902
512.30	29.623
512.64	30.147
512.98	30.597
513.33	30.598
513.67	29.641
514.02	30.769
514.36	31.257
514.70	31.026
515.05	31.768
515.39	31.932
515.74	30.702
516.08	30.822
516.42	32.194
516.77	30.994
517.11	31.009
517.46	31.605
517.80	32.100
518.14	33.017
518.49	32.277
518.83	32.620
519.17	32.584
519.52	31.918
519.86	32.362
520.20	31.656
520.55	33.029
520.89	33.671
521.23	33.267
521.58	32.407
521.92	33.178
522.26	33.471
522.61	34.130
522.95	33.219
523.29	32.254
523.64	32.225
523.98	33.602
524.32	32.660
524.66	33.311
525.01	34.021
525.35	33.926
525.69	33.310
526.04	34.743
526.38	33.379
526.72	35.278
527.06	33.755
527.41	33.168
527.75	35.032
528.09	33.876
528.43	34.373
528.78	34.172
529.12	35.000
529.46	34.286
529.80	33.492
530.15	34.816
530.49	35.077
530.83	35.430
531.17	34.463
531.51	35.760
531.86	34.734
532.20	34.199
532.54	34.964
532.88	36.145
533.22	34.842
533.57	34.207
533.91	34.412
534.25	33.809
534.59	35.076
534.93	33.647
535.27	33.199
535.62	34.099
535.96	35.171
536.30	34.934
536.64	34.979
536.98	35.693
537.32	35.789
537.66	34.824
538.01	35.420
538.35	34.545
538.69	34.749
539.03	34.463
539.37	34.673
539.71	35.000
540.05	34.660
540.39	35.221
540.73	34.505
541.07	35.368
541.42	35.282
541.76	35.971
542.10	34.218
542.44	35.549
542.78	34.897
543.12	34.224
543.46	36.960
543.80	35.883
544.14	36.129
544.48	35.368
544.82	35.344
545.16	36.159
545.50	35.808
545.84	35.552
546.18	34.532
546.52	35.281
546.86	35.119
547.20	35.227
547.54	34.951
547.88	33.832
548.22	34.951
548.56	35.588
548.90	36.491
549.24	35.307
549.58	35.991
549.92	35.489
550.26	36.062
550.60	34.655
550.94	36.587
551.28	37.073
551.62	37.101
551.96	36.581
552.30	34.961
552.64	35.913
552.98	35.587
553.32	34.848
553.66	35.432
554.00	36.139
554.34	35.703
554.68	36.045
555.02	35.159
555.36	36.458
555.69	35.511
556.03	35.551
556.37	35.259
556.71	35.747
557.05	36.094
557.39	36.707
557.73	36.635
558.07	36.854
558.41	35.914
558.75	36.432
559.08	36.681
559.42	36.120
559.76	36.142
560.10	37.082
560.44	35.788
560.78	34.560
561.12	36.213
561.45	35.193
561.79	34.288
562.13	34.989
562.47	36.468
562.81	36.012
563.15	35.057
563.48	36.554
563.82	36.245
564.16	34.253
564.50	34.670
564.84	36.286
565.17	35.479
565.51	35.257
565.85	35.423
566.19	35.143
566.52	35.125
566.86	36.339
567.20	34.997
567.54	35.099
567.88	34.769
568.21	35.053
568.55	33.560
568.89	33.681
569.23	33.384
569.56	33.011
569.90	32.805
570.24	33.294
570.57	32.017
570.91	33.115
571.25	32.163
571.59	31.311
571.92	30.481
572.26	31.348
572.60	31.495
572.93	31.238
573.27	30.921
573.61	31.291
573.95	30.552
574.28	30.179
574.62	30.360
574.96	30.587
575.29	30.124
575.63	30.584
575.97	30.368
576.30	30.769
576.64	29.796
576.98	30.088
577.31	30.709
577.65	30.410
577.98	29.697
578.32	29.543
578.66	30.540
578.99	30.926
579.33	30.453
579.67	30.151
580.00	29.699
580.34	30.935
580.67	29.934
581.01	30.286
581.35	30.408
581.68	29.877
582.02	29.735
582.35	29.384
582.69	30.138
583.02	29.866
583.36	30.207
583.70	31.407
584.03	30.634
584.37	30.774
584.70	30.156
585.04	30.067
585.37	30.105
585.71	30.287
586.04	30.036
586.38	30.646
586.72	30.762
587.05	31.411
587.39	30.721
587.72	30.370
588.06	31.063
588.39	30.850
588.73	30.575
589.06	30.906
589.40	31.749
589.73	32.012
590.07	30.623
590.40	31.396
590.73	31.529
591.07	31.948
591.40	31.932
591.74	32.229
592.07	32.044
592.41	31.912
592.74	32.211
593.08	31.668
593.41	30.579
593.75	30.671
594.08	31.820
594.41	31.424
594.75	31.441
595.08	31.554
595.42	31.055
595.75	31.326
596.09	31.865
596.42	31.543
596.75	32.364
597.09	31.110
597.42	32.567
597.75	31.848
598.09	32.163
598.42	31.850
598.76	31.694
599.09	30.924
599.42	29.819
599.76	30.600
600.09	31.831
600.42	30.352
600.76	30.216
601.09	30.941
601.42	30.395
601.76	31.088
602.09	31.378
602.42	31.654
602.76	31.894
603.09	31.201
603.42	31.814
603.76	31.095
604.09	31.704
604.42	30.657
604.76	31.219
605.09	30.798
605.42	32.180
605.75	31.521
606.09	32.222
606.42	30.752
606.75	31.439
607.09	31.670
607.42	31.207
607.75	30.441
608.08	32.320
608.42	31.038
608.75	31.716
609.08	30.742
609.41	31.363
609.75	31.385
610.08	31.576
610.41	31.399
610.74	31.648
611.07	31.359
611.41	31.049
611.74	31.175
612.07	30.190
612.40	32.089
612.73	31.655
613.07	31.239
613.40	31.627
613.73	30.985
614.06	30.269
614.39	32.337
614.72	30.933
615.06	31.228
615.39	31.293
615.72	31.355
616.05	30.725
616.38	30.842
616.71	31.530
617.05	31.658
617.38	31.871
617.71	32.593
618.04	32.194
618.37	31.131
618.70	33.220
619.03	33.648
619.36	32.916
619.69	33.204
620.03	32.952
620.36	32.729
620.69	32.373
621.02	33.254
621.35	33.702
621.68	34.023
622.01	32.620
622.34	33.082
622.67	32.546
623.00	33.333
623.33	32.362
623.66	32.669
623.99	32.297
624.32	32.407
624.65	33.359
624.99	31.562
625.32	33.175
625.65	33.787
625.98	33.333
626.31	34.113
626.64	34.775
626.97	34.559
627.30	33.426
627.63	33.860
627.96	34.730
628.29	34.608
628.62	35.258
628.95	34.741
629.28	34.607
629.61	34.274
629.94	35.477
630.26	32.950
630.59	35.707
630.92	32.982
631.25	34.749
631.58	35.698
631.91	35.649
632.24	35.385
632.57	36.742
632.90	36.408
633.23	38.839
633.56	34.969
633.89	35.356
634.22	37.564
634.55	35.611
634.88	36.680
635.20	36.438
635.53	35.754
635.86	36.957
636.19	35.744
636.52	37.871
636.85	34.420
637.18	35.881
637.51	35.637
637.83	36.173
638.16	37.838
638.49	37.032
638.82	36.428
639.15	35.429
639.48	34.352
639.81	35.618
640.13	35.375
640.46	38.425
640.79	37.364
641.12	37.829
641.45	37.481
641.77	34.236
642.10	39.577
642.43	38.721
642.76	37.097
643.09	37.370
643.41	36.738
643.74	36.111
644.07	35.273
644.40	36.282
644.73	36.280
645.05	40.076
645.38	38.077
645.71	37.595
646.04	38.476
646.36	35.227
646.69	40.619
647.02	38.672
647.35	37.200
647.67	38.277
648.00	37.864
648.33	39.306
648.66	39.147
648.98	36.271
649.31	36.661
649.64	34.079
649.96	34.628
650.29	33.274
650.62	36.735
650.94	36.229
651.27	35.260
651.60	34.608
651.92	36.450
652.25	34.417
652.58	36.086
652.90	34.875
653.23	36.563
653.56	33.333
653.88	35.036
654.21	37.240
654.54	34.709
654.86	38.129
655.19	33.871
655.52	33.073
655.84	26.252
656.17	26.170
656.49	34.890
656.82	40.140
657.15	31.894
657.47	24.476
657.80	18.327
658.13	15.249
658.45	26.258
658.78	26.225
659.10	25.719
659.43	25.933
659.75	25.274
660.08	27.654
660.41	30.010
660.73	31.994
661.06	33.273
661.38	37.702
661.71	34.792
662.03	40.972
662.36	39.141
662.68	34.053
663.01	40.144
663.33	40.094
663.66	38.038
663.98	39.364
664.31	36.098
664.63	36.697
664.96	37.292
665.28	37.352
665.61	38.318
665.93	33.871
666.26	33.996
666.58	37.615
666.91	39.344
667.23	38.916
667.56	38.765
667.88	37.594
668.21	35.533
668.53	39.086
668.86	37.500
669.18	36.548
669.50	36.247
669.83	34.750
670.15	34.000
670.48	34.837
670.80	36.802
671.13	35.422
671.45	35.969
671.77	38.406
672.10	34.505
672.42	33.665
672.75	31.456
673.07	32.710
673.39	34.241
673.72	34.711
674.04	33.404
674.37	34.642
674.69	36.449
675.01	36.512
675.34	33.088
675.66	34.048
675.98	34.848
676.31	35.516
676.63	35.052
676.95	34.532
677.28	32.426
677.60	36.090
677.92	37.343
678.25	32.483
678.57	33.411
678.89	33.028
679.22	37.156
679.54	30.735
679.86	34.690
680.18	32.427
680.51	32.033
680.83	30.625
681.15	34.641
681.48	30.426
681.80	33.913
682.12	34.690
682.44	33.405
682.77	34.545
683.09	34.069
683.41	34.336
683.73	33.920
684.06	32.995
684.38	33.813
684.70	33.025
685.02	32.900
685.34	30.753
685.67	32.213
685.99	31.737
686.31	32.649
686.63	31.650
686.96	29.472
687.28	29.363
687.60	33.676
687.92	32.278
688.24	31.158
688.56	27.912
688.89	31.050
689.21	29.535
689.53	31.969
689.85	33.671
690.17	27.696
690.49	31.765
690.82	32.432
691.14	34.987
691.46	33.750
691.78	31.340
692.10	31.881
692.42	35.092
692.74	31.754
693.06	31.084
693.39	31.527
693.71	27.907
694.03	32.367
694.35	32.426
694.67	33.588
694.99	32.615
695.31	28.045
695.63	31.351
695.95	32.584
696.27	37.394
696.59	34.125
696.91	30.484
697.23	29.799
697.56	33.420
697.88	31.616
698.20	27.119
698.52	28.846
698.84	31.830
699.16	32.454
699.48	34.031
699.80	30.495
700.12	30.028
700.44	27.139
700.76	32.492
701.08	27.937
701.40	32.895
701.72	36.667
702.04	32.653
702.36	33.770
702.68	34.228
703.00	32.808
703.32	29.940
703.64	34.069
703.96	31.962
704.28	32.746
704.60	35.959
704.91	30.921
705.23	33.684
705.55	29.740
705.87	31.295
706.19	37.052
706.51	33.594
706.83	30.037
707.15	33.559
707.47	27.844
707.79	29.513
708.11	27.249
708.43	29.600
708.74	30.328
709.06	32.209
709.38	24.332
709.70	27.597
710.02	28.671
710.34	29.078
710.66	32.584
710.98	32.867
711.29	31.959
711.61	29.078
711.93	33.708
712.25	34.717
712.57	34.375
712.89	30.204
713.20	27.419
713.52	31.707
713.84	29.197
714.16	35.811
714.48	34.130
714.80	28.956
715.11	28.866
715.43	29.693
715.75	30.175
716.07	31.636
716.39	30.375
716.70	29.600
717.02	27.016
717.34	37.229
717.66	30.455
717.97	25.000
718.29	33.778
718.61	30.631
718.93	26.471
719.24	30.544
719.56	29.018
719.88	31.373
720.20	26.496
720.51	24.123
720.83	30.544
721.15	30.612
721.46	29.114
721.78	28.571
722.10	31.395
722.42	30.435
722.73	26.697
723.05	32.258
723.37	32.127
723.68	36.019
724.00	30.093
724.32	31.308
724.63	26.697
724.95	26.027
725.27	32.394
725.58	34.247
725.90	20.270
726.22	23.581
726.53	28.689
726.85	31.852
727.16	33.603
727.48	29.032
727.80	23.744
728.11	29.778
728.43	25.103
728.74	29.825
729.06	32.751
729.38	31.395
729.69	25.200
730.01	26.360
730.32	24.303
730.64	28.462
730.96	26.641
731.27	21.622
731.59	29.966
731.90	25.987
732.22	26.578
732.53	23.860
732.85	20.423
733.16	25.641
733.48	24.254
733.80	28.364
734.11	30.851
734.43	27.076
734.74	24.611
735.06	26.688
735.37	25.879
735.69	24.296
736.00	28.519
736.32	27.273
736.63	27.037
736.95	21.012
737.26	28.623
737.58	23.723
737.89	28.679
738.21	27.481
738.52	34.426
738.83	26.496
739.15	29.091
739.46	19.369
739.78	26.641
740.09	23.413
740.41	29.545
740.72	24.701
741.04	25.692
741.35	25.561
741.66	26.344
741.98	22.449
742.29	23.316
742.61	27.746
742.92	28.922
743.23	35.323
743.55	24.870
743.86	30.435
744.18	24.000
744.49	25.556
744.80	25.269
745.12	24.615
745.43	31.016
745.74	24.599
746.06	35.632
746.37	29.444
746.68	28.108
747.00	23.204
747.31	29.319
747.62	34.737
747.94	24.528
748.25	33.498
748.56	27.273
748.88	27.869
749.19	31.606
749.50	26.471
749.82	33.500
750.13	27.184
750.44	27.039
750.75	28.800
751.07	23.849
751.38	26.172
751.69	26.984
752.01	25.630
752.32	24.380
752.63	27.511
752.94	28.800
753.26	28.311
753.57	25.118
753.88	26.512
754.19	22.467
754.51	23.849
754.82	26.250
755.13	23.009
755.44	25.541
755.75	26.104
756.07	29.185
756.38	28.452
756.69	27.547
757.00	24.468
757.31	20.761
757.63	25.490
757.94	24.848
758.25	24.405
758.56	22.703
758.87	20.536
759.18	27.726
759.50	23.488
759.81	25.097
760.12	24.199
760.43	20.598
760.74	24.251
761.05	22.756
761.36	25.519
761.67	20.061
761.99	31.104
762.30	22.182
762.61	26.423
762.92	25.778
763.23	31.628
763.54	24.873
763.85	33.484
764.16	21.739
764.47	26.087
764.78	29.032
765.10	24.409
765.41	21.739
765.72	27.759
766.03	23.411
766.34	23.106
766.65	25.000
766.96	25.778
767.27	32.402
767.58	29.560
767.89	25.325
768.20	29.054
768.51	25.287
768.82	21.250
769.13	28.241
769.44	25.943
769.75	26.471
770.06	24.757
770.37	21.277
770.68	22.051
770.99	25.888
771.30	21.134
771.61	29.148
771.92	20.755
772.23	26.442
772.54	21.765
772.85	14.384
773.16	21.935
773.47	26.752
773.78	26.946
774.09	23.026
774.39	19.853
774.70	25.564
775.01	20.000
775.32	28.571
775.63	18.110
775.94	35.849
776.25	22.963
776.56	19.091
776.87	21.368
777.18	33.000
777.48	20.192
777.79	24.074
778.10	24.528
778.41	25.490
778.72	27.358
779.03	22.807
779.34	19.328
779.65	23.239
779.95	21.583
780.26	10.484
780.57	30.435
780.88	24.771
781.19	18.519
781.50	18.033
781.80	19.708
782.11	21.154
782.42	18.621
782.73	30.769
783.04	19.200
783.34	21.600
783.65	21.138
783.96	20.492
784.27	15.966
784.57	12.150
784.88	24.107
785.19	27.835
785.50	20.000
785.81	19.000
786.11	12.871
786.42	11.765
786.73	9.375
787.04	14.286
787.34	36.111
787.65	27.358
787.96	17.526
788.26	18.812
788.57	25.217
788.88	13.761
789.19	14.876
789.49	20.870
789.80	20.690
790.11	8.537
790.41	25.843
790.72	13.953
791.03	9.302
791.33	16.883
791.64	17.073
791.95	10.976
792.25	13.253
792.56	14.815
792.87	16.901
793.17	36.145
793.48	17.647
793.79	21.250
794.09	6.667
794.40	22.826
794.70	17.391
795.01	18.349
795.32	18.898
795.62	11.765
795.93	24.510
796.23	25.253
796.54	23.256
796.85	14.493
797.15	15.625
797.46	1.695
797.76	45.902
798.07	11.842
798.37	25.806
798.68	17.188
798.99	20.000
799.29	21.212
799.60	7.246
799.90	22.857
800.21	21.053
800.51	13.793
800.82	9.434
801.12	7.843
801.43	11.290
801.73	20.968
802.04	30.000
802.34	16.981
802.65	-7.895
802.95	10.909
803.26	24.528
803.56	0.000
803.87	20.000
804.17	0.000
804.48	13.462
804.78	0.000
805.09	29.787
805.39	35.593
805.70	-12.500
806.00	19.643
806.30	8.475
806.61	10.769
806.91	3.077
807.22	1.316
807.52	10.000
807.83	25.862
808.13	44.304
808.43	11.475
808.74	14.754
809.04	33.784
809.35	25.926
809.65	10.714
809.95	11.864
810.26	0.000
810.56	24.528
810.86	15.686
811.17	24.324
811.47	-37.037
811.77	0.000
812.08	22.727
812.38	-16.667
812.69	30.769
812.99	23.810
813.29	32.609
813.59	5.714
813.90	9.524
814.20	5.455
814.50	12.245
814.81	-3.922
815.11	-4.167
815.41	2.439
815.72	11.538
816.02	27.660
816.32	21.875
816.62	15.152
816.93	-18.182
817.23	21.622
817.53	26.471
817.84	37.500
818.14	5.882
818.44	28.125
818.74	-9.524
819.04	-17.143
819.35	28.571
819.65	9.091
819.95	23.077
820.25	0.000
820.56	-6.897
820.86	28.571
821.16	-78.261
821.46	9.524
821.76	27.778
822.07	30.435
822.37	20.408
822.67	-2.326
822.97	-17.391
823.27	-15.385
823.57	-3.704
823.88	10.714
824.18	15.385
824.48	46.429
824.78	6.061
825.08	-13.333
825.38	27.500
825.69	-50.000
825.99	-7.407
826.29	40.000
826.59	-18.519
826.89	0.000
827.19	-28.571
827.49	-22.727
827.79	-90.909
828.09	-36.364
828.39	-26.087
828.70	-25.926
829.00	17.857
829.30	23.810
829.60	9.677
829.90	-23.077
830.20	7.692
830.50	-13.636
830.80	-66.667
831.10	-55.556
831.40	-21.429
831.70	18.519
832.00	-47.059
832.30	26.087
832.60	37.500
832.90	-54.545
833.20	-16.667
833.50	46.875
833.80	30.769
834.10	60.000
834.40	-12.500
834.70	27.273
835.00	11.538
835.30	-25.000
835.60	30.000
835.90	5.000
836.20	28.571
836.50	17.391
836.80	-22.222
837.10	-13.333
837.40	-10.000
837.70	0.000
838.00	-14.286
838.30	900.000
838.60	76.000
838.90	-340.000
839.19	0.000
839.49	-350.000
839.79	-17.647
840.09	-33.333
840.39	-7.143
840.69	33.333
840.99	-50.000
841.29	17.241
841.59	-13.333
841.88	-18.182
842.18	-116.667
842.48	81.250
842.78	46.154
843.08	58.824
843.38	-25.000
843.68	-15.385
843.97	-76.471
844.27	-20.000
844.57	4.167
844.87	-72.727
845.17	-47.368
845.47	-33.333
845.76	13.889
846.06	-61.905
846.36	-42.857
846.66	-55.556
846.96	-40.000
847.25	-80.000
847.55	-50.000
847.85	-26.667
848.15	-100.000
848.44	52.632
848.74	0.000
849.04	42.105
849.34	33.333
849.63	33.333
849.93	-5.882
850.23	-154.545
850.53	-166.667
850.82	-120.000
851.12	-122.222
851.42	0.000
851.71	-20.000
852.01	-28.571
852.31	133.333
852.61	23.077
852.90	-180.000
853.20	-100.000
853.50	-77.778
853.79	20.000
854.09	-40.000
854.39	-47.368
854.68	-20.000
854.98	-375.000
855.28	38.889
855.57	-42.857
855.87	-57.895
856.17	-43.750
856.46	30.769
856.76	-33.333
857.05	-75.000
857.35	50.000
857.65	-61.111
857.94	62.500
858.24	-39.130
858.53	-50.000
858.83	-133.333
859.13	-90.909
859.42	-50.000
859.72	100.000
860.01	-53.846
860.31	-20.000
860.60	-150.000
860.90	-150.000
861.20	-83.333
861.49	-75.000
861.79	300.000
862.08	35.484
862.38	-21.053
862.67	38.462
862.97	-90.000
863.26	0.000
863.56	0.000
863.85	-233.333
864.15	-35.714
864.44	50.000
864.74	-91.667
865.03	-22.222
865.33	33.333
865.62	-1000.000
865.92	-350.000
866.21	-150.000
866.51	27.273
866.80	-233.333
867.10	-157.143
867.39	-55.556
867.69	-16.667
867.98	20.000
868.27	-225.000
868.57	325.000
868.86	33.333
869.16	69.231
869.45	700.000
869.75	33.333
870.04	-141.667
870.33	35.294
870.63	-200.000
870.92	56.522
871.22	-75.000
871.51	520.000
871.80	12.500
872.10	-100.000
>>>>>End Processed Spectral Data<<<<<
