SpectraSuite Data File
++++++++++++++++++++++++++++++++++++
Date: Wed May 13 19:30:19 PDT 2015
User: schluterlab
Dark Spectrum Present: Yes
Reference Spectrum Present: Yes
Number of Sampled Component Spectra: 1
Spectrometers: USB2E3373
Integration Time (usec): 3000 (USB2E3373)
Spectra Averaged: 3 (USB2E3373)
Boxcar Smoothing: 0 (USB2E3373)
Correct for Electrical Dark: No (USB2E3373)
Strobe/Lamp Enabled: No (USB2E3373)
Correct for Detector Non-linearity: No (USB2E3373)
Correct for Stray Light: No (USB2E3373)
Number of Pixels in Processed Spectrum: 2048
>>>>>Begin Processed Spectral Data<<<<<
178.53	0.000
178.91	-1350.000
179.29	-1275.000
179.67	-250.000
180.04	-1400.000
180.42	2400.000
180.80	1140.000
181.18	-1175.000
181.56	614.286
181.94	0.000
182.31	-657.143
182.69	1633.333
183.07	-625.000
183.45	-500.000
183.83	536.364
184.20	-400.000
184.58	2500.000
184.96	5800.000
185.34	-920.000
185.72	-587.500
186.09	-2750.000
186.47	2300.000
186.85	2700.000
187.23	4700.000
187.61	-1766.667
187.98	1425.000
188.36	572.727
188.74	590.909
189.12	-800.000
189.49	520.000
189.87	-5500.000
190.25	-1250.000
190.63	392.857
191.00	453.846
191.38	933.333
191.76	-1300.000
192.14	1325.000
192.51	612.500
192.89	800.000
193.27	662.500
193.65	-1225.000
194.02	540.000
194.40	1020.000
194.78	500.000
195.15	508.333
195.53	640.000
195.91	-2300.000
196.29	356.250
196.66	278.947
197.04	-380.000
197.42	0.000
197.79	570.000
198.17	-4200.000
198.55	728.571
198.92	712.500
199.30	800.000
199.68	0.000
200.05	311.111
200.43	671.429
200.81	4500.000
201.18	1466.667
201.56	-1800.000
201.94	733.333
202.31	600.000
202.69	450.000
203.07	520.000
203.44	0.000
203.82	1250.000
204.19	700.000
204.57	414.286
204.95	650.000
205.32	1600.000
205.70	454.545
206.08	407.143
206.45	2700.000
206.83	400.000
207.20	800.000
207.58	920.000
207.96	288.889
208.33	675.000
208.71	-883.333
209.08	771.429
209.46	766.667
209.84	500.000
210.21	-1733.333
210.59	1325.000
210.96	-562.500
211.34	2400.000
211.71	570.000
212.09	716.667
212.46	0.000
212.84	1633.333
213.22	1050.000
213.59	-4900.000
213.97	883.333
214.34	671.429
214.72	645.455
215.09	1160.000
215.47	-2300.000
215.84	-2400.000
216.22	1533.333
216.59	378.571
216.97	1350.000
217.34	472.727
217.72	-750.000
218.09	0.000
218.47	-5100.000
218.84	688.889
219.22	814.286
219.59	1833.333
219.97	-671.429
220.34	1160.000
220.72	-1733.333
221.09	414.286
221.47	1450.000
221.84	-950.000
222.22	0.000
222.59	1050.000
222.97	-2550.000
223.34	1240.000
223.72	469.231
224.09	1280.000
224.46	2100.000
224.84	-4900.000
225.21	-940.000
225.59	-4600.000
225.96	580.000
226.34	305.000
226.71	2650.000
227.08	600.000
227.46	530.000
227.83	-1200.000
228.21	-2400.000
228.58	577.778
228.95	-2200.000
229.33	-2200.000
229.70	1500.000
230.08	771.429
230.45	-860.000
230.82	516.667
231.20	950.000
231.57	628.571
231.95	458.333
232.32	272.727
232.69	454.545
233.07	571.429
233.44	430.769
233.81	-1800.000
234.19	342.105
234.56	450.000
234.93	441.667
235.31	463.636
235.68	330.769
236.05	364.286
236.43	160.606
236.80	236.842
237.17	4700.000
237.55	233.333
237.92	210.714
238.29	304.762
238.67	158.065
239.04	196.552
239.41	152.778
239.79	104.348
240.16	159.524
240.53	143.182
240.91	94.118
241.28	116.000
241.65	108.000
242.02	107.246
242.40	82.258
242.77	96.667
243.14	75.269
243.51	89.888
243.89	70.588
244.26	63.333
244.63	56.989
245.00	52.128
245.38	65.347
245.75	50.467
246.12	55.963
246.49	65.693
246.87	56.000
247.24	56.154
247.61	52.857
247.98	45.098
248.36	42.568
248.73	44.586
249.10	49.045
249.47	44.068
249.84	41.711
250.22	42.781
250.59	43.195
250.96	42.424
251.33	42.180
251.70	43.069
252.08	35.238
252.45	34.529
252.82	31.739
253.19	36.170
253.56	36.078
253.94	36.929
254.31	34.766
254.68	35.000
255.05	32.841
255.42	30.894
255.79	35.294
256.16	33.935
256.54	29.329
256.91	34.520
257.28	26.259
257.65	29.373
258.02	32.298
258.39	31.861
258.76	30.769
259.14	28.571
259.51	28.875
259.88	25.466
260.25	30.816
260.62	26.879
260.99	27.640
261.36	31.532
261.73	26.074
262.10	27.616
262.47	29.577
262.85	25.348
263.22	23.932
263.59	28.490
263.96	27.747
264.33	26.632
264.70	25.000
265.07	26.598
265.44	25.000
265.81	26.034
266.18	26.382
266.55	25.610
266.92	25.553
267.29	27.546
267.66	25.917
268.03	24.091
268.40	23.832
268.77	23.866
269.14	22.297
269.51	25.282
269.88	25.874
270.25	23.476
270.62	24.719
270.99	26.667
271.36	24.678
271.73	21.495
272.10	24.130
272.47	26.237
272.84	24.675
273.21	25.157
273.58	24.672
273.95	22.013
274.32	23.554
274.69	23.126
275.06	20.276
275.43	24.894
275.80	23.647
276.17	22.811
276.54	23.909
276.91	22.530
277.28	23.438
277.65	24.371
278.02	23.810
278.39	24.414
278.76	23.818
279.13	20.755
279.50	23.091
279.87	23.904
280.23	21.357
280.60	21.470
280.97	21.072
281.34	23.186
281.71	22.545
282.08	22.649
282.45	20.545
282.82	20.959
283.19	18.182
283.56	22.456
283.92	21.320
284.29	19.753
284.66	20.327
285.03	21.519
285.40	21.479
285.77	19.360
286.14	18.480
286.51	22.500
286.87	20.684
287.24	21.987
287.61	19.583
287.98	19.156
288.35	19.334
288.72	20.872
289.08	20.501
289.45	19.440
289.82	19.675
290.19	19.152
290.56	18.989
290.93	16.918
291.29	18.712
291.66	19.027
292.03	20.785
292.40	22.320
292.77	17.160
293.13	18.209
293.50	18.367
293.87	17.778
294.24	17.926
294.60	16.012
294.97	19.041
295.34	18.759
295.71	18.040
296.08	15.242
296.44	17.056
296.81	16.777
297.18	16.802
297.55	15.303
297.91	16.227
298.28	18.340
298.65	18.668
299.02	17.655
299.38	15.538
299.75	15.768
300.12	15.326
300.48	14.625
300.85	16.276
301.22	15.414
301.59	14.268
301.95	16.373
302.32	15.789
302.69	16.846
303.05	14.909
303.42	14.198
303.79	15.855
304.15	14.452
304.52	14.021
304.89	14.750
305.25	14.733
305.62	15.402
305.99	15.348
306.35	15.436
306.72	15.022
307.09	14.095
307.45	15.541
307.82	13.504
308.19	15.011
308.55	15.965
308.92	14.823
309.29	14.044
309.65	13.892
310.02	14.799
310.38	15.269
310.75	14.361
311.12	14.637
311.48	14.420
311.85	14.570
312.22	13.215
312.58	14.345
312.95	14.572
313.31	13.398
313.68	13.929
314.05	14.596
314.41	14.673
314.78	13.797
315.14	14.399
315.51	14.212
315.87	13.564
316.24	12.910
316.61	13.060
316.97	13.601
317.34	12.622
317.70	14.627
318.07	12.512
318.43	14.481
318.80	13.871
319.16	14.783
319.53	11.726
319.89	13.429
320.26	14.400
320.62	13.889
320.99	14.949
321.35	13.838
321.72	13.244
322.08	14.116
322.45	15.821
322.81	14.438
323.18	14.644
323.54	14.750
323.91	14.717
324.27	14.914
324.64	13.700
325.00	13.796
325.37	13.922
325.73	14.004
326.10	13.504
326.46	12.097
326.83	14.150
327.19	14.091
327.56	13.502
327.92	13.911
328.29	14.286
328.65	13.812
329.01	13.899
329.38	13.599
329.74	12.742
330.11	12.818
330.47	14.050
330.84	14.430
331.20	14.572
331.56	13.761
331.93	13.333
332.29	13.576
332.66	13.717
333.02	13.985
333.38	14.182
333.75	14.082
334.11	12.900
334.48	14.286
334.84	14.982
335.20	14.091
335.57	14.325
335.93	12.589
336.29	13.370
336.66	14.247
337.02	12.579
337.38	13.796
337.75	12.923
338.11	13.071
338.47	12.799
338.84	13.107
339.20	13.670
339.56	14.507
339.93	14.000
340.29	13.225
340.65	13.369
341.02	14.398
341.38	13.167
341.74	13.070
342.11	13.799
342.47	11.806
342.83	14.298
343.20	14.199
343.56	14.069
343.92	12.368
344.28	13.435
344.65	13.500
345.01	12.458
345.37	12.521
345.73	13.536
346.10	13.896
346.46	14.068
346.82	13.674
347.19	13.952
347.55	12.890
347.91	14.239
348.27	13.394
348.63	14.047
349.00	12.945
349.36	14.122
349.72	13.553
350.08	13.452
350.45	13.588
350.81	12.429
351.17	13.938
351.53	12.449
351.89	12.376
352.26	13.339
352.62	14.114
352.98	13.776
353.34	13.887
353.70	11.948
354.07	13.548
354.43	14.286
354.79	12.631
355.15	13.089
355.51	12.870
355.87	12.408
356.24	13.436
356.60	12.430
356.96	12.148
357.32	11.856
357.68	13.071
358.04	13.143
358.40	13.618
358.77	13.146
359.13	12.076
359.49	12.235
359.85	11.111
360.21	12.759
360.57	12.763
360.93	12.231
361.29	12.774
361.66	12.307
362.02	12.164
362.38	14.144
362.74	12.723
363.10	11.991
363.46	12.472
363.82	12.472
364.18	12.555
364.54	13.150
364.90	12.181
365.26	12.206
365.62	11.980
365.98	11.614
366.35	11.963
366.71	12.148
367.07	12.309
367.43	12.192
367.79	12.991
368.15	12.284
368.51	12.645
368.87	11.706
369.23	12.070
369.59	12.455
369.95	11.765
370.31	12.393
370.67	11.812
371.03	12.360
371.39	11.953
371.75	12.500
372.11	11.735
372.47	12.757
372.83	13.040
373.19	12.211
373.55	11.826
373.91	12.887
374.27	11.340
374.63	10.764
374.99	12.782
375.35	10.886
375.71	11.583
376.07	13.100
376.42	11.486
376.78	12.790
377.14	11.533
377.50	12.252
377.86	11.769
378.22	12.263
378.58	10.902
378.94	11.376
379.30	11.132
379.66	11.992
380.02	11.548
380.38	11.475
380.74	11.164
381.09	11.797
381.45	11.924
381.81	12.101
382.17	11.592
382.53	11.509
382.89	11.975
383.25	11.320
383.61	11.524
383.97	11.507
384.32	10.792
384.68	11.276
385.04	10.940
385.40	11.022
385.76	11.425
386.12	11.464
386.48	11.705
386.83	11.418
387.19	11.441
387.55	11.255
387.91	10.459
388.27	11.281
388.62	12.600
388.98	10.319
389.34	11.327
389.70	10.668
390.06	11.914
390.42	11.414
390.77	11.450
391.13	11.359
391.49	11.421
391.85	10.503
392.20	10.410
392.56	11.553
392.92	11.772
393.28	9.941
393.64	11.091
393.99	11.729
394.35	10.856
394.71	10.916
395.07	11.215
395.42	11.001
395.78	10.814
396.14	11.732
396.50	11.779
396.85	10.807
397.21	11.282
397.57	10.663
397.92	11.118
398.28	10.426
398.64	10.812
399.00	10.632
399.35	10.716
399.71	10.995
400.07	11.473
400.42	10.920
400.78	11.460
401.14	10.610
401.49	11.104
401.85	11.010
402.21	10.479
402.57	10.487
402.92	11.160
403.28	11.056
403.63	10.891
403.99	10.510
404.35	10.727
404.70	10.432
405.06	10.250
405.42	10.543
405.77	10.400
406.13	10.609
406.49	10.645
406.84	10.455
407.20	11.525
407.55	10.721
407.91	11.200
408.27	10.402
408.62	10.957
408.98	10.784
409.34	10.517
409.69	11.290
410.05	10.719
410.40	11.131
410.76	10.812
411.11	12.002
411.47	10.415
411.83	11.423
412.18	9.833
412.54	11.768
412.89	10.964
413.25	10.390
413.60	11.242
413.96	10.565
414.31	10.936
414.67	11.153
415.03	11.523
415.38	11.727
415.74	11.125
416.09	11.822
416.45	10.576
416.80	10.839
417.16	11.528
417.51	10.750
417.87	10.918
418.22	10.662
418.58	11.556
418.93	11.609
419.29	11.776
419.64	12.280
420.00	11.280
420.35	11.304
420.71	11.178
421.06	10.800
421.42	11.228
421.77	11.659
422.12	9.882
422.48	10.308
422.83	11.008
423.19	10.884
423.54	10.331
423.90	11.768
424.25	10.999
424.61	10.774
424.96	11.370
425.31	11.019
425.67	10.674
426.02	10.686
426.38	11.600
426.73	11.059
427.09	10.881
427.44	10.868
427.79	11.098
428.15	11.190
428.50	11.118
428.85	11.323
429.21	10.491
429.56	10.213
429.92	10.619
430.27	10.477
430.62	10.343
430.98	10.431
431.33	11.186
431.68	10.262
432.04	11.342
432.39	10.908
432.74	11.430
433.10	10.922
433.45	11.312
433.80	11.253
434.16	11.432
434.51	10.316
434.86	11.174
435.22	10.228
435.57	11.307
435.92	11.059
436.28	11.269
436.63	12.141
436.98	9.903
437.34	11.628
437.69	11.785
438.04	11.017
438.39	10.627
438.75	11.447
439.10	11.397
439.45	11.570
439.81	10.514
440.16	11.971
440.51	11.482
440.86	11.060
441.22	10.067
441.57	10.722
441.92	10.696
442.27	11.033
442.63	10.900
442.98	11.211
443.33	11.141
443.68	10.893
444.03	10.786
444.39	10.711
444.74	11.310
445.09	11.429
445.44	11.372
445.79	10.688
446.15	11.117
446.50	11.147
446.85	10.586
447.20	10.658
447.55	11.837
447.91	11.473
448.26	11.130
448.61	11.080
448.96	12.182
449.31	11.080
449.66	10.974
450.02	10.195
450.37	10.771
450.72	11.168
451.07	10.664
451.42	11.246
451.77	11.744
452.12	10.855
452.47	12.065
452.83	11.480
453.18	10.941
453.53	12.183
453.88	10.868
454.23	11.297
454.58	11.387
454.93	11.570
455.28	11.160
455.63	11.044
455.98	12.321
456.34	11.181
456.69	11.334
457.04	10.898
457.39	11.222
457.74	10.563
458.09	11.558
458.44	11.060
458.79	10.575
459.14	11.005
459.49	11.617
459.84	11.247
460.19	11.196
460.54	10.822
460.89	10.971
461.24	12.143
461.59	12.377
461.94	11.899
462.29	11.335
462.64	11.040
462.99	11.841
463.34	12.600
463.69	11.695
464.04	11.826
464.39	11.942
464.74	11.824
465.09	11.037
465.44	10.748
465.79	10.850
466.14	11.440
466.49	11.235
466.84	10.450
467.19	11.949
467.54	11.625
467.89	11.525
468.24	11.693
468.59	11.355
468.94	11.057
469.29	11.697
469.64	12.584
469.99	11.637
470.34	11.757
470.68	11.207
471.03	10.952
471.38	11.883
471.73	12.125
472.08	12.434
472.43	11.495
472.78	11.718
473.13	12.580
473.48	11.798
473.83	11.463
474.17	10.890
474.52	12.097
474.87	12.026
475.22	11.782
475.57	10.747
475.92	11.152
476.27	11.612
476.61	11.638
476.96	11.655
477.31	11.512
477.66	11.488
478.01	11.343
478.36	11.687
478.70	10.228
479.05	11.182
479.40	11.771
479.75	10.422
480.10	10.736
480.45	11.138
480.79	10.225
481.14	10.910
481.49	11.865
481.84	10.837
482.19	11.268
482.53	10.642
482.88	11.215
483.23	11.215
483.58	10.965
483.92	10.544
484.27	10.458
484.62	10.388
484.97	10.485
485.31	10.719
485.66	8.825
486.01	8.677
486.36	8.443
486.70	8.657
487.05	9.157
487.40	9.244
487.75	9.529
488.09	10.130
488.44	9.773
488.79	10.814
489.13	10.733
489.48	10.522
489.83	10.272
490.17	11.092
490.52	10.629
490.87	10.403
491.22	11.096
491.56	10.205
491.91	10.377
492.26	10.473
492.60	10.737
492.95	10.477
493.30	10.654
493.64	10.826
493.99	10.631
494.34	10.962
494.68	11.218
495.03	11.043
495.37	10.889
495.72	10.916
496.07	11.044
496.41	10.310
496.76	10.686
497.11	11.211
497.45	10.573
497.80	11.276
498.14	10.821
498.49	11.073
498.84	10.930
499.18	10.714
499.53	10.921
499.87	10.391
500.22	10.975
500.56	11.068
500.91	10.481
501.26	10.763
501.60	11.201
501.95	10.632
502.29	11.528
502.64	11.127
502.98	11.033
503.33	10.649
503.67	10.858
504.02	10.804
504.36	10.903
504.71	10.894
505.06	11.422
505.40	10.938
505.75	11.138
506.09	10.641
506.44	11.297
506.78	10.667
507.13	11.206
507.47	11.515
507.82	11.145
508.16	11.094
508.51	11.618
508.85	11.718
509.19	10.969
509.54	11.582
509.88	10.871
510.23	11.003
510.57	11.352
510.92	11.134
511.26	11.716
511.61	11.307
511.95	10.960
512.30	11.241
512.64	11.123
512.98	11.790
513.33	12.152
513.67	11.099
514.02	10.714
514.36	12.015
514.70	11.345
515.05	11.880
515.39	12.619
515.74	11.205
516.08	12.297
516.42	12.042
516.77	12.319
517.11	11.432
517.46	11.569
517.80	12.369
518.14	10.886
518.49	11.202
518.83	11.761
519.17	11.490
519.52	11.432
519.86	11.865
520.20	11.908
520.55	12.148
520.89	12.774
521.23	12.244
521.58	12.125
521.92	11.758
522.26	11.043
522.61	11.838
522.95	11.786
523.29	11.625
523.64	12.134
523.98	11.953
524.32	12.304
524.66	12.207
525.01	11.520
525.35	11.648
525.69	12.562
526.04	11.776
526.38	12.203
526.72	13.374
527.06	11.676
527.41	11.881
527.75	12.797
528.09	12.267
528.43	12.620
528.78	12.477
529.12	12.121
529.46	12.370
529.80	12.252
530.15	13.271
530.49	12.123
530.83	12.658
531.17	12.663
531.51	12.776
531.86	12.258
532.20	12.842
532.54	13.069
532.88	12.067
533.22	11.181
533.57	12.593
533.91	11.981
534.25	12.151
534.59	12.203
534.93	12.017
535.27	11.949
535.62	12.393
535.96	11.739
536.30	12.270
536.64	12.428
536.98	12.608
537.32	12.377
537.66	12.000
538.01	11.982
538.35	13.251
538.69	12.891
539.03	11.696
539.37	11.502
539.71	11.082
540.05	12.614
540.39	12.226
540.73	12.225
541.07	12.914
541.42	12.851
541.76	13.226
542.10	13.001
542.44	12.384
542.78	12.648
543.12	11.708
543.46	11.475
543.80	12.882
544.14	12.067
544.48	12.571
544.82	11.931
545.16	12.622
545.50	11.568
545.84	12.567
546.18	12.256
546.52	12.732
546.86	12.715
547.20	12.879
547.54	12.759
547.88	12.755
548.22	11.831
548.56	12.138
548.90	12.356
549.24	12.054
549.58	12.688
549.92	12.363
550.26	13.281
550.60	13.209
550.94	12.606
551.28	12.217
551.62	12.509
551.96	11.649
552.30	13.106
552.64	12.441
552.98	13.288
553.32	12.879
553.66	12.952
554.00	13.040
554.34	12.974
554.68	13.376
555.02	13.047
555.36	13.083
555.69	12.314
556.03	12.853
556.37	12.824
556.71	12.688
557.05	11.765
557.39	12.176
557.73	13.056
558.07	12.255
558.41	12.663
558.75	13.226
559.08	13.572
559.42	13.228
559.76	12.279
560.10	12.206
560.44	12.509
560.78	12.176
561.12	12.005
561.45	13.233
561.79	12.063
562.13	12.542
562.47	13.046
562.81	13.319
563.15	12.241
563.48	12.997
563.82	12.459
564.16	12.034
564.50	12.044
564.84	12.010
565.17	12.548
565.51	12.204
565.85	12.119
566.19	11.647
566.52	12.286
566.86	12.055
567.20	12.382
567.54	11.473
567.88	11.570
568.21	11.587
568.55	11.173
568.89	11.479
569.23	10.428
569.56	10.607
569.90	10.038
570.24	10.047
570.57	9.997
570.91	9.890
571.25	9.636
571.59	9.867
571.92	9.533
572.26	9.445
572.60	10.150
572.93	9.865
573.27	9.820
573.61	9.436
573.95	9.561
574.28	9.347
574.62	9.159
574.96	9.343
575.29	9.481
575.63	9.426
575.97	9.477
576.30	9.825
576.64	9.325
576.98	9.188
577.31	9.265
577.65	8.969
577.98	8.705
578.32	8.777
578.66	9.497
578.99	9.381
579.33	9.175
579.67	9.268
580.00	9.374
580.34	9.184
580.67	8.792
581.01	9.422
581.35	9.143
581.68	8.704
582.02	8.571
582.35	8.770
582.69	9.172
583.02	9.123
583.36	9.154
583.70	9.640
584.03	9.404
584.37	9.750
584.70	9.274
585.04	9.026
585.37	9.343
585.71	9.469
586.04	9.398
586.38	9.901
586.72	9.832
587.05	9.318
587.39	9.288
587.72	9.791
588.06	9.338
588.39	9.492
588.73	10.003
589.06	10.065
589.40	10.034
589.73	10.032
590.07	10.178
590.40	10.047
590.73	10.422
591.07	11.070
591.40	10.586
591.74	11.082
592.07	10.646
592.41	11.038
592.74	9.963
593.08	10.027
593.41	9.301
593.75	9.619
594.08	9.923
594.41	10.392
594.75	9.723
595.08	10.415
595.42	10.613
595.75	9.793
596.09	10.815
596.42	10.923
596.75	10.806
597.09	11.169
597.42	10.329
597.75	10.737
598.09	11.217
598.42	11.040
598.76	9.931
599.09	9.806
599.42	10.080
599.76	10.395
600.09	9.982
600.42	9.861
600.76	10.036
601.09	9.872
601.42	10.464
601.76	9.829
602.09	10.514
602.42	10.669
602.76	11.084
603.09	10.464
603.42	10.348
603.76	9.870
604.09	9.849
604.42	10.355
604.76	11.219
605.09	10.572
605.42	10.090
605.75	10.099
606.09	10.126
606.42	10.298
606.75	10.452
607.09	11.009
607.42	10.270
607.75	10.127
608.08	9.944
608.42	11.206
608.75	11.046
609.08	10.638
609.41	10.900
609.75	10.719
610.08	11.169
610.41	10.894
610.74	10.880
611.07	10.721
611.41	11.580
611.74	11.966
612.07	11.335
612.40	11.490
612.73	12.000
613.07	12.284
613.40	11.690
613.73	11.012
614.06	11.505
614.39	11.274
614.72	12.000
615.06	11.922
615.39	11.093
615.72	10.890
616.05	11.005
616.38	11.562
616.71	11.401
617.05	11.955
617.38	10.884
617.71	12.132
618.04	12.019
618.37	12.478
618.70	12.508
619.03	12.237
619.36	12.288
619.69	11.620
620.03	12.775
620.36	13.436
620.69	13.288
621.02	13.127
621.35	13.782
621.68	13.474
622.01	12.693
622.34	13.011
622.67	13.308
623.00	11.592
623.33	12.866
623.66	11.794
623.99	13.328
624.32	11.769
624.65	13.136
624.99	12.323
625.32	10.717
625.65	13.148
625.98	13.759
626.31	12.286
626.64	14.204
626.97	13.466
627.30	12.884
627.63	12.879
627.96	13.793
628.29	13.823
628.62	14.456
628.95	15.283
629.28	14.142
629.61	14.390
629.94	12.476
630.26	14.204
630.59	14.776
630.92	13.602
631.25	13.228
631.58	14.915
631.91	13.489
632.24	13.819
632.57	14.586
632.90	15.680
633.23	14.094
633.56	15.480
633.89	15.515
634.22	16.232
634.55	15.621
634.88	15.808
635.20	16.726
635.53	16.265
635.86	16.213
636.19	16.118
636.52	16.032
636.85	16.953
637.18	15.092
637.51	16.194
637.83	13.810
638.16	16.368
638.49	17.254
638.82	15.550
639.15	16.000
639.48	17.332
639.81	16.354
640.13	16.927
640.46	15.436
640.79	17.305
641.12	15.543
641.45	18.296
641.77	16.789
642.10	17.398
642.43	16.216
642.76	17.957
643.09	17.791
643.41	17.147
643.74	18.981
644.07	17.530
644.40	17.638
644.73	20.315
645.05	19.334
645.38	16.746
645.71	19.002
646.04	16.445
646.36	19.533
646.69	20.401
647.02	18.537
647.35	19.931
647.67	18.761
648.00	19.837
648.33	18.647
648.66	16.818
648.98	19.190
649.31	16.143
649.64	15.994
649.96	18.927
650.29	17.536
650.62	17.799
650.94	19.773
651.27	20.777
651.60	18.968
651.92	20.128
652.25	17.101
652.58	18.692
652.90	18.641
653.23	16.333
653.56	18.425
653.88	19.176
654.21	18.325
654.54	17.822
654.86	17.134
655.19	14.324
655.52	9.922
655.84	6.589
656.17	8.279
656.49	11.396
656.82	12.171
657.15	9.617
657.47	7.366
657.80	5.955
658.13	6.187
658.45	9.403
658.78	9.993
659.10	10.280
659.43	11.300
659.75	11.836
660.08	13.418
660.41	16.015
660.73	18.551
661.06	17.834
661.38	19.818
661.71	20.385
662.03	19.921
662.36	19.682
662.68	18.273
663.01	21.212
663.33	19.321
663.66	22.479
663.98	19.870
664.31	19.748
664.63	20.243
664.96	17.706
665.28	22.336
665.61	20.078
665.93	21.127
666.26	19.270
666.58	19.038
666.91	22.622
667.23	23.820
667.56	17.927
667.88	21.154
668.21	22.601
668.53	20.824
668.86	20.996
669.18	23.241
669.50	19.348
669.83	21.786
670.15	21.556
670.48	22.004
670.80	21.121
671.13	19.958
671.45	20.851
671.77	21.589
672.10	19.039
672.42	18.021
672.75	18.574
673.07	17.958
673.39	15.371
673.72	18.945
674.04	19.804
674.37	20.388
674.69	18.814
675.01	19.874
675.34	21.355
675.66	22.947
675.98	21.996
676.31	21.218
676.63	21.444
676.95	19.916
677.28	21.262
677.60	20.879
677.92	22.996
678.25	22.177
678.57	19.124
678.89	18.236
679.22	17.878
679.54	17.748
679.86	19.633
680.18	16.458
680.51	15.426
680.83	18.683
681.15	19.245
681.48	21.172
681.80	18.956
682.12	17.816
682.44	17.988
682.77	20.367
683.09	23.820
683.41	22.838
683.73	19.868
684.06	20.248
684.38	20.352
684.70	22.868
685.02	18.574
685.34	18.315
685.67	17.308
685.99	15.464
686.31	17.747
686.63	16.254
686.96	19.107
687.28	16.787
687.60	16.667
687.92	19.927
688.24	19.962
688.56	21.486
688.89	21.162
689.21	22.707
689.53	18.998
689.85	22.616
690.17	17.598
690.49	21.019
690.82	18.925
691.14	18.973
691.46	17.089
691.78	21.486
692.10	20.248
692.42	21.158
692.74	20.124
693.06	20.851
693.39	20.329
693.71	19.651
694.03	18.947
694.35	22.294
694.67	19.908
694.99	20.976
695.31	21.078
695.63	20.574
695.95	23.472
696.27	21.066
696.59	20.466
696.91	22.021
697.23	18.779
697.56	22.175
697.88	16.973
698.20	17.708
698.52	20.430
698.84	21.381
699.16	21.889
699.48	22.090
699.80	21.014
700.12	25.714
700.44	21.751
700.76	22.928
701.08	24.425
701.40	24.022
701.72	24.198
702.04	27.273
702.36	21.246
702.68	24.079
703.00	26.039
703.32	18.351
703.64	24.397
703.96	23.120
704.28	25.000
704.60	25.806
704.91	23.145
705.23	24.047
705.55	30.233
705.87	30.233
706.19	26.502
706.51	29.907
706.83	25.758
707.15	25.770
707.47	21.970
707.79	22.604
708.11	20.548
708.43	21.905
708.74	21.684
709.06	24.156
709.38	21.785
709.70	22.384
710.02	24.332
710.34	22.727
710.66	23.881
710.98	25.568
711.29	24.419
711.61	29.499
711.93	22.756
712.25	27.331
712.57	29.412
712.89	28.028
713.20	27.052
713.52	25.987
713.84	20.886
714.16	24.390
714.48	25.287
714.80	24.316
715.11	24.784
715.43	22.255
715.75	25.797
716.07	24.601
716.39	27.900
716.70	26.246
717.02	28.058
717.34	25.442
717.66	29.478
717.97	30.677
718.29	30.370
718.61	25.547
718.93	29.779
719.24	26.298
719.56	27.458
719.88	29.831
720.20	27.365
720.51	28.571
720.83	31.227
721.15	27.985
721.46	28.723
721.78	24.373
722.10	25.283
722.42	28.947
722.73	30.712
723.05	23.770
723.37	26.316
723.68	30.502
724.00	31.301
724.32	29.435
724.63	30.488
724.95	29.707
725.27	29.960
725.58	30.469
725.90	29.927
726.22	27.170
726.53	27.778
726.85	27.645
727.16	28.826
727.48	30.142
727.80	29.545
728.11	26.449
728.43	26.923
728.74	26.523
729.06	31.022
729.38	30.515
729.69	28.114
730.01	23.891
730.32	24.306
730.64	29.766
730.96	22.442
731.27	28.146
731.59	23.547
731.90	23.324
732.22	25.466
732.53	24.149
732.85	24.359
733.16	24.759
733.48	26.246
733.80	28.247
734.11	27.070
734.43	23.373
734.74	24.000
735.06	20.057
735.37	23.988
735.69	22.611
736.00	26.797
736.32	24.922
736.63	25.240
736.95	27.796
737.26	22.109
737.58	23.548
737.89	28.763
738.21	26.621
738.52	26.071
738.83	27.547
739.15	32.692
739.46	30.292
739.78	24.653
740.09	25.538
740.41	30.000
740.72	20.906
741.04	28.889
741.35	28.333
741.66	38.222
741.98	30.189
742.29	33.971
742.61	34.914
742.92	31.222
743.23	26.923
743.55	35.600
743.86	31.140
744.18	35.841
744.49	35.407
744.80	41.315
745.12	34.545
745.43	33.921
745.74	37.838
746.06	32.569
746.37	34.529
746.68	30.317
747.00	36.574
747.31	40.476
747.62	30.088
747.94	28.194
748.25	28.085
748.56	35.683
748.88	34.158
749.19	35.000
749.50	34.419
749.82	28.455
750.13	30.204
750.44	25.912
750.75	26.316
751.07	32.476
751.38	26.132
751.69	23.466
752.01	27.820
752.32	23.466
752.63	25.177
752.94	29.508
753.26	36.000
753.57	24.797
753.88	32.422
754.19	26.071
754.51	32.292
754.82	21.300
755.13	27.925
755.44	29.323
755.75	29.197
756.07	26.950
756.38	25.912
756.69	26.174
757.00	23.353
757.31	24.926
757.63	22.515
757.94	22.252
758.25	22.059
758.56	20.000
758.87	24.731
759.18	26.364
759.50	23.511
759.81	23.676
760.12	26.250
760.43	24.928
760.74	25.000
761.05	23.446
761.36	23.529
761.67	23.580
761.99	23.913
762.30	29.514
762.61	28.244
762.92	29.687
763.23	27.731
763.54	34.400
763.85	27.734
764.16	28.846
764.47	30.038
764.78	26.502
765.10	21.519
765.41	28.319
765.72	22.754
766.03	25.078
766.34	26.000
766.65	30.638
766.96	31.624
767.27	33.503
767.58	40.625
767.89	43.158
768.20	36.782
768.51	32.487
768.82	31.651
769.13	30.894
769.44	29.150
769.75	32.618
770.06	27.982
770.37	35.294
770.68	36.574
770.99	24.000
771.30	29.918
771.61	32.287
771.92	29.098
772.23	32.773
772.54	32.308
772.85	38.743
773.16	37.234
773.47	41.304
773.78	39.594
774.09	40.476
774.39	39.181
774.70	39.506
775.01	44.928
775.32	46.405
775.63	47.368
775.94	41.007
776.25	51.181
776.56	54.478
776.87	59.016
777.18	50.781
777.48	53.435
777.79	48.485
778.10	48.148
778.41	52.679
778.72	43.066
779.03	40.940
779.34	41.611
779.65	37.838
779.95	38.650
780.26	45.098
780.57	48.276
780.88	60.156
781.19	44.361
781.50	50.676
781.80	43.396
782.11	37.853
782.42	39.241
782.73	42.945
783.04	49.324
783.34	49.296
783.65	47.945
783.96	47.761
784.27	44.755
784.57	38.849
784.88	43.519
785.19	49.206
785.50	64.151
785.81	56.716
786.11	53.279
786.42	49.612
786.73	41.593
787.04	55.660
787.34	47.321
787.65	50.000
787.96	53.153
788.26	50.413
788.57	56.780
788.88	52.066
789.19	47.222
789.49	53.030
789.80	60.305
790.11	59.048
790.41	64.356
790.72	72.289
791.03	68.478
791.33	69.767
791.64	65.979
791.95	68.317
792.25	70.000
792.56	79.221
792.87	79.487
793.17	79.747
793.48	68.966
793.79	67.816
794.09	71.591
794.40	62.185
794.70	55.882
795.01	43.704
795.32	48.921
795.62	53.543
795.93	55.172
796.23	51.327
796.54	57.647
796.85	63.514
797.15	80.282
797.46	78.788
797.76	81.928
798.07	67.089
798.37	76.923
798.68	72.727
798.99	63.380
799.29	72.727
799.60	72.727
799.90	83.562
800.21	102.985
800.51	91.379
800.82	101.754
801.12	93.443
801.43	77.273
801.73	83.784
802.04	106.349
802.34	83.951
802.65	84.375
802.95	103.390
803.26	103.125
803.56	68.571
803.87	93.846
804.17	100.000
804.48	114.815
804.78	81.034
805.09	98.529
805.39	98.077
805.70	87.500
806.00	106.557
806.30	78.788
806.61	75.610
806.91	54.430
807.22	77.632
807.52	74.627
807.83	97.183
808.13	85.938
808.43	85.000
808.74	71.053
809.04	75.362
809.35	95.522
809.65	90.789
809.95	109.677
810.26	83.051
810.56	93.651
810.86	143.182
811.17	150.000
811.47	108.333
811.77	96.296
812.08	120.000
812.38	126.000
812.69	130.556
812.99	129.545
813.29	114.286
813.59	107.143
813.90	124.490
814.20	101.818
814.50	81.538
814.81	83.824
815.11	130.612
815.41	95.082
815.72	133.333
816.02	109.091
816.32	128.571
816.62	142.500
816.93	121.951
817.23	128.571
817.53	125.000
817.84	154.545
818.14	132.609
818.44	128.889
818.74	167.647
819.04	125.000
819.35	142.857
819.65	167.647
819.95	178.571
820.25	195.000
820.56	151.282
820.86	138.636
821.16	137.209
821.46	158.974
821.76	130.000
822.07	134.286
822.37	150.000
822.67	139.394
822.97	119.608
823.27	192.857
823.57	135.135
823.88	175.000
824.18	186.667
824.48	157.143
824.78	224.000
825.08	208.333
825.38	172.973
825.69	139.024
825.99	208.333
826.29	168.966
826.59	150.000
826.89	150.000
827.19	179.412
827.49	190.323
827.79	115.909
828.09	131.818
828.39	112.766
828.70	116.327
829.00	148.148
829.30	151.613
829.60	107.500
829.90	293.333
830.20	160.714
830.50	256.522
830.80	195.652
831.10	206.667
831.40	196.667
831.70	200.000
832.00	223.077
832.30	192.593
832.60	262.500
832.90	186.667
833.20	428.571
833.50	190.323
833.80	179.310
834.10	209.375
834.40	226.923
834.70	272.222
835.00	276.190
835.30	180.000
835.60	353.846
835.90	206.897
836.20	357.143
836.50	168.966
836.80	192.000
837.10	177.778
837.40	314.286
837.70	282.353
838.00	188.889
838.30	242.857
838.60	309.524
838.90	246.154
839.19	215.000
839.49	407.143
839.79	310.000
840.09	250.000
840.39	276.190
840.69	260.870
840.99	300.000
841.29	510.000
841.59	375.000
841.88	293.750
842.18	155.172
842.48	295.238
842.78	210.000
843.08	252.174
843.38	215.625
843.68	816.667
843.97	242.308
844.27	200.000
844.57	300.000
844.87	362.500
845.17	222.222
845.47	2100.000
845.76	455.556
846.06	376.471
846.36	562.500
846.66	357.143
846.96	318.750
847.25	436.364
847.55	445.455
847.85	260.870
848.15	450.000
848.44	342.857
848.74	277.778
849.04	217.647
849.34	520.000
849.63	231.579
849.93	500.000
850.23	820.000
850.53	342.857
850.82	3250.000
851.12	-4500.000
851.42	4200.000
851.71	275.000
852.01	-1066.667
852.31	258.333
852.61	1900.000
852.90	295.238
853.20	204.000
853.50	305.882
853.79	261.905
854.09	245.833
854.39	318.750
854.68	210.811
854.98	180.645
855.28	200.000
855.57	206.897
855.87	200.000
856.17	268.421
856.46	300.000
856.76	288.235
857.05	231.034
857.35	250.000
857.65	380.000
857.94	252.174
858.24	230.769
858.53	330.000
858.83	250.000
859.13	333.333
859.42	0.000
859.72	600.000
860.01	427.273
860.31	300.000
860.60	268.421
860.90	230.435
861.20	533.333
861.49	475.000
861.79	-4400.000
862.08	650.000
862.38	285.714
862.67	338.462
862.97	311.765
863.26	466.667
863.56	288.889
863.85	358.333
864.15	600.000
864.44	360.000
864.74	883.333
865.03	700.000
865.33	263.158
865.62	454.545
865.92	376.923
866.21	416.667
866.51	0.000
866.80	527.273
867.10	1040.000
867.39	453.846
867.69	472.727
867.98	268.421
868.27	536.364
868.57	289.474
868.86	-5100.000
869.16	337.500
869.45	2650.000
869.75	-4200.000
870.04	483.333
870.33	700.000
870.63	1000.000
870.92	2600.000
871.22	814.286
871.51	311.765
871.80	223.810
872.10	350.000
>>>>>End Processed Spectral Data<<<<<
