SpectraSuite Data File
++++++++++++++++++++++++++++++++++++
Date: Wed May 13 19:22:45 PDT 2015
User: schluterlab
Dark Spectrum Present: Yes
Reference Spectrum Present: Yes
Number of Sampled Component Spectra: 1
Spectrometers: USB2E3373
Integration Time (usec): 3000 (USB2E3373)
Spectra Averaged: 3 (USB2E3373)
Boxcar Smoothing: 0 (USB2E3373)
Correct for Electrical Dark: No (USB2E3373)
Strobe/Lamp Enabled: No (USB2E3373)
Correct for Detector Non-linearity: No (USB2E3373)
Correct for Stray Light: No (USB2E3373)
Number of Pixels in Processed Spectrum: 2048
>>>>>Begin Processed Spectral Data<<<<<
178.53	0.000
178.91	-1450.000
179.29	-1525.000
179.67	-244.444
180.04	-1800.000
180.42	2500.000
180.80	1220.000
181.18	-1600.000
181.56	842.857
181.94	0.000
182.31	-785.714
182.69	1933.333
183.07	-650.000
183.45	-600.000
183.83	590.909
184.20	-460.000
184.58	2550.000
184.96	6200.000
185.34	-900.000
185.72	-675.000
186.09	-2900.000
186.47	2950.000
186.85	2750.000
187.23	5400.000
187.61	-1900.000
187.98	1475.000
188.36	581.818
188.74	600.000
189.12	-980.000
189.49	650.000
189.87	-4600.000
190.25	-1200.000
190.63	442.857
191.00	407.692
191.38	900.000
191.76	-1325.000
192.14	1600.000
192.51	812.500
192.89	1116.667
193.27	662.500
193.65	-1300.000
194.02	610.000
194.40	1020.000
194.78	600.000
195.15	566.667
195.53	740.000
195.91	-2450.000
196.29	368.750
196.66	357.895
197.04	-410.000
197.42	0.000
197.79	710.000
198.17	-4900.000
198.55	857.143
198.92	800.000
199.30	960.000
199.68	0.000
200.05	355.556
200.43	885.714
200.81	5300.000
201.18	1666.667
201.56	-1800.000
201.94	666.667
202.31	644.444
202.69	508.333
203.07	660.000
203.44	0.000
203.82	1425.000
204.19	814.286
204.57	450.000
204.95	725.000
205.32	1700.000
205.70	554.545
206.08	457.143
206.45	3150.000
206.83	412.500
207.20	933.333
207.58	920.000
207.96	366.667
208.33	812.500
208.71	-883.333
209.08	928.571
209.46	655.556
209.84	554.545
210.21	-1933.333
210.59	1600.000
210.96	-612.500
211.34	2950.000
211.71	590.000
212.09	833.333
212.46	0.000
212.84	2166.667
213.22	1575.000
213.59	-5400.000
213.97	1016.667
214.34	914.286
214.72	718.182
215.09	1080.000
215.47	-2600.000
215.84	-2500.000
216.22	1500.000
216.59	471.429
216.97	1275.000
217.34	527.273
217.72	-783.333
218.09	0.000
218.47	-6100.000
218.84	522.222
219.22	828.571
219.59	1600.000
219.97	-628.571
220.34	900.000
220.72	-1733.333
221.09	478.571
221.47	1475.000
221.84	-1016.667
222.22	0.000
222.59	1700.000
222.97	-2900.000
223.34	1120.000
223.72	469.231
224.09	1220.000
224.46	2500.000
224.84	-6600.000
225.21	-1100.000
225.59	-5400.000
225.96	640.000
226.34	325.000
226.71	2600.000
227.08	650.000
227.46	560.000
227.83	-1350.000
228.21	-2600.000
228.58	666.667
228.95	-2400.000
229.33	-2550.000
229.70	1633.333
230.08	871.429
230.45	-980.000
230.82	466.667
231.20	950.000
231.57	742.857
231.95	466.667
232.32	286.364
232.69	436.364
233.07	771.429
233.44	392.308
233.81	-1633.333
234.19	321.053
234.56	433.333
234.93	400.000
235.31	490.909
235.68	384.615
236.05	392.857
236.43	209.091
236.80	294.737
237.17	5300.000
237.55	252.381
237.92	217.857
238.29	242.857
238.67	161.290
239.04	206.897
239.41	163.889
239.79	130.435
240.16	154.762
240.53	147.727
240.91	101.961
241.28	114.000
241.65	98.000
242.02	88.406
242.40	75.806
242.77	63.333
243.14	61.290
243.51	69.663
243.89	60.000
244.26	55.556
244.63	61.290
245.00	62.766
245.38	60.396
245.75	53.271
246.12	44.037
246.49	51.095
246.87	48.000
247.24	46.154
247.61	45.714
247.98	37.908
248.36	33.108
248.73	37.580
249.10	38.854
249.47	35.593
249.84	37.968
250.22	28.877
250.59	31.953
250.96	30.808
251.33	34.597
251.70	33.663
252.08	27.143
252.45	22.422
252.82	27.391
253.19	28.085
253.56	25.882
253.94	26.141
254.31	24.219
254.68	27.308
255.05	22.509
255.42	22.358
255.79	24.265
256.16	21.661
256.54	18.021
256.91	19.929
257.28	16.187
257.65	20.132
258.02	17.391
258.39	18.612
258.76	16.722
259.14	19.940
259.51	20.365
259.88	14.596
260.25	20.242
260.62	15.607
260.99	14.907
261.36	17.417
261.73	16.905
262.10	16.570
262.47	16.901
262.85	17.270
263.22	12.821
263.59	19.373
263.96	15.110
264.33	14.360
264.70	15.526
265.07	15.857
265.44	15.404
265.81	13.382
266.18	12.814
266.55	13.659
266.92	14.251
267.29	17.824
267.66	13.303
268.03	15.455
268.40	15.187
268.77	12.888
269.14	13.288
269.51	14.447
269.88	14.685
270.25	15.576
270.62	12.360
270.99	16.344
271.36	13.519
271.73	12.150
272.10	12.174
272.47	14.624
272.84	13.853
273.21	12.369
273.58	11.790
273.95	11.111
274.32	13.430
274.69	11.563
275.06	12.402
275.43	13.830
275.80	9.619
276.17	12.424
276.54	13.721
276.91	12.451
277.28	12.109
277.65	13.153
278.02	10.973
278.39	11.914
278.76	14.364
279.13	13.585
279.50	13.594
279.87	11.355
280.23	10.978
280.60	9.284
280.97	12.015
281.34	10.619
281.71	11.636
282.08	11.324
282.45	10.909
282.82	10.835
283.19	9.091
283.56	12.281
283.92	10.829
284.29	11.464
284.66	12.341
285.03	7.957
285.40	10.211
285.77	9.428
286.14	7.772
286.51	11.000
286.87	10.598
287.24	11.726
287.61	9.952
287.98	11.201
288.35	10.777
288.72	10.903
289.08	10.798
289.45	9.226
289.82	9.756
290.19	8.477
290.56	9.495
290.93	8.459
291.29	10.583
291.66	8.407
292.03	11.773
292.40	10.720
292.77	9.615
293.13	10.746
293.50	8.746
293.87	9.481
294.24	8.593
294.60	8.734
294.97	9.302
295.34	9.591
295.71	9.517
296.08	6.980
296.44	9.078
296.81	8.322
297.18	10.434
297.55	6.332
297.91	7.520
298.28	8.300
298.65	8.747
299.02	7.905
299.38	7.570
299.75	6.334
300.12	7.152
300.48	6.875
300.85	8.878
301.22	7.134
301.59	7.071
301.95	7.683
302.32	6.804
302.69	7.646
303.05	7.273
303.42	6.790
303.79	7.361
304.15	7.110
304.52	6.257
304.89	6.039
305.25	6.729
305.62	7.248
305.99	7.202
306.35	6.600
306.72	8.296
307.09	7.325
307.45	7.545
307.82	7.701
308.19	8.057
308.55	6.365
308.92	6.767
309.29	6.547
309.65	6.575
310.02	6.448
310.38	6.989
310.75	6.336
311.12	6.653
311.48	7.419
311.85	6.813
312.22	6.764
312.58	6.549
312.95	7.497
313.31	6.214
313.68	6.341
314.05	8.284
314.41	6.533
314.78	7.452
315.14	6.455
315.51	6.591
315.87	6.931
316.24	6.653
316.61	5.945
316.97	6.556
317.34	4.892
317.70	6.214
318.07	7.796
318.43	6.067
318.80	7.498
319.16	6.685
319.53	6.285
319.89	6.762
320.26	7.000
320.62	7.540
320.99	6.970
321.35	7.374
321.72	7.084
322.08	7.206
322.45	8.159
322.81	8.043
323.18	7.996
323.54	8.256
323.91	8.491
324.27	7.744
324.64	5.965
325.00	6.943
325.37	7.279
325.73	7.810
326.10	6.884
326.46	6.989
326.83	8.110
327.19	7.003
327.56	7.143
327.92	6.737
328.29	8.518
328.65	7.366
329.01	7.040
329.38	7.308
329.74	7.110
330.11	6.786
330.47	7.805
330.84	8.548
331.20	7.195
331.56	7.890
331.93	6.852
332.29	7.720
332.66	7.876
333.02	7.404
333.38	7.046
333.75	8.734
334.11	7.562
334.48	6.832
334.84	7.353
335.20	7.273
335.57	7.706
335.93	6.786
336.29	7.509
336.66	7.394
337.02	6.878
337.38	8.056
337.75	7.130
338.11	6.714
338.47	6.814
338.84	8.158
339.20	7.248
339.56	7.117
339.93	6.364
340.29	7.609
340.65	6.150
341.02	7.853
341.38	7.473
341.74	6.930
342.11	8.210
342.47	6.784
342.83	6.336
343.20	7.532
343.56	8.256
343.92	6.140
344.28	8.078
344.65	7.395
345.01	7.071
345.37	6.775
345.73	6.599
346.10	6.138
346.46	6.356
346.82	7.166
347.19	5.764
347.55	7.061
347.91	6.796
348.27	7.888
348.63	7.358
349.00	7.443
349.36	6.486
349.72	6.496
350.08	6.645
350.45	6.835
350.81	7.067
351.17	6.645
351.53	6.224
351.89	5.776
352.26	7.656
352.62	6.816
352.98	6.726
353.34	6.820
353.70	5.810
354.07	7.097
354.43	5.397
354.79	6.114
355.15	6.305
355.51	7.194
355.87	6.367
356.24	7.085
356.60	6.415
356.96	5.953
357.32	5.969
357.68	6.614
358.04	6.334
358.40	7.126
358.77	7.121
359.13	6.393
359.49	5.725
359.85	5.476
360.21	5.742
360.57	5.992
360.93	6.692
361.29	4.989
361.66	5.960
362.02	6.567
362.38	6.692
362.74	5.655
363.10	5.625
363.46	5.576
363.82	5.669
364.18	6.094
364.54	6.612
364.90	5.807
365.26	5.368
365.62	6.793
365.98	5.113
366.35	4.441
366.71	6.435
367.07	5.535
367.43	6.313
367.79	6.210
368.15	7.328
368.51	5.596
368.87	5.782
369.23	6.218
369.59	6.010
369.95	4.706
370.31	5.627
370.67	5.725
371.03	6.067
371.39	5.831
371.75	5.735
372.11	5.903
372.47	6.452
372.83	6.412
373.19	5.708
373.55	6.061
373.91	6.406
374.27	5.979
374.63	5.091
374.99	5.791
375.35	5.583
375.71	5.689
376.07	6.516
376.42	5.433
376.78	6.030
377.14	4.885
377.50	5.762
377.86	5.253
378.22	5.499
378.58	4.950
378.94	5.468
379.30	4.707
379.66	5.393
380.02	5.344
380.38	4.372
380.74	5.222
381.09	5.318
381.45	5.716
381.81	5.160
382.17	5.414
382.53	4.403
382.89	5.617
383.25	5.003
383.61	5.328
383.97	5.566
384.32	5.427
384.68	5.328
385.04	5.040
385.40	4.272
385.76	5.098
386.12	5.052
386.48	5.601
386.83	5.131
387.19	6.184
387.55	5.133
387.91	5.018
388.27	4.844
388.62	6.454
388.98	4.668
389.34	5.695
389.70	5.641
390.06	5.703
390.42	4.929
390.77	5.534
391.13	4.722
391.49	5.140
391.85	4.456
392.20	4.164
392.56	5.303
392.92	4.414
393.28	4.556
393.64	5.036
393.99	5.987
394.35	4.963
394.71	4.517
395.07	5.234
395.42	5.439
395.78	5.153
396.14	5.338
396.50	5.514
396.85	5.149
397.21	5.117
397.57	4.960
397.92	5.409
398.28	4.092
398.64	5.496
399.00	5.260
399.35	4.174
399.71	4.861
400.07	5.263
400.42	6.135
400.78	5.730
401.14	5.061
401.49	5.791
401.85	4.598
402.21	5.030
402.57	4.257
402.92	5.296
403.28	5.184
403.63	5.074
403.99	4.586
404.35	4.788
404.70	4.976
405.06	4.135
405.42	4.928
405.77	4.514
406.13	5.418
406.49	4.849
406.84	5.021
407.20	4.433
407.55	4.722
407.91	4.333
408.27	4.340
408.62	5.900
408.98	4.596
409.34	4.859
409.69	5.290
410.05	5.390
410.40	5.872
410.76	4.958
411.11	5.609
411.47	5.048
411.83	5.376
412.18	5.071
412.54	4.795
412.89	5.663
413.25	4.900
413.60	5.435
413.96	4.493
414.31	5.346
414.67	5.260
415.03	4.768
415.38	5.606
415.74	4.823
416.09	5.748
416.45	5.087
416.80	4.825
417.16	5.563
417.51	6.038
417.87	5.331
418.22	4.290
418.58	5.294
418.93	5.344
419.29	4.710
419.64	5.605
420.00	5.183
420.35	5.449
420.71	4.901
421.06	4.714
421.42	4.737
421.77	5.325
422.12	4.323
422.48	3.886
422.83	4.834
423.19	5.138
423.54	5.223
423.90	4.580
424.25	5.193
424.61	4.881
424.96	4.606
425.31	5.482
425.67	4.551
426.02	5.086
426.38	5.617
426.73	4.447
427.09	5.046
427.44	5.290
427.79	5.118
428.15	5.655
428.50	5.149
428.85	5.900
429.21	4.362
429.56	4.873
429.92	4.429
430.27	4.419
430.62	3.891
430.98	4.826
431.33	4.742
431.68	4.921
432.04	5.644
432.39	5.311
432.74	4.967
433.10	5.150
433.45	4.606
433.80	4.601
434.16	5.502
434.51	5.105
434.86	5.701
435.22	5.058
435.57	4.802
435.92	5.091
436.28	4.686
436.63	5.629
436.98	5.209
437.34	5.009
437.69	5.484
438.04	4.890
438.39	5.075
438.75	5.520
439.10	4.860
439.45	5.195
439.81	5.740
440.16	4.743
440.51	4.745
440.86	5.385
441.22	5.451
441.57	4.830
441.92	4.964
442.27	5.544
442.63	4.371
442.98	5.465
443.33	5.000
443.68	4.543
444.03	4.344
444.39	4.236
444.74	4.383
445.09	5.067
445.44	5.413
445.79	4.602
446.15	5.453
446.50	4.577
446.85	4.317
447.20	4.335
447.55	5.137
447.91	5.240
448.26	5.287
448.61	5.088
448.96	5.814
449.31	5.793
449.66	5.627
450.02	4.290
450.37	5.215
450.72	4.512
451.07	4.509
451.42	5.289
451.77	5.520
452.12	5.254
452.47	5.908
452.83	4.895
453.18	5.073
453.53	5.813
453.88	4.962
454.23	5.499
454.58	5.694
454.93	5.213
455.28	5.673
455.63	5.279
455.98	6.369
456.34	5.716
456.69	5.385
457.04	5.882
457.39	5.377
457.74	5.630
458.09	6.095
458.44	5.587
458.79	4.826
459.14	6.038
459.49	5.721
459.84	5.152
460.19	5.245
460.54	5.903
460.89	4.937
461.24	5.525
461.59	6.682
461.94	5.795
462.29	5.519
462.64	5.552
462.99	5.335
463.34	6.133
463.69	5.503
464.04	5.855
464.39	6.493
464.74	4.991
465.09	4.885
465.44	5.152
465.79	5.145
466.14	5.255
466.49	5.172
466.84	5.838
467.19	5.854
467.54	5.938
467.89	5.522
468.24	5.643
468.59	6.349
468.94	5.498
469.29	5.463
469.64	7.497
469.99	5.886
470.34	5.086
470.68	5.891
471.03	5.374
471.38	6.254
471.73	5.663
472.08	6.184
472.43	4.962
472.78	6.452
473.13	6.354
473.48	6.305
473.83	5.000
474.17	5.103
474.52	5.955
474.87	4.904
475.22	5.746
475.57	5.105
475.92	4.886
476.27	5.242
476.61	5.019
476.96	4.508
477.31	4.919
477.66	5.088
478.01	5.175
478.36	5.182
478.70	4.725
479.05	5.005
479.40	5.220
479.75	4.982
480.10	4.871
480.45	4.617
480.79	4.204
481.14	4.843
481.49	4.936
481.84	4.527
482.19	4.498
482.53	4.954
482.88	5.165
483.23	5.000
483.58	5.096
483.92	5.155
484.27	4.227
484.62	4.569
484.97	4.296
485.31	4.075
485.66	3.417
486.01	3.021
486.36	2.884
486.70	2.818
487.05	3.203
487.40	3.218
487.75	3.806
488.09	4.216
488.44	3.636
488.79	4.195
489.13	4.278
489.48	4.323
489.83	4.186
490.17	4.691
490.52	4.340
490.87	4.523
491.22	4.411
491.56	4.374
491.91	4.746
492.26	4.502
492.60	4.194
492.95	4.303
493.30	4.860
493.64	4.200
493.99	4.596
494.34	4.625
494.68	4.579
495.03	4.981
495.37	4.700
495.72	4.727
496.07	5.012
496.41	4.425
496.76	4.925
497.11	4.502
497.45	4.425
497.80	4.511
498.14	4.444
498.49	4.439
498.84	4.746
499.18	4.952
499.53	4.748
499.87	4.800
500.22	4.852
500.56	5.049
500.91	4.423
501.26	4.457
501.60	4.936
501.95	4.583
502.29	4.780
502.64	5.028
502.98	4.441
503.33	4.753
503.67	5.058
504.02	5.145
504.36	5.194
504.71	4.787
505.06	5.398
505.40	5.007
505.75	4.677
506.09	4.519
506.44	4.637
506.78	4.627
507.13	5.048
507.47	5.657
507.82	5.674
508.16	5.268
508.51	4.414
508.85	4.270
509.19	4.796
509.54	5.357
509.88	5.204
510.23	4.936
510.57	5.366
510.92	4.713
511.26	5.087
511.61	5.187
511.95	4.854
512.30	5.408
512.64	5.266
512.98	5.466
513.33	4.925
513.67	5.016
514.02	4.329
514.36	5.134
514.70	5.700
515.05	4.629
515.39	5.609
515.74	5.462
516.08	5.813
516.42	5.605
516.77	6.076
517.11	4.772
517.46	5.756
517.80	5.459
518.14	4.922
518.49	5.309
518.83	5.511
519.17	5.196
519.52	5.433
519.86	5.419
520.20	6.012
520.55	5.925
520.89	6.022
521.23	5.368
521.58	5.642
521.92	5.695
522.26	5.613
522.61	5.171
522.95	5.586
523.29	5.965
523.64	5.976
523.98	6.100
524.32	5.549
524.66	6.314
525.01	6.311
525.35	5.948
525.69	5.480
526.04	5.483
526.38	5.857
526.72	5.644
527.06	5.964
527.41	4.889
527.75	6.045
528.09	5.459
528.43	5.672
528.78	6.085
529.12	5.879
529.46	6.062
529.80	5.817
530.15	6.106
530.49	6.031
530.83	6.139
531.17	6.462
531.51	6.291
531.86	5.161
532.20	6.454
532.54	6.662
532.88	6.033
533.22	5.934
533.57	5.679
533.91	6.261
534.25	5.954
534.59	6.284
534.93	6.068
535.27	5.975
535.62	6.532
535.96	5.461
536.30	5.722
536.64	6.568
536.98	6.105
537.32	5.991
537.66	6.200
538.01	6.386
538.35	6.012
538.69	6.126
539.03	5.913
539.37	5.367
539.71	4.861
540.05	5.556
540.39	6.578
540.73	5.692
541.07	6.619
541.42	6.588
541.76	6.065
542.10	6.210
542.44	6.026
542.78	7.049
543.12	6.014
543.46	7.148
543.80	5.986
544.14	5.648
544.48	6.095
544.82	6.158
545.16	5.856
545.50	5.848
545.84	6.788
546.18	5.657
546.52	6.401
546.86	5.567
547.20	7.080
547.54	6.480
547.88	7.717
548.22	5.791
548.56	5.975
548.90	5.826
549.24	5.320
549.58	6.344
549.92	6.387
550.26	5.398
550.60	6.570
550.94	6.620
551.28	6.437
551.62	6.686
551.96	6.596
552.30	6.894
552.64	6.423
552.98	5.966
553.32	6.473
553.66	6.817
554.00	7.207
554.34	6.073
554.68	7.153
555.02	6.276
555.36	6.402
555.69	6.022
556.03	6.258
556.37	6.821
556.71	6.139
557.05	6.653
557.39	7.068
557.73	6.493
558.07	7.034
558.41	6.006
558.75	6.907
559.08	7.308
559.42	5.518
559.76	6.912
560.10	6.353
560.44	6.150
560.78	4.790
561.12	6.069
561.45	6.519
561.79	6.592
562.13	6.439
562.47	6.762
562.81	7.322
563.15	5.485
563.48	5.703
563.82	5.414
564.16	6.017
564.50	5.339
564.84	6.005
565.17	5.727
565.51	6.262
565.85	6.726
566.19	5.448
566.52	6.396
566.86	5.666
567.20	6.604
567.54	5.936
567.88	5.052
568.21	5.767
568.55	5.308
568.89	5.253
569.23	4.679
569.56	4.777
569.90	4.528
570.24	4.593
570.57	4.828
570.91	4.008
571.25	4.200
571.59	4.330
571.92	3.831
572.26	4.073
572.60	4.174
572.93	4.018
573.27	4.259
573.61	4.355
573.95	4.289
574.28	3.568
574.62	3.717
574.96	3.799
575.29	3.831
575.63	3.786
575.97	3.723
576.30	4.222
576.64	3.715
576.98	3.792
577.31	3.720
577.65	3.757
577.98	3.378
578.32	3.336
578.66	3.543
578.99	3.698
579.33	3.607
579.67	3.746
580.00	3.812
580.34	3.821
580.67	3.829
581.01	4.070
581.35	3.600
581.68	3.441
582.02	3.253
582.35	3.273
582.69	3.544
583.02	3.557
583.36	3.874
583.70	3.971
584.03	4.154
584.37	4.137
584.70	3.710
585.04	3.963
585.37	3.938
585.71	4.041
586.04	3.817
586.38	3.997
586.72	4.198
587.05	3.667
587.39	3.852
587.72	3.891
588.06	4.002
588.39	4.280
588.73	4.136
589.06	4.394
589.40	4.175
589.73	4.189
590.07	4.733
590.40	4.238
590.73	4.840
591.07	5.169
591.40	5.061
591.74	5.325
592.07	4.974
592.41	4.919
592.74	4.007
593.08	4.797
593.41	4.144
593.75	4.247
594.08	4.492
594.41	4.772
594.75	4.843
595.08	4.832
595.42	4.448
595.75	4.274
596.09	4.957
596.42	5.501
596.75	5.150
597.09	5.411
597.42	4.680
597.75	4.787
598.09	5.304
598.42	5.155
598.76	4.459
599.09	4.599
599.42	4.731
599.76	4.356
600.09	4.481
600.42	4.492
600.76	4.929
601.09	4.517
601.42	4.490
601.76	4.706
602.09	4.506
602.42	4.777
602.76	4.917
603.09	4.563
603.42	4.608
603.76	4.764
604.09	4.847
604.42	4.566
604.76	5.567
605.09	4.675
605.42	4.831
605.75	4.843
606.09	4.961
606.42	4.414
606.75	5.350
607.09	5.358
607.42	5.220
607.75	4.515
608.08	4.863
608.42	5.379
608.75	5.140
609.08	4.857
609.41	5.474
609.75	4.859
610.08	5.137
610.41	4.655
610.74	4.967
611.07	4.891
611.41	5.348
611.74	5.882
612.07	5.642
612.40	5.614
612.73	5.579
613.07	5.927
613.40	5.635
613.73	5.506
614.06	5.215
614.39	5.663
614.72	5.947
615.06	6.040
615.39	5.467
615.72	5.061
616.05	4.891
616.38	5.892
616.71	6.057
617.05	6.360
617.38	5.111
617.71	5.285
618.04	6.070
618.37	5.677
618.70	5.974
619.03	6.645
619.36	5.906
619.69	6.056
620.03	6.525
620.36	6.217
620.69	6.918
621.02	7.522
621.35	5.325
621.68	6.776
622.01	6.269
622.34	7.262
622.67	6.692
623.00	5.869
623.33	6.290
623.66	6.290
623.99	6.406
624.32	6.491
624.65	6.215
624.99	6.232
625.32	6.662
625.65	7.213
625.98	6.995
626.31	7.776
626.64	7.837
626.97	6.899
627.30	6.733
627.63	7.875
627.96	6.981
628.29	7.174
628.62	8.692
628.95	9.434
629.28	6.934
629.61	8.341
629.94	7.524
630.26	7.722
630.59	8.770
630.92	7.088
631.25	7.404
631.58	8.709
631.91	7.911
632.24	7.911
632.57	8.185
632.90	8.333
633.23	8.166
633.56	9.153
633.89	8.154
634.22	9.081
634.55	9.467
634.88	8.383
635.20	9.438
635.53	9.036
635.86	8.911
636.19	9.529
636.52	10.035
636.85	9.507
637.18	9.101
637.51	9.811
637.83	8.015
638.16	8.568
638.49	9.194
638.82	9.608
639.15	9.875
639.48	9.726
639.81	9.383
640.13	10.026
640.46	9.396
640.79	10.832
641.12	9.216
641.45	10.196
641.77	10.457
642.10	9.649
642.43	10.661
642.76	11.920
643.09	11.656
643.41	10.167
643.74	12.346
644.07	10.671
644.40	11.963
644.73	12.441
645.05	13.629
645.38	11.374
645.71	10.789
646.04	12.292
646.36	12.521
646.69	12.709
647.02	11.224
647.35	11.856
647.67	12.389
648.00	12.846
648.33	11.056
648.66	9.545
648.98	11.694
649.31	10.015
649.64	9.268
649.96	11.624
650.29	10.900
650.62	10.032
650.94	12.966
651.27	14.020
651.60	11.814
651.92	10.703
652.25	9.609
652.58	11.059
652.90	9.479
653.23	9.861
653.56	10.394
653.88	12.203
654.21	12.638
654.54	9.406
654.86	11.371
655.19	8.784
655.52	5.380
655.84	2.669
656.17	2.904
656.49	3.886
656.82	3.964
657.15	3.273
657.47	2.469
657.80	2.078
658.13	2.156
658.45	3.514
658.78	3.690
659.10	4.281
659.43	4.629
659.75	5.583
660.08	6.456
660.41	8.473
660.73	11.055
661.06	10.350
661.38	13.091
661.71	13.654
662.03	15.385
662.36	11.531
662.68	14.659
663.01	14.545
663.33	13.588
663.66	14.916
663.98	13.391
664.31	13.025
664.63	14.170
664.96	11.871
665.28	15.779
665.61	12.671
665.93	13.481
666.26	13.387
666.58	12.762
666.91	14.588
667.23	15.281
667.56	14.687
667.88	13.248
668.21	15.565
668.53	10.412
668.86	14.069
669.18	17.058
669.50	16.087
669.83	16.558
670.15	14.667
670.48	13.943
670.80	17.026
671.13	14.225
671.45	12.766
671.77	15.275
672.10	13.863
672.42	11.307
672.75	12.272
673.07	10.387
673.39	10.669
673.72	10.742
674.04	13.333
674.37	11.650
674.69	13.088
675.01	14.226
675.34	15.400
675.66	16.000
675.98	15.886
676.31	16.597
676.63	14.225
676.95	16.143
677.28	12.383
677.60	14.945
677.92	16.245
678.25	11.910
678.57	12.749
678.89	14.629
679.22	12.181
679.54	13.740
679.86	13.394
680.18	12.165
680.51	14.007
680.83	12.633
681.15	13.396
681.48	15.123
681.80	12.573
682.12	11.686
682.44	10.058
682.77	13.442
683.09	16.738
683.41	15.078
683.73	13.466
684.06	15.496
684.38	12.329
684.70	11.628
685.02	15.760
685.34	11.355
685.67	9.965
685.99	9.966
686.31	9.727
686.63	9.011
686.96	11.964
687.28	12.094
687.60	12.500
687.92	12.980
688.24	12.167
688.56	13.655
688.89	14.523
689.21	14.629
689.53	14.614
689.85	14.634
690.17	13.043
690.49	16.348
690.82	13.084
691.14	13.393
691.46	13.502
691.78	14.056
692.10	13.636
692.42	12.974
692.74	10.581
693.06	13.830
693.39	15.606
693.71	12.227
694.03	14.105
694.35	13.420
694.67	14.645
694.99	17.317
695.31	14.216
695.63	15.550
695.95	15.403
696.27	14.213
696.59	15.026
696.91	16.321
697.23	12.911
697.56	15.139
697.88	11.656
698.20	13.333
698.52	15.914
698.84	14.922
699.16	13.364
699.48	13.539
699.80	16.425
700.12	18.442
700.44	15.915
700.76	16.575
701.08	17.241
701.40	17.039
701.72	17.493
702.04	20.739
702.36	16.431
702.68	15.297
703.00	16.620
703.32	17.819
703.64	17.158
703.96	17.549
704.28	18.605
704.60	19.941
704.91	19.585
705.23	17.009
705.55	20.930
705.87	25.249
706.19	19.081
706.51	20.249
706.83	20.606
707.15	19.048
707.47	16.667
707.79	17.199
708.11	17.123
708.43	14.524
708.74	13.010
709.06	15.844
709.38	17.585
709.70	22.093
710.02	18.101
710.34	18.788
710.66	19.104
710.98	21.023
711.29	20.640
711.61	20.354
711.93	14.423
712.25	20.900
712.57	20.588
712.89	18.339
713.20	19.149
713.52	23.684
713.84	18.671
714.16	17.988
714.48	16.954
714.80	21.277
715.11	20.173
715.43	18.398
715.75	17.681
716.07	18.850
716.39	20.376
716.70	17.940
717.02	20.504
717.34	22.615
717.66	22.761
717.97	24.701
718.29	24.074
718.61	19.343
718.93	23.162
719.24	23.183
719.56	20.000
719.88	22.712
720.20	20.946
720.51	22.997
720.83	27.881
721.15	22.015
721.46	24.113
721.78	21.864
722.10	21.887
722.42	23.684
722.73	23.596
723.05	18.852
723.37	25.101
723.68	24.324
724.00	21.545
724.32	23.790
724.63	26.829
724.95	21.757
725.27	25.506
725.58	25.391
725.90	21.898
726.22	18.868
726.53	18.750
726.85	21.843
727.16	25.979
727.48	18.794
727.80	18.561
728.11	19.928
728.43	19.231
728.74	21.505
729.06	28.467
729.38	25.368
729.69	26.335
730.01	19.454
730.32	19.792
730.64	22.074
730.96	20.792
731.27	20.199
731.59	17.431
731.90	19.825
732.22	19.876
732.53	19.505
732.85	21.154
733.16	22.830
733.48	18.272
733.80	23.052
734.11	22.930
734.43	20.414
734.74	18.000
735.06	15.473
735.37	19.364
735.69	18.153
736.00	21.569
736.32	18.380
736.63	16.294
736.95	23.003
737.26	13.605
737.58	17.742
737.89	20.067
738.21	17.747
738.52	21.786
738.83	21.509
739.15	23.846
739.46	23.723
739.78	25.694
740.09	19.692
740.41	20.645
740.72	22.648
741.04	22.593
741.35	21.250
741.66	28.889
741.98	24.528
742.29	28.708
742.61	29.310
742.92	25.339
743.23	27.350
743.55	27.200
743.86	21.491
744.18	27.434
744.49	32.057
744.80	31.925
745.12	32.273
745.43	27.753
745.74	28.829
746.06	26.147
746.37	34.081
746.68	26.244
747.00	30.556
747.31	30.952
747.62	24.779
747.94	21.145
748.25	22.979
748.56	27.313
748.88	27.723
749.19	32.500
749.50	29.302
749.82	24.390
750.13	22.449
750.44	23.358
750.75	23.509
751.07	24.437
751.38	23.693
751.69	23.827
752.01	21.805
752.32	22.022
752.63	22.340
752.94	24.180
753.26	26.400
753.57	18.699
753.88	27.734
754.19	21.786
754.51	25.694
754.82	19.856
755.13	19.245
755.44	23.308
755.75	21.168
756.07	19.858
756.38	20.803
756.69	24.161
757.00	19.162
757.31	20.178
757.63	19.591
757.94	16.354
758.25	17.647
758.56	17.284
758.87	18.548
759.18	20.000
759.50	21.630
759.81	19.003
760.12	17.500
760.43	18.911
760.74	19.022
761.05	21.751
761.36	15.775
761.67	20.455
761.99	18.634
762.30	21.181
762.61	22.519
762.92	22.266
763.23	29.832
763.54	29.600
763.85	22.656
764.16	24.231
764.47	22.433
764.78	18.375
765.10	18.038
765.41	20.354
765.72	21.856
766.03	21.317
766.34	21.000
766.65	24.255
766.96	29.487
767.27	30.457
767.58	32.812
767.89	36.842
768.20	33.908
768.51	27.411
768.82	28.899
769.13	27.236
769.44	23.077
769.75	21.030
770.06	19.266
770.37	26.244
770.68	24.074
770.99	24.444
771.30	20.492
771.61	25.561
771.92	28.689
772.23	30.252
772.54	31.795
772.85	30.890
773.16	34.574
773.47	33.152
773.78	42.132
774.09	27.976
774.39	35.673
774.70	40.741
775.01	42.754
775.32	46.405
775.63	41.447
775.94	41.727
776.25	48.819
776.56	39.552
776.87	44.262
777.18	50.781
777.48	46.565
777.79	48.485
778.10	46.667
778.41	50.000
778.72	31.387
779.03	36.913
779.34	38.926
779.65	35.135
779.95	41.718
780.26	41.830
780.57	38.621
780.88	52.344
781.19	43.609
781.50	44.595
781.80	35.849
782.11	36.723
782.42	30.380
782.73	34.356
783.04	37.162
783.34	37.324
783.65	47.945
783.96	47.761
784.27	43.357
784.57	40.288
784.88	30.556
785.19	56.349
785.50	51.887
785.81	45.522
786.11	52.459
786.42	48.837
786.73	49.558
787.04	49.057
787.34	50.893
787.65	57.000
787.96	49.550
788.26	48.760
788.57	50.000
788.88	59.504
789.19	45.139
789.49	52.273
789.80	55.725
790.11	60.000
790.41	55.446
790.72	69.880
791.03	68.478
791.33	58.140
791.64	64.948
791.95	60.396
792.25	60.000
792.56	62.338
792.87	83.333
793.17	82.278
793.48	72.414
793.79	77.011
794.09	55.682
794.40	47.059
794.70	47.794
795.01	42.222
795.32	37.410
795.62	41.732
795.93	48.276
796.23	50.442
796.54	68.235
796.85	67.568
797.15	95.775
797.46	81.818
797.76	65.060
798.07	72.152
798.37	70.769
798.68	93.939
798.99	57.746
799.29	70.130
799.60	63.636
799.90	76.712
800.21	91.045
800.51	94.828
800.82	98.246
801.12	96.721
801.43	77.273
801.73	82.432
802.04	95.238
802.34	81.481
802.65	84.375
802.95	94.915
803.26	100.000
803.56	85.714
803.87	83.077
804.17	85.294
804.48	125.926
804.78	82.759
805.09	97.059
805.39	111.538
805.70	100.000
806.00	116.393
806.30	80.303
806.61	73.171
806.91	55.696
807.22	75.000
807.52	55.224
807.83	83.099
808.13	76.563
808.43	95.000
808.74	78.947
809.04	97.101
809.35	94.030
809.65	89.474
809.95	116.129
810.26	83.051
810.56	103.175
810.86	138.636
811.17	150.000
811.47	90.000
811.77	96.296
812.08	101.818
812.38	138.000
812.69	152.778
812.99	152.273
813.29	140.816
813.59	109.524
813.90	118.367
814.20	92.727
814.50	100.000
814.81	98.529
815.11	93.878
815.41	98.361
815.72	140.476
816.02	114.545
816.32	138.095
816.62	130.000
816.93	141.463
817.23	130.952
817.53	125.000
817.84	190.909
818.14	102.174
818.44	115.556
818.74	144.118
819.04	135.000
819.35	162.857
819.65	179.412
819.95	200.000
820.25	200.000
820.56	135.897
820.86	138.636
821.16	137.209
821.46	141.026
821.76	134.000
822.07	148.571
822.37	127.500
822.67	166.667
822.97	131.373
823.27	207.143
823.57	154.054
823.88	150.000
824.18	203.333
824.48	176.190
824.78	196.000
825.08	179.167
825.38	137.838
825.69	119.512
825.99	266.667
826.29	175.862
826.59	152.632
826.89	142.105
827.19	158.824
827.49	158.065
827.79	140.909
828.09	145.455
828.39	148.936
828.70	136.735
829.00	177.778
829.30	187.097
829.60	137.500
829.90	306.667
830.20	200.000
830.50	213.043
830.80	226.087
831.10	206.667
831.40	230.000
831.70	200.000
832.00	234.615
832.30	214.815
832.60	331.250
832.90	203.333
833.20	450.000
833.50	180.645
833.80	196.552
834.10	215.625
834.40	250.000
834.70	316.667
835.00	295.238
835.30	194.286
835.60	284.615
835.90	220.690
836.20	414.286
836.50	231.034
836.80	216.000
837.10	169.444
837.40	247.619
837.70	358.824
838.00	188.889
838.30	280.952
838.60	271.429
838.90	276.923
839.19	290.000
839.49	385.714
839.79	335.000
840.09	275.000
840.39	319.048
840.69	278.261
840.99	300.000
841.29	570.000
841.59	333.333
841.88	406.250
842.18	203.448
842.48	290.476
842.78	230.000
843.08	273.913
843.38	184.375
843.68	883.333
843.97	257.692
844.27	210.345
844.57	319.048
844.87	356.250
845.17	214.815
845.47	1533.333
845.76	555.556
846.06	341.176
846.36	612.500
846.66	421.429
846.96	331.250
847.25	418.182
847.55	463.636
847.85	278.261
848.15	490.000
848.44	371.429
848.74	205.556
849.04	382.353
849.34	620.000
849.63	236.842
849.93	536.364
850.23	1160.000
850.53	442.857
850.82	2350.000
851.12	-4700.000
851.42	4800.000
851.71	305.000
852.01	-1300.000
852.31	279.167
852.61	1600.000
852.90	285.714
853.20	240.000
853.50	329.412
853.79	266.667
854.09	212.500
854.39	381.250
854.68	191.892
854.98	219.355
855.28	190.000
855.57	227.586
855.87	229.630
856.17	278.947
856.46	280.000
856.76	252.941
857.05	217.241
857.35	266.667
857.65	313.333
857.94	230.435
858.24	265.385
858.53	315.000
858.83	250.000
859.13	393.333
859.42	0.000
859.72	644.444
860.01	445.455
860.31	259.091
860.60	236.842
860.90	260.870
861.20	633.333
861.49	608.333
861.79	-5200.000
862.08	637.500
862.38	319.048
862.67	376.923
862.97	382.353
863.26	611.111
863.56	327.778
863.85	441.667
864.15	725.000
864.44	373.333
864.74	1100.000
865.03	787.500
865.33	352.632
865.62	490.909
865.92	492.308
866.21	441.667
866.51	0.000
866.80	490.909
867.10	1220.000
867.39	415.385
867.69	472.727
867.98	326.316
868.27	609.091
868.57	326.316
868.86	-5200.000
869.16	343.750
869.45	2750.000
869.75	-4800.000
870.04	491.667
870.33	785.714
870.63	1225.000
870.92	2450.000
871.22	757.143
871.51	358.824
871.80	219.048
872.10	392.857
>>>>>End Processed Spectral Data<<<<<
