SpectraSuite Data File
++++++++++++++++++++++++++++++++++++
Date: Tue May 12 19:38:01 PDT 2015
User: schluterlab
Dark Spectrum Present: Yes
Reference Spectrum Present: Yes
Number of Sampled Component Spectra: 1
Spectrometers: USB2E3373
Integration Time (usec): 3000 (USB2E3373)
Spectra Averaged: 3 (USB2E3373)
Boxcar Smoothing: 0 (USB2E3373)
Correct for Electrical Dark: No (USB2E3373)
Strobe/Lamp Enabled: No (USB2E3373)
Correct for Detector Non-linearity: No (USB2E3373)
Correct for Stray Light: No (USB2E3373)
Number of Pixels in Processed Spectrum: 2048
>>>>>Begin Processed Spectral Data<<<<<
178.53	0.000
178.91	-100.000
179.29	-200.000
179.67	366.667
180.04	0.000
180.42	-80.000
180.80	-233.333
181.18	550.000
181.56	-100.000
181.94	100.000
182.31	1400.000
182.69	-71.429
183.07	0.000
183.45	175.000
183.83	180.000
184.20	50.000
184.58	500.000
184.96	383.333
185.34	0.000
185.72	-21.429
186.09	-83.333
186.47	-1500.000
186.85	-200.000
187.23	50.000
187.61	-242.857
187.98	-120.000
188.36	300.000
188.74	250.000
189.12	100.000
189.49	-30.000
189.87	225.000
190.25	66.667
190.63	333.333
191.00	320.000
191.38	-100.000
191.76	400.000
192.14	28.571
192.51	10.000
192.89	200.000
193.27	-140.000
193.65	-33.333
194.02	116.667
194.40	1100.000
194.78	-150.000
195.15	-28.571
195.53	300.000
195.91	240.000
196.29	-125.000
196.66	133.333
197.04	-100.000
197.42	140.000
197.79	-112.500
198.17	-33.333
198.55	600.000
198.92	-44.444
199.30	500.000
199.68	75.000
200.05	-550.000
200.43	5.556
200.81	-16.667
201.18	200.000
201.56	-100.000
201.94	-100.000
202.31	25.000
202.69	88.889
203.07	16.667
203.44	-175.000
203.82	0.000
204.19	187.500
204.57	-300.000
204.95	81.818
205.32	140.000
205.70	175.000
206.08	-200.000
206.45	-40.000
206.83	600.000
207.20	0.000
207.58	-30.769
207.96	366.667
208.33	333.333
208.71	300.000
209.08	250.000
209.46	33.333
209.84	800.000
210.21	-400.000
210.59	-250.000
210.96	100.000
211.34	-75.000
211.71	300.000
212.09	-80.000
212.46	-212.500
212.84	0.000
213.22	42.857
213.59	112.500
213.97	0.000
214.34	-500.000
214.72	200.000
215.09	200.000
215.47	6.667
215.84	0.000
216.22	-200.000
216.59	-600.000
216.97	-25.000
217.34	-33.333
217.72	72.222
218.09	250.000
218.47	21.053
218.84	-100.000
219.22	35.714
219.59	-160.000
219.97	80.000
220.34	150.000
220.72	18.182
221.09	-300.000
221.47	0.000
221.84	300.000
222.22	75.000
222.59	-50.000
222.97	4.348
223.34	53.333
223.72	342.857
224.09	-16.667
224.46	107.692
224.84	-60.000
225.21	-350.000
225.59	-225.000
225.96	55.000
226.34	266.667
226.71	140.000
227.08	-46.154
227.46	-85.714
227.83	-91.667
228.21	-850.000
228.58	166.667
228.95	-10.526
229.33	75.000
229.70	-133.333
230.08	-22.222
230.45	-266.667
230.82	-400.000
231.20	23.810
231.57	-220.000
231.95	-100.000
232.32	88.889
232.69	-400.000
233.07	6.250
233.44	-25.000
233.81	51.613
234.19	-240.000
234.56	-55.556
234.93	-33.333
235.31	0.000
235.68	-3.704
236.05	-11.538
236.43	-52.632
236.80	-59.091
237.17	-50.000
237.55	-60.000
237.92	16.279
238.29	6.452
238.67	-17.857
239.04	11.429
239.41	-11.765
239.79	36.000
240.16	17.500
240.53	8.621
240.91	15.068
241.28	7.042
241.65	21.875
242.02	-15.789
242.40	18.667
242.77	3.158
243.14	27.059
243.51	13.978
243.89	9.524
244.26	15.741
244.63	23.469
245.00	18.750
245.38	9.244
245.75	10.169
246.12	13.281
246.49	15.200
246.87	18.033
247.24	14.085
247.61	19.205
247.98	21.348
248.36	20.126
248.73	17.614
249.10	12.222
249.47	14.583
249.84	18.274
250.22	15.625
250.59	11.798
250.96	17.273
251.33	21.226
251.70	17.890
252.08	19.481
252.45	13.061
252.82	9.283
253.19	14.397
253.56	21.176
253.94	19.512
254.31	18.705
254.68	17.708
255.05	13.907
255.42	17.455
255.79	22.185
256.16	17.361
256.54	17.273
256.91	20.192
257.28	19.481
257.65	15.082
258.02	17.718
258.39	17.523
258.76	18.654
259.14	14.412
259.51	20.282
259.88	20.749
260.25	16.193
260.62	16.292
260.99	17.549
261.36	16.954
261.73	18.400
262.10	18.256
262.47	21.212
262.85	15.938
263.22	18.548
263.59	18.499
263.96	16.971
264.33	14.555
264.70	17.199
265.07	16.995
265.44	16.159
265.81	18.313
266.18	18.735
266.55	15.238
266.92	18.973
267.29	16.667
267.66	15.909
268.03	19.785
268.40	16.705
268.77	13.363
269.14	17.647
269.51	15.837
269.88	17.094
270.25	17.089
270.62	17.227
270.99	13.895
271.36	18.764
271.73	17.500
272.10	15.353
272.47	15.800
272.84	14.650
273.21	15.449
273.58	13.878
273.95	15.538
274.32	15.667
274.69	16.830
275.06	17.073
275.43	14.800
275.80	15.870
276.17	15.415
276.54	17.871
276.91	15.931
277.28	15.667
277.65	15.312
278.02	16.098
278.39	16.697
278.76	16.760
279.13	16.458
279.50	15.704
279.87	14.340
280.23	16.758
280.60	13.604
280.97	15.466
281.34	16.610
281.71	14.210
282.08	15.027
282.45	14.638
282.82	13.468
283.19	14.815
283.56	14.334
283.92	15.640
284.29	15.905
284.66	15.752
285.03	11.664
285.40	15.500
285.77	15.928
286.14	15.848
286.51	16.881
286.87	16.207
287.24	14.904
287.61	15.432
287.98	17.214
288.35	15.504
288.72	15.596
289.08	12.579
289.45	15.289
289.82	11.957
290.19	15.000
290.56	15.774
290.93	14.919
291.29	14.894
291.66	15.169
292.03	15.208
292.40	14.532
292.77	13.703
293.13	13.656
293.50	14.463
293.87	13.454
294.24	13.624
294.60	14.208
294.97	12.188
295.34	12.877
295.71	13.176
296.08	11.202
296.44	15.152
296.81	12.678
297.18	14.748
297.55	11.558
297.91	14.340
298.28	12.788
298.65	13.972
299.02	14.797
299.38	12.628
299.75	12.741
300.12	15.827
300.48	12.911
300.85	12.225
301.22	14.183
301.59	13.990
301.95	13.415
302.32	13.973
302.69	13.793
303.05	13.105
303.42	15.459
303.79	12.809
304.15	14.723
304.52	12.514
304.89	13.303
305.25	14.450
305.62	15.682
305.99	13.998
306.35	14.653
306.72	14.815
307.09	14.037
307.45	15.210
307.82	16.435
308.19	16.282
308.55	15.295
308.92	15.254
309.29	16.946
309.65	14.861
310.02	16.981
310.38	17.377
310.75	17.725
311.12	15.463
311.48	17.061
311.85	17.325
312.22	16.632
312.58	17.019
312.95	17.556
313.31	19.076
313.68	18.272
314.05	19.662
314.41	19.646
314.78	20.201
315.14	21.058
315.51	19.166
315.87	20.605
316.24	20.376
316.61	21.262
316.97	21.569
317.34	22.488
317.70	22.502
318.07	23.047
318.43	23.157
318.80	22.495
319.16	23.579
319.53	24.340
319.89	24.148
320.26	26.352
320.62	25.775
320.99	27.041
321.35	25.395
321.72	27.071
322.08	27.822
322.45	28.008
322.81	30.837
323.18	30.393
323.54	31.090
323.91	32.353
324.27	31.823
324.64	32.334
325.00	31.574
325.37	34.442
325.73	33.668
326.10	34.326
326.46	36.809
326.83	36.236
327.19	37.031
327.56	38.196
327.92	36.719
328.29	36.918
328.65	39.736
329.01	40.183
329.38	38.659
329.74	40.669
330.11	40.168
330.47	40.689
330.84	40.226
331.20	40.203
331.56	40.849
331.93	39.982
332.29	41.073
332.66	40.958
333.02	42.154
333.38	42.279
333.75	40.897
334.11	42.315
334.48	39.893
334.84	40.376
335.20	40.645
335.57	43.960
335.93	41.767
336.29	42.139
336.66	43.625
337.02	41.160
337.38	42.264
337.75	42.636
338.11	43.118
338.47	43.918
338.84	42.357
339.20	43.080
339.56	42.032
339.93	43.604
340.29	42.792
340.65	45.205
341.02	42.427
341.38	42.630
341.74	43.594
342.11	43.413
342.47	43.619
342.83	43.192
343.20	43.148
343.56	43.794
343.92	45.057
344.28	42.882
344.65	42.979
345.01	43.554
345.37	44.188
345.73	43.755
346.10	44.771
346.46	41.846
346.82	44.180
347.19	43.734
347.55	44.643
347.91	45.700
348.27	44.566
348.63	45.462
349.00	46.244
349.36	44.106
349.72	44.992
350.08	45.336
350.45	44.508
350.81	44.426
351.17	43.904
351.53	42.673
351.89	45.423
352.26	43.984
352.62	44.317
352.98	48.033
353.34	45.865
353.70	43.951
354.07	45.470
354.43	45.159
354.79	46.066
355.15	44.794
355.51	46.455
355.87	47.377
356.24	45.915
356.60	45.993
356.96	44.076
357.32	46.749
357.68	47.096
358.04	45.705
358.40	46.727
358.77	45.382
359.13	47.470
359.49	46.720
359.85	46.922
360.21	45.282
360.57	48.405
360.93	48.931
361.29	48.364
361.66	46.609
362.02	48.901
362.38	48.485
362.74	48.501
363.10	48.567
363.46	47.705
363.82	48.086
364.18	48.221
364.54	49.008
364.90	48.148
365.26	49.329
365.62	49.129
365.98	49.850
366.35	50.908
366.71	50.934
367.07	50.406
367.43	49.097
367.79	49.927
368.15	49.963
368.51	50.787
368.87	51.615
369.23	50.795
369.59	50.074
369.95	50.894
370.31	51.667
370.67	51.579
371.03	52.245
371.39	53.474
371.75	50.743
372.11	51.556
372.47	50.408
372.83	52.301
373.19	53.991
373.55	53.069
373.91	53.939
374.27	54.010
374.63	53.387
374.99	52.343
375.35	53.411
375.71	54.519
376.07	54.841
376.42	54.288
376.78	55.470
377.14	54.120
377.50	54.378
377.86	55.362
378.22	56.275
378.58	55.526
378.94	55.403
379.30	55.534
379.66	55.698
380.02	55.435
380.38	57.316
380.74	56.370
381.09	57.243
381.45	58.921
381.81	57.334
382.17	57.850
382.53	59.172
382.89	58.820
383.25	58.909
383.61	58.233
383.97	58.674
384.32	58.129
384.68	60.409
385.04	58.816
385.40	59.233
385.76	60.405
386.12	59.934
386.48	60.209
386.83	60.961
387.19	62.388
387.55	61.852
387.91	60.498
388.27	62.188
388.62	63.536
388.98	63.041
389.34	63.891
389.70	64.423
390.06	62.772
390.42	64.368
390.77	65.325
391.13	65.843
391.49	67.588
391.85	65.802
392.20	67.987
392.56	65.488
392.92	66.852
393.28	64.752
393.64	66.941
393.99	66.948
394.35	67.489
394.71	67.219
395.07	69.098
395.42	66.603
395.78	68.884
396.14	69.620
396.50	68.047
396.85	69.068
397.21	68.111
397.57	69.585
397.92	71.183
398.28	71.223
398.64	69.460
399.00	71.039
399.35	69.930
399.71	70.479
400.07	70.846
400.42	71.346
400.78	72.489
401.14	72.475
401.49	72.580
401.85	73.143
402.21	72.652
402.57	71.861
402.92	74.369
403.28	73.927
403.63	74.167
403.99	75.694
404.35	73.631
404.70	74.414
405.06	76.379
405.42	76.773
405.77	75.386
406.13	75.986
406.49	77.287
406.84	77.709
407.20	75.465
407.55	78.223
407.91	77.483
408.27	79.056
408.62	77.814
408.98	78.958
409.34	78.809
409.69	78.261
410.05	79.663
410.40	78.677
410.76	80.137
411.11	79.638
411.47	80.136
411.83	79.459
412.18	80.955
412.54	80.918
412.89	81.606
413.25	82.571
413.60	83.036
413.96	82.589
414.31	82.728
414.67	85.145
415.03	81.535
415.38	82.869
415.74	83.815
416.09	85.941
416.45	84.855
416.80	84.701
417.16	85.684
417.51	85.219
417.87	86.662
418.22	87.366
418.58	87.768
418.93	86.138
419.29	87.042
419.64	90.591
420.00	88.016
420.35	86.001
420.71	88.412
421.06	89.422
421.42	87.955
421.77	90.073
422.12	89.014
422.48	90.291
422.83	88.815
423.19	89.176
423.54	89.859
423.90	90.358
424.25	92.447
424.61	91.419
424.96	92.322
425.31	93.237
425.67	91.939
426.02	92.360
426.38	92.342
426.73	91.526
427.09	95.076
427.44	93.272
427.79	94.121
428.15	93.912
428.50	95.101
428.85	93.008
429.21	95.876
429.56	94.365
429.92	92.212
430.27	94.613
430.62	94.267
430.98	93.337
431.33	96.774
431.68	95.131
432.04	98.504
432.39	94.652
432.74	93.738
433.10	97.150
433.45	97.340
433.80	96.369
434.16	95.455
434.51	96.154
434.86	97.402
435.22	97.555
435.57	100.462
435.92	96.037
436.28	97.198
436.63	98.450
436.98	100.185
437.34	100.320
437.69	99.506
438.04	98.077
438.39	100.522
438.75	98.769
439.10	101.310
439.45	102.054
439.81	98.476
440.16	102.721
440.51	98.017
440.86	100.442
441.22	100.834
441.57	99.373
441.92	102.154
442.27	102.057
442.63	101.354
442.98	102.873
443.33	100.059
443.68	101.054
444.03	98.969
444.39	102.290
444.74	101.660
445.09	104.132
445.44	99.883
445.79	103.344
446.15	102.799
446.50	102.776
446.85	103.740
447.20	103.009
447.55	103.781
447.91	103.057
448.26	102.967
448.61	102.477
448.96	102.129
449.31	102.652
449.66	101.634
450.02	103.018
450.37	104.010
450.72	105.984
451.07	104.614
451.42	105.204
451.77	102.018
452.12	104.762
452.47	106.233
452.83	104.545
453.18	107.495
453.53	107.838
453.88	107.977
454.23	105.623
454.58	105.614
454.93	105.858
455.28	104.820
455.63	105.003
455.98	105.140
456.34	105.492
456.69	107.312
457.04	106.037
457.39	106.055
457.74	108.281
458.09	105.538
458.44	106.560
458.79	103.651
459.14	106.023
459.49	106.242
459.84	107.015
460.19	106.066
460.54	106.629
460.89	105.824
461.24	105.974
461.59	107.697
461.94	106.180
462.29	105.138
462.64	108.426
462.99	110.080
463.34	107.473
463.69	109.053
464.04	108.467
464.39	109.068
464.74	107.528
465.09	106.238
465.44	105.519
465.79	106.077
466.14	106.384
466.49	106.544
466.84	105.467
467.19	105.068
467.54	106.034
467.89	107.511
468.24	107.513
468.59	107.657
468.94	108.003
469.29	108.166
469.64	110.576
469.99	107.570
470.34	106.648
470.68	106.538
471.03	107.080
471.38	110.247
471.73	109.884
472.08	109.110
472.43	110.581
472.78	108.774
473.13	109.895
473.48	108.437
473.83	109.247
474.17	107.071
474.52	107.971
474.87	108.207
475.22	109.975
475.57	108.108
475.92	108.243
476.27	108.620
476.61	108.983
476.96	109.247
477.31	108.904
477.66	108.716
478.01	108.417
478.36	110.544
478.70	110.141
479.05	110.505
479.40	109.453
479.75	110.095
480.10	109.632
480.45	108.534
480.79	108.407
481.14	108.224
481.49	108.072
481.84	110.505
482.19	107.366
482.53	107.010
482.88	109.609
483.23	109.347
483.58	110.149
483.92	109.447
484.27	108.567
484.62	108.392
484.97	108.568
485.31	105.684
485.66	102.988
486.01	100.226
486.36	100.661
486.70	101.310
487.05	103.247
487.40	103.180
487.75	103.951
488.09	103.008
488.44	104.562
488.79	105.505
489.13	105.985
489.48	107.288
489.83	108.044
490.17	108.626
490.52	109.082
490.87	110.732
491.22	108.432
491.56	108.844
491.91	109.639
492.26	111.066
492.60	110.255
492.95	109.754
493.30	110.350
493.64	110.294
493.99	111.396
494.34	111.151
494.68	107.929
495.03	108.469
495.37	110.035
495.72	109.335
496.07	109.432
496.41	109.733
496.76	109.456
497.11	110.783
497.45	110.547
497.80	109.346
498.14	110.665
498.49	110.411
498.84	108.857
499.18	109.600
499.53	110.332
499.87	108.705
500.22	110.390
500.56	111.931
500.91	109.701
501.26	110.341
501.60	109.378
501.95	110.645
502.29	110.262
502.64	108.263
502.98	107.875
503.33	108.887
503.67	109.648
504.02	109.142
504.36	109.142
504.71	110.053
505.06	110.819
505.40	110.456
505.75	108.531
506.09	110.076
506.44	112.232
506.78	111.510
507.13	110.423
507.47	113.019
507.82	110.938
508.16	111.470
508.51	111.050
508.85	111.923
509.19	111.026
509.54	112.181
509.88	112.140
510.23	110.506
510.57	113.629
510.92	111.961
511.26	112.062
511.61	110.445
511.95	111.452
512.30	112.522
512.64	112.669
512.98	113.231
513.33	109.965
513.67	112.814
514.02	112.981
514.36	112.693
514.70	113.722
515.05	113.293
515.39	114.743
515.74	115.100
516.08	113.748
516.42	113.984
516.77	113.230
517.11	112.783
517.46	113.929
517.80	116.528
518.14	114.231
518.49	115.524
518.83	114.073
519.17	115.746
519.52	114.491
519.86	115.326
520.20	116.561
520.55	115.731
520.89	117.409
521.23	114.830
521.58	114.484
521.92	114.553
522.26	115.876
522.61	118.225
522.95	115.959
523.29	116.059
523.64	117.232
523.98	116.801
524.32	117.306
524.66	117.131
525.01	117.182
525.35	115.527
525.69	115.210
526.04	119.944
526.38	118.026
526.72	116.597
527.06	118.143
527.41	117.009
527.75	118.162
528.09	117.115
528.43	116.300
528.78	115.164
529.12	115.616
529.46	113.887
529.80	114.976
530.15	118.624
530.49	116.039
530.83	117.643
531.17	115.466
531.51	117.702
531.86	114.776
532.20	114.574
532.54	115.540
532.88	118.182
533.22	116.667
533.57	115.310
533.91	114.591
534.25	115.682
534.59	114.787
534.93	114.775
535.27	114.007
535.62	111.479
535.96	115.143
536.30	113.431
536.64	115.665
536.98	113.496
537.32	115.179
537.66	113.856
538.01	116.495
538.35	115.200
538.69	111.465
539.03	112.112
539.37	113.927
539.71	113.116
540.05	113.314
540.39	113.217
540.73	114.359
541.07	113.603
541.42	112.117
541.76	115.252
542.10	111.047
542.44	112.283
542.78	112.170
543.12	111.913
543.46	114.158
543.80	110.936
544.14	112.186
544.48	110.526
544.82	112.917
545.16	114.275
545.50	113.392
545.84	111.412
546.18	114.232
546.52	113.682
546.86	112.548
547.20	111.364
547.54	111.221
547.88	110.185
548.22	110.478
548.56	111.557
548.90	110.807
549.24	112.573
549.58	111.401
549.92	111.729
550.26	112.741
550.60	114.116
550.94	114.524
551.28	112.033
551.62	114.660
551.96	111.981
552.30	111.163
552.64	109.917
552.98	109.733
553.32	110.833
553.66	111.608
554.00	113.436
554.34	111.172
554.68	110.526
555.02	111.746
555.36	111.676
555.69	108.993
556.03	108.056
556.37	109.827
556.71	109.427
557.05	110.391
557.39	111.486
557.73	110.220
558.07	109.859
558.41	110.854
558.75	111.701
559.08	114.213
559.42	111.288
559.76	113.479
560.10	110.676
560.44	111.085
560.78	108.941
561.12	109.091
561.45	110.640
561.79	108.076
562.13	107.635
562.47	108.028
562.81	108.719
563.15	107.072
563.48	106.217
563.82	106.332
564.16	105.951
564.50	105.158
564.84	104.607
565.17	107.797
565.51	106.615
565.85	106.338
566.19	106.472
566.52	106.093
566.86	106.352
567.20	105.389
567.54	104.531
567.88	102.852
568.21	101.290
568.55	101.415
568.89	101.484
569.23	100.301
569.56	99.356
569.90	97.730
570.24	96.296
570.57	95.974
570.91	95.015
571.25	95.558
571.59	93.836
571.92	91.752
572.26	91.484
572.60	93.265
572.93	93.026
573.27	91.369
573.61	91.922
573.95	90.438
574.28	90.124
574.62	88.993
574.96	90.065
575.29	88.358
575.63	88.124
575.97	88.174
576.30	89.763
576.64	88.864
576.98	89.090
577.31	88.697
577.65	88.402
577.98	87.126
578.32	86.913
578.66	87.277
578.99	88.700
579.33	87.625
579.67	87.350
580.00	88.058
580.34	87.951
580.67	87.055
581.01	86.625
581.35	86.086
581.68	85.288
582.02	85.303
582.35	85.034
582.69	85.257
583.02	86.060
583.36	85.768
583.70	87.369
584.03	86.728
584.37	86.726
584.70	87.546
585.04	85.841
585.37	84.973
585.71	84.919
586.04	86.691
586.38	87.279
586.72	87.371
587.05	86.365
587.39	85.759
587.72	86.441
588.06	85.114
588.39	86.532
588.73	86.009
589.06	86.623
589.40	87.117
589.73	86.649
590.07	86.953
590.40	88.414
590.73	89.379
591.07	87.835
591.40	88.945
591.74	88.899
592.07	87.584
592.41	90.253
592.74	87.175
593.08	85.763
593.41	84.745
593.75	86.013
594.08	84.841
594.41	86.436
594.75	86.492
595.08	84.729
595.42	84.716
595.75	85.455
596.09	87.310
596.42	87.146
596.75	87.773
597.09	85.168
597.42	86.673
597.75	87.101
598.09	86.423
598.42	86.985
598.76	85.838
599.09	84.538
599.42	81.786
599.76	84.229
600.09	84.065
600.42	81.758
600.76	82.794
601.09	84.118
601.42	82.166
601.76	82.711
602.09	83.284
602.42	84.281
602.76	84.119
603.09	83.856
603.42	84.753
603.76	84.305
604.09	83.250
604.42	84.156
604.76	84.162
605.09	83.514
605.42	84.028
605.75	81.955
606.09	84.000
606.42	82.765
606.75	84.059
607.09	84.515
607.42	83.066
607.75	80.303
608.08	82.507
608.42	83.560
608.75	83.692
609.08	83.796
609.41	83.307
609.75	82.517
610.08	83.307
610.41	82.646
610.74	83.771
611.07	83.977
611.41	83.084
611.74	84.440
612.07	83.817
612.40	83.454
612.73	83.160
613.07	84.792
613.40	84.014
613.73	82.589
614.06	83.197
614.39	83.011
614.72	82.054
615.06	81.975
615.39	80.427
615.72	79.843
616.05	82.261
616.38	81.554
616.71	81.779
617.05	81.910
617.38	81.419
617.71	84.128
618.04	82.852
618.37	82.930
618.70	84.375
619.03	85.787
619.36	84.536
619.69	83.904
620.03	85.050
620.36	85.563
620.69	84.701
621.02	84.006
621.35	85.021
621.68	89.829
622.01	88.146
622.34	86.265
622.67	85.497
623.00	84.603
623.33	84.803
623.66	84.622
623.99	84.051
624.32	83.400
624.65	83.672
624.99	83.125
625.32	85.387
625.65	83.427
625.98	85.833
626.31	85.368
626.64	86.216
626.97	85.018
627.30	86.389
627.63	86.605
627.96	84.823
628.29	86.138
628.62	88.660
628.95	87.117
629.28	87.087
629.61	85.475
629.94	90.145
630.26	87.971
630.59	86.702
630.92	85.353
631.25	88.827
631.58	90.116
631.91	87.813
632.24	89.467
632.57	90.131
632.90	91.267
633.23	92.774
633.56	90.943
633.89	90.897
634.22	89.872
634.55	90.670
634.88	92.102
635.20	90.411
635.53	93.296
635.86	89.402
636.19	90.723
636.52	91.644
636.85	85.919
637.18	90.415
637.51	90.379
637.83	90.922
638.16	91.323
638.49	89.914
638.82	87.342
639.15	91.143
639.48	90.393
639.81	90.909
640.13	92.037
640.46	91.969
640.79	88.062
641.12	87.287
641.45	89.736
641.77	89.490
642.10	90.554
642.43	91.751
642.76	94.086
643.09	89.273
643.41	94.086
643.74	90.278
644.07	92.769
644.40	94.946
644.73	93.923
645.05	96.947
645.38	95.000
645.71	95.802
646.04	93.309
646.36	95.644
646.69	94.004
647.02	94.922
647.35	96.400
647.67	96.593
648.00	95.534
648.33	91.137
648.66	92.022
648.98	85.932
649.31	84.854
649.64	89.157
649.96	86.486
650.29	83.894
650.62	91.651
650.94	89.279
651.27	87.861
651.60	89.675
651.92	91.412
652.25	86.807
652.58	86.176
652.90	83.630
653.23	84.095
653.56	81.076
653.88	87.774
654.21	88.469
654.54	85.929
654.86	85.612
655.19	80.323
655.52	77.171
655.84	61.560
656.17	59.552
656.49	79.857
656.82	91.763
657.15	74.578
657.47	56.973
657.80	42.931
658.13	35.989
658.45	60.175
658.78	59.840
659.10	58.495
659.43	59.368
659.75	61.152
660.08	65.072
660.41	68.608
660.73	74.238
661.06	83.273
661.38	84.879
661.71	86.871
662.03	87.963
662.36	87.589
662.68	85.851
663.01	90.385
663.33	86.792
663.66	86.842
663.98	87.775
664.31	83.415
664.63	84.862
664.96	87.886
665.28	85.343
665.61	83.879
665.93	83.180
666.26	80.795
666.58	85.092
666.91	83.138
667.23	83.005
667.56	85.926
667.88	86.717
668.21	84.518
668.53	88.325
668.86	86.990
669.18	85.279
669.50	84.576
669.83	82.500
670.15	81.750
670.48	83.960
670.80	89.594
671.13	80.241
671.45	83.418
671.77	82.126
672.10	80.440
672.42	74.303
672.75	75.534
673.07	74.766
673.39	76.848
673.72	79.339
674.04	75.319
674.37	82.448
674.69	76.869
675.01	82.558
675.34	82.598
675.66	76.667
675.98	82.576
676.31	80.353
676.63	83.247
676.95	81.535
677.28	77.228
677.60	80.201
677.92	82.707
678.25	75.638
678.57	78.422
678.89	79.587
679.22	77.982
679.54	76.615
679.86	74.946
680.18	76.569
680.51	73.922
680.83	73.333
681.15	76.906
681.48	73.404
681.80	73.261
682.12	74.304
682.44	72.845
682.77	76.818
683.09	78.186
683.41	80.201
683.73	78.141
684.06	77.411
684.38	73.141
684.70	76.212
685.02	71.429
685.34	71.757
685.67	70.158
685.99	72.455
686.31	70.149
686.63	69.320
686.96	68.293
687.28	69.405
687.60	72.895
687.92	70.253
688.24	71.579
688.56	68.132
688.89	70.548
689.21	70.465
689.53	74.936
689.85	75.696
690.17	69.363
690.49	67.294
690.82	70.516
691.14	77.285
691.46	70.750
691.78	72.249
692.10	69.266
692.42	70.413
692.74	74.645
693.06	69.398
693.39	69.704
693.71	69.302
694.03	71.014
694.35	68.812
694.67	72.265
694.99	74.394
695.31	69.688
695.63	67.297
695.95	74.438
696.27	74.788
696.59	69.139
696.91	67.236
697.23	71.920
697.56	67.617
697.88	66.276
698.20	66.102
698.52	63.942
698.84	68.421
699.16	68.338
699.48	71.466
699.80	68.681
700.12	70.248
700.44	66.077
700.76	74.763
701.08	71.111
701.40	73.684
701.72	71.333
702.04	71.429
702.36	70.164
702.68	75.168
703.00	71.609
703.32	61.976
703.64	67.508
703.96	69.620
704.28	72.535
704.60	71.233
704.91	69.408
705.23	71.579
705.55	67.658
705.87	67.266
706.19	73.705
706.51	71.484
706.83	66.300
707.15	71.864
707.47	64.371
707.79	69.054
708.11	65.079
708.43	65.600
708.74	61.202
709.06	66.564
709.38	63.501
709.70	67.208
710.02	67.133
710.34	60.638
710.66	67.790
710.98	65.734
711.29	64.948
711.61	62.766
711.93	68.539
712.25	69.811
712.57	67.188
712.89	76.327
713.20	62.097
713.52	68.293
713.84	65.693
714.16	64.865
714.48	67.235
714.80	63.636
715.11	67.698
715.43	60.751
715.75	62.456
716.07	69.091
716.39	65.188
716.70	70.000
717.02	66.129
717.34	69.697
717.66	67.273
717.97	66.667
718.29	68.444
718.61	68.018
718.93	65.126
719.24	66.946
719.56	69.643
719.88	58.824
720.20	66.239
720.51	64.035
720.83	66.946
721.15	60.816
721.46	64.557
721.78	58.009
722.10	60.465
722.42	68.261
722.73	57.014
723.05	69.585
723.37	57.014
723.68	68.720
724.00	64.815
724.32	67.290
724.63	66.968
724.95	58.447
725.27	62.441
725.58	63.014
725.90	61.712
726.22	63.755
726.53	61.475
726.85	55.926
727.16	63.968
727.48	60.887
727.80	62.557
728.11	63.111
728.43	56.790
728.74	53.509
729.06	60.262
729.38	61.240
729.69	59.600
730.01	61.506
730.32	55.378
730.64	55.769
730.96	52.510
731.27	54.440
731.59	50.842
731.90	56.250
732.22	53.821
732.53	51.228
732.85	48.944
733.16	62.271
733.48	50.746
733.80	55.273
734.11	56.383
734.43	54.874
734.74	51.090
735.06	50.482
735.37	51.118
735.69	50.000
736.00	54.815
736.32	55.245
736.63	57.778
736.95	52.918
737.26	53.986
737.58	50.000
737.89	51.321
738.21	53.435
738.52	54.508
738.83	57.265
739.15	57.273
739.46	48.649
739.78	53.668
740.09	50.397
740.41	56.439
740.72	54.980
741.04	51.383
741.35	56.502
741.66	61.290
741.98	53.061
742.29	53.886
742.61	55.491
742.92	57.353
743.23	61.692
743.55	58.549
743.86	58.937
744.18	48.500
744.49	62.778
744.80	54.301
745.12	52.821
745.43	52.406
745.74	54.011
746.06	58.621
746.37	55.000
746.68	60.000
747.00	50.829
747.31	50.262
747.62	60.000
747.94	58.491
748.25	59.113
748.56	55.556
748.88	56.284
749.19	58.031
749.50	55.294
749.82	54.500
750.13	59.709
750.44	51.931
750.75	54.400
751.07	51.464
751.38	49.219
751.69	52.381
752.01	52.521
752.32	53.306
752.63	50.218
752.94	48.000
753.26	47.032
753.57	53.081
753.88	44.186
754.19	51.542
754.51	47.280
754.82	48.750
755.13	43.805
755.44	51.082
755.75	48.193
756.07	52.361
756.38	50.209
756.69	50.566
757.00	51.064
757.31	44.637
757.63	47.059
757.94	41.212
758.25	46.131
758.56	42.162
758.87	39.583
759.18	48.598
759.50	46.263
759.81	47.876
760.12	46.619
760.43	48.837
760.74	47.305
761.05	43.910
761.36	47.478
761.67	39.818
761.99	46.488
762.30	44.727
762.61	44.715
762.92	46.667
763.23	53.023
763.54	48.223
763.85	53.394
764.16	46.087
764.47	53.043
764.78	40.323
765.10	47.638
765.41	43.478
765.72	45.151
766.03	43.813
766.34	46.212
766.65	48.828
766.96	44.444
767.27	56.425
767.58	51.572
767.89	58.442
768.20	50.676
768.51	42.529
768.82	50.000
769.13	43.519
769.44	41.509
769.75	48.039
770.06	41.262
770.37	49.468
770.68	38.974
770.99	45.178
771.30	45.876
771.61	39.013
771.92	41.038
772.23	43.750
772.54	52.353
772.85	47.260
773.16	49.677
773.47	40.764
773.78	47.904
774.09	43.421
774.39	53.676
774.70	49.624
775.01	49.231
775.32	46.825
775.63	48.819
775.94	48.113
776.25	46.667
776.56	50.909
776.87	46.154
777.18	59.000
777.48	50.962
777.79	45.370
778.10	45.283
778.41	49.020
778.72	50.943
779.03	38.596
779.34	42.857
779.65	48.592
779.95	51.079
780.26	43.548
780.57	44.928
780.88	44.037
781.19	50.926
781.50	42.623
781.80	39.416
782.11	37.821
782.42	34.483
782.73	46.154
783.04	36.800
783.34	39.200
783.65	47.967
783.96	38.525
784.27	46.218
784.57	43.925
784.88	34.821
785.19	44.330
785.50	48.421
785.81	36.000
786.11	47.525
786.42	30.588
786.73	43.750
787.04	40.816
787.34	46.296
787.65	50.000
787.96	36.082
788.26	42.574
788.57	46.087
788.88	25.688
789.19	32.231
789.49	42.609
789.80	37.931
790.11	36.585
790.41	52.809
790.72	31.395
791.03	39.535
791.33	33.766
791.64	59.756
791.95	36.585
792.25	31.325
792.56	33.333
792.87	35.211
793.17	48.193
793.48	34.118
793.79	37.500
794.09	38.333
794.40	44.565
794.70	32.174
795.01	32.110
795.32	33.858
795.62	35.294
795.93	48.039
796.23	35.354
796.54	26.744
796.85	42.029
797.15	35.938
797.46	45.763
797.76	45.902
798.07	31.579
798.37	19.355
798.68	43.750
798.99	44.615
799.29	39.394
799.60	30.435
799.90	48.571
800.21	47.368
800.51	29.310
800.82	47.170
801.12	35.294
801.43	40.323
801.73	40.323
802.04	32.000
802.34	26.415
802.65	44.737
802.95	56.364
803.26	39.623
803.56	8.197
803.87	32.000
804.17	31.481
804.48	28.846
804.78	38.776
805.09	53.191
805.39	50.847
805.70	18.750
806.00	21.429
806.30	49.153
806.61	29.231
806.91	41.538
807.22	27.632
807.52	20.000
807.83	18.966
808.13	18.987
808.43	26.230
808.74	45.902
809.04	24.324
809.35	35.185
809.65	39.286
809.95	28.814
810.26	8.163
810.56	24.528
810.86	35.294
811.17	32.432
811.47	3.704
811.77	23.529
812.08	27.273
812.38	37.500
812.69	23.077
812.99	64.286
813.29	32.609
813.59	17.143
813.90	57.143
814.20	29.091
814.50	14.286
814.81	15.686
815.11	18.750
815.41	24.390
815.72	53.846
816.02	25.532
816.32	53.125
816.62	33.333
816.93	-3.030
817.23	2.703
817.53	35.294
817.84	22.500
818.14	0.000
818.44	56.250
818.74	-9.524
819.04	17.143
819.35	20.000
819.65	50.000
819.95	41.026
820.25	11.111
820.56	-31.034
820.86	39.286
821.16	39.130
821.46	0.000
821.76	35.185
822.07	0.000
822.37	18.367
822.67	34.884
822.97	0.000
823.27	7.692
823.57	-3.704
823.88	-10.714
824.18	35.897
824.48	21.429
824.78	9.091
825.08	-66.667
825.38	2.500
825.69	-55.556
825.99	51.852
826.29	44.444
826.59	0.000
826.89	33.333
827.19	-7.143
827.49	-22.727
827.79	-31.818
828.09	22.727
828.39	-43.478
828.70	3.704
829.00	7.143
829.30	30.952
829.60	48.387
829.90	0.000
830.20	17.949
830.50	54.545
830.80	23.810
831.10	-11.111
831.40	7.143
831.70	7.407
832.00	35.294
832.30	13.043
832.60	20.833
832.90	18.182
833.20	11.111
833.50	3.125
833.80	-19.231
834.10	28.000
834.40	29.167
834.70	40.909
835.00	38.462
835.30	15.000
835.60	70.000
835.90	65.000
836.20	50.000
836.50	30.435
836.80	44.444
837.10	-6.667
837.40	-50.000
837.70	13.043
838.00	14.286
838.30	1100.000
838.60	56.000
838.90	-120.000
839.19	11.111
839.49	-650.000
839.79	70.588
840.09	-22.222
840.39	32.143
840.69	-38.889
840.99	8.333
841.29	24.138
841.59	-40.000
841.88	63.636
842.18	-233.333
842.48	6.250
842.78	19.231
843.08	11.765
843.38	0.000
843.68	-23.077
843.97	-11.765
844.27	-50.000
844.57	25.000
844.87	9.091
845.17	-5.263
845.47	33.333
845.76	19.444
846.06	-42.857
846.36	-35.714
846.66	-44.444
846.96	-25.000
847.25	0.000
847.55	-62.500
847.85	0.000
848.15	200.000
848.44	52.632
848.74	-6.667
849.04	21.053
849.34	-266.667
849.63	33.333
849.93	35.294
850.23	-18.182
850.53	-333.333
850.82	-20.000
851.12	-100.000
851.42	-57.143
851.71	-140.000
852.01	-14.286
852.31	-200.000
852.61	-46.154
852.90	-120.000
853.20	-66.667
853.50	-88.889
853.79	50.000
854.09	-55.000
854.39	15.789
854.68	-10.000
854.98	100.000
855.28	11.111
855.57	-135.714
855.87	-57.895
856.17	-31.250
856.46	-7.692
856.76	-6.667
857.05	31.250
857.35	-12.500
857.65	44.444
857.94	50.000
858.24	-34.783
858.53	-50.000
858.83	-300.000
859.13	-9.091
859.42	-50.000
859.72	50.000
860.01	7.692
860.31	60.000
860.60	-175.000
860.90	-150.000
861.20	0.000
861.49	-150.000
861.79	150.000
862.08	22.581
862.38	-36.842
862.67	30.769
862.97	-120.000
863.26	-8.333
863.56	39.130
863.85	-300.000
864.15	-35.714
864.44	31.250
864.74	-41.667
865.03	-66.667
865.33	-33.333
865.62	-500.000
865.92	0.000
866.21	-33.333
866.51	9.091
866.80	-100.000
867.10	-14.286
867.39	11.111
867.69	-116.667
867.98	-60.000
868.27	-400.000
868.57	450.000
868.86	13.333
869.16	-23.077
869.45	850.000
869.75	16.667
870.04	-91.667
870.33	76.471
870.63	-185.714
870.92	52.174
871.22	-75.000
871.51	440.000
871.80	-18.750
872.10	-200.000
>>>>>End Processed Spectral Data<<<<<
