SpectraSuite Data File
++++++++++++++++++++++++++++++++++++
Date: Wed May 13 19:45:07 PDT 2015
User: schluterlab
Dark Spectrum Present: Yes
Reference Spectrum Present: Yes
Number of Sampled Component Spectra: 1
Spectrometers: USB2E3373
Integration Time (usec): 3000 (USB2E3373)
Spectra Averaged: 3 (USB2E3373)
Boxcar Smoothing: 0 (USB2E3373)
Correct for Electrical Dark: No (USB2E3373)
Strobe/Lamp Enabled: No (USB2E3373)
Correct for Detector Non-linearity: No (USB2E3373)
Correct for Stray Light: No (USB2E3373)
Number of Pixels in Processed Spectrum: 2048
>>>>>Begin Processed Spectral Data<<<<<
178.53	0.000
178.91	-1200.000
179.29	-1300.000
179.67	-238.889
180.04	-1100.000
180.42	2600.000
180.80	1120.000
181.18	-1050.000
181.56	671.429
181.94	0.000
182.31	-757.143
182.69	1533.333
183.07	-637.500
183.45	-611.111
183.83	581.818
184.20	-430.000
184.58	2600.000
184.96	5000.000
185.34	-780.000
185.72	-475.000
186.09	-2550.000
186.47	2950.000
186.85	2400.000
187.23	4700.000
187.61	-1800.000
187.98	1350.000
188.36	563.636
188.74	572.727
189.12	-920.000
189.49	510.000
189.87	-6000.000
190.25	-1175.000
190.63	407.143
191.00	407.692
191.38	933.333
191.76	-1250.000
192.14	1250.000
192.51	600.000
192.89	900.000
193.27	712.500
193.65	-1425.000
194.02	550.000
194.40	860.000
194.78	530.000
195.15	450.000
195.53	600.000
195.91	-2200.000
196.29	375.000
196.66	357.895
197.04	-410.000
197.42	0.000
197.79	560.000
198.17	-5100.000
198.55	785.714
198.92	662.500
199.30	880.000
199.68	0.000
200.05	333.333
200.43	757.143
200.81	5100.000
201.18	1733.333
201.56	-1733.333
201.94	588.889
202.31	611.111
202.69	466.667
203.07	510.000
203.44	0.000
203.82	1475.000
204.19	871.429
204.57	457.143
204.95	712.500
205.32	1600.000
205.70	518.182
206.08	335.714
206.45	2550.000
206.83	331.250
207.20	966.667
207.58	1000.000
207.96	316.667
208.33	687.500
208.71	-933.333
209.08	542.857
209.46	555.556
209.84	463.636
210.21	-1300.000
210.59	1300.000
210.96	-537.500
211.34	2600.000
211.71	550.000
212.09	850.000
212.46	0.000
212.84	1666.667
213.22	1450.000
213.59	-4200.000
213.97	866.667
214.34	785.714
214.72	490.909
215.09	920.000
215.47	-2650.000
215.84	-2450.000
216.22	1533.333
216.59	400.000
216.97	1300.000
217.34	400.000
217.72	-766.667
218.09	0.000
218.47	-4900.000
218.84	711.111
219.22	828.571
219.59	1733.333
219.97	-557.143
220.34	980.000
220.72	-1633.333
221.09	392.857
221.47	1475.000
221.84	-950.000
222.22	0.000
222.59	1500.000
222.97	-2500.000
223.34	1100.000
223.72	407.692
224.09	960.000
224.46	2250.000
224.84	-4500.000
225.21	-1040.000
225.59	-4200.000
225.96	560.000
226.34	295.000
226.71	2500.000
227.08	575.000
227.46	510.000
227.83	-1325.000
228.21	-2600.000
228.58	611.111
228.95	-2500.000
229.33	-3050.000
229.70	1766.667
230.08	828.571
230.45	-880.000
230.82	466.667
231.20	950.000
231.57	600.000
231.95	508.333
232.32	181.818
232.69	472.727
233.07	828.571
233.44	330.769
233.81	-1933.333
234.19	315.789
234.56	466.667
234.93	333.333
235.31	445.455
235.68	361.538
236.05	335.714
236.43	196.970
236.80	284.211
237.17	5200.000
237.55	261.905
237.92	225.000
238.29	276.190
238.67	174.194
239.04	210.345
239.41	141.667
239.79	123.913
240.16	145.238
240.53	143.182
240.91	111.765
241.28	98.000
241.65	120.000
242.02	115.942
242.40	101.613
242.77	93.333
243.14	77.419
243.51	87.640
243.89	81.176
244.26	75.556
244.63	82.796
245.00	86.170
245.38	70.297
245.75	80.374
246.12	56.881
246.49	70.803
246.87	80.000
247.24	65.385
247.61	59.286
247.98	59.477
248.36	58.108
248.73	57.962
249.10	64.968
249.47	54.802
249.84	57.754
250.22	50.802
250.59	58.580
250.96	56.566
251.33	56.398
251.70	55.941
252.08	47.143
252.45	45.291
252.82	49.565
253.19	51.489
253.56	47.451
253.94	46.473
254.31	45.703
254.68	53.846
255.05	43.173
255.42	44.309
255.79	45.956
256.16	48.014
256.54	40.636
256.91	44.840
257.28	41.727
257.65	44.224
258.02	41.615
258.39	46.372
258.76	39.799
259.14	42.857
259.51	42.249
259.88	40.373
260.25	41.390
260.62	37.861
260.99	41.925
261.36	41.742
261.73	41.834
262.10	43.023
262.47	42.535
262.85	39.276
263.22	38.462
263.59	41.026
263.96	38.187
264.33	38.642
264.70	38.684
265.07	40.921
265.44	37.879
265.81	37.470
266.18	36.181
266.55	39.512
266.92	37.838
267.29	37.500
267.66	38.073
268.03	36.591
268.40	37.383
268.77	37.470
269.14	36.937
269.51	36.117
269.88	37.995
270.25	35.440
270.62	37.303
270.99	39.140
271.36	38.841
271.73	37.850
272.10	35.652
272.47	38.495
272.84	36.364
273.21	37.945
273.58	34.716
273.95	34.172
274.32	34.917
274.69	37.473
275.06	34.449
275.43	36.809
275.80	35.271
276.17	35.845
276.54	37.214
276.91	36.166
277.28	33.789
277.65	35.783
278.02	35.611
278.39	36.328
278.76	34.727
279.13	35.849
279.50	33.333
279.87	35.458
280.23	33.932
280.60	34.816
280.97	32.348
281.34	34.336
281.71	33.455
282.08	36.852
282.45	35.273
282.82	32.504
283.19	31.551
283.56	34.912
283.92	33.503
284.29	33.333
284.66	34.664
285.03	32.369
285.40	34.683
285.77	33.670
286.14	31.779
286.51	31.000
286.87	32.991
287.24	33.388
287.61	32.103
287.98	31.494
288.35	31.379
288.72	31.153
289.08	30.516
289.45	33.278
289.82	31.870
290.19	30.141
290.56	29.403
290.93	30.816
291.29	30.368
291.66	30.236
292.03	32.267
292.40	29.369
292.77	28.107
293.13	28.060
293.50	28.134
293.87	27.407
294.24	28.593
294.60	26.638
294.97	28.488
295.34	29.901
295.71	27.983
296.08	25.499
296.44	27.648
296.81	26.420
297.18	28.184
297.55	24.670
297.91	25.989
298.28	27.041
298.65	27.807
299.02	26.614
299.38	27.490
299.75	24.259
300.12	24.649
300.48	25.000
300.85	24.661
301.22	23.439
301.59	25.126
301.95	24.811
302.32	25.546
302.69	23.895
303.05	24.364
303.42	24.938
303.79	25.821
304.15	22.727
304.52	21.205
304.89	24.855
305.25	22.506
305.62	23.216
305.99	23.495
306.35	23.490
306.72	24.103
307.09	22.309
307.45	23.536
307.82	22.321
308.19	23.731
308.55	24.488
308.92	23.738
309.29	24.182
309.65	21.527
310.02	24.630
310.38	23.548
310.75	23.654
311.12	23.234
311.48	23.929
311.85	23.166
312.22	22.581
312.58	23.701
312.95	23.970
313.31	21.845
313.68	22.869
314.05	25.345
314.41	24.623
314.78	23.968
315.14	23.138
315.51	23.790
315.87	23.366
316.24	23.833
316.61	23.489
316.97	24.560
317.34	23.288
317.70	24.092
318.07	24.158
318.43	23.679
318.80	26.242
319.16	25.047
319.53	24.672
319.89	25.333
320.26	25.700
320.62	27.083
320.99	26.566
321.35	26.162
321.72	27.823
322.08	27.345
322.45	28.159
322.81	27.810
323.18	27.842
323.54	28.757
323.91	27.642
324.27	28.585
324.64	28.145
325.00	27.863
325.37	30.937
325.73	31.418
326.10	28.685
326.46	29.122
326.83	31.752
327.19	31.255
327.56	30.923
327.92	31.759
328.29	31.145
328.65	33.425
329.01	32.581
329.38	32.932
329.74	32.410
330.11	32.328
330.47	32.415
330.84	34.375
331.20	33.789
331.56	34.495
331.93	33.148
332.29	33.008
332.66	33.717
333.02	34.004
333.38	33.514
333.75	34.759
334.11	33.007
334.48	32.209
334.84	34.191
335.20	34.091
335.57	34.361
335.93	33.839
336.29	33.791
336.66	33.634
337.02	33.303
337.38	35.000
337.75	34.135
338.11	33.930
338.47	33.978
338.84	34.555
339.20	33.853
339.56	35.128
339.93	34.091
340.29	32.699
340.65	34.581
341.02	34.817
341.38	34.609
341.74	34.737
342.11	33.624
342.47	33.744
342.83	33.733
343.20	34.286
343.56	32.435
343.92	34.825
344.28	33.929
344.65	34.996
345.01	34.680
345.37	33.190
345.73	34.010
346.10	34.101
346.46	35.339
346.82	33.608
347.19	33.500
347.55	33.662
347.91	33.657
348.27	33.443
348.63	34.365
349.00	33.495
349.36	33.744
349.72	32.959
350.08	34.036
350.45	35.313
350.81	33.875
351.17	33.630
351.53	33.579
351.89	33.251
352.26	34.412
352.62	32.959
352.98	33.144
353.34	34.511
353.70	33.879
354.07	33.548
354.43	32.143
354.79	34.111
355.15	32.961
355.51	34.133
355.87	36.000
356.24	34.365
356.60	33.520
356.96	33.467
357.32	33.769
357.68	33.228
358.04	33.650
358.40	33.729
358.77	33.725
359.13	33.623
359.49	35.216
359.85	32.381
360.21	33.094
360.57	34.086
360.93	34.385
361.29	33.485
361.66	33.437
362.02	34.478
362.38	34.753
362.74	35.119
363.10	33.605
363.46	33.969
363.82	32.955
364.18	34.141
364.54	34.918
364.90	34.915
365.26	34.485
365.62	34.770
365.98	33.528
366.35	33.596
366.71	35.286
367.07	35.033
367.43	34.398
367.79	35.046
368.15	35.489
368.51	33.285
368.87	35.546
369.23	35.625
369.59	34.251
369.95	34.779
370.31	34.972
370.67	34.928
371.03	36.704
371.39	35.131
371.75	34.779
372.11	34.353
372.47	36.070
372.83	36.455
373.19	35.188
373.55	35.255
373.91	36.524
374.27	35.258
374.63	33.891
374.99	37.006
375.35	35.450
375.71	35.161
376.07	35.734
376.42	36.107
376.78	37.177
377.14	35.617
377.50	36.093
377.86	35.372
378.22	35.967
378.58	35.088
378.94	35.261
379.30	36.196
379.66	36.294
380.02	36.486
380.38	35.762
380.74	36.495
381.09	37.286
381.45	36.816
381.81	36.671
382.17	37.389
382.53	36.226
382.89	37.099
383.25	36.585
383.61	37.299
383.97	37.086
384.32	36.744
384.68	36.245
385.04	37.492
385.40	36.780
385.76	36.978
386.12	36.788
386.48	39.018
386.83	40.282
387.19	39.023
387.55	38.281
387.91	37.183
388.27	37.339
388.62	38.660
388.98	38.636
389.34	39.049
389.70	38.381
390.06	39.417
390.42	38.521
390.77	39.567
391.13	39.949
391.49	40.228
391.85	38.829
392.20	39.811
392.56	39.015
392.92	39.670
393.28	39.645
393.64	41.007
393.99	39.768
394.35	40.385
394.71	40.778
395.07	39.439
395.42	41.718
395.78	40.967
396.14	41.092
396.50	41.792
396.85	40.432
397.21	39.519
397.57	40.670
397.92	41.106
398.28	41.031
398.64	41.099
399.00	41.746
399.35	40.948
399.71	41.667
400.07	41.810
400.42	42.699
400.78	42.521
401.14	42.378
401.49	43.045
401.85	42.347
402.21	41.198
402.57	42.628
402.92	42.812
403.28	43.161
403.63	44.307
403.99	42.994
404.35	43.515
404.70	44.245
405.06	43.972
405.42	44.978
405.77	44.514
406.13	44.244
406.49	44.589
406.84	44.182
407.20	45.154
407.55	44.671
407.91	45.667
408.27	45.692
408.62	45.635
408.98	45.527
409.34	45.510
409.69	45.484
410.05	45.849
410.40	46.116
410.76	45.998
411.11	47.045
411.47	45.815
411.83	47.892
412.18	45.578
412.54	46.762
412.89	46.325
413.25	47.580
413.60	46.881
413.96	46.327
414.31	47.327
414.67	47.338
415.03	47.483
415.38	48.196
415.74	48.039
416.09	49.837
416.45	48.260
416.80	48.909
417.16	49.531
417.51	49.237
417.87	49.197
418.22	49.653
418.58	49.580
418.93	49.816
419.29	49.013
419.64	49.685
420.00	49.634
420.35	49.449
420.71	50.149
421.06	48.926
421.42	50.175
421.77	50.729
422.12	49.635
422.48	50.675
422.83	50.320
423.19	49.834
423.54	51.654
423.90	50.725
424.25	49.246
424.61	49.762
424.96	50.379
425.31	50.609
425.67	50.449
426.02	50.800
426.38	52.442
426.73	50.673
427.09	51.915
427.44	51.351
427.79	50.949
428.15	52.024
428.50	51.843
428.85	52.145
429.21	50.414
429.56	52.566
429.92	51.736
430.27	51.440
430.62	51.357
430.98	52.309
431.33	52.732
431.68	52.880
432.04	51.225
432.39	52.827
432.74	52.663
433.10	54.273
433.45	52.828
433.80	52.882
434.16	52.404
434.51	52.579
434.86	52.737
435.22	53.141
435.57	55.076
435.92	53.540
436.28	54.211
436.63	53.091
436.98	54.093
437.34	54.800
437.69	55.134
438.04	53.963
438.39	53.254
438.75	55.317
439.10	54.413
439.45	55.254
439.81	54.441
440.16	55.054
440.51	54.774
440.86	55.298
441.22	54.227
441.57	54.777
441.92	55.220
442.27	54.629
442.63	54.239
442.98	55.606
443.33	55.109
443.68	55.188
444.03	54.954
444.39	54.625
444.74	54.600
445.09	55.418
445.44	54.292
445.79	54.280
446.15	53.785
446.50	55.304
446.85	55.550
447.20	54.003
447.55	57.231
447.91	56.095
448.26	55.314
448.61	55.229
448.96	55.814
449.31	56.693
449.66	56.050
450.02	55.153
450.37	54.705
450.72	55.104
451.07	55.576
451.42	55.015
451.77	56.547
452.12	55.774
452.47	56.654
452.83	55.769
453.18	55.318
453.53	57.267
453.88	55.936
454.23	55.828
454.58	56.027
454.93	58.233
455.28	55.985
455.63	57.160
455.98	57.262
456.34	57.977
456.69	57.107
457.04	56.285
457.39	55.640
457.74	56.587
458.09	56.584
458.44	57.184
458.79	55.477
459.14	56.264
459.49	56.918
459.84	56.011
460.19	55.922
460.54	55.498
460.89	56.665
461.24	56.648
461.59	56.537
461.94	56.350
462.29	57.982
462.64	56.414
462.99	56.539
463.34	58.467
463.69	57.036
464.04	56.058
464.39	56.000
464.74	56.328
465.09	56.454
465.44	56.288
465.79	55.034
466.14	55.610
466.49	56.118
466.84	56.859
467.19	55.944
467.54	57.125
467.89	56.002
468.24	57.301
468.59	57.692
468.94	56.078
469.29	58.290
469.64	57.296
469.99	58.187
470.34	57.001
470.68	59.124
471.03	57.755
471.38	57.957
471.73	58.294
472.08	58.750
472.43	56.533
472.78	57.933
473.13	57.510
473.48	57.553
473.83	58.110
474.17	57.125
474.52	57.630
474.87	57.210
475.22	56.994
475.57	56.153
475.92	56.771
476.27	57.215
476.61	57.750
476.96	57.119
477.31	56.463
477.66	57.440
478.01	55.358
478.36	56.901
478.70	57.269
479.05	57.029
479.40	56.909
479.75	56.787
480.10	56.113
480.45	55.402
480.79	56.283
481.14	56.654
481.49	55.861
481.84	56.333
482.19	55.429
482.53	55.596
482.88	57.003
483.23	56.822
483.58	56.551
483.92	57.123
484.27	55.251
484.62	55.603
484.97	54.434
485.31	55.342
485.66	53.933
486.01	51.584
486.36	50.548
486.70	50.165
487.05	51.286
487.40	52.962
487.75	53.258
488.09	54.838
488.44	54.770
488.79	55.335
489.13	56.303
489.48	56.648
489.83	56.280
490.17	56.642
490.52	55.182
490.87	56.988
491.22	55.480
491.56	55.626
491.91	56.119
492.26	55.949
492.60	56.313
492.95	55.753
493.30	56.495
493.64	56.090
493.99	55.850
494.34	57.123
494.68	56.410
495.03	57.331
495.37	55.747
495.72	57.310
496.07	56.241
496.41	55.619
496.76	56.113
497.11	55.876
497.45	55.519
497.80	56.670
498.14	56.232
498.49	56.098
498.84	56.951
499.18	56.857
499.53	56.173
499.87	56.710
500.22	55.064
500.56	57.670
500.91	56.298
501.26	55.998
501.60	57.523
501.95	56.004
502.29	55.904
502.64	56.564
502.98	56.335
503.33	55.850
503.67	55.824
504.02	55.893
504.36	56.060
504.71	57.108
505.06	56.482
505.40	56.684
505.75	55.352
506.09	55.879
506.44	58.263
506.78	57.477
507.13	56.890
507.47	58.030
507.82	56.130
508.16	57.548
508.51	57.737
508.85	56.157
509.19	57.959
509.54	56.684
509.88	56.981
510.23	57.224
510.57	58.411
510.92	58.364
511.26	57.040
511.61	57.936
511.95	56.628
512.30	58.112
512.64	57.818
512.98	57.342
513.33	58.244
513.67	57.684
514.02	57.305
514.36	58.547
514.70	58.605
515.05	58.115
515.39	57.768
515.74	58.953
516.08	59.363
516.42	60.599
516.77	59.086
517.11	57.658
517.46	58.352
517.80	60.453
518.14	58.599
518.49	60.152
518.83	59.659
519.17	59.007
519.52	59.083
519.86	59.156
520.20	59.653
520.55	60.802
520.89	60.341
521.23	58.926
521.58	60.444
521.92	61.115
522.26	59.121
522.61	61.682
522.95	59.546
523.29	60.377
523.64	61.098
523.98	59.889
524.32	60.676
524.66	59.771
525.01	60.355
525.35	60.471
525.69	60.037
526.04	61.620
526.38	60.403
526.72	60.123
527.06	62.398
527.41	60.025
527.75	62.765
528.09	61.529
528.43	61.377
528.78	61.832
529.12	59.879
529.46	60.747
529.80	62.314
530.15	59.875
530.49	60.554
530.83	61.519
531.17	63.512
531.51	61.997
531.86	63.032
532.20	62.777
532.54	62.012
532.88	63.222
533.22	61.149
533.57	61.790
533.91	59.603
534.25	60.814
534.59	60.342
534.93	59.726
535.27	61.557
535.62	60.684
535.96	62.398
536.30	61.475
536.64	62.073
536.98	62.177
537.32	62.014
537.66	62.800
538.01	62.014
538.35	62.120
538.69	62.093
539.03	60.819
539.37	61.534
539.71	61.309
540.05	62.745
540.39	62.658
540.73	61.902
541.07	61.778
541.42	62.948
541.76	64.645
542.10	62.290
542.44	63.510
542.78	64.427
543.12	60.781
543.46	63.213
543.80	62.655
544.14	61.682
544.48	62.286
544.82	62.668
545.16	62.980
545.50	62.404
545.84	62.634
546.18	63.300
546.52	63.524
546.86	63.918
547.20	62.980
547.54	62.993
547.88	63.138
548.22	62.142
548.56	61.761
548.90	62.676
549.24	64.040
549.58	62.619
549.92	63.668
550.26	65.270
550.60	63.140
550.94	64.366
551.28	63.716
551.62	64.270
551.96	63.930
552.30	64.027
552.64	63.962
552.98	63.051
553.32	62.980
553.66	65.303
554.00	64.653
554.34	63.492
554.68	64.521
555.02	65.092
555.36	64.092
555.69	63.058
556.03	62.248
556.37	63.574
556.71	63.370
557.05	65.756
557.39	63.261
557.73	64.220
558.07	65.337
558.41	63.748
558.75	66.275
559.08	65.623
559.42	66.213
559.76	64.338
560.10	63.169
560.44	64.081
560.78	62.542
561.12	63.193
561.45	64.863
561.79	63.019
562.13	62.777
562.47	64.413
562.81	65.551
563.15	63.478
563.48	64.191
563.82	63.862
564.16	63.244
564.50	63.542
564.84	63.338
565.17	62.934
565.51	63.962
565.85	63.896
566.19	62.868
566.52	64.155
566.86	62.628
567.20	62.972
567.54	63.642
567.88	60.456
568.21	61.587
568.55	60.415
568.89	61.235
569.23	59.447
569.56	59.150
569.90	58.264
570.24	57.481
570.57	56.817
570.91	56.367
571.25	56.702
571.59	56.112
571.92	56.365
572.26	56.008
572.60	55.886
572.93	56.342
573.27	56.463
573.61	55.193
573.95	55.917
574.28	55.452
574.62	55.321
574.96	54.576
575.29	54.874
575.63	55.361
575.97	54.699
576.30	55.364
576.64	55.522
576.98	54.740
577.31	55.037
577.65	55.005
577.98	54.544
578.32	53.634
578.66	54.067
578.99	54.873
579.33	55.580
579.67	54.415
580.00	54.256
580.34	54.865
580.67	55.022
581.01	54.599
581.35	54.285
581.68	54.622
582.02	53.000
582.35	53.870
582.69	54.595
583.02	54.488
583.36	55.269
583.70	56.194
584.03	55.982
584.37	55.810
584.70	55.878
585.04	54.941
585.37	54.776
585.71	55.404
586.04	54.989
586.38	56.296
586.72	56.283
587.05	55.637
587.39	55.409
587.72	55.604
588.06	56.457
588.39	56.049
588.73	56.850
589.06	56.809
589.40	57.677
589.73	57.550
590.07	56.655
590.40	56.631
590.73	58.392
591.07	58.771
591.40	57.866
591.74	60.260
592.07	58.770
592.41	57.710
592.74	57.266
593.08	56.096
593.41	55.837
593.75	54.341
594.08	57.023
594.41	56.274
594.75	56.377
595.08	56.478
595.42	56.848
595.75	57.336
596.09	58.130
596.42	57.603
596.75	58.379
597.09	58.615
597.42	56.492
597.75	57.827
598.09	57.522
598.42	57.775
598.76	56.546
599.09	56.138
599.42	56.405
599.76	56.369
600.09	55.774
600.42	56.392
600.76	55.214
601.09	56.321
601.42	56.925
601.76	56.395
602.09	57.075
602.42	57.285
602.76	58.122
603.09	57.632
603.42	58.063
603.76	56.898
604.09	56.960
604.42	57.155
604.76	58.920
605.09	57.623
605.42	57.247
605.75	57.078
606.09	56.649
606.42	57.172
606.75	57.072
607.09	56.676
607.42	57.467
607.75	56.624
608.08	57.881
608.42	56.701
608.75	56.898
609.08	57.216
609.41	57.211
609.75	57.504
610.08	58.907
610.41	57.356
610.74	59.177
611.07	58.943
611.41	57.753
611.74	58.572
612.07	60.093
612.40	59.811
612.73	59.474
613.07	60.129
613.40	60.400
613.73	58.888
614.06	59.462
614.39	59.203
614.72	58.105
615.06	57.353
615.39	58.546
615.72	56.902
616.05	58.267
616.38	58.032
616.71	60.986
617.05	60.012
617.38	60.253
617.71	60.901
618.04	61.719
618.37	59.610
618.70	61.232
619.03	61.118
619.36	62.458
619.69	61.268
620.03	62.225
620.36	60.428
620.69	62.740
621.02	62.021
621.35	63.117
621.68	63.084
622.01	64.551
622.34	62.859
622.67	63.498
623.00	61.262
623.33	62.116
623.66	62.688
623.99	62.003
624.32	62.340
624.65	61.935
624.99	61.756
625.32	61.767
625.65	63.035
625.98	63.951
626.31	63.608
626.64	64.327
626.97	65.586
627.30	63.924
627.63	63.823
627.96	65.097
628.29	65.004
628.62	65.325
628.95	65.094
629.28	64.781
629.61	66.728
629.94	66.857
630.26	66.730
630.59	65.014
630.92	65.996
631.25	67.818
631.58	65.866
631.91	66.531
632.24	67.827
632.57	67.891
632.90	67.105
633.23	67.114
633.56	69.153
633.89	68.290
634.22	67.310
634.55	72.426
634.88	68.982
635.20	69.295
635.53	69.398
635.86	68.441
636.19	66.706
636.52	68.166
636.85	68.270
637.18	67.742
637.51	69.385
637.83	65.721
638.16	70.077
638.49	68.514
638.82	69.912
639.15	69.500
639.48	68.454
639.81	72.520
640.13	69.401
640.46	70.604
640.79	67.768
641.12	68.776
641.45	73.045
641.77	75.110
642.10	73.246
642.43	70.270
642.76	73.684
643.09	73.313
643.41	70.865
643.74	73.148
644.07	71.799
644.40	73.006
644.73	72.441
645.05	75.119
645.38	72.196
645.71	73.108
646.04	74.252
646.36	75.125
646.69	74.916
647.02	72.449
647.35	74.742
647.67	72.035
648.00	72.358
648.33	72.277
648.66	70.758
648.98	71.064
649.31	71.450
649.64	71.151
649.96	68.554
650.29	73.776
650.62	71.521
650.94	73.906
651.27	72.635
651.60	73.378
651.92	71.246
652.25	71.987
652.58	69.315
652.90	70.300
653.23	69.337
653.56	68.504
653.88	70.998
654.21	72.670
654.54	70.957
654.86	70.093
655.19	65.946
655.52	48.057
655.84	42.966
656.17	55.048
656.49	74.425
656.82	76.040
657.15	57.641
657.47	43.466
657.80	33.370
658.13	34.620
658.45	51.862
658.78	52.317
659.10	54.123
659.43	56.909
659.75	59.803
660.08	63.291
660.41	68.436
660.73	74.587
661.06	72.611
661.38	75.273
661.71	75.962
662.03	75.740
662.36	73.161
662.68	74.096
663.01	74.141
663.33	77.495
663.66	74.790
663.98	75.594
664.31	73.109
664.63	72.065
664.96	71.630
665.28	79.508
665.61	71.735
665.93	70.825
666.26	72.819
666.58	77.406
666.91	75.476
667.23	78.652
667.56	74.514
667.88	73.932
668.21	74.200
668.53	73.102
668.86	74.459
669.18	74.627
669.50	76.739
669.83	77.560
670.15	75.111
670.48	73.856
670.80	77.586
671.13	76.221
671.45	72.128
671.77	71.079
672.10	70.795
672.42	69.965
672.75	64.511
673.07	69.190
673.39	68.897
673.72	71.289
674.04	74.902
674.37	71.262
674.69	71.166
675.01	72.385
675.34	73.306
675.66	75.579
675.98	70.876
676.31	74.160
676.63	74.310
676.95	71.279
677.28	78.972
677.60	74.286
677.92	75.316
678.25	70.021
678.57	73.506
678.89	70.541
679.22	69.352
679.54	69.656
679.86	68.624
680.18	69.052
680.51	67.908
680.83	69.751
681.15	68.679
681.48	71.834
681.80	69.246
682.12	66.475
682.44	65.571
682.77	73.320
683.09	74.034
683.41	74.945
683.73	71.965
684.06	70.248
684.38	66.732
684.70	70.930
685.02	67.917
685.34	67.033
685.67	63.986
685.99	67.698
686.31	65.529
686.63	65.724
686.96	65.714
687.28	66.245
687.60	66.304
687.92	65.448
688.24	66.730
688.56	68.072
688.89	72.407
689.21	71.834
689.53	70.564
689.85	72.949
690.17	67.081
690.49	69.427
690.82	73.364
691.14	70.982
691.46	67.932
691.78	65.663
692.10	69.008
692.42	67.465
692.74	66.598
693.06	68.511
693.39	70.431
693.71	70.524
694.03	66.526
694.35	67.749
694.67	65.217
694.99	76.829
695.31	74.755
695.63	72.967
695.95	76.039
696.27	70.558
696.59	71.762
696.91	69.430
697.23	67.840
697.56	67.377
697.88	65.235
698.20	66.250
698.52	68.387
698.84	68.820
699.16	70.737
699.48	73.159
699.80	70.048
700.12	81.558
700.44	76.923
700.76	74.033
701.08	76.437
701.40	73.184
701.72	74.927
702.04	80.114
702.36	69.972
702.68	73.654
703.00	73.407
703.32	70.479
703.64	71.582
703.96	77.159
704.28	73.837
704.60	75.073
704.91	73.591
705.23	74.487
705.55	79.402
705.87	80.066
706.19	76.678
706.51	74.455
706.83	77.576
707.15	71.709
707.47	64.394
707.79	70.025
708.11	60.502
708.43	67.857
708.74	64.031
709.06	69.870
709.38	70.079
709.70	73.837
710.02	73.887
710.34	72.121
710.66	75.224
710.98	70.455
711.29	71.221
711.61	71.386
711.93	73.397
712.25	76.849
712.57	81.250
712.89	75.433
713.20	70.517
713.52	74.013
713.84	74.367
714.16	72.256
714.48	68.678
714.80	75.076
715.11	70.893
715.43	73.294
715.75	69.565
716.07	74.121
716.39	70.533
716.70	73.422
717.02	79.856
717.34	72.085
717.66	80.224
717.97	76.096
718.29	76.296
718.61	73.358
718.93	79.044
719.24	73.010
719.56	71.864
719.88	73.220
720.20	72.635
720.51	72.822
720.83	78.067
721.15	73.134
721.46	71.986
721.78	77.419
722.10	76.226
722.42	79.323
722.73	80.524
723.05	81.557
723.37	80.162
723.68	75.676
724.00	76.016
724.32	73.387
724.63	76.829
724.95	76.569
725.27	75.709
725.58	70.703
725.90	74.453
726.22	72.830
726.53	71.528
726.85	69.283
727.16	74.377
727.48	69.149
727.80	76.136
728.11	68.116
728.43	74.231
728.74	67.384
729.06	77.007
729.38	76.103
729.69	70.107
730.01	67.918
730.32	70.139
730.64	68.562
730.96	66.997
731.27	72.517
731.59	68.807
731.90	66.764
732.22	70.497
732.53	69.969
732.85	65.705
733.16	67.203
733.48	72.425
733.80	65.909
734.11	68.471
734.43	71.598
734.74	65.714
735.06	64.756
735.37	67.052
735.69	68.790
736.00	69.281
736.32	67.290
736.63	67.093
736.95	71.885
737.26	62.925
737.58	67.742
737.89	68.896
738.21	70.307
738.52	68.214
738.83	70.943
739.15	71.154
739.46	75.182
739.78	71.875
740.09	66.769
740.41	67.742
740.72	70.383
741.04	71.481
741.35	75.417
741.66	79.556
741.98	71.226
742.29	79.426
742.61	74.138
742.92	77.828
743.23	75.214
743.55	75.200
743.86	80.263
744.18	79.646
744.49	70.813
744.80	80.282
745.12	80.000
745.43	78.855
745.74	82.432
746.06	76.147
746.37	75.336
746.68	80.090
747.00	82.407
747.31	78.095
747.62	74.779
747.94	77.533
748.25	70.638
748.56	75.771
748.88	80.693
749.19	89.500
749.50	80.000
749.82	72.764
750.13	72.245
750.44	70.803
750.75	68.421
751.07	65.595
751.38	68.641
751.69	66.426
752.01	68.045
752.32	62.455
752.63	67.730
752.94	69.262
753.26	73.200
753.57	67.073
753.88	75.391
754.19	65.000
754.51	67.361
754.82	68.231
755.13	68.302
755.44	69.925
755.75	66.058
756.07	65.248
756.38	66.423
756.69	65.436
757.00	57.485
757.31	60.237
757.63	65.205
757.94	57.909
758.25	56.373
758.56	58.272
758.87	57.258
759.18	61.212
759.50	60.188
759.81	63.551
760.12	60.625
760.43	60.458
760.74	59.239
761.05	61.582
761.36	56.684
761.67	62.500
761.99	61.801
762.30	64.931
762.61	69.466
762.92	67.578
763.23	68.067
763.54	71.200
763.85	62.500
764.16	74.615
764.47	69.962
764.78	63.604
765.10	57.595
765.41	60.177
765.72	60.180
766.03	63.323
766.34	60.667
766.65	74.043
766.96	68.803
767.27	72.589
767.58	81.250
767.89	75.789
768.20	81.609
768.51	74.112
768.82	68.807
769.13	67.480
769.44	65.182
769.75	65.665
770.06	66.514
770.37	69.683
770.68	69.907
770.99	69.333
771.30	61.885
771.61	71.749
771.92	67.213
772.23	68.067
772.54	73.333
772.85	76.963
773.16	74.468
773.47	78.261
773.78	81.218
774.09	87.500
774.39	73.099
774.70	82.099
775.01	77.536
775.32	86.928
775.63	75.658
775.94	85.612
776.25	94.488
776.56	94.776
776.87	89.344
777.18	95.312
777.48	96.947
777.79	89.394
778.10	82.963
778.41	91.964
778.72	77.372
779.03	80.537
779.34	69.128
779.65	86.486
779.95	77.301
780.26	84.314
780.57	78.621
780.88	100.000
781.19	93.985
781.50	83.784
781.80	76.730
782.11	72.316
782.42	81.013
782.73	69.939
783.04	80.405
783.34	78.169
783.65	84.932
783.96	95.522
784.27	86.014
784.57	83.453
784.88	97.222
785.19	85.714
785.50	96.226
785.81	86.567
786.11	91.803
786.42	92.248
786.73	81.416
787.04	102.830
787.34	87.500
787.65	106.000
787.96	92.793
788.26	85.950
788.57	95.763
788.88	88.430
789.19	88.194
789.49	85.606
789.80	78.626
790.11	95.238
790.41	98.020
790.72	100.000
791.03	104.348
791.33	98.837
791.64	93.814
791.95	102.970
792.25	110.000
792.56	123.377
792.87	119.231
793.17	132.911
793.48	125.287
793.79	110.345
794.09	115.909
794.40	82.353
794.70	93.382
795.01	74.074
795.32	77.698
795.62	82.677
795.93	85.345
796.23	86.726
796.54	88.235
796.85	110.811
797.15	125.352
797.46	103.030
797.76	109.639
798.07	113.924
798.37	113.846
798.68	118.182
798.99	116.901
799.29	115.584
799.60	97.727
799.90	119.178
800.21	123.881
800.51	134.483
800.82	142.105
801.12	129.508
801.43	133.333
801.73	109.459
802.04	133.333
802.34	112.346
802.65	118.750
802.95	133.898
803.26	134.375
803.56	98.571
803.87	135.385
804.17	102.941
804.48	155.556
804.78	141.379
805.09	132.353
805.39	161.538
805.70	130.357
806.00	147.541
806.30	119.697
806.61	93.902
806.91	103.797
807.22	110.526
807.52	107.463
807.83	100.000
808.13	106.250
808.43	126.667
808.74	111.842
809.04	124.638
809.35	120.896
809.65	106.579
809.95	146.774
810.26	128.814
810.56	117.460
810.86	159.091
811.17	180.952
811.47	130.000
811.77	144.444
812.08	143.636
812.38	150.000
812.69	188.889
812.99	195.455
813.29	144.898
813.59	130.952
813.90	159.184
814.20	130.909
814.50	107.692
814.81	132.353
815.11	163.265
815.41	139.344
815.72	185.714
816.02	160.000
816.32	173.810
816.62	172.500
816.93	182.927
817.23	166.667
817.53	145.455
817.84	227.273
818.14	156.522
818.44	175.556
818.74	191.176
819.04	180.000
819.35	194.286
819.65	214.706
819.95	239.286
820.25	280.000
820.56	194.872
820.86	156.818
821.16	167.442
821.46	161.538
821.76	152.000
822.07	165.714
822.37	192.500
822.67	200.000
822.97	127.451
823.27	228.571
823.57	164.865
823.88	192.500
824.18	220.000
824.48	173.810
824.78	276.000
825.08	250.000
825.38	200.000
825.69	158.537
825.99	237.500
826.29	224.138
826.59	192.105
826.89	173.684
827.19	197.059
827.49	219.355
827.79	168.182
828.09	165.909
828.39	153.191
828.70	148.980
829.00	207.407
829.30	164.516
829.60	167.500
829.90	380.000
830.20	210.714
830.50	226.087
830.80	278.261
831.10	226.667
831.40	230.000
831.70	247.826
832.00	250.000
832.30	203.704
832.60	356.250
832.90	230.000
833.20	450.000
833.50	212.903
833.80	220.690
834.10	237.500
834.40	230.769
834.70	311.111
835.00	314.286
835.30	194.286
835.60	384.615
835.90	237.931
836.20	485.714
836.50	241.379
836.80	216.000
837.10	194.444
837.40	309.524
837.70	364.706
838.00	237.037
838.30	290.476
838.60	338.095
838.90	265.385
839.19	255.000
839.49	435.714
839.79	350.000
840.09	285.000
840.39	276.190
840.69	321.739
840.99	305.556
841.29	600.000
841.59	441.667
841.88	331.250
842.18	220.690
842.48	261.905
842.78	213.333
843.08	247.826
843.38	221.875
843.68	950.000
843.97	192.308
844.27	217.241
844.57	338.095
844.87	387.500
845.17	248.148
845.47	1600.000
845.76	488.889
846.06	323.529
846.36	650.000
846.66	392.857
846.96	306.250
847.25	527.273
847.55	472.727
847.85	291.304
848.15	520.000
848.44	407.143
848.74	294.444
849.04	388.235
849.34	680.000
849.63	268.421
849.93	490.909
850.23	1080.000
850.53	428.571
850.82	2250.000
851.12	-4500.000
851.42	4600.000
851.71	295.000
852.01	-1300.000
852.31	254.167
852.61	1900.000
852.90	280.952
853.20	276.000
853.50	400.000
853.79	309.524
854.09	233.333
854.39	337.500
854.68	170.270
854.98	216.129
855.28	206.667
855.57	213.793
855.87	225.926
856.17	236.842
856.46	286.667
856.76	311.765
857.05	231.034
857.35	266.667
857.65	360.000
857.94	269.565
858.24	250.000
858.53	305.000
858.83	259.091
859.13	380.000
859.42	0.000
859.72	677.778
860.01	409.091
860.31	313.636
860.60	310.526
860.90	256.522
861.20	577.778
861.49	466.667
861.79	-5100.000
862.08	662.500
862.38	261.905
862.67	315.385
862.97	352.941
863.26	555.556
863.56	327.778
863.85	458.333
864.15	700.000
864.44	400.000
864.74	783.333
865.03	750.000
865.33	315.789
865.62	472.727
865.92	492.308
866.21	358.333
866.51	0.000
866.80	527.273
867.10	1100.000
867.39	523.077
867.69	454.545
867.98	373.684
868.27	527.273
868.57	300.000
868.86	-4000.000
869.16	350.000
869.45	2700.000
869.75	-4000.000
870.04	483.333
870.33	657.143
870.63	1025.000
870.92	2700.000
871.22	657.143
871.51	358.824
871.80	266.667
872.10	364.286
>>>>>End Processed Spectral Data<<<<<
