SpectraSuite Data File
++++++++++++++++++++++++++++++++++++
Date: Wed May 13 19:49:32 PDT 2015
User: schluterlab
Dark Spectrum Present: Yes
Reference Spectrum Present: Yes
Number of Sampled Component Spectra: 1
Spectrometers: USB2E3373
Integration Time (usec): 3000 (USB2E3373)
Spectra Averaged: 3 (USB2E3373)
Boxcar Smoothing: 0 (USB2E3373)
Correct for Electrical Dark: No (USB2E3373)
Strobe/Lamp Enabled: No (USB2E3373)
Correct for Detector Non-linearity: No (USB2E3373)
Correct for Stray Light: No (USB2E3373)
Number of Pixels in Processed Spectrum: 2048
>>>>>Begin Processed Spectral Data<<<<<
178.53	0.000
178.91	-1150.000
179.29	-1075.000
179.67	-233.333
180.04	-1550.000
180.42	2450.000
180.80	1120.000
181.18	-1350.000
181.56	728.571
181.94	0.000
182.31	-685.714
182.69	1933.333
183.07	-637.500
183.45	-522.222
183.83	545.455
184.20	-410.000
184.58	2300.000
184.96	6100.000
185.34	-980.000
185.72	-675.000
186.09	-2350.000
186.47	3000.000
186.85	2700.000
187.23	4700.000
187.61	-2033.333
187.98	1275.000
188.36	618.182
188.74	554.545
189.12	-960.000
189.49	540.000
189.87	-5600.000
190.25	-1375.000
190.63	457.143
191.00	446.154
191.38	900.000
191.76	-1100.000
192.14	1450.000
192.51	712.500
192.89	1050.000
193.27	750.000
193.65	-1100.000
194.02	570.000
194.40	1000.000
194.78	570.000
195.15	566.667
195.53	660.000
195.91	-1800.000
196.29	368.750
196.66	289.474
197.04	-340.000
197.42	0.000
197.79	660.000
198.17	-5100.000
198.55	685.714
198.92	700.000
199.30	880.000
199.68	0.000
200.05	361.111
200.43	785.714
200.81	4900.000
201.18	1766.667
201.56	-1933.333
201.94	566.667
202.31	633.333
202.69	550.000
203.07	620.000
203.44	0.000
203.82	1325.000
204.19	800.000
204.57	414.286
204.95	612.500
205.32	1900.000
205.70	590.909
206.08	364.286
206.45	2650.000
206.83	393.750
207.20	1033.333
207.58	860.000
207.96	327.778
208.33	662.500
208.71	-800.000
209.08	800.000
209.46	533.333
209.84	390.909
210.21	-1633.333
210.59	1375.000
210.96	-537.500
211.34	2250.000
211.71	540.000
212.09	750.000
212.46	0.000
212.84	1433.333
213.22	1400.000
213.59	-5600.000
213.97	866.667
214.34	757.143
214.72	572.727
215.09	1140.000
215.47	-2250.000
215.84	-2450.000
216.22	1400.000
216.59	371.429
216.97	1300.000
217.34	536.364
217.72	-800.000
218.09	0.000
218.47	-4500.000
218.84	711.111
219.22	771.429
219.59	1666.667
219.97	-685.714
220.34	1020.000
220.72	-1733.333
221.09	414.286
221.47	1350.000
221.84	-850.000
222.22	0.000
222.59	1400.000
222.97	-3000.000
223.34	980.000
223.72	384.615
224.09	1120.000
224.46	2300.000
224.84	-4800.000
225.21	-1000.000
225.59	-5200.000
225.96	660.000
226.34	345.000
226.71	2700.000
227.08	750.000
227.46	660.000
227.83	-1300.000
228.21	-2650.000
228.58	788.889
228.95	-2400.000
229.33	-2250.000
229.70	1833.333
230.08	814.286
230.45	-980.000
230.82	475.000
231.20	816.667
231.57	600.000
231.95	475.000
232.32	236.364
232.69	418.182
233.07	685.714
233.44	361.538
233.81	-1600.000
234.19	321.053
234.56	408.333
234.93	391.667
235.31	463.636
235.68	315.385
236.05	328.571
236.43	193.939
236.80	294.737
237.17	4300.000
237.55	200.000
237.92	171.429
238.29	238.095
238.67	148.387
239.04	172.414
239.41	141.667
239.79	119.565
240.16	130.952
240.53	118.182
240.91	107.843
241.28	94.000
241.65	114.000
242.02	84.058
242.40	70.968
242.77	70.000
243.14	74.194
243.51	71.910
243.89	63.529
244.26	47.778
244.63	62.366
245.00	59.574
245.38	42.574
245.75	39.252
246.12	38.532
246.49	48.905
246.87	50.400
247.24	50.000
247.61	47.857
247.98	30.719
248.36	26.351
248.73	36.943
249.10	28.025
249.47	34.463
249.84	35.294
250.22	33.155
250.59	31.361
250.96	29.798
251.33	32.701
251.70	28.218
252.08	23.810
252.45	21.076
252.82	27.826
253.19	25.532
253.56	22.353
253.94	26.556
254.31	22.656
254.68	23.462
255.05	25.461
255.42	19.106
255.79	19.853
256.16	21.300
256.54	18.021
256.91	23.488
257.28	15.827
257.65	18.812
258.02	19.255
258.39	19.243
258.76	15.050
259.14	19.345
259.51	17.021
259.88	13.354
260.25	19.033
260.62	17.052
260.99	15.839
261.36	18.619
261.73	14.900
262.10	13.663
262.47	16.901
262.85	17.827
263.22	13.105
263.59	16.239
263.96	18.132
264.33	15.144
264.70	16.316
265.07	16.880
265.44	14.899
265.81	13.625
266.18	14.322
266.55	16.829
266.92	13.514
267.29	15.741
267.66	13.303
268.03	14.091
268.40	12.850
268.77	13.365
269.14	12.613
269.51	15.350
269.88	12.821
270.25	11.738
270.62	12.360
270.99	13.978
271.36	14.807
271.73	9.579
272.10	10.652
272.47	14.194
272.84	12.771
273.21	13.627
273.58	12.009
273.95	12.159
274.32	13.223
274.69	11.991
275.06	11.220
275.43	13.617
275.80	11.623
276.17	10.794
276.54	12.890
276.91	10.672
277.28	12.305
277.65	14.700
278.02	10.145
278.39	12.500
278.76	12.364
279.13	12.642
279.50	11.732
279.87	12.351
280.23	11.178
280.60	9.284
280.97	10.906
281.34	10.619
281.71	12.182
282.08	10.940
282.45	9.455
282.82	11.012
283.19	8.021
283.56	10.351
283.92	11.506
284.29	10.935
284.66	9.982
285.03	10.127
285.40	10.739
285.77	9.428
286.14	9.672
286.51	10.833
286.87	10.256
287.24	10.261
287.61	10.433
287.98	10.065
288.35	9.667
288.72	9.346
289.08	11.111
289.45	10.214
289.82	9.756
290.19	8.634
290.56	9.188
290.93	8.912
291.29	8.742
291.66	8.407
292.03	11.337
292.40	10.720
292.77	8.876
293.13	8.657
293.50	10.350
293.87	8.296
294.24	9.185
294.60	8.297
294.97	8.140
295.34	10.296
295.71	8.097
296.08	6.695
296.44	8.116
296.81	6.869
297.18	8.130
297.55	6.596
297.91	7.520
298.28	9.906
298.65	9.922
299.02	8.827
299.38	7.171
299.75	6.604
300.12	8.046
300.48	8.250
300.85	7.028
301.22	7.261
301.59	7.955
301.95	8.060
302.32	7.060
302.69	6.571
303.05	6.909
303.42	5.926
303.79	7.701
304.15	7.226
304.52	6.721
304.89	7.433
305.25	6.613
305.62	8.381
305.99	7.556
306.35	6.823
306.72	7.399
307.09	7.325
307.45	6.869
307.82	6.585
308.19	8.168
308.55	7.875
308.92	6.660
309.29	6.758
309.65	7.317
310.02	6.554
310.38	7.527
310.75	6.758
311.12	7.574
311.48	6.583
311.85	7.757
312.22	6.972
312.58	7.173
312.95	6.441
313.31	6.214
313.68	7.069
314.05	8.580
314.41	7.538
314.78	7.150
315.14	6.852
315.51	6.488
315.87	8.317
316.24	7.249
316.61	7.018
316.97	6.360
317.34	5.773
317.70	7.457
318.07	7.603
318.43	7.436
318.80	7.591
319.16	7.345
319.53	7.129
319.89	8.286
320.26	8.600
320.62	8.829
320.99	8.283
321.35	8.384
321.72	8.830
322.08	9.279
322.45	9.254
322.81	8.527
323.18	9.249
323.54	9.740
323.91	9.528
324.27	9.943
324.64	7.735
325.00	9.197
325.37	10.282
325.73	9.874
326.10	9.532
326.46	9.229
326.83	10.009
327.19	9.564
327.56	10.540
327.92	10.236
328.29	11.180
328.65	10.589
329.01	12.184
329.38	10.176
329.74	11.080
330.11	10.368
330.47	11.570
330.84	11.489
331.20	10.747
331.56	11.651
331.93	11.296
332.29	10.470
332.66	11.947
333.02	11.243
333.38	11.653
333.75	12.389
334.11	11.833
334.48	10.470
334.84	12.592
335.20	11.091
335.57	11.786
335.93	9.375
336.29	10.531
336.66	11.181
337.02	10.769
337.38	10.741
337.75	9.537
338.11	10.654
338.47	10.497
338.84	10.632
339.20	11.101
339.56	11.040
339.93	11.182
340.29	11.594
340.65	11.408
341.02	11.867
341.38	10.765
341.74	11.140
342.11	11.266
342.47	11.894
342.83	10.873
343.20	11.602
343.56	10.531
343.92	9.825
344.28	10.799
344.65	11.522
345.01	10.269
345.37	11.235
345.73	11.083
346.10	10.571
346.46	11.017
346.82	10.873
347.19	10.276
347.55	10.673
347.91	12.055
348.27	11.339
348.63	10.786
349.00	12.298
349.36	10.427
349.72	10.906
350.08	11.345
350.45	11.066
350.81	10.723
351.17	10.778
351.53	10.156
351.89	9.736
352.26	11.918
352.62	10.986
352.98	11.102
353.34	11.339
353.70	9.820
354.07	11.613
354.43	10.635
354.79	10.619
355.15	9.896
355.51	11.111
355.87	10.939
356.24	11.156
356.60	10.345
356.96	10.861
357.32	11.774
357.68	11.024
358.04	10.926
358.40	11.401
358.77	10.798
359.13	9.471
359.49	11.373
359.85	10.079
360.21	10.128
360.57	11.284
360.93	11.077
361.29	9.599
361.66	10.372
362.02	11.493
362.38	10.342
362.74	9.970
363.10	10.141
363.46	10.051
363.82	10.960
364.18	10.940
364.54	11.070
364.90	10.552
365.26	10.221
365.62	10.519
365.98	10.299
366.35	10.172
366.71	11.208
367.07	10.634
367.43	10.813
367.79	11.206
368.15	11.925
368.51	10.683
368.87	10.778
369.23	10.827
369.59	10.934
369.95	10.515
370.31	10.684
370.67	10.725
371.03	10.712
371.39	11.297
371.75	10.588
372.11	11.664
372.47	10.850
372.83	11.888
373.19	9.971
373.55	11.160
373.91	11.119
374.27	10.859
374.63	10.691
374.99	11.299
375.35	10.188
375.71	10.966
376.07	11.660
376.42	11.142
376.78	11.663
377.14	11.262
377.50	11.854
377.86	10.904
378.22	11.315
378.58	10.965
378.94	10.874
379.30	10.369
379.66	11.421
380.02	11.302
380.38	10.322
380.74	11.345
381.09	10.880
381.45	11.371
381.81	11.978
382.17	11.720
382.53	11.321
382.89	11.173
383.25	11.132
383.61	11.214
383.97	11.507
384.32	12.102
384.68	10.967
385.04	11.924
385.40	11.703
385.76	10.688
386.12	11.917
386.48	11.580
386.83	11.610
387.19	12.925
387.55	11.565
387.91	11.850
388.27	11.711
388.62	11.924
388.98	11.425
389.34	12.328
389.70	12.201
390.06	12.357
390.42	12.905
390.77	12.214
391.13	11.997
391.49	12.056
391.85	11.649
392.20	11.924
392.56	12.374
392.92	12.184
393.28	11.479
393.64	12.110
393.99	12.462
394.35	11.973
394.71	12.986
395.07	12.336
395.42	12.176
395.78	11.959
396.14	13.097
396.50	13.910
396.85	12.524
397.21	12.515
397.57	13.019
397.92	13.101
398.28	12.388
398.64	12.963
399.00	12.815
399.35	11.957
399.71	12.153
400.07	13.010
400.42	13.374
400.78	13.872
401.14	13.049
401.49	13.433
401.85	13.067
402.21	12.814
402.57	12.893
402.92	14.061
403.28	13.117
403.63	14.171
403.99	12.930
404.35	14.061
404.70	13.729
405.06	13.512
405.42	13.537
405.77	13.143
406.13	13.375
406.49	14.193
406.84	13.999
407.20	12.766
407.55	13.529
407.91	14.667
408.27	13.784
408.62	15.051
408.98	14.706
409.34	14.822
409.69	14.065
410.05	14.126
410.40	14.312
410.76	14.277
411.11	15.501
411.47	13.674
411.83	15.089
412.18	14.657
412.54	14.757
412.89	15.000
413.25	15.289
413.60	14.577
413.96	14.815
414.31	15.067
414.67	15.653
415.03	15.430
415.38	15.593
415.74	14.662
416.09	15.937
416.45	15.060
416.80	15.995
417.16	16.287
417.51	15.992
417.87	15.157
418.22	15.899
418.58	15.623
418.93	16.155
419.29	15.913
419.64	16.310
420.00	16.341
420.35	16.290
420.71	15.900
421.06	15.394
421.42	16.023
421.77	16.312
422.12	15.946
422.48	15.219
422.83	16.075
423.19	15.304
423.54	16.309
423.90	16.696
424.25	15.969
424.61	16.310
424.96	16.268
425.31	16.667
425.67	15.618
426.02	16.343
426.38	16.239
426.73	16.033
427.09	16.353
427.44	16.101
427.79	16.446
428.15	16.607
428.50	16.208
428.85	17.521
429.21	16.400
429.56	15.708
429.92	16.356
430.27	15.889
430.62	15.719
430.98	16.399
431.33	15.567
431.68	15.916
432.04	17.252
432.39	15.934
432.74	16.996
433.10	17.431
433.45	16.910
433.80	16.519
434.16	16.827
434.51	16.632
434.86	17.161
435.22	16.732
435.57	17.629
435.92	16.969
436.28	16.963
436.63	17.384
436.98	16.772
437.34	16.756
437.69	17.620
438.04	16.863
438.39	17.493
438.75	16.560
439.10	17.374
439.45	17.060
439.81	17.039
440.16	17.109
440.51	16.813
440.86	17.429
441.22	17.353
441.57	17.463
441.92	16.786
442.27	17.815
442.63	17.325
442.98	18.141
443.33	17.554
443.68	17.295
444.03	16.642
444.39	16.553
444.74	17.424
445.09	17.305
445.44	17.004
445.79	17.120
446.15	17.893
446.50	17.447
446.85	17.061
447.20	17.440
447.55	18.481
447.91	17.044
448.26	17.140
448.61	17.581
448.96	17.719
449.31	18.504
449.66	17.220
450.02	17.326
450.37	16.440
450.72	16.920
451.07	17.855
451.42	17.204
451.77	18.086
452.12	17.725
452.47	17.786
452.83	17.016
453.18	17.848
453.53	18.615
453.88	17.070
454.23	17.753
454.58	18.292
454.93	18.245
455.28	17.519
455.63	18.083
455.98	18.631
456.34	18.279
456.69	17.595
457.04	18.390
457.39	16.832
457.74	17.760
458.09	17.941
458.44	16.990
458.79	16.594
459.14	17.212
459.49	17.688
459.84	17.452
460.19	17.443
460.54	17.188
460.89	17.718
461.24	17.001
461.59	18.420
461.94	18.064
462.29	17.507
462.64	17.486
462.99	17.892
463.34	18.733
463.69	16.948
464.04	18.725
464.39	17.739
464.74	17.409
465.09	17.793
465.44	17.230
465.79	17.282
466.14	17.515
466.49	17.408
466.84	17.572
467.19	18.346
467.54	18.125
467.89	17.167
468.24	18.325
468.59	17.705
468.94	17.960
469.29	17.738
469.64	18.072
469.99	18.606
470.34	18.494
470.68	17.385
471.03	18.299
471.38	18.277
471.73	17.921
472.08	18.882
472.43	17.588
472.78	17.775
473.13	18.485
473.48	17.728
473.83	17.988
474.17	17.548
474.52	18.362
474.87	18.097
475.22	17.992
475.57	16.926
475.92	17.153
476.27	17.644
476.61	17.485
476.96	17.372
477.31	17.582
477.66	17.505
478.01	17.355
478.36	17.345
478.70	16.926
479.05	16.560
479.40	18.168
479.75	17.489
480.10	16.451
480.45	17.040
480.79	16.054
481.14	16.341
481.49	17.133
481.84	16.507
482.19	17.219
482.53	16.606
482.88	16.473
483.23	16.869
483.58	17.106
483.92	17.010
484.27	15.512
484.62	16.509
484.97	15.924
485.31	16.678
485.66	15.487
486.01	14.517
486.36	14.083
486.70	13.543
487.05	14.727
487.40	14.785
487.75	14.869
488.09	15.590
488.44	15.310
488.79	16.420
489.13	16.043
489.48	16.028
489.83	15.969
490.17	16.352
490.52	16.608
490.87	15.830
491.22	16.735
491.56	15.626
491.91	16.566
492.26	16.812
492.60	15.760
492.95	15.575
493.30	15.748
493.64	15.726
493.99	15.785
494.34	16.374
494.68	16.896
495.03	16.823
495.37	15.682
495.72	16.326
496.07	16.288
496.41	15.885
496.76	15.831
497.11	16.254
497.45	16.116
497.80	16.219
498.14	15.942
498.49	16.293
498.84	16.395
499.18	15.762
499.53	16.714
499.87	16.170
500.22	15.921
500.56	17.087
500.91	15.625
501.26	15.884
501.60	16.469
501.95	16.132
502.29	16.448
502.64	16.108
502.98	15.662
503.33	16.225
503.67	15.870
504.02	15.669
504.36	16.706
504.71	15.877
505.06	16.145
505.40	15.751
505.75	15.526
506.09	16.424
506.44	16.379
506.78	16.025
507.13	16.507
507.47	16.111
507.82	16.160
508.16	16.920
508.51	16.844
508.85	16.187
509.19	15.663
509.54	16.122
509.88	16.332
510.23	15.938
510.57	16.047
510.92	17.090
511.26	15.930
511.61	16.442
511.95	15.814
512.30	16.066
512.64	16.067
512.98	16.184
513.33	17.024
513.67	16.275
514.02	15.314
514.36	16.658
514.70	16.547
515.05	16.118
515.39	16.938
515.74	15.935
516.08	17.608
516.42	15.649
516.77	17.224
517.11	15.816
517.46	16.761
517.80	16.260
518.14	15.634
518.49	17.153
518.83	17.614
519.17	16.109
519.52	17.035
519.86	16.600
520.20	18.092
520.55	16.756
520.89	17.579
521.23	17.973
521.58	17.047
521.92	17.636
522.26	16.595
522.61	17.819
522.95	17.127
523.29	16.616
523.64	17.622
523.98	17.683
524.32	16.767
524.66	17.679
525.01	16.973
525.35	17.410
525.69	16.810
526.04	16.698
526.38	16.840
526.72	17.853
527.06	17.765
527.41	16.832
527.75	17.363
528.09	17.662
528.43	17.145
528.78	17.701
529.12	16.909
529.46	17.269
529.80	17.636
530.15	18.193
530.49	17.415
530.83	17.848
531.17	18.277
531.51	17.250
531.86	17.613
532.20	18.253
532.54	18.001
532.88	17.908
533.22	18.114
533.57	17.037
533.91	16.556
534.25	17.375
534.59	16.656
534.93	17.787
535.27	16.838
535.62	17.705
535.96	16.824
536.30	17.228
536.64	17.901
536.98	17.452
537.32	18.367
537.66	17.467
538.01	17.577
538.35	17.518
538.69	18.251
539.03	16.569
539.37	17.125
539.71	16.915
540.05	17.320
540.39	17.874
540.73	18.111
541.07	17.910
541.42	18.069
541.76	18.323
542.10	17.723
542.44	16.755
542.78	18.841
543.12	16.251
543.46	17.902
543.80	17.111
544.14	16.816
544.48	17.524
544.82	17.768
545.16	17.306
545.50	16.838
545.84	17.070
546.18	17.643
546.52	16.999
546.86	16.770
547.20	17.802
547.54	17.635
547.88	17.793
548.22	16.625
548.56	17.862
548.90	16.197
549.24	17.239
549.58	16.917
549.92	17.308
550.26	17.898
550.60	16.943
550.94	17.817
551.28	17.557
551.62	18.692
551.96	17.754
552.30	18.157
552.64	17.039
552.98	16.814
553.32	17.532
553.66	17.519
554.00	17.090
554.34	16.563
554.68	18.598
555.02	17.842
555.36	16.980
555.69	17.794
556.03	15.680
556.37	16.439
556.71	16.439
557.05	16.387
557.39	17.915
557.73	17.361
558.07	17.186
558.41	16.932
558.75	17.487
559.08	17.375
559.42	17.234
559.76	17.426
560.10	16.988
560.44	17.680
560.78	16.567
561.12	16.557
561.45	16.558
561.79	16.348
562.13	16.767
562.47	16.393
562.81	16.946
563.15	16.388
563.48	16.578
563.82	17.025
564.16	15.762
564.50	15.820
564.84	16.308
565.17	15.959
565.51	15.463
565.85	16.497
566.19	16.656
566.52	16.466
566.86	16.215
567.20	16.333
567.54	15.811
567.88	14.938
568.21	14.921
568.55	15.268
568.89	14.543
569.23	14.483
569.56	13.968
569.90	14.000
570.24	13.599
570.57	14.077
570.91	13.413
571.25	13.650
571.59	12.931
571.92	13.479
572.26	13.258
572.60	13.664
572.93	13.403
573.27	13.191
573.61	13.149
573.95	13.075
574.28	12.513
574.62	12.852
574.96	12.378
575.29	13.191
575.63	12.957
575.97	12.861
576.30	13.064
576.64	12.459
576.98	12.251
577.31	12.523
577.65	12.573
577.98	12.203
578.32	12.391
578.66	12.264
578.99	12.417
579.33	12.636
579.67	12.357
580.00	12.515
580.34	12.553
580.67	12.290
581.01	12.593
581.35	12.334
581.68	12.051
582.02	11.702
582.35	12.170
582.69	12.545
583.02	11.802
583.36	12.566
583.70	12.537
584.03	12.696
584.37	13.307
584.70	12.409
585.04	12.109
585.37	12.325
585.71	12.336
586.04	12.829
586.38	12.696
586.72	13.173
587.05	12.415
587.39	12.084
587.72	12.316
588.06	12.460
588.39	12.867
588.73	12.643
589.06	12.777
589.40	12.997
589.73	13.164
590.07	12.776
590.40	12.861
590.73	13.271
591.07	13.228
591.40	13.496
591.74	13.766
592.07	13.831
592.41	13.063
592.74	13.071
593.08	12.758
593.41	12.623
593.75	12.180
594.08	12.705
594.41	12.831
594.75	13.050
595.08	12.276
595.42	12.995
595.75	12.678
596.09	13.218
596.42	13.281
596.75	13.423
597.09	13.939
597.42	12.690
597.75	13.497
598.09	13.217
598.42	12.844
598.76	12.687
599.09	12.657
599.42	12.445
599.76	12.701
600.09	12.131
600.42	12.272
600.76	12.357
601.09	12.386
601.42	12.709
601.76	13.093
602.09	12.490
602.42	13.057
602.76	12.979
603.09	12.628
603.42	12.925
603.76	12.233
604.09	12.447
604.42	12.475
604.76	13.243
605.09	12.888
605.42	12.698
605.75	12.376
606.09	12.403
606.42	12.219
606.75	12.567
607.09	12.767
607.42	11.724
607.75	11.941
608.08	12.419
608.42	12.999
608.75	12.940
609.08	12.442
609.41	12.232
609.75	12.720
610.08	12.724
610.41	12.291
610.74	12.110
611.07	13.291
611.41	12.758
611.74	13.122
612.07	13.251
612.40	13.431
612.73	13.053
613.07	13.039
613.40	13.060
613.73	11.851
614.06	12.527
614.39	12.166
614.72	12.842
615.06	13.761
615.39	12.951
615.72	12.372
616.05	12.653
616.38	13.563
616.71	13.124
617.05	13.251
617.38	13.349
617.71	13.694
618.04	13.221
618.37	13.187
618.70	13.628
619.03	14.013
619.36	13.781
619.69	13.944
620.03	14.423
620.36	14.305
620.69	14.041
621.02	14.676
621.35	14.017
621.68	14.019
622.01	15.325
622.34	13.691
622.67	14.221
623.00	12.766
623.33	13.081
623.66	14.010
623.99	13.697
624.32	13.338
624.65	13.771
624.99	12.890
625.32	12.889
625.65	13.373
625.98	14.374
626.31	13.997
626.64	13.959
626.97	13.799
627.30	13.051
627.63	15.094
627.96	14.971
628.29	14.523
628.62	15.371
628.95	15.660
629.28	15.602
629.61	14.574
629.94	14.762
630.26	14.299
630.59	14.776
630.92	16.092
631.25	14.709
631.58	15.415
631.91	15.112
632.24	14.979
632.57	14.795
632.90	15.351
633.23	15.436
633.56	16.045
633.89	16.308
634.22	14.869
634.55	16.450
634.88	14.491
635.20	16.010
635.53	16.145
635.86	17.079
636.19	15.765
636.52	16.263
636.85	16.151
637.18	16.129
637.51	17.021
637.83	14.673
638.16	17.647
638.49	16.751
638.82	17.952
639.15	17.250
639.48	17.332
639.81	16.890
640.13	16.016
640.46	16.779
640.79	16.513
641.12	15.681
641.45	17.039
641.77	17.673
642.10	17.836
642.43	16.366
642.76	16.718
643.09	18.865
643.41	17.754
643.74	18.519
644.07	18.902
644.40	19.172
644.73	18.110
645.05	18.859
645.38	18.167
645.71	18.035
646.04	18.272
646.36	19.533
646.69	19.398
647.02	18.027
647.35	17.354
647.67	21.239
648.00	19.675
648.33	17.492
648.66	18.030
648.98	18.741
649.31	16.293
649.64	17.937
649.96	17.288
650.29	18.641
650.62	13.430
650.94	16.207
651.27	19.426
651.60	19.468
651.92	19.169
652.25	16.775
652.58	17.290
652.90	19.747
653.23	16.333
653.56	17.480
653.88	18.067
654.21	17.852
654.54	18.152
654.86	18.847
655.19	15.135
655.52	9.504
655.84	6.989
656.17	8.924
656.49	12.278
656.82	12.672
657.15	9.990
657.47	7.578
657.80	5.929
658.13	6.197
658.45	9.650
658.78	9.510
659.10	10.333
659.43	11.198
659.75	11.612
660.08	13.101
660.41	14.711
660.73	17.408
661.06	17.038
661.38	20.545
661.71	19.231
662.03	20.513
662.36	17.296
662.68	19.277
663.01	20.606
663.33	18.896
663.66	19.118
663.98	18.575
664.31	19.118
664.63	18.421
664.96	18.310
665.28	20.492
665.61	19.298
665.93	19.316
666.26	20.487
666.58	18.619
666.91	21.776
667.23	18.202
667.56	17.279
667.88	21.368
668.21	20.896
668.53	18.221
668.86	19.913
669.18	21.109
669.50	20.652
669.83	22.222
670.15	19.333
670.48	19.172
670.80	19.612
671.13	21.656
671.45	18.511
671.77	22.403
672.10	19.039
672.42	16.431
672.75	16.750
673.07	17.077
673.39	16.637
673.72	18.555
674.04	19.020
674.37	19.417
674.69	16.155
675.01	18.619
675.34	21.355
675.66	20.632
675.98	17.923
676.31	18.908
676.63	20.382
676.95	20.545
677.28	17.757
677.60	19.780
677.92	20.886
678.25	17.864
678.57	20.319
678.89	19.639
679.22	18.271
679.54	20.802
679.86	18.165
680.18	18.247
680.51	18.262
680.83	19.395
681.15	17.736
681.48	19.660
681.80	19.149
682.12	17.816
682.44	15.861
682.77	20.570
683.09	21.888
683.41	19.290
683.73	18.985
684.06	17.562
684.38	21.331
684.70	19.574
685.02	18.386
685.34	15.751
685.67	16.958
685.99	14.777
686.31	15.529
686.63	14.311
686.96	17.679
687.28	18.592
687.60	16.304
687.92	17.185
688.24	17.871
688.56	20.080
688.89	20.332
689.21	21.616
689.53	19.415
689.85	21.064
690.17	18.427
690.49	21.231
690.82	21.262
691.14	20.312
691.46	18.987
691.78	18.675
692.10	19.421
692.42	19.960
692.74	18.050
693.06	18.511
693.39	21.150
693.71	15.502
694.03	21.474
694.35	17.749
694.67	23.112
694.99	20.488
695.31	19.853
695.63	21.292
695.95	19.804
696.27	16.244
696.59	22.280
696.91	20.984
697.23	19.249
697.56	18.337
697.88	14.315
698.20	18.542
698.52	17.849
698.84	19.154
699.16	17.281
699.48	19.477
699.80	23.430
700.12	21.039
700.44	21.751
700.76	20.718
701.08	22.126
701.40	18.715
701.72	23.907
702.04	25.284
702.36	20.680
702.68	22.946
703.00	18.560
703.32	21.011
703.64	22.520
703.96	22.006
704.28	23.837
704.60	20.235
704.91	22.552
705.23	26.393
705.55	22.924
705.87	25.581
706.19	23.675
706.51	24.611
706.83	24.242
707.15	24.370
707.47	17.172
707.79	21.622
708.11	22.603
708.43	18.333
708.74	18.878
709.06	23.377
709.38	19.948
709.70	22.093
710.02	23.145
710.34	22.424
710.66	21.791
710.98	23.580
711.29	21.512
711.61	24.189
711.93	20.513
712.25	26.045
712.57	26.471
712.89	23.875
713.20	24.012
713.52	24.342
713.84	21.835
714.16	24.085
714.48	23.276
714.80	24.316
715.11	23.343
715.43	21.662
715.75	19.710
716.07	26.198
716.39	21.003
716.70	24.252
717.02	21.583
717.34	26.855
717.66	24.254
717.97	29.084
718.29	26.296
718.61	27.007
718.93	27.206
719.24	26.298
719.56	22.712
719.88	27.797
720.20	28.716
720.51	24.739
720.83	26.394
721.15	19.030
721.46	25.532
721.78	25.806
722.10	22.642
722.42	25.188
722.73	25.843
723.05	25.820
723.37	23.482
723.68	25.483
724.00	26.829
724.32	25.403
724.63	26.829
724.95	28.452
725.27	25.506
725.58	26.562
725.90	26.642
726.22	26.792
726.53	27.431
726.85	27.304
727.16	23.488
727.48	23.404
727.80	26.894
728.11	27.174
728.43	25.769
728.74	30.824
729.06	29.562
729.38	30.515
729.69	24.911
730.01	24.232
730.32	26.389
730.64	23.746
730.96	25.083
731.27	26.159
731.59	23.853
731.90	25.364
732.22	22.050
732.53	23.220
732.85	22.756
733.16	19.293
733.48	25.914
733.80	23.377
734.11	23.885
734.43	24.556
734.74	20.000
735.06	19.198
735.37	25.434
735.69	19.745
736.00	23.529
736.32	21.495
736.63	27.157
736.95	24.920
737.26	16.667
737.58	21.290
737.89	25.753
738.21	24.915
738.52	19.643
738.83	26.415
739.15	25.000
739.46	22.993
739.78	25.000
740.09	24.000
740.41	26.452
740.72	26.829
741.04	24.444
741.35	25.417
741.66	32.889
741.98	28.302
742.29	34.928
742.61	34.914
742.92	29.864
743.23	28.205
743.55	30.400
743.86	28.509
744.18	37.611
744.49	34.450
744.80	31.455
745.12	32.273
745.43	29.075
745.74	33.333
746.06	29.358
746.37	33.184
746.68	32.127
747.00	31.481
747.31	35.238
747.62	27.876
747.94	30.837
748.25	29.362
748.56	34.361
748.88	26.238
749.19	33.500
749.50	33.023
749.82	26.423
750.13	24.082
750.44	25.912
750.75	23.509
751.07	27.331
751.38	26.829
751.69	27.076
752.01	26.692
752.32	25.271
752.63	25.532
752.94	24.180
753.26	30.400
753.57	21.951
753.88	27.734
754.19	23.214
754.51	30.903
754.82	27.076
755.13	29.057
755.44	25.188
755.75	23.358
756.07	22.340
756.38	22.628
756.69	21.812
757.00	22.455
757.31	19.585
757.63	22.222
757.94	19.839
758.25	21.814
758.56	17.037
758.87	21.505
759.18	22.727
759.50	22.257
759.81	21.184
760.12	17.812
760.43	22.636
760.74	20.924
761.05	20.904
761.36	18.984
761.67	23.580
761.99	22.050
762.30	26.389
762.61	22.519
762.92	28.516
763.23	28.151
763.54	28.800
763.85	22.656
764.16	27.308
764.47	32.319
764.78	22.261
765.10	18.671
765.41	21.829
765.72	23.353
766.03	20.376
766.34	24.333
766.65	28.511
766.96	28.632
767.27	33.503
767.58	35.417
767.89	38.421
768.20	33.908
768.51	36.041
768.82	36.697
769.13	26.829
769.44	23.482
769.75	24.034
770.06	26.606
770.37	33.937
770.68	28.704
770.99	27.556
771.30	24.590
771.61	29.596
771.92	27.869
772.23	32.773
772.54	35.385
772.85	37.696
773.16	34.043
773.47	40.761
773.78	37.056
774.09	34.524
774.39	38.596
774.70	37.654
775.01	44.203
775.32	45.098
775.63	42.105
775.94	33.094
776.25	42.520
776.56	53.731
776.87	49.180
777.18	42.969
777.48	50.382
777.79	47.727
778.10	48.889
778.41	42.857
778.72	50.365
779.03	46.980
779.34	44.295
779.65	31.757
779.95	34.969
780.26	39.216
780.57	42.069
780.88	50.000
781.19	45.865
781.50	50.676
781.80	42.767
782.11	39.548
782.42	33.544
782.73	37.423
783.04	39.865
783.34	40.845
783.65	47.945
783.96	45.522
784.27	43.357
784.57	46.763
784.88	43.519
785.19	47.619
785.50	51.887
785.81	44.776
786.11	48.361
786.42	50.388
786.73	49.558
787.04	54.717
787.34	50.000
787.65	56.000
787.96	42.342
788.26	44.628
788.57	54.237
788.88	53.719
789.19	44.444
789.49	48.485
789.80	48.855
790.11	70.476
790.41	63.366
790.72	54.217
791.03	57.609
791.33	65.116
791.64	61.856
791.95	60.396
792.25	56.667
792.56	55.844
792.87	85.897
793.17	78.481
793.48	67.816
793.79	59.770
794.09	69.318
794.40	50.420
794.70	49.265
795.01	43.704
795.32	43.165
795.62	45.669
795.93	50.862
796.23	51.327
796.54	55.294
796.85	71.622
797.15	85.915
797.46	69.697
797.76	78.313
798.07	69.620
798.37	84.615
798.68	77.273
798.99	67.606
799.29	72.727
799.60	67.045
799.90	73.973
800.21	83.582
800.51	82.759
800.82	108.772
801.12	86.885
801.43	86.364
801.73	78.378
802.04	93.651
802.34	74.074
802.65	98.437
802.95	100.000
803.26	112.500
803.56	75.714
803.87	78.462
804.17	89.706
804.48	114.815
804.78	98.276
805.09	92.647
805.39	107.692
805.70	110.714
806.00	111.475
806.30	69.697
806.61	63.415
806.91	62.025
807.22	76.316
807.52	62.687
807.83	78.873
808.13	76.563
808.43	90.000
808.74	73.684
809.04	102.899
809.35	89.552
809.65	76.316
809.95	111.290
810.26	93.220
810.56	87.302
810.86	134.091
811.17	123.810
811.47	98.333
811.77	100.000
812.08	98.182
812.38	124.000
812.69	158.333
812.99	154.545
813.29	128.571
813.59	100.000
813.90	130.612
814.20	90.909
814.50	72.308
814.81	107.353
815.11	112.245
815.41	93.443
815.72	140.476
816.02	107.273
816.32	130.952
816.62	107.500
816.93	134.146
817.23	130.952
817.53	120.455
817.84	178.788
818.14	121.739
818.44	106.667
818.74	164.706
819.04	130.000
819.35	142.857
819.65	161.765
819.95	210.714
820.25	195.000
820.56	141.026
820.86	127.273
821.16	146.512
821.46	125.641
821.76	134.000
822.07	162.857
822.37	177.500
822.67	169.697
822.97	105.882
823.27	185.714
823.57	162.162
823.88	130.000
824.18	216.667
824.48	157.143
824.78	196.000
825.08	170.833
825.38	124.324
825.69	156.098
825.99	208.333
826.29	151.724
826.59	163.158
826.89	152.632
827.19	164.706
827.49	180.645
827.79	113.636
828.09	129.545
828.39	127.660
828.70	122.449
829.00	174.074
829.30	164.516
829.60	122.500
829.90	353.333
830.20	200.000
830.50	221.739
830.80	200.000
831.10	216.667
831.40	206.667
831.70	182.609
832.00	203.846
832.30	177.778
832.60	262.500
832.90	193.333
833.20	357.143
833.50	203.226
833.80	165.517
834.10	200.000
834.40	253.846
834.70	288.889
835.00	309.524
835.30	157.143
835.60	353.846
835.90	175.862
836.20	321.429
836.50	210.345
836.80	216.000
837.10	183.333
837.40	280.952
837.70	305.882
838.00	211.111
838.30	252.381
838.60	276.190
838.90	184.615
839.19	240.000
839.49	364.286
839.79	325.000
840.09	290.000
840.39	319.048
840.69	239.130
840.99	300.000
841.29	400.000
841.59	350.000
841.88	400.000
842.18	179.310
842.48	257.143
842.78	190.000
843.08	234.783
843.38	193.750
843.68	700.000
843.97	211.538
844.27	213.793
844.57	304.762
844.87	300.000
845.17	200.000
845.47	1400.000
845.76	500.000
846.06	317.647
846.36	525.000
846.66	364.286
846.96	337.500
847.25	481.818
847.55	400.000
847.85	234.783
848.15	520.000
848.44	378.571
848.74	250.000
849.04	323.529
849.34	540.000
849.63	278.947
849.93	463.636
850.23	1040.000
850.53	378.571
850.82	2300.000
851.12	-4700.000
851.42	4200.000
851.71	265.000
852.01	-1366.667
852.31	245.833
852.61	1400.000
852.90	271.429
853.20	252.000
853.50	370.588
853.79	257.143
854.09	241.667
854.39	362.500
854.68	200.000
854.98	174.194
855.28	196.667
855.57	203.448
855.87	214.815
856.17	252.632
856.46	273.333
856.76	294.118
857.05	255.172
857.35	229.167
857.65	373.333
857.94	247.826
858.24	238.462
858.53	295.000
858.83	240.909
859.13	373.333
859.42	0.000
859.72	522.222
860.01	409.091
860.31	259.091
860.60	321.053
860.90	265.217
861.20	455.556
861.49	425.000
861.79	-4100.000
862.08	700.000
862.38	238.095
862.67	400.000
862.97	347.059
863.26	544.444
863.56	305.556
863.85	333.333
864.15	712.500
864.44	346.667
864.74	983.333
865.03	612.500
865.33	252.632
865.62	490.909
865.92	476.923
866.21	433.333
866.51	0.000
866.80	418.182
867.10	1200.000
867.39	423.077
867.69	463.636
867.98	342.105
868.27	436.364
868.57	289.474
868.86	-3600.000
869.16	350.000
869.45	2400.000
869.75	-4600.000
870.04	450.000
870.33	685.714
870.63	1100.000
870.92	2550.000
871.22	871.429
871.51	288.235
871.80	219.048
872.10	392.857
>>>>>End Processed Spectral Data<<<<<
