SpectraSuite Data File
++++++++++++++++++++++++++++++++++++
Date: Wed May 13 19:43:42 PDT 2015
User: schluterlab
Dark Spectrum Present: Yes
Reference Spectrum Present: Yes
Number of Sampled Component Spectra: 1
Spectrometers: USB2E3373
Integration Time (usec): 3000 (USB2E3373)
Spectra Averaged: 3 (USB2E3373)
Boxcar Smoothing: 0 (USB2E3373)
Correct for Electrical Dark: No (USB2E3373)
Strobe/Lamp Enabled: No (USB2E3373)
Correct for Detector Non-linearity: No (USB2E3373)
Correct for Stray Light: No (USB2E3373)
Number of Pixels in Processed Spectrum: 2048
>>>>>Begin Processed Spectral Data<<<<<
178.53	0.000
178.91	-1000.000
179.29	-1275.000
179.67	-216.667
180.04	-1225.000
180.42	3100.000
180.80	960.000
181.18	-1050.000
181.56	685.714
181.94	0.000
182.31	-685.714
182.69	1966.667
183.07	-512.500
183.45	-533.333
183.83	609.091
184.20	-300.000
184.58	2600.000
184.96	5200.000
185.34	-800.000
185.72	-550.000
186.09	-2700.000
186.47	2600.000
186.85	2550.000
187.23	5400.000
187.61	-1666.667
187.98	1450.000
188.36	600.000
188.74	500.000
189.12	-1000.000
189.49	440.000
189.87	-5300.000
190.25	-1300.000
190.63	414.286
191.00	415.385
191.38	866.667
191.76	-1425.000
192.14	1375.000
192.51	587.500
192.89	1116.667
193.27	625.000
193.65	-1050.000
194.02	480.000
194.40	960.000
194.78	540.000
195.15	450.000
195.53	560.000
195.91	-2000.000
196.29	368.750
196.66	347.368
197.04	-400.000
197.42	0.000
197.79	540.000
198.17	-4600.000
198.55	714.286
198.92	675.000
199.30	1040.000
199.68	0.000
200.05	311.111
200.43	700.000
200.81	4500.000
201.18	1866.667
201.56	-1066.667
201.94	566.667
202.31	522.222
202.69	483.333
203.07	560.000
203.44	0.000
203.82	925.000
204.19	800.000
204.57	442.857
204.95	637.500
205.32	1400.000
205.70	490.909
206.08	335.714
206.45	2500.000
206.83	362.500
207.20	1000.000
207.58	840.000
207.96	355.556
208.33	712.500
208.71	-966.667
209.08	714.286
209.46	566.667
209.84	536.364
210.21	-1466.667
210.59	1650.000
210.96	-512.500
211.34	2600.000
211.71	550.000
212.09	850.000
212.46	0.000
212.84	1566.667
213.22	1600.000
213.59	-3500.000
213.97	1050.000
214.34	757.143
214.72	581.818
215.09	1200.000
215.47	-1800.000
215.84	-2300.000
216.22	1633.333
216.59	400.000
216.97	1300.000
217.34	500.000
217.72	-716.667
218.09	0.000
218.47	-4300.000
218.84	611.111
219.22	642.857
219.59	1633.333
219.97	-714.286
220.34	940.000
220.72	-1666.667
221.09	400.000
221.47	1550.000
221.84	-1050.000
222.22	0.000
222.59	1425.000
222.97	-2500.000
223.34	1380.000
223.72	407.692
224.09	1000.000
224.46	2000.000
224.84	-5500.000
225.21	-1120.000
225.59	-4600.000
225.96	560.000
226.34	290.000
226.71	2700.000
227.08	650.000
227.46	450.000
227.83	-1075.000
228.21	-2350.000
228.58	644.444
228.95	-2600.000
229.33	-2200.000
229.70	1500.000
230.08	785.714
230.45	-820.000
230.82	425.000
231.20	816.667
231.57	785.714
231.95	591.667
232.32	231.818
232.69	409.091
233.07	671.429
233.44	361.538
233.81	-1433.333
234.19	268.421
234.56	466.667
234.93	408.333
235.31	463.636
235.68	338.462
236.05	314.286
236.43	169.697
236.80	242.105
237.17	3300.000
237.55	214.286
237.92	200.000
238.29	242.857
238.67	164.516
239.04	175.862
239.41	150.000
239.79	108.696
240.16	128.571
240.53	122.727
240.91	82.353
241.28	106.000
241.65	94.000
242.02	78.261
242.40	88.710
242.77	78.333
243.14	67.742
243.51	64.045
243.89	58.824
244.26	50.000
244.63	55.914
245.00	54.255
245.38	49.505
245.75	46.729
246.12	35.780
246.49	56.204
246.87	55.200
247.24	43.846
247.61	38.571
247.98	38.562
248.36	37.162
248.73	36.943
249.10	36.943
249.47	28.249
249.84	33.690
250.22	30.481
250.59	30.769
250.96	34.343
251.33	38.863
251.70	33.663
252.08	25.238
252.45	21.525
252.82	26.522
253.19	31.064
253.56	26.275
253.94	28.631
254.31	25.781
254.68	28.846
255.05	23.616
255.42	23.577
255.79	23.897
256.16	25.993
256.54	21.555
256.91	19.217
257.28	19.784
257.65	23.432
258.02	26.087
258.39	21.451
258.76	19.064
259.14	21.726
259.51	18.845
259.88	17.702
260.25	20.544
260.62	20.809
260.99	22.360
261.36	17.117
261.73	17.765
262.10	14.535
262.47	20.845
262.85	18.106
263.22	16.524
263.59	18.519
263.96	17.582
264.33	17.232
264.70	17.895
265.07	19.182
265.44	17.677
265.81	17.762
266.18	16.080
266.55	18.293
266.92	15.725
267.29	17.593
267.66	15.596
268.03	18.182
268.40	14.486
268.77	13.126
269.14	13.739
269.51	18.284
269.88	16.084
270.25	16.027
270.62	15.955
270.99	17.634
271.36	15.451
271.73	15.888
272.10	16.304
272.47	14.839
272.84	17.100
273.21	17.400
273.58	15.066
273.95	14.885
274.32	14.876
274.69	13.919
275.06	13.976
275.43	15.745
275.80	16.032
276.17	13.849
276.54	16.008
276.91	14.822
277.28	12.695
277.65	15.667
278.02	12.215
278.39	15.820
278.76	14.182
279.13	15.283
279.50	14.339
279.87	13.944
280.23	13.772
280.60	12.379
280.97	12.200
281.34	13.274
281.71	15.455
282.08	13.052
282.45	12.364
282.82	12.256
283.19	11.230
283.56	14.386
283.92	13.367
284.29	11.817
284.66	12.341
285.03	12.297
285.40	11.444
285.77	11.448
286.14	11.226
286.51	13.000
286.87	13.846
287.24	13.355
287.61	12.199
287.98	12.338
288.35	12.044
288.72	12.617
289.08	11.894
289.45	10.544
289.82	13.171
290.19	10.832
290.56	12.251
290.93	10.876
291.29	11.043
291.66	10.914
292.03	11.483
292.40	12.775
292.77	9.763
293.13	12.090
293.50	10.787
293.87	11.259
294.24	9.926
294.60	10.917
294.97	11.773
295.34	11.989
295.71	9.801
296.08	9.687
296.44	9.766
296.81	9.643
297.18	11.382
297.55	8.707
297.91	8.707
298.28	11.647
298.65	9.791
299.02	9.750
299.38	8.898
299.75	8.221
300.12	9.068
300.48	9.625
300.85	8.631
301.22	9.172
301.59	8.965
301.95	8.312
302.32	8.858
302.69	9.319
303.05	9.576
303.42	8.889
303.79	9.400
304.15	8.508
304.52	9.270
304.89	8.943
305.25	9.049
305.62	10.193
305.99	9.799
306.35	9.060
306.72	9.978
307.09	9.545
307.45	9.009
307.82	7.813
308.19	9.382
308.55	10.140
308.92	9.667
309.29	9.504
309.65	8.908
310.02	9.514
310.38	9.140
310.75	8.976
311.12	10.031
311.48	10.554
311.85	10.168
312.22	10.718
312.58	9.979
312.95	11.088
313.31	8.835
313.68	10.915
314.05	12.623
314.41	10.955
314.78	12.185
315.14	11.023
315.51	11.329
315.87	11.881
316.24	11.917
316.61	12.573
316.97	12.524
317.34	11.644
317.70	12.906
318.07	13.859
318.43	13.699
318.80	14.058
319.16	15.160
319.53	14.259
319.89	16.095
320.26	15.600
320.62	15.476
320.99	17.273
321.35	14.747
321.72	17.146
322.08	19.052
322.45	19.104
322.81	18.411
323.18	18.882
323.54	18.089
323.91	19.434
324.27	19.790
324.64	18.546
325.00	19.116
325.37	21.201
325.73	21.275
326.10	21.271
326.46	20.968
326.83	20.880
327.19	21.520
327.56	21.864
327.92	22.922
328.29	22.981
328.65	22.744
329.01	24.549
329.38	24.329
329.74	23.269
330.11	24.128
330.47	23.875
330.84	26.195
331.20	24.954
331.56	25.963
331.93	26.204
332.29	24.756
332.66	26.106
333.02	24.314
333.38	26.739
333.75	25.401
334.11	25.712
334.48	26.353
334.84	26.195
335.20	26.727
335.57	25.748
335.93	24.732
336.29	26.557
336.66	26.060
337.02	25.973
337.38	27.315
337.75	25.936
338.11	25.694
338.47	27.440
338.84	26.948
339.20	26.789
339.56	29.015
339.93	27.818
340.29	27.264
340.65	28.253
341.02	28.098
341.38	27.046
341.74	27.719
342.11	28.908
342.47	27.841
342.83	28.938
343.20	28.745
343.56	27.633
343.92	28.509
344.28	29.167
344.65	29.063
345.01	28.620
345.37	29.074
345.73	29.272
346.10	30.179
346.46	29.492
346.82	29.489
347.19	29.156
347.55	29.228
347.91	29.531
348.27	30.403
348.63	29.766
349.00	29.369
349.36	28.489
349.72	29.751
350.08	29.660
350.45	30.513
350.81	29.813
351.17	30.794
351.53	31.286
351.89	31.188
352.26	30.860
352.62	30.874
352.98	31.442
353.34	31.553
353.70	31.178
354.07	31.532
354.43	30.159
354.79	30.652
355.15	32.083
355.51	32.374
355.87	31.592
356.24	32.410
356.60	30.714
356.96	33.146
357.32	32.870
357.68	32.441
358.04	32.621
358.40	33.017
358.77	34.116
359.13	31.807
359.49	33.961
359.85	32.143
360.21	33.014
360.57	33.541
360.93	34.385
361.29	33.560
361.66	33.746
362.02	34.478
362.38	34.449
362.74	35.119
363.10	33.753
363.46	33.822
363.82	35.601
364.18	34.288
364.54	35.587
364.90	35.482
365.26	35.809
365.62	35.573
365.98	35.281
366.35	34.527
366.71	35.719
367.07	35.907
367.43	36.720
367.79	36.902
368.15	36.853
368.51	35.174
368.87	36.617
369.23	36.357
369.59	38.088
369.95	37.794
370.31	37.393
370.67	37.246
371.03	36.779
371.39	38.265
371.75	37.941
372.11	37.340
372.47	38.563
372.83	38.689
373.19	37.283
373.55	38.359
373.91	39.764
374.27	37.595
374.63	38.473
374.99	39.760
375.35	39.428
375.71	37.971
376.07	39.095
376.42	39.821
376.78	39.430
377.14	39.552
377.50	39.404
377.86	39.694
378.22	40.139
378.58	40.226
378.94	39.158
379.30	40.776
379.66	40.990
380.02	41.216
380.38	39.162
380.74	41.357
381.09	39.914
381.45	41.364
381.81	41.216
382.17	42.484
382.53	41.761
382.89	41.605
383.25	41.964
383.61	41.945
383.97	43.152
384.32	42.296
384.68	42.441
385.04	42.963
385.40	41.981
385.76	42.322
386.12	43.588
386.48	42.857
386.83	43.618
387.19	44.094
387.55	42.981
387.91	42.503
388.27	43.286
388.62	44.069
388.98	43.059
389.34	43.992
389.70	43.838
390.06	44.613
390.42	44.099
390.77	43.257
391.13	44.927
391.49	43.084
391.85	43.985
392.20	42.650
392.56	45.455
392.92	43.673
393.28	43.491
393.64	44.604
393.99	44.288
394.35	42.494
394.71	43.977
395.07	43.925
395.42	44.994
395.78	44.656
396.14	44.755
396.50	45.677
396.85	44.247
397.21	43.218
397.57	44.823
397.92	45.012
398.28	44.675
398.64	43.070
399.00	44.320
399.35	43.429
399.71	44.387
400.07	44.589
400.42	44.294
400.78	44.813
401.14	45.671
401.49	44.239
401.85	43.678
402.21	44.012
402.57	46.021
402.92	44.830
403.28	45.034
403.63	45.235
403.99	45.796
404.35	45.576
404.70	44.964
405.06	44.380
405.42	45.415
405.77	44.286
406.13	43.962
406.49	44.352
406.84	44.123
407.20	43.735
407.55	45.182
407.91	45.533
408.27	45.948
408.62	43.408
408.98	44.118
409.34	44.588
409.69	44.387
410.05	44.857
410.40	44.526
410.76	44.803
411.11	44.029
411.47	43.642
411.83	43.861
412.18	44.156
412.54	44.022
412.89	46.265
413.25	44.038
413.60	44.657
413.96	43.777
414.31	44.107
414.67	45.311
415.03	43.642
415.38	44.716
415.74	44.952
416.09	45.395
416.45	43.173
416.80	44.085
417.16	44.906
417.51	43.265
417.87	43.031
418.22	44.543
418.58	44.609
418.93	44.349
419.29	43.794
419.64	44.962
420.00	44.024
420.35	43.536
420.71	43.395
421.06	43.317
421.42	44.035
421.77	43.610
422.12	43.403
422.48	42.526
422.83	43.623
423.19	42.376
423.54	43.471
423.90	43.478
424.25	43.439
424.61	42.857
424.96	43.090
425.31	42.470
425.67	41.910
426.02	41.371
426.38	42.796
426.73	42.130
427.09	43.465
427.44	42.151
427.79	41.691
428.15	42.738
428.50	43.066
428.85	43.325
429.21	41.579
429.56	42.094
429.92	42.476
430.27	41.509
430.62	40.297
430.98	41.463
431.33	41.186
431.68	41.204
432.04	40.895
432.39	41.576
432.74	40.934
433.10	41.539
433.45	42.974
433.80	41.630
434.16	41.132
434.51	40.368
434.86	41.562
435.22	41.078
435.57	40.912
435.92	40.374
436.28	41.400
436.63	41.611
436.98	40.870
437.34	41.383
437.69	40.490
438.04	40.022
438.39	40.299
438.75	41.546
439.10	41.117
439.45	40.791
439.81	40.725
440.16	39.130
440.51	40.656
440.86	40.822
441.22	39.655
441.57	40.340
441.92	40.225
442.27	40.527
442.63	39.652
442.98	39.887
443.33	40.326
443.68	39.339
444.03	40.459
444.39	39.776
444.74	40.314
445.09	39.569
445.44	38.983
445.79	38.545
446.15	38.962
446.50	39.149
446.85	38.181
447.20	40.133
447.55	38.805
447.91	38.389
448.26	38.286
448.61	38.383
448.96	39.313
449.31	38.470
449.66	39.223
450.02	37.716
450.37	37.755
450.72	38.297
451.07	38.087
451.42	36.778
451.77	38.050
452.12	37.587
452.47	36.940
452.83	37.821
453.18	37.042
453.53	38.899
453.88	36.976
454.23	36.940
454.58	37.371
454.93	39.161
455.28	36.908
455.63	37.561
455.98	38.155
456.34	37.500
456.69	38.009
457.04	36.656
457.39	35.944
457.74	36.622
458.09	36.228
458.44	36.374
458.79	35.412
459.14	36.512
459.49	35.785
459.84	35.457
460.19	35.180
460.54	35.590
460.89	35.272
461.24	36.126
461.59	36.432
461.94	35.882
462.29	36.320
462.64	35.609
462.99	34.873
463.34	35.933
463.69	34.334
464.04	35.478
464.39	34.609
464.74	35.413
465.09	33.776
465.44	33.906
465.79	34.843
466.14	33.662
466.49	33.537
466.84	33.917
467.19	33.374
467.54	34.000
467.89	33.553
468.24	33.275
468.59	34.371
468.94	33.659
469.29	34.704
469.64	33.735
469.99	33.491
470.34	33.554
470.68	34.626
471.03	32.381
471.38	34.468
471.73	33.644
472.08	33.355
472.43	32.915
472.78	32.126
473.13	32.606
473.48	32.647
473.83	32.561
474.17	32.296
474.52	33.002
474.87	32.283
475.22	31.979
475.57	31.757
475.92	31.386
476.27	32.187
476.61	31.440
476.96	30.951
477.31	30.926
477.66	30.963
478.01	30.789
478.36	30.883
478.70	30.478
479.05	31.203
479.40	30.706
479.75	30.656
480.10	30.467
480.45	30.414
480.79	30.244
481.14	29.941
481.49	29.093
481.84	29.950
482.19	29.805
482.53	29.404
482.88	29.176
483.23	28.692
483.58	29.891
483.92	28.772
484.27	27.712
484.62	28.707
484.97	28.025
485.31	28.836
485.66	27.409
486.01	27.708
486.36	27.054
486.70	26.775
487.05	26.635
487.40	27.171
487.75	26.698
488.09	27.176
488.44	26.985
488.79	27.161
489.13	27.082
489.48	26.835
489.83	27.018
490.17	27.137
490.52	27.414
490.87	27.001
491.22	26.285
491.56	26.241
491.91	27.036
492.26	26.137
492.60	26.452
492.95	25.257
493.30	26.028
493.64	26.692
493.99	25.580
494.34	25.486
494.68	26.511
495.03	25.940
495.37	25.826
495.72	25.195
496.07	26.636
496.41	26.018
496.76	26.121
497.11	24.719
497.45	25.245
497.80	25.960
498.14	25.459
498.49	24.878
498.84	25.168
499.18	24.905
499.53	24.834
499.87	24.790
500.22	24.541
500.56	25.194
500.91	24.760
501.26	23.945
501.60	25.439
501.95	24.198
502.29	24.930
502.64	24.628
502.98	24.077
503.33	23.720
503.67	24.223
504.02	23.901
504.36	24.708
504.71	23.596
505.06	24.145
505.40	23.335
505.75	23.626
506.09	23.518
506.44	23.335
506.78	23.380
507.13	24.230
507.47	23.333
507.82	23.860
508.16	23.303
508.51	24.049
508.85	23.287
509.19	23.622
509.54	22.755
509.88	22.669
510.23	22.468
510.57	23.839
510.92	23.356
511.26	22.302
511.61	23.133
511.95	22.234
512.30	22.534
512.64	23.482
512.98	23.044
513.33	22.163
513.67	21.772
514.02	23.323
514.36	23.211
514.70	22.357
515.05	22.644
515.39	22.658
515.74	22.691
516.08	22.750
516.42	22.253
516.77	22.185
517.11	22.919
517.46	22.460
517.80	22.474
518.14	22.235
518.49	22.579
518.83	22.273
519.17	22.286
519.52	21.902
519.86	22.191
520.20	21.734
520.55	22.741
520.89	22.749
521.23	22.557
521.58	21.068
521.92	21.800
522.26	21.599
522.61	22.118
522.95	21.977
523.29	21.668
523.64	21.829
523.98	21.688
524.32	22.135
524.66	22.189
525.01	22.059
525.35	22.181
525.69	21.367
526.04	21.184
526.38	20.805
526.72	20.982
527.06	21.971
527.41	20.730
527.75	21.865
528.09	20.809
528.43	21.160
528.78	21.205
529.12	20.121
529.46	22.045
529.80	22.339
530.15	21.931
530.49	20.800
530.83	22.089
531.17	21.802
531.51	22.309
531.86	20.258
532.20	21.056
532.54	21.204
532.88	21.245
533.22	19.738
533.57	21.543
533.91	19.988
534.25	21.324
534.59	21.110
534.93	20.464
535.27	20.157
535.62	20.696
535.96	21.155
536.30	20.470
536.64	21.185
536.98	20.902
537.32	20.474
537.66	20.533
538.01	19.947
538.35	20.168
538.69	21.059
539.03	20.078
539.37	19.681
539.71	18.341
540.05	20.523
540.39	20.399
540.73	19.793
541.07	21.415
541.42	20.157
541.76	20.645
542.10	20.440
542.44	19.735
542.78	20.356
543.12	18.746
543.46	20.000
543.80	20.104
544.14	20.154
544.48	20.127
544.82	19.949
545.16	19.649
545.50	19.730
545.84	19.019
546.18	20.337
546.52	19.752
546.86	19.931
547.20	20.094
547.54	19.706
547.88	19.707
548.22	19.365
548.56	19.937
548.90	18.822
549.24	19.125
549.58	19.236
549.92	19.643
550.26	19.673
550.60	19.156
550.94	19.366
551.28	18.800
551.62	19.698
551.96	19.789
552.30	19.795
552.64	19.270
552.98	20.068
553.32	19.960
553.66	20.041
554.00	20.110
554.34	18.427
554.68	20.529
555.02	18.336
555.36	18.720
555.69	18.403
556.03	19.314
556.37	18.827
556.71	19.168
557.05	19.258
557.39	19.104
557.73	18.560
558.07	19.072
558.41	18.307
558.75	19.030
559.08	18.867
559.42	18.896
559.76	19.191
560.10	17.844
560.44	18.379
560.78	17.831
561.12	18.206
561.45	19.231
561.79	17.337
562.13	18.913
562.47	18.101
562.81	18.619
563.15	17.860
563.48	18.700
563.82	18.134
564.16	18.574
564.50	17.253
564.84	18.015
565.17	18.597
565.51	18.147
565.85	18.782
566.19	18.410
566.52	18.556
566.86	18.324
567.20	17.689
567.54	17.466
567.88	17.002
568.21	17.196
568.55	16.734
568.89	17.169
569.23	16.845
569.56	16.923
569.90	16.151
570.24	16.433
570.57	16.253
570.91	15.966
571.25	15.967
571.59	15.788
571.92	15.870
572.26	16.031
572.60	16.186
572.93	15.562
573.27	16.356
573.61	15.913
573.95	15.659
574.28	14.975
574.62	15.355
574.96	15.125
575.29	15.107
575.63	15.396
575.97	15.335
576.30	15.428
576.64	14.658
576.98	15.168
577.31	15.088
577.65	15.244
577.98	14.958
578.32	14.754
578.66	14.759
578.99	14.814
579.33	15.033
579.67	14.887
580.00	14.601
580.34	14.689
580.67	14.843
581.01	14.909
581.35	15.116
581.68	14.636
582.02	14.483
582.35	14.539
582.69	14.705
583.02	14.313
583.36	14.434
583.70	15.285
584.03	14.943
584.37	15.415
584.70	14.655
585.04	14.579
585.37	14.958
585.71	15.061
586.04	14.665
586.38	14.577
586.72	15.493
587.05	14.588
587.39	14.644
587.72	14.738
588.06	14.061
588.39	14.623
588.73	14.726
589.06	15.270
589.40	14.714
589.73	15.488
590.07	14.698
590.40	14.980
590.73	14.403
591.07	15.100
591.40	15.352
591.74	15.714
592.07	15.271
592.41	15.461
592.74	14.906
593.08	14.557
593.41	14.363
593.75	14.397
594.08	14.616
594.41	14.988
594.75	14.270
595.08	14.316
595.42	14.676
595.75	14.779
596.09	15.058
596.42	15.363
596.75	15.070
597.09	15.498
597.42	14.798
597.75	14.920
598.09	15.217
598.42	14.863
598.76	14.512
599.09	14.025
599.42	14.447
599.76	14.861
600.09	13.989
600.42	14.025
600.76	13.464
601.09	13.880
601.42	14.155
601.76	14.421
602.09	14.783
602.42	13.973
602.76	14.994
603.09	14.595
603.42	14.799
603.76	13.796
604.09	13.726
604.42	14.594
604.76	14.930
605.09	15.072
605.42	13.809
605.75	14.363
606.09	14.518
606.42	14.344
606.75	13.646
607.09	14.148
607.42	13.907
607.75	14.599
608.08	14.242
608.42	14.119
608.75	14.022
609.08	13.830
609.41	14.327
609.75	14.483
610.08	15.127
610.41	14.339
610.74	14.853
611.07	14.130
611.41	14.377
611.74	14.731
612.07	14.752
612.40	14.743
612.73	14.368
613.07	15.302
613.40	15.008
613.73	14.211
614.06	14.355
614.39	15.417
614.72	14.579
615.06	14.338
615.39	14.013
615.72	14.162
616.05	14.407
616.38	14.786
616.71	15.143
617.05	14.547
617.38	14.793
617.71	14.174
618.04	14.663
618.37	14.666
618.70	14.312
619.03	15.789
619.36	14.460
619.69	15.775
620.03	14.492
620.36	16.377
620.69	16.370
621.02	15.560
621.35	14.722
621.68	15.031
622.01	15.789
622.34	15.809
622.67	14.525
623.00	15.187
623.33	15.440
623.66	14.582
623.99	14.654
624.32	15.549
624.65	15.042
624.99	14.518
625.32	14.772
625.65	14.576
625.98	15.911
626.31	16.096
626.64	15.347
626.97	15.129
627.30	15.212
627.63	16.407
627.96	16.148
628.29	15.923
628.62	16.102
628.95	17.642
629.28	14.872
629.61	16.774
629.94	15.429
630.26	15.253
630.59	15.729
630.92	15.517
631.25	16.881
631.58	17.017
631.91	16.126
632.24	16.139
632.57	16.369
632.90	16.118
633.23	16.890
633.56	15.819
633.89	17.554
634.22	15.891
634.55	17.870
634.88	16.407
635.20	17.563
635.53	16.988
635.86	16.955
636.19	17.059
636.52	16.609
636.85	16.495
637.18	15.899
637.51	19.149
637.83	15.536
638.16	16.240
638.49	17.758
638.82	17.826
639.15	17.750
639.48	18.329
639.81	17.426
640.13	17.969
640.46	17.181
640.79	17.173
641.12	16.094
641.45	17.737
641.77	17.378
642.10	17.690
642.43	14.865
642.76	19.659
643.09	19.018
643.41	18.209
643.74	18.519
644.07	18.140
644.40	20.859
644.73	19.528
645.05	19.968
645.38	17.378
645.71	20.290
646.04	19.103
646.36	19.366
646.69	19.231
647.02	19.898
647.35	18.041
647.67	17.699
648.00	19.675
648.33	18.152
648.66	18.030
648.98	17.841
649.31	18.236
649.64	19.133
649.96	18.629
650.29	19.115
650.62	18.123
650.94	18.314
651.27	19.932
651.60	19.800
651.92	19.489
652.25	17.590
652.58	18.380
652.90	18.009
653.23	18.490
653.56	16.378
653.88	19.810
654.21	17.852
654.54	19.802
654.86	17.290
655.19	16.486
655.52	11.178
655.84	9.362
656.17	11.879
656.49	16.360
656.82	16.568
657.15	12.720
657.47	9.538
657.80	7.346
658.13	7.717
658.45	11.170
658.78	11.597
659.10	12.104
659.43	13.376
659.75	13.622
660.08	14.367
660.41	16.015
660.73	19.314
661.06	16.242
661.38	22.000
661.71	20.385
662.03	20.710
662.36	20.080
662.68	18.072
663.01	19.798
663.33	19.533
663.66	22.269
663.98	19.222
664.31	19.748
664.63	19.028
664.96	17.103
665.28	20.902
665.61	19.298
665.93	21.932
666.26	18.256
666.58	20.084
666.91	21.142
667.23	21.798
667.56	20.734
667.88	20.726
668.21	20.043
668.53	18.438
668.86	20.563
669.18	22.601
669.50	22.391
669.83	23.094
670.15	20.444
670.48	20.697
670.80	20.690
671.13	20.807
671.45	18.511
671.77	20.774
672.10	18.115
672.42	19.788
672.75	17.745
673.07	17.958
673.39	18.807
673.72	18.359
674.04	20.196
674.37	18.447
674.69	17.587
675.01	19.247
675.34	22.177
675.66	20.632
675.98	19.348
676.31	22.269
676.63	22.505
676.95	23.270
677.28	19.860
677.60	19.560
677.92	22.574
678.25	17.659
678.57	22.112
678.89	18.437
679.22	17.878
679.54	20.992
679.86	19.266
680.18	18.426
680.51	20.035
680.83	19.395
681.15	18.679
681.48	19.849
681.80	19.149
682.12	20.115
682.44	16.054
682.77	18.737
683.09	22.103
683.41	20.399
683.73	20.309
684.06	21.281
684.38	18.591
684.70	19.767
685.02	16.510
685.34	20.513
685.67	18.357
685.99	17.869
686.31	16.724
686.63	17.491
686.96	18.393
687.28	20.036
687.60	16.304
687.92	19.927
688.24	16.350
688.56	19.277
688.89	21.369
689.21	19.432
689.53	20.668
689.85	21.951
690.17	19.669
690.49	23.142
690.82	20.093
691.14	17.857
691.46	18.776
691.78	21.084
692.10	17.975
692.42	20.359
692.74	18.050
693.06	21.702
693.39	20.329
693.71	19.651
694.03	21.474
694.35	20.346
694.67	17.620
694.99	22.439
695.31	21.569
695.63	18.660
695.95	22.005
696.27	18.782
696.59	18.912
696.91	21.503
697.23	18.075
697.56	20.043
697.88	16.973
698.20	19.792
698.52	19.140
698.84	24.053
699.16	21.198
699.48	21.615
699.80	21.498
700.12	24.935
700.44	23.077
700.76	20.718
701.08	23.276
701.40	23.184
701.72	22.449
702.04	28.977
702.36	22.946
702.68	22.096
703.00	22.438
703.32	20.213
703.64	23.861
703.96	23.120
704.28	25.000
704.60	24.633
704.91	26.409
705.23	24.633
705.55	24.252
705.87	28.239
706.19	23.322
706.51	25.545
706.83	26.364
707.15	24.930
707.47	18.939
707.79	20.393
708.11	19.863
708.43	22.143
708.74	19.388
709.06	25.455
709.38	21.785
709.70	22.965
710.02	25.816
710.34	23.333
710.66	24.776
710.98	23.864
711.29	22.674
711.61	28.024
711.93	20.833
712.25	22.830
712.57	25.735
712.89	27.682
713.20	26.444
713.52	23.684
713.84	24.684
714.16	24.390
714.48	23.276
714.80	25.532
715.11	21.037
715.43	21.068
715.75	24.638
716.07	24.281
716.39	22.257
716.70	24.917
717.02	27.698
717.34	25.088
717.66	28.731
717.97	30.279
718.29	24.815
718.61	27.372
718.93	27.941
719.24	27.682
719.56	25.085
719.88	25.424
720.20	27.365
720.51	30.662
720.83	27.881
721.15	30.224
721.46	26.950
721.78	24.373
722.10	23.774
722.42	27.820
722.73	28.090
723.05	23.361
723.37	21.862
723.68	27.413
724.00	28.862
724.32	28.226
724.63	27.236
724.95	28.452
725.27	31.579
725.58	30.859
725.90	29.927
726.22	32.075
726.53	25.694
726.85	29.010
727.16	23.843
727.48	29.787
727.80	25.758
728.11	24.275
728.43	24.615
728.74	29.032
729.06	31.387
729.38	31.985
729.69	29.537
730.01	20.819
730.32	27.778
730.64	23.077
730.96	19.802
731.27	25.497
731.59	29.052
731.90	22.741
732.22	23.292
732.53	23.839
732.85	25.641
733.16	24.116
733.48	28.571
733.80	25.325
734.11	27.389
734.43	25.148
734.74	20.857
735.06	16.905
735.37	27.457
735.69	21.656
736.00	22.549
736.32	24.922
736.63	20.447
736.95	24.281
737.26	18.707
737.58	28.710
737.89	26.756
738.21	24.232
738.52	27.143
738.83	28.302
739.15	25.385
739.46	26.277
739.78	25.000
740.09	26.154
740.41	25.161
740.72	21.603
741.04	26.667
741.35	27.917
741.66	31.111
741.98	22.642
742.29	32.057
742.61	32.759
742.92	28.959
743.23	31.624
743.55	32.400
743.86	34.211
744.18	35.398
744.49	33.493
744.80	35.211
745.12	34.091
745.43	33.921
745.74	31.532
746.06	31.193
746.37	35.426
746.68	32.579
747.00	35.185
747.31	31.429
747.62	27.876
747.94	24.229
748.25	28.511
748.56	31.718
748.88	32.673
749.19	39.500
749.50	30.698
749.82	29.675
750.13	22.857
750.44	25.182
750.75	26.667
751.07	27.653
751.38	23.693
751.69	27.437
752.01	25.188
752.32	23.105
752.63	26.950
752.94	30.328
753.26	26.800
753.57	27.236
753.88	32.812
754.19	22.857
754.51	27.083
754.82	20.578
755.13	27.925
755.44	27.444
755.75	23.358
756.07	22.340
756.38	23.358
756.69	22.819
757.00	20.060
757.31	22.849
757.63	23.684
757.94	19.303
758.25	20.588
758.56	22.222
758.87	21.237
759.18	23.939
759.50	23.824
759.81	23.053
760.12	24.688
760.43	24.069
760.74	20.652
761.05	22.881
761.36	21.123
761.67	23.011
761.99	21.739
762.30	27.083
762.61	23.664
762.92	31.250
763.23	28.992
763.54	32.800
763.85	25.391
764.16	27.692
764.47	31.559
764.78	22.968
765.10	19.937
765.41	25.074
765.72	21.257
766.03	26.332
766.34	24.333
766.65	33.617
766.96	31.197
767.27	33.503
767.58	36.979
767.89	36.316
768.20	36.207
768.51	28.934
768.82	33.028
769.13	30.081
769.44	28.340
769.75	31.330
770.06	26.147
770.37	32.579
770.68	34.722
770.99	32.000
771.30	27.049
771.61	31.390
771.92	30.738
772.23	37.395
772.54	32.821
772.85	37.173
773.16	38.830
773.47	37.500
773.78	38.071
774.09	37.500
774.39	41.520
774.70	38.889
775.01	44.203
775.32	48.366
775.63	39.474
775.94	43.885
776.25	41.732
776.56	55.970
776.87	48.361
777.18	49.219
777.48	48.855
777.79	37.121
778.10	49.630
778.41	42.857
778.72	39.416
779.03	35.570
779.34	41.611
779.65	35.135
779.95	41.104
780.26	41.830
780.57	42.069
780.88	57.031
781.19	51.880
781.50	43.243
781.80	43.396
782.11	36.723
782.42	42.405
782.73	34.969
783.04	47.297
783.34	48.592
783.65	42.466
783.96	42.537
784.27	39.860
784.57	40.288
784.88	39.815
785.19	48.413
785.50	44.340
785.81	58.209
786.11	49.180
786.42	47.287
786.73	49.558
787.04	55.660
787.34	58.036
787.65	59.000
787.96	52.252
788.26	49.587
788.57	55.085
788.88	49.587
789.19	48.611
789.49	48.485
789.80	53.435
790.11	65.714
790.41	58.416
790.72	67.470
791.03	53.261
791.33	66.279
791.64	56.701
791.95	60.396
792.25	71.111
792.56	71.429
792.87	85.897
793.17	89.873
793.48	74.713
793.79	59.770
794.09	69.318
794.40	53.782
794.70	47.794
795.01	45.926
795.32	51.079
795.62	51.181
795.93	46.552
796.23	43.363
796.54	56.471
796.85	66.216
797.15	83.099
797.46	84.848
797.76	81.928
798.07	65.823
798.37	69.231
798.68	71.212
798.99	67.606
799.29	76.623
799.60	69.318
799.90	80.822
800.21	89.552
800.51	81.034
800.82	101.754
801.12	73.770
801.43	96.970
801.73	66.216
802.04	100.000
802.34	66.667
802.65	78.125
802.95	98.305
803.26	104.688
803.56	64.286
803.87	76.923
804.17	79.412
804.48	100.000
804.78	94.828
805.09	77.941
805.39	82.692
805.70	92.857
806.00	109.836
806.30	80.303
806.61	63.415
806.91	62.025
807.22	76.316
807.52	67.164
807.83	78.873
808.13	89.062
808.43	88.333
808.74	73.684
809.04	88.406
809.35	73.134
809.65	81.579
809.95	103.226
810.26	100.000
810.56	93.651
810.86	136.364
811.17	119.048
811.47	91.667
811.77	83.333
812.08	92.727
812.38	106.000
812.69	119.444
812.99	140.909
813.29	114.286
813.59	100.000
813.90	110.204
814.20	105.455
814.50	81.538
814.81	94.118
815.11	114.286
815.41	95.082
815.72	133.333
816.02	107.273
816.32	126.190
816.62	130.000
816.93	153.659
817.23	145.238
817.53	143.182
817.84	169.697
818.14	113.043
818.44	144.444
818.74	164.706
819.04	130.000
819.35	117.143
819.65	173.529
819.95	153.571
820.25	200.000
820.56	169.231
820.86	127.273
821.16	113.953
821.46	117.949
821.76	128.000
822.07	160.000
822.37	150.000
822.67	178.788
822.97	98.039
823.27	189.286
823.57	129.730
823.88	160.000
824.18	183.333
824.48	154.762
824.78	220.000
825.08	187.500
825.38	154.054
825.69	134.146
825.99	216.667
826.29	144.828
826.59	152.632
826.89	131.579
827.19	170.588
827.49	180.645
827.79	154.545
828.09	106.818
828.39	119.149
828.70	132.653
829.00	188.889
829.30	145.161
829.60	140.000
829.90	266.667
830.20	182.143
830.50	195.652
830.80	217.391
831.10	176.667
831.40	153.333
831.70	226.087
832.00	223.077
832.30	207.407
832.60	287.500
832.90	176.667
833.20	407.143
833.50	177.419
833.80	206.897
834.10	175.000
834.40	211.538
834.70	355.556
835.00	266.667
835.30	137.143
835.60	369.231
835.90	217.241
836.20	314.286
836.50	241.379
836.80	188.000
837.10	177.778
837.40	233.333
837.70	288.235
838.00	207.407
838.30	238.095
838.60	266.667
838.90	215.385
839.19	300.000
839.49	285.714
839.79	330.000
840.09	240.000
840.39	285.714
840.69	221.739
840.99	277.778
841.29	450.000
841.59	325.000
841.88	350.000
842.18	213.793
842.48	242.857
842.78	183.333
843.08	204.348
843.38	181.250
843.68	766.667
843.97	234.615
844.27	186.207
844.57	300.000
844.87	331.250
845.17	214.815
845.47	1600.000
845.76	366.667
846.06	305.882
846.36	500.000
846.66	350.000
846.96	300.000
847.25	418.182
847.55	527.273
847.85	230.435
848.15	460.000
848.44	364.286
848.74	250.000
849.04	300.000
849.34	670.000
849.63	268.421
849.93	436.364
850.23	980.000
850.53	428.571
850.82	2600.000
851.12	-4700.000
851.42	4400.000
851.71	280.000
852.01	-900.000
852.31	237.500
852.61	1500.000
852.90	266.667
853.20	196.000
853.50	341.176
853.79	276.190
854.09	225.000
854.39	293.750
854.68	164.865
854.98	206.452
855.28	176.667
855.57	206.897
855.87	214.815
856.17	247.368
856.46	280.000
856.76	258.824
857.05	189.655
857.35	237.500
857.65	360.000
857.94	234.783
858.24	230.769
858.53	225.000
858.83	240.909
859.13	246.667
859.42	0.000
859.72	566.667
860.01	400.000
860.31	213.636
860.60	278.947
860.90	234.783
861.20	466.667
861.49	433.333
861.79	-4100.000
862.08	825.000
862.38	290.476
862.67	369.231
862.97	305.882
863.26	588.889
863.56	277.778
863.85	425.000
864.15	637.500
864.44	373.333
864.74	866.667
865.03	550.000
865.33	273.684
865.62	400.000
865.92	430.769
866.21	391.667
866.51	0.000
866.80	472.727
867.10	1200.000
867.39	415.385
867.69	454.545
867.98	257.895
868.27	490.909
868.57	326.316
868.86	-3500.000
869.16	293.750
869.45	2700.000
869.75	-4500.000
870.04	425.000
870.33	542.857
870.63	825.000
870.92	2600.000
871.22	757.143
871.51	341.176
871.80	257.143
872.10	371.429
>>>>>End Processed Spectral Data<<<<<
