SpectraSuite Data File
++++++++++++++++++++++++++++++++++++
Date: Wed May 13 19:45:15 PDT 2015
User: schluterlab
Dark Spectrum Present: Yes
Reference Spectrum Present: Yes
Number of Sampled Component Spectra: 1
Spectrometers: USB2E3373
Integration Time (usec): 3000 (USB2E3373)
Spectra Averaged: 3 (USB2E3373)
Boxcar Smoothing: 0 (USB2E3373)
Correct for Electrical Dark: No (USB2E3373)
Strobe/Lamp Enabled: No (USB2E3373)
Correct for Detector Non-linearity: No (USB2E3373)
Correct for Stray Light: No (USB2E3373)
Number of Pixels in Processed Spectrum: 2048
>>>>>Begin Processed Spectral Data<<<<<
178.53	0.000
178.91	-1200.000
179.29	-1175.000
179.67	-266.667
180.04	-1050.000
180.42	2500.000
180.80	1000.000
181.18	-1050.000
181.56	685.714
181.94	0.000
182.31	-542.857
182.69	1533.333
183.07	-587.500
183.45	-488.889
183.83	536.364
184.20	-450.000
184.58	2550.000
184.96	5300.000
185.34	-940.000
185.72	-550.000
186.09	-2350.000
186.47	3000.000
186.85	2750.000
187.23	5100.000
187.61	-1866.667
187.98	1375.000
188.36	454.545
188.74	481.818
189.12	-1200.000
189.49	660.000
189.87	-4700.000
190.25	-1200.000
190.63	442.857
191.00	415.385
191.38	816.667
191.76	-1025.000
192.14	1475.000
192.51	662.500
192.89	916.667
193.27	487.500
193.65	-1375.000
194.02	590.000
194.40	1020.000
194.78	560.000
195.15	441.667
195.53	640.000
195.91	-2550.000
196.29	337.500
196.66	284.211
197.04	-310.000
197.42	0.000
197.79	510.000
198.17	-3800.000
198.55	671.429
198.92	612.500
199.30	1000.000
199.68	0.000
200.05	305.556
200.43	842.857
200.81	4100.000
201.18	1400.000
201.56	-1700.000
201.94	600.000
202.31	644.444
202.69	316.667
203.07	530.000
203.44	0.000
203.82	1350.000
204.19	771.429
204.57	450.000
204.95	562.500
205.32	1733.333
205.70	518.182
206.08	478.571
206.45	2650.000
206.83	406.250
207.20	966.667
207.58	800.000
207.96	283.333
208.33	700.000
208.71	-900.000
209.08	800.000
209.46	600.000
209.84	509.091
210.21	-1100.000
210.59	1600.000
210.96	-512.500
211.34	2500.000
211.71	590.000
212.09	766.667
212.46	0.000
212.84	2033.333
213.22	1125.000
213.59	-4200.000
213.97	783.333
214.34	828.571
214.72	554.545
215.09	940.000
215.47	-2350.000
215.84	-2250.000
216.22	1533.333
216.59	321.429
216.97	1100.000
217.34	490.909
217.72	-583.333
218.09	0.000
218.47	-4400.000
218.84	622.222
219.22	857.143
219.59	1500.000
219.97	-528.571
220.34	1020.000
220.72	-1633.333
221.09	378.571
221.47	1725.000
221.84	-950.000
222.22	0.000
222.59	1350.000
222.97	-2700.000
223.34	1160.000
223.72	423.077
224.09	1040.000
224.46	2750.000
224.84	-5400.000
225.21	-1060.000
225.59	-3700.000
225.96	590.000
226.34	345.000
226.71	2500.000
227.08	637.500
227.46	510.000
227.83	-850.000
228.21	-2350.000
228.58	633.333
228.95	-2650.000
229.33	-2200.000
229.70	1633.333
230.08	728.571
230.45	-920.000
230.82	400.000
231.20	783.333
231.57	471.429
231.95	416.667
232.32	204.545
232.69	381.818
233.07	685.714
233.44	315.385
233.81	-1733.333
234.19	300.000
234.56	491.667
234.93	316.667
235.31	463.636
235.68	346.154
236.05	321.429
236.43	160.606
236.80	247.368
237.17	4800.000
237.55	228.571
237.92	171.429
238.29	214.286
238.67	164.516
239.04	172.414
239.41	163.889
239.79	104.348
240.16	138.095
240.53	129.545
240.91	90.196
241.28	102.000
241.65	94.000
242.02	76.812
242.40	79.032
242.77	81.667
243.14	68.817
243.51	65.169
243.89	61.176
244.26	66.667
244.63	59.140
245.00	60.638
245.38	53.465
245.75	51.402
246.12	47.706
246.49	57.664
246.87	47.200
247.24	51.538
247.61	40.714
247.98	39.869
248.36	39.189
248.73	34.395
249.10	43.312
249.47	35.028
249.84	33.155
250.22	34.225
250.59	33.728
250.96	30.303
251.33	36.967
251.70	33.663
252.08	25.714
252.45	29.148
252.82	29.565
253.19	27.660
253.56	25.098
253.94	26.141
254.31	25.781
254.68	27.308
255.05	25.092
255.42	21.951
255.79	23.897
256.16	23.827
256.54	20.495
256.91	23.843
257.28	20.504
257.65	22.772
258.02	25.776
258.39	23.344
258.76	20.067
259.14	23.214
259.51	22.492
259.88	17.391
260.25	24.773
260.62	21.387
260.99	17.702
261.36	22.523
261.73	17.765
262.10	15.407
262.47	21.972
262.85	16.713
263.22	14.530
263.59	20.798
263.96	18.132
264.33	19.060
264.70	18.684
265.07	18.926
265.44	18.939
265.81	17.275
266.18	17.588
266.55	18.537
266.92	17.445
267.29	17.130
267.66	15.826
268.03	18.636
268.40	17.056
268.77	16.468
269.14	17.117
269.51	19.865
269.88	17.949
270.25	16.253
270.62	15.730
270.99	18.065
271.36	15.236
271.73	14.252
272.10	15.652
272.47	16.344
272.84	18.182
273.21	17.820
273.58	12.664
273.95	15.094
274.32	14.669
274.69	15.846
275.06	15.354
275.43	14.894
275.80	13.627
276.17	14.868
276.54	16.216
276.91	16.008
277.28	14.453
277.65	16.054
278.02	15.528
278.39	16.992
278.76	14.545
279.13	15.472
279.50	15.642
279.87	15.339
280.23	13.772
280.60	13.733
280.97	15.712
281.34	15.221
281.71	14.909
282.08	14.971
282.45	13.636
282.82	14.742
283.19	11.765
283.56	12.632
283.92	15.905
284.29	13.051
284.66	13.612
285.03	13.201
285.40	13.028
285.77	12.121
286.14	13.472
286.51	15.167
286.87	13.846
287.24	13.518
287.61	14.125
287.98	15.260
288.35	11.727
288.72	12.150
289.08	14.085
289.45	11.038
289.82	12.033
290.19	10.518
290.56	11.639
290.93	12.387
291.29	11.810
291.66	11.652
292.03	12.936
292.40	13.950
292.77	11.686
293.13	11.194
293.50	11.516
293.87	11.852
294.24	11.704
294.60	10.626
294.97	12.500
295.34	10.578
295.71	11.222
296.08	9.544
296.44	10.454
296.81	12.021
297.18	12.737
297.55	9.235
297.91	9.763
298.28	10.977
298.65	12.402
299.02	10.540
299.38	11.155
299.75	8.491
300.12	9.962
300.48	11.000
300.85	9.494
301.22	10.446
301.59	9.975
301.95	10.327
302.32	8.858
302.69	10.155
303.05	9.212
303.42	10.247
303.79	10.985
304.15	9.790
304.52	9.733
304.89	9.640
305.25	10.093
305.62	10.532
305.99	10.626
306.35	9.843
306.72	10.538
307.09	11.543
307.45	10.923
307.82	8.482
308.19	10.265
308.55	11.219
308.92	10.526
309.29	9.609
309.65	10.710
310.02	9.514
310.38	9.570
310.75	9.609
311.12	11.259
311.48	11.390
311.85	11.950
312.22	10.614
312.58	10.603
312.95	11.721
313.31	10.874
313.68	12.578
314.05	13.807
314.41	11.859
314.78	12.890
315.14	13.505
315.51	12.667
315.87	12.277
316.24	13.505
316.61	12.573
316.97	13.894
317.34	13.503
317.70	15.583
318.07	15.688
318.43	15.264
318.80	17.057
319.16	16.196
319.53	17.261
319.89	17.524
320.26	17.500
320.62	17.163
320.99	18.485
321.35	18.889
321.72	19.713
322.08	20.533
322.45	21.990
322.81	22.093
323.18	22.929
323.54	23.562
323.91	22.453
324.27	23.231
324.64	23.858
325.00	24.076
325.37	24.386
325.73	26.930
326.10	27.008
326.46	25.090
326.83	27.955
327.19	28.096
327.56	27.439
327.92	28.609
328.29	29.814
328.65	31.031
329.01	30.957
329.38	30.527
329.74	30.840
330.11	30.914
330.47	32.323
330.84	34.467
331.20	32.787
331.56	32.752
331.93	32.870
332.29	32.831
332.66	33.009
333.02	32.633
333.38	34.508
333.75	33.779
334.11	35.053
334.48	32.831
334.84	34.283
335.20	34.364
335.57	33.545
335.93	34.018
336.29	34.982
336.66	34.536
337.02	34.027
337.38	34.722
337.75	35.205
338.11	34.825
338.47	35.451
338.84	36.389
339.20	35.413
339.56	35.858
339.93	35.455
340.29	35.145
340.65	35.561
341.02	35.253
341.38	36.299
341.74	35.702
342.11	35.371
342.47	35.859
342.83	35.531
343.20	35.498
343.56	34.035
343.92	35.263
344.28	35.204
344.65	34.996
345.01	35.185
345.37	33.877
345.73	35.448
346.10	35.550
346.46	34.492
346.82	34.926
347.19	34.837
347.55	34.565
347.91	35.113
348.27	35.744
348.63	34.532
349.00	34.628
349.36	35.550
349.72	34.483
350.08	34.846
350.45	35.883
350.81	35.337
351.17	33.955
351.53	34.234
351.89	34.571
352.26	34.254
352.62	35.204
352.98	34.927
353.34	34.593
353.70	34.043
354.07	35.565
354.43	32.778
354.79	33.548
355.15	33.759
355.51	36.051
355.87	34.857
356.24	35.668
356.60	35.044
356.96	35.237
357.32	34.996
357.68	34.961
358.04	33.967
358.40	34.442
358.77	34.194
359.13	34.175
359.49	33.882
359.85	33.571
360.21	34.530
360.57	35.409
360.93	35.385
361.29	33.409
361.66	33.978
362.02	35.896
362.38	35.894
362.74	34.747
363.10	34.049
363.46	33.969
363.82	34.089
364.18	33.774
364.54	35.884
364.90	35.127
365.26	35.074
365.62	34.697
365.98	34.112
366.35	33.954
366.71	35.286
367.07	35.251
367.43	35.776
367.79	35.903
368.15	36.135
368.51	34.375
368.87	35.261
369.23	35.625
369.59	36.206
369.95	34.412
370.31	34.615
370.67	34.348
371.03	34.682
371.39	35.423
371.75	35.882
372.11	34.282
372.47	35.777
372.83	36.599
373.19	35.188
373.55	36.068
373.91	36.156
374.27	34.296
374.63	35.855
374.99	34.393
375.35	33.985
375.71	34.818
376.07	36.283
376.42	35.695
376.78	35.653
377.14	34.328
377.50	35.232
377.86	34.641
378.22	34.640
378.58	34.586
378.94	33.752
379.30	34.288
379.66	34.772
380.02	35.258
380.38	35.155
380.74	35.654
381.09	35.086
381.45	35.526
381.81	34.828
382.17	35.541
382.53	34.780
382.89	34.444
383.25	34.897
383.61	35.750
383.97	33.771
384.32	35.122
384.68	34.634
385.04	34.726
385.40	34.303
385.76	33.354
386.12	34.262
386.48	34.235
386.83	35.407
387.19	35.622
387.55	34.756
387.91	33.797
388.27	34.948
388.62	34.849
388.98	33.354
389.34	34.355
389.70	33.844
390.06	35.805
390.42	34.695
390.77	34.669
391.13	35.163
391.49	33.947
391.85	34.055
392.20	34.322
392.56	34.470
392.92	34.844
393.28	33.254
393.64	34.113
393.99	34.698
394.35	33.313
394.71	33.877
395.07	32.773
395.42	33.745
395.78	34.288
396.14	34.327
396.50	34.023
396.85	35.029
397.21	33.231
397.57	34.284
397.92	34.435
398.28	32.511
398.64	34.409
399.00	33.576
399.35	33.164
399.71	33.854
400.07	33.412
400.42	33.067
400.78	33.715
401.14	33.049
401.49	34.507
401.85	34.422
402.21	33.473
402.57	33.313
402.92	33.670
403.28	34.978
403.63	34.468
403.99	33.758
404.35	34.061
404.70	32.734
405.06	31.741
405.42	32.751
405.77	32.914
406.13	32.619
406.49	33.116
406.84	33.550
407.20	32.506
407.55	34.269
407.91	33.267
408.27	32.355
408.62	32.571
408.98	32.782
409.34	33.395
409.69	33.548
410.05	32.652
410.40	33.028
410.76	33.154
411.11	32.569
411.47	32.716
411.83	32.254
412.18	32.406
412.54	32.628
412.89	32.410
413.25	32.409
413.60	32.613
413.96	31.694
414.31	31.713
414.67	33.460
415.03	32.318
415.38	33.119
415.74	32.605
416.09	32.920
416.45	32.129
416.80	32.122
417.16	33.780
417.51	32.382
417.87	31.214
418.22	32.681
418.58	32.343
418.93	32.801
419.29	32.463
419.64	32.494
420.00	32.500
420.35	32.232
420.71	32.935
421.06	32.876
421.42	31.988
421.77	32.791
422.12	31.218
422.48	30.599
422.83	31.974
423.19	31.768
423.54	32.211
423.90	32.058
424.25	32.161
424.61	32.024
424.96	31.778
425.31	30.952
425.67	31.573
426.02	31.943
426.38	32.112
426.73	31.539
427.09	31.915
427.44	31.512
427.79	31.800
428.15	31.726
428.50	31.831
428.85	32.360
429.21	31.916
429.56	31.726
429.92	31.555
430.27	31.480
430.62	30.824
430.98	31.292
431.33	31.082
431.68	30.838
432.04	30.192
432.39	32.838
432.74	31.957
433.10	32.032
433.45	31.778
433.80	30.987
434.16	31.838
434.51	30.684
434.86	31.813
435.22	31.795
435.57	32.523
435.92	31.480
436.28	32.977
436.63	31.898
436.98	31.425
437.34	32.677
437.69	32.205
438.04	31.703
438.39	32.657
438.75	31.784
439.10	31.676
439.45	31.936
439.81	31.843
440.16	31.169
440.51	31.634
440.86	31.673
441.22	31.313
441.57	31.741
441.92	31.423
442.27	31.970
442.63	31.543
442.98	32.789
443.33	30.815
443.68	30.666
444.03	30.942
444.39	30.818
444.74	30.952
445.09	30.997
445.44	31.985
445.79	31.816
446.15	31.763
446.50	31.772
446.85	30.987
447.20	31.056
447.55	32.440
447.91	31.495
448.26	30.996
448.61	31.261
448.96	31.949
449.31	32.733
449.66	32.189
450.02	31.643
450.37	31.519
450.72	31.754
451.07	30.835
451.42	31.550
451.77	32.061
452.12	31.351
452.47	31.468
452.83	32.051
453.18	30.868
453.53	32.344
453.88	31.187
454.23	31.201
454.58	31.920
454.93	32.231
455.28	30.798
455.63	31.796
455.98	32.381
456.34	31.470
456.69	32.185
457.04	32.941
457.39	31.385
457.74	31.341
458.09	30.822
458.44	31.585
458.79	30.586
459.14	30.982
459.49	30.590
459.84	31.025
460.19	30.937
460.54	30.035
460.89	31.267
461.24	31.573
461.59	31.900
461.94	30.210
462.29	31.632
462.64	31.398
462.99	31.360
463.34	31.467
463.69	31.957
464.04	31.884
464.39	30.261
464.74	31.016
465.09	30.217
465.44	30.859
465.79	30.537
466.14	29.940
466.49	29.644
466.84	30.998
467.19	31.141
467.54	31.313
467.89	30.012
468.24	31.006
468.59	31.319
468.94	30.666
469.29	31.105
469.64	31.727
469.99	32.273
470.34	30.515
470.68	31.753
471.03	31.361
471.38	30.785
471.73	31.379
472.08	31.053
472.43	31.156
472.78	31.731
473.13	32.028
473.48	30.587
473.83	31.159
474.17	29.807
474.52	31.576
474.87	30.998
475.22	30.412
475.57	29.339
475.92	29.634
476.27	29.594
476.61	29.840
476.96	29.577
477.31	29.723
477.66	29.158
478.01	29.221
478.36	30.196
478.70	28.609
479.05	29.925
479.40	29.222
479.75	28.927
480.10	29.125
480.45	29.034
480.79	29.049
481.14	29.648
481.49	29.236
481.84	28.624
482.19	29.487
482.53	28.761
482.88	29.595
483.23	29.112
483.58	29.254
483.92	29.616
484.27	27.538
484.62	28.448
484.97	27.789
485.31	28.288
485.66	27.163
486.01	25.700
486.36	25.056
486.70	25.220
487.05	26.004
487.40	26.609
487.75	26.780
488.09	26.873
488.44	27.485
488.79	28.391
489.13	28.839
489.48	28.507
489.83	28.399
490.17	28.540
490.52	28.167
490.87	28.765
491.22	28.104
491.56	28.155
491.91	29.037
492.26	28.158
492.60	28.479
492.95	27.456
493.30	27.757
493.64	28.185
493.99	27.669
494.34	28.261
494.68	28.159
495.03	28.008
495.37	28.339
495.72	28.655
496.07	27.981
496.41	26.947
496.76	27.792
497.11	27.915
497.45	28.738
497.80	28.023
498.14	26.812
498.49	27.951
498.84	28.140
499.18	27.952
499.53	27.493
499.87	27.400
500.22	27.744
500.56	28.058
500.91	27.404
501.26	27.786
501.60	28.049
501.95	27.452
502.29	28.022
502.64	27.561
502.98	27.676
503.33	27.011
503.67	27.239
504.02	27.175
504.36	27.796
504.71	27.650
505.06	27.566
505.40	26.689
505.75	26.905
506.09	27.162
506.44	27.528
506.78	27.131
507.13	27.461
507.47	28.434
507.82	28.318
508.16	27.508
508.51	27.651
508.85	27.458
509.19	27.704
509.54	27.194
509.88	27.821
510.23	27.301
510.57	27.864
510.92	27.965
511.26	27.287
511.61	27.334
511.95	26.931
512.30	27.519
512.64	26.760
512.98	28.242
513.33	27.570
513.67	27.268
514.02	27.652
514.36	28.072
514.70	27.615
515.05	27.161
515.39	28.099
515.74	27.703
516.08	27.725
516.42	28.746
516.77	27.982
517.11	26.637
517.46	28.047
517.80	27.875
518.14	27.910
518.49	28.180
518.83	28.580
519.17	27.887
519.52	27.165
519.86	26.583
520.20	28.266
520.55	27.947
520.89	29.623
521.23	29.192
521.58	28.031
521.92	28.904
522.26	26.907
522.61	28.411
522.95	27.379
523.29	28.545
523.64	28.171
523.98	27.172
524.32	27.805
524.66	28.262
525.01	28.799
525.35	27.633
525.69	27.833
526.04	27.913
526.38	28.066
526.72	28.160
527.06	28.060
527.41	27.104
527.75	28.360
528.09	28.324
528.43	28.043
528.78	28.642
529.12	28.121
529.46	28.904
529.80	28.713
530.15	28.536
530.49	26.646
530.83	27.848
531.17	29.765
531.51	28.794
531.86	27.935
532.20	29.074
532.54	27.803
532.88	27.856
533.22	27.046
533.57	27.407
533.91	26.972
534.25	27.157
534.59	27.822
534.93	27.543
535.27	26.795
535.62	27.778
535.96	27.746
536.30	27.400
536.64	27.688
536.98	27.870
537.32	27.847
537.66	28.133
538.01	27.716
538.35	28.184
538.69	28.781
539.03	28.005
539.37	28.115
539.71	27.609
540.05	28.758
540.39	28.106
540.73	27.167
541.07	28.358
541.42	27.919
541.76	28.258
542.10	28.525
542.44	27.748
542.78	28.722
543.12	28.471
543.46	29.770
543.80	28.692
544.14	27.856
544.48	27.873
544.82	28.608
545.16	28.367
545.50	28.599
545.84	27.621
546.18	28.889
546.52	29.319
546.86	28.454
547.20	28.726
547.54	28.858
547.88	27.997
548.22	26.775
548.56	27.736
548.90	27.657
549.24	27.003
549.58	27.763
549.92	28.365
550.26	28.835
550.60	27.524
550.94	27.042
551.28	27.359
551.62	28.325
551.96	27.018
552.30	28.055
552.64	28.938
552.98	28.746
553.32	27.579
553.66	27.948
554.00	27.248
554.34	27.674
554.68	28.970
555.02	27.645
555.36	27.627
555.69	27.470
556.03	27.725
556.37	27.285
556.71	27.080
557.05	27.521
557.39	27.852
557.73	27.241
558.07	27.556
558.41	28.148
558.75	29.537
559.08	27.964
559.42	28.269
559.76	28.897
560.10	27.480
560.44	27.463
560.78	26.880
561.12	26.979
561.45	27.249
561.79	26.170
562.13	27.767
562.47	28.210
562.81	26.848
563.15	26.890
563.48	26.724
563.82	27.006
564.16	27.665
564.50	26.172
564.84	26.612
565.17	26.126
565.51	26.645
565.85	26.650
566.19	25.485
566.52	26.916
566.86	26.160
567.20	26.533
567.54	26.027
567.88	25.095
568.21	25.238
568.55	25.935
568.89	24.708
569.23	24.109
569.56	23.563
569.90	23.660
570.24	23.071
570.57	23.087
570.91	22.495
571.25	22.607
571.59	22.916
571.92	22.638
572.26	22.761
572.60	22.372
572.93	22.249
573.27	22.360
573.61	22.892
573.95	22.016
574.28	21.558
574.62	21.939
574.96	21.912
575.29	21.726
575.63	21.646
575.97	21.895
576.30	21.614
576.64	21.658
576.98	21.658
577.31	21.372
577.65	21.498
577.98	21.170
578.32	20.989
578.66	21.258
578.99	21.091
579.33	21.399
579.67	21.649
580.00	21.410
580.34	21.452
580.67	21.484
581.01	21.340
581.35	21.068
581.68	20.867
582.02	20.203
582.35	20.344
582.69	20.675
583.02	21.197
583.36	21.490
583.70	22.128
584.03	21.813
584.37	22.503
584.70	21.996
585.04	21.257
585.37	21.086
585.71	21.476
586.04	21.068
586.38	21.447
586.72	21.707
587.05	21.434
587.39	21.346
587.72	21.335
588.06	21.345
588.39	21.564
588.73	21.561
589.06	21.720
589.40	22.828
589.73	22.633
590.07	22.811
590.40	22.433
590.73	22.717
591.07	23.280
591.40	23.323
591.74	23.680
592.07	22.513
592.41	22.902
592.74	21.648
593.08	21.519
593.41	21.765
593.75	21.143
594.08	21.790
594.41	21.704
594.75	21.590
595.08	21.582
595.42	22.137
595.75	21.403
596.09	22.155
596.42	23.026
596.75	22.583
597.09	23.377
597.42	21.965
597.75	22.596
598.09	22.739
598.42	22.852
598.76	20.957
599.09	21.475
599.42	21.798
599.76	21.669
600.09	21.785
600.42	21.841
600.76	21.357
601.09	21.931
601.42	21.613
601.76	21.670
602.09	21.818
602.42	22.412
602.76	22.652
603.09	22.030
603.42	22.179
603.76	21.684
604.09	21.481
604.42	21.158
604.76	22.016
605.09	21.844
605.42	22.189
605.75	21.647
606.09	21.635
606.42	21.700
606.75	21.277
607.09	22.645
607.42	21.224
607.75	21.097
608.08	21.537
608.42	21.918
608.75	21.867
609.08	22.017
609.41	21.990
609.75	21.677
610.08	22.903
610.41	22.207
610.74	22.517
611.07	23.073
611.41	22.326
611.74	23.379
612.07	23.137
612.40	23.924
612.73	22.579
613.07	23.006
613.40	22.538
613.73	22.181
614.06	22.366
614.39	21.867
614.72	22.211
615.06	22.216
615.39	21.975
615.72	23.108
616.05	22.807
616.38	23.013
616.71	23.397
617.05	23.439
617.38	22.730
617.71	22.102
618.04	23.317
618.37	22.472
618.70	23.584
619.03	23.487
619.36	23.422
619.69	23.732
620.03	25.687
620.36	24.198
620.69	25.411
621.02	25.516
621.35	24.354
621.68	23.754
622.01	24.149
622.34	24.962
622.67	24.411
623.00	22.817
623.33	23.088
623.66	24.160
623.99	23.859
624.32	23.395
624.65	23.517
624.99	23.229
625.32	22.954
625.65	23.742
625.98	25.519
626.31	25.272
626.64	25.633
626.97	24.522
627.30	24.605
627.63	25.103
627.96	25.231
628.29	24.934
628.62	26.532
628.95	26.887
629.28	25.912
629.61	26.214
629.94	24.571
630.26	24.404
630.59	26.597
630.92	25.958
631.25	24.975
631.58	25.425
631.91	25.862
632.24	25.527
632.57	25.813
632.90	26.425
633.23	26.622
633.56	26.328
633.89	28.199
634.22	26.674
634.55	28.166
634.88	26.108
635.20	27.838
635.53	27.711
635.86	27.104
636.19	26.941
636.52	25.836
636.85	26.002
637.18	25.346
637.51	28.251
637.83	25.154
638.16	27.366
638.49	27.456
638.82	28.571
639.15	28.000
639.48	28.928
639.81	28.284
640.13	27.734
640.46	27.517
640.79	29.326
641.12	27.510
641.45	29.050
641.77	27.982
642.10	27.485
642.43	28.829
642.76	29.876
643.09	30.521
643.41	28.832
643.74	29.630
644.07	29.726
644.40	29.141
644.73	31.496
645.05	29.319
645.38	29.858
645.71	27.697
646.04	30.897
646.36	33.222
646.69	31.271
647.02	30.782
647.35	30.756
647.67	30.088
648.00	32.683
648.33	30.033
648.66	29.545
648.98	28.486
649.31	28.700
649.64	28.849
649.96	28.018
650.29	28.436
650.62	28.964
650.94	31.118
651.27	31.757
651.60	30.116
651.92	30.990
652.25	28.339
652.58	29.751
652.90	28.910
653.23	26.656
653.56	28.504
653.88	29.477
654.21	29.700
654.54	30.693
654.86	28.505
655.19	26.216
655.52	17.812
655.84	13.991
656.17	17.984
656.49	24.633
656.82	25.632
657.15	19.276
657.47	14.605
657.80	11.426
658.13	11.834
658.45	18.161
658.78	18.120
659.10	18.842
659.43	19.571
659.75	21.572
660.08	23.797
660.41	27.374
660.73	29.098
661.06	29.140
661.38	30.182
661.71	33.846
662.03	32.150
662.36	30.417
662.68	32.329
663.01	31.515
663.33	31.847
663.66	28.151
663.98	33.045
664.31	32.353
664.63	31.579
664.96	31.187
665.28	30.533
665.61	27.680
665.93	29.175
666.26	31.237
666.58	30.544
666.91	32.558
667.23	32.809
667.56	29.158
667.88	32.265
668.21	31.130
668.53	33.406
668.86	30.952
669.18	32.836
669.50	31.304
669.83	31.373
670.15	33.111
670.48	29.412
670.80	32.328
671.13	30.786
671.45	31.915
671.77	32.179
672.10	28.096
672.42	28.092
672.75	28.027
673.07	27.641
673.39	28.029
673.72	29.687
674.04	29.216
674.37	31.845
674.69	29.652
675.01	29.289
675.34	32.444
675.66	31.789
675.98	30.754
676.31	30.042
676.63	29.512
676.95	32.075
677.28	31.542
677.60	30.989
677.92	32.489
678.25	30.595
678.57	30.876
678.89	28.657
679.22	26.916
679.54	30.344
679.86	30.092
680.18	28.623
680.51	28.901
680.83	27.580
681.15	28.868
681.48	30.813
681.80	29.594
682.12	28.544
682.44	29.207
682.77	30.346
683.09	30.043
683.41	32.373
683.73	31.126
684.06	32.231
684.38	29.941
684.70	29.070
685.02	30.206
685.34	27.289
685.67	26.573
685.99	27.491
686.31	24.232
686.63	25.442
686.96	26.071
687.28	28.159
687.60	29.348
687.92	29.433
688.24	26.806
688.56	27.912
688.89	30.498
689.21	32.096
689.53	31.942
689.85	28.160
690.17	28.986
690.49	31.847
690.82	29.907
691.14	28.125
691.46	27.004
691.78	28.514
692.10	28.512
692.42	30.539
692.74	26.763
693.06	28.511
693.39	30.185
693.71	31.441
694.03	29.053
694.35	30.087
694.67	30.664
694.99	29.512
695.31	30.147
695.63	31.818
695.95	32.274
696.27	32.234
696.59	31.865
696.91	31.347
697.23	29.108
697.56	30.277
697.88	25.153
698.20	28.125
698.52	29.892
698.84	29.621
699.16	29.954
699.48	27.078
699.80	32.850
700.12	32.468
700.44	31.565
700.76	32.597
701.08	31.034
701.40	31.844
701.72	34.111
702.04	35.511
702.36	29.178
702.68	33.994
703.00	30.471
703.32	31.117
703.64	31.367
703.96	30.919
704.28	36.919
704.60	34.311
704.91	35.312
705.23	36.070
705.55	38.206
705.87	38.870
706.19	36.042
706.51	40.810
706.83	36.364
707.15	34.454
707.47	32.071
707.79	29.238
708.11	30.137
708.43	31.429
708.74	28.571
709.06	33.506
709.38	30.971
709.70	31.977
710.02	35.608
710.34	29.697
710.66	34.328
710.98	35.511
711.29	31.105
711.61	34.808
711.93	29.167
712.25	35.048
712.57	36.029
712.89	35.294
713.20	32.219
713.52	33.882
713.84	34.177
714.16	32.317
714.48	33.333
714.80	36.778
715.11	33.718
715.43	34.718
715.75	30.725
716.07	33.546
716.39	31.661
716.70	35.880
717.02	37.410
717.34	35.336
717.66	39.552
717.97	37.849
718.29	36.296
718.61	33.942
718.93	36.029
719.24	33.218
719.56	31.864
719.88	35.593
720.20	37.838
720.51	36.585
720.83	39.033
721.15	38.433
721.46	36.879
721.78	35.842
722.10	38.868
722.42	36.842
722.73	32.584
723.05	30.328
723.37	36.032
723.68	35.135
724.00	39.431
724.32	38.710
724.63	41.057
724.95	36.820
725.27	40.081
725.58	39.844
725.90	38.321
726.22	36.981
726.53	35.764
726.85	37.884
727.16	37.367
727.48	32.624
727.80	35.985
728.11	35.870
728.43	32.308
728.74	34.767
729.06	36.131
729.38	38.235
729.69	35.231
730.01	32.423
730.32	34.722
730.64	36.455
730.96	32.343
731.27	34.106
731.59	31.498
731.90	34.402
732.22	29.814
732.53	28.793
732.85	31.090
733.16	30.868
733.48	32.226
733.80	30.195
734.11	32.484
734.43	31.065
734.74	28.286
735.06	29.799
735.37	32.948
735.69	28.662
736.00	34.641
736.32	32.087
736.63	30.351
736.95	35.144
737.26	29.252
737.58	30.000
737.89	38.127
738.21	33.447
738.52	33.214
738.83	35.094
739.15	36.154
739.46	36.861
739.78	33.333
740.09	32.923
740.41	33.871
740.72	30.662
741.04	31.852
741.35	35.000
741.66	40.000
741.98	35.849
742.29	43.541
742.61	41.379
742.92	38.914
743.23	38.034
743.55	35.600
743.86	32.895
744.18	42.920
744.49	45.933
744.80	42.254
745.12	41.364
745.43	38.767
745.74	45.045
746.06	42.661
746.37	40.359
746.68	40.271
747.00	42.130
747.31	42.857
747.62	38.053
747.94	37.445
748.25	37.872
748.56	42.291
748.88	40.594
749.19	43.500
749.50	40.000
749.82	36.179
750.13	35.918
750.44	31.752
750.75	34.737
751.07	33.441
751.38	36.934
751.69	31.047
752.01	36.842
752.32	36.101
752.63	34.752
752.94	31.557
753.26	42.800
753.57	30.894
753.88	36.328
754.19	33.214
754.51	37.500
754.82	33.574
755.13	33.208
755.44	32.331
755.75	33.212
756.07	31.560
756.38	27.737
756.69	34.899
757.00	27.246
757.31	28.487
757.63	28.947
757.94	26.273
758.25	25.490
758.56	26.667
758.87	26.882
759.18	30.000
759.50	30.408
759.81	31.464
760.12	25.625
760.43	27.794
760.74	26.359
761.05	28.814
761.36	27.273
761.67	28.693
761.99	29.814
762.30	30.903
762.61	31.679
762.92	30.859
763.23	34.454
763.54	38.800
763.85	31.250
764.16	38.077
764.47	33.460
764.78	34.276
765.10	27.215
765.41	31.858
765.72	29.341
766.03	28.213
766.34	30.333
766.65	37.447
766.96	38.889
767.27	37.563
767.58	42.188
767.89	45.789
768.20	45.977
768.51	42.132
768.82	41.743
769.13	36.585
769.44	34.008
769.75	33.047
770.06	29.817
770.37	38.914
770.68	40.741
770.99	36.444
771.30	30.738
771.61	36.323
771.92	35.246
772.23	39.496
772.54	36.923
772.85	40.314
773.16	36.702
773.47	41.304
773.78	42.640
774.09	44.643
774.39	46.784
774.70	41.358
775.01	44.928
775.32	45.098
775.63	48.026
775.94	51.079
776.25	55.906
776.56	52.985
776.87	58.197
777.18	53.906
777.48	51.145
777.79	52.273
778.10	52.593
778.41	55.357
778.72	44.526
779.03	49.664
779.34	48.993
779.65	42.568
779.95	45.399
780.26	52.941
780.57	48.276
780.88	60.156
781.19	44.361
781.50	47.973
781.80	43.396
782.11	37.853
782.42	41.772
782.73	43.558
783.04	49.324
783.34	52.113
783.65	57.534
783.96	53.731
784.27	44.056
784.57	44.604
784.88	49.074
785.19	59.524
785.50	54.717
785.81	61.194
786.11	54.918
786.42	62.791
786.73	49.558
787.04	60.377
787.34	59.821
787.65	69.000
787.96	62.162
788.26	58.678
788.57	55.085
788.88	56.198
789.19	54.167
789.49	65.152
789.80	59.542
790.11	70.476
790.41	63.366
790.72	61.446
791.03	66.304
791.33	75.581
791.64	71.134
791.95	71.287
792.25	76.667
792.56	79.221
792.87	87.179
793.17	81.013
793.48	74.713
793.79	63.218
794.09	70.455
794.40	55.462
794.70	52.941
795.01	53.333
795.32	48.201
795.62	48.031
795.93	56.897
796.23	61.947
796.54	65.882
796.85	66.216
797.15	92.958
797.46	95.455
797.76	79.518
798.07	93.671
798.37	90.769
798.68	72.727
798.99	74.648
799.29	74.026
799.60	75.000
799.90	79.452
800.21	86.567
800.51	91.379
800.82	100.000
801.12	88.525
801.43	93.939
801.73	75.676
802.04	90.476
802.34	81.481
802.65	98.437
802.95	100.000
803.26	92.188
803.56	84.286
803.87	93.846
804.17	85.294
804.48	103.704
804.78	98.276
805.09	105.882
805.39	107.692
805.70	98.214
806.00	96.721
806.30	75.758
806.61	90.244
806.91	72.152
807.22	80.263
807.52	70.149
807.83	95.775
808.13	90.625
808.43	85.000
808.74	60.526
809.04	95.652
809.35	88.060
809.65	89.474
809.95	104.839
810.26	96.610
810.56	96.825
810.86	115.909
811.17	130.952
811.47	98.333
811.77	100.000
812.08	121.818
812.38	122.000
812.69	138.889
812.99	152.273
813.29	128.571
813.59	100.000
813.90	124.490
814.20	101.818
814.50	76.923
814.81	104.412
815.11	126.531
815.41	114.754
815.72	140.476
816.02	112.727
816.32	142.857
816.62	127.500
816.93	141.463
817.23	142.857
817.53	134.091
817.84	166.667
818.14	136.957
818.44	126.667
818.74	158.824
819.04	135.000
819.35	174.286
819.65	179.412
819.95	153.571
820.25	210.000
820.56	153.846
820.86	131.818
821.16	146.512
821.46	128.205
821.76	136.000
822.07	140.000
822.37	135.000
822.67	151.515
822.97	101.961
823.27	200.000
823.57	145.946
823.88	182.500
824.18	196.667
824.48	164.286
824.78	176.000
825.08	191.667
825.38	156.757
825.69	146.341
825.99	183.333
826.29	158.621
826.59	131.579
826.89	150.000
827.19	167.647
827.49	187.097
827.79	145.455
828.09	138.636
828.39	123.404
828.70	124.490
829.00	177.778
829.30	161.290
829.60	145.000
829.90	300.000
830.20	207.143
830.50	178.261
830.80	221.739
831.10	180.000
831.40	183.333
831.70	165.217
832.00	219.231
832.30	185.185
832.60	243.750
832.90	193.333
833.20	414.286
833.50	200.000
833.80	189.655
834.10	184.375
834.40	234.615
834.70	311.111
835.00	276.190
835.30	202.857
835.60	307.692
835.90	217.241
836.20	314.286
836.50	196.552
836.80	172.000
837.10	166.667
837.40	204.762
837.70	276.471
838.00	177.778
838.30	233.333
838.60	304.762
838.90	238.462
839.19	295.000
839.49	407.143
839.79	335.000
840.09	285.000
840.39	266.667
840.69	230.435
840.99	277.778
841.29	400.000
841.59	291.667
841.88	312.500
842.18	203.448
842.48	280.952
842.78	200.000
843.08	208.696
843.38	146.875
843.68	850.000
843.97	211.538
844.27	227.586
844.57	266.667
844.87	312.500
845.17	196.296
845.47	1366.667
845.76	400.000
846.06	329.412
846.36	525.000
846.66	342.857
846.96	300.000
847.25	427.273
847.55	481.818
847.85	295.652
848.15	460.000
848.44	357.143
848.74	261.111
849.04	300.000
849.34	520.000
849.63	247.368
849.93	445.455
850.23	880.000
850.53	414.286
850.82	2200.000
851.12	-4500.000
851.42	5300.000
851.71	275.000
852.01	-1166.667
852.31	270.833
852.61	1400.000
852.90	266.667
853.20	240.000
853.50	347.059
853.79	261.905
854.09	200.000
854.39	318.750
854.68	148.649
854.98	203.226
855.28	153.333
855.57	224.138
855.87	188.889
856.17	221.053
856.46	206.667
856.76	264.706
857.05	231.034
857.35	212.500
857.65	346.667
857.94	230.435
858.24	242.308
858.53	330.000
858.83	245.455
859.13	306.667
859.42	0.000
859.72	566.667
860.01	427.273
860.31	259.091
860.60	300.000
860.90	226.087
861.20	500.000
861.49	450.000
861.79	-4500.000
862.08	625.000
862.38	238.095
862.67	338.462
862.97	317.647
863.26	566.667
863.56	250.000
863.85	441.667
864.15	662.500
864.44	386.667
864.74	850.000
865.03	675.000
865.33	252.632
865.62	436.364
865.92	423.077
866.21	241.667
866.51	0.000
866.80	463.636
867.10	1220.000
867.39	438.462
867.69	509.091
867.98	242.105
868.27	436.364
868.57	294.737
868.86	-4500.000
869.16	337.500
869.45	2200.000
869.75	-4300.000
870.04	391.667
870.33	628.571
870.63	1050.000
870.92	2750.000
871.22	757.143
871.51	364.706
871.80	238.095
872.10	335.714
>>>>>End Processed Spectral Data<<<<<
