SpectraSuite Data File
++++++++++++++++++++++++++++++++++++
Date: Wed May 13 19:35:38 PDT 2015
User: schluterlab
Dark Spectrum Present: Yes
Reference Spectrum Present: Yes
Number of Sampled Component Spectra: 1
Spectrometers: USB2E3373
Integration Time (usec): 3000 (USB2E3373)
Spectra Averaged: 3 (USB2E3373)
Boxcar Smoothing: 0 (USB2E3373)
Correct for Electrical Dark: No (USB2E3373)
Strobe/Lamp Enabled: No (USB2E3373)
Correct for Detector Non-linearity: No (USB2E3373)
Correct for Stray Light: No (USB2E3373)
Number of Pixels in Processed Spectrum: 2048
>>>>>Begin Processed Spectral Data<<<<<
178.53	0.000
178.91	-1450.000
179.29	-1375.000
179.67	-244.444
180.04	-1275.000
180.42	2900.000
180.80	1360.000
181.18	-1300.000
181.56	800.000
181.94	0.000
182.31	-571.429
182.69	1966.667
183.07	-625.000
183.45	-533.333
183.83	572.727
184.20	-460.000
184.58	3000.000
184.96	6300.000
185.34	-1000.000
185.72	-637.500
186.09	-2500.000
186.47	3500.000
186.85	2400.000
187.23	6000.000
187.61	-2000.000
187.98	1300.000
188.36	527.273
188.74	527.273
189.12	-1100.000
189.49	630.000
189.87	-4800.000
190.25	-1350.000
190.63	485.714
191.00	530.769
191.38	1000.000
191.76	-1175.000
192.14	1425.000
192.51	612.500
192.89	1216.667
193.27	650.000
193.65	-1250.000
194.02	550.000
194.40	1120.000
194.78	640.000
195.15	525.000
195.53	580.000
195.91	-2450.000
196.29	387.500
196.66	389.474
197.04	-550.000
197.42	0.000
197.79	700.000
198.17	-5700.000
198.55	828.571
198.92	725.000
199.30	1160.000
199.68	0.000
200.05	366.667
200.43	857.143
200.81	5200.000
201.18	1966.667
201.56	-1533.333
201.94	566.667
202.31	633.333
202.69	508.333
203.07	540.000
203.44	0.000
203.82	1475.000
204.19	871.429
204.57	435.714
204.95	675.000
205.32	1833.333
205.70	572.727
206.08	407.143
206.45	2650.000
206.83	412.500
207.20	1083.333
207.58	960.000
207.96	355.556
208.33	787.500
208.71	-900.000
209.08	814.286
209.46	566.667
209.84	500.000
210.21	-1733.333
210.59	1275.000
210.96	-550.000
211.34	2400.000
211.71	710.000
212.09	950.000
212.46	0.000
212.84	1800.000
213.22	1575.000
213.59	-5200.000
213.97	883.333
214.34	942.857
214.72	645.455
215.09	1280.000
215.47	-2700.000
215.84	-2800.000
216.22	1833.333
216.59	414.286
216.97	1625.000
217.34	518.182
217.72	-916.667
218.09	0.000
218.47	-4900.000
218.84	733.333
219.22	842.857
219.59	1800.000
219.97	-685.714
220.34	900.000
220.72	-2300.000
221.09	435.714
221.47	1475.000
221.84	-883.333
222.22	0.000
222.59	1600.000
222.97	-2700.000
223.34	1060.000
223.72	538.462
224.09	1080.000
224.46	2500.000
224.84	-5000.000
225.21	-920.000
225.59	-4800.000
225.96	630.000
226.34	355.000
226.71	2700.000
227.08	700.000
227.46	500.000
227.83	-1150.000
228.21	-2100.000
228.58	577.778
228.95	-2200.000
229.33	-2700.000
229.70	2200.000
230.08	871.429
230.45	-960.000
230.82	525.000
231.20	1000.000
231.57	657.143
231.95	558.333
232.32	268.182
232.69	527.273
233.07	714.286
233.44	415.385
233.81	-1933.333
234.19	294.737
234.56	550.000
234.93	475.000
235.31	527.273
235.68	407.692
236.05	328.571
236.43	184.848
236.80	294.737
237.17	5800.000
237.55	280.952
237.92	217.857
238.29	290.476
238.67	229.032
239.04	200.000
239.41	144.444
239.79	156.522
240.16	166.667
240.53	147.727
240.91	125.490
241.28	134.000
241.65	134.000
242.02	108.696
242.40	117.742
242.77	115.000
243.14	87.097
243.51	114.607
243.89	91.765
244.26	80.000
244.63	77.419
245.00	89.362
245.38	78.218
245.75	77.570
246.12	69.725
246.49	75.182
246.87	76.000
247.24	73.077
247.61	66.429
247.98	64.052
248.36	59.459
248.73	66.242
249.10	64.968
249.47	61.582
249.84	62.567
250.22	51.872
250.59	62.722
250.96	55.051
251.33	54.976
251.70	60.891
252.08	53.333
252.45	51.121
252.82	52.609
253.19	53.617
253.56	50.196
253.94	51.037
254.31	50.781
254.68	51.538
255.05	50.923
255.42	50.407
255.79	51.103
256.16	51.264
256.54	45.583
256.91	46.975
257.28	43.525
257.65	43.894
258.02	49.379
258.39	42.902
258.76	41.806
259.14	41.667
259.51	44.377
259.88	43.789
260.25	46.224
260.62	42.486
260.99	43.478
261.36	43.544
261.73	42.407
262.10	48.837
262.47	43.662
262.85	39.554
263.22	39.601
263.59	45.299
263.96	40.110
264.33	39.426
264.70	44.211
265.07	42.711
265.44	38.889
265.81	39.173
266.18	39.196
266.55	40.244
266.92	42.260
267.29	38.657
267.66	39.908
268.03	36.364
268.40	42.290
268.77	35.322
269.14	37.838
269.51	42.438
269.88	38.228
270.25	39.052
270.62	41.348
270.99	40.215
271.36	37.124
271.73	38.551
272.10	38.261
272.47	40.215
272.84	39.177
273.21	36.478
273.58	35.808
273.95	37.945
274.32	37.397
274.69	40.471
275.06	37.205
275.43	39.149
275.80	37.876
276.17	39.715
276.54	37.006
276.91	37.945
277.28	37.109
277.65	38.298
278.02	38.302
278.39	39.062
278.76	36.545
279.13	34.906
279.50	37.058
279.87	39.442
280.23	36.926
280.60	35.590
280.97	35.305
281.34	36.637
281.71	37.091
282.08	33.589
282.45	34.909
282.82	35.169
283.19	31.016
283.56	35.614
283.92	36.379
284.29	33.510
284.66	35.209
285.03	36.347
285.40	32.746
285.77	35.017
286.14	32.470
286.51	35.833
286.87	34.701
287.24	35.668
287.61	34.350
287.98	32.955
288.35	32.013
288.72	31.776
289.08	31.612
289.45	30.478
289.82	32.846
290.19	30.455
290.56	30.934
290.93	30.967
291.29	28.528
291.66	31.563
292.03	31.541
292.40	32.452
292.77	28.107
293.13	30.746
293.50	31.487
293.87	29.926
294.24	29.185
294.60	29.694
294.97	29.070
295.34	28.068
295.71	30.114
296.08	28.775
296.44	28.198
296.81	25.760
297.18	27.778
297.55	25.066
297.91	27.309
298.28	28.112
298.65	28.068
299.02	27.668
299.38	25.498
299.75	24.933
300.12	26.437
300.48	23.875
300.85	25.894
301.22	26.369
301.59	25.126
301.95	26.322
302.32	25.931
302.69	23.895
303.05	23.758
303.42	25.802
303.79	24.802
304.15	24.825
304.52	24.102
304.89	22.764
305.25	25.174
305.62	24.689
305.99	24.203
306.35	22.483
306.72	25.897
307.09	24.306
307.45	24.324
307.82	24.442
308.19	23.620
308.55	25.351
308.92	24.060
309.29	22.492
309.65	23.436
310.02	24.419
310.38	23.441
310.75	23.337
311.12	24.872
311.48	23.824
311.85	23.690
312.22	23.205
312.58	23.597
312.95	23.970
313.31	21.942
313.68	24.532
314.05	24.753
314.41	24.020
314.78	23.666
315.14	23.436
315.51	23.893
315.87	23.960
316.24	23.138
316.61	24.172
316.97	23.190
317.34	23.777
317.70	26.004
318.07	25.698
318.43	24.364
318.80	25.117
319.16	25.518
319.53	24.672
319.89	25.810
320.26	26.700
320.62	26.190
320.99	25.960
321.35	25.758
321.72	27.207
322.08	28.529
322.45	27.164
322.81	27.229
323.18	28.324
323.54	28.015
323.91	28.679
324.27	27.438
324.64	27.679
325.00	27.232
325.37	30.209
325.73	30.610
326.10	28.508
326.46	28.495
326.83	29.508
327.19	29.291
327.56	29.443
327.92	30.359
328.29	30.435
328.65	30.018
329.01	31.318
329.38	29.602
329.74	31.025
330.11	31.008
330.47	31.038
330.84	31.710
331.20	31.239
331.56	30.734
331.93	31.759
332.29	30.701
332.66	32.832
333.02	31.718
333.38	32.430
333.75	32.175
334.11	31.139
334.48	31.677
334.84	32.445
335.20	32.818
335.57	31.460
335.93	30.625
336.29	30.769
336.66	32.732
337.02	30.860
337.38	32.037
337.75	30.838
338.11	31.782
338.47	32.228
338.84	31.714
339.20	31.193
339.56	33.668
339.93	32.091
340.29	31.884
340.65	32.531
341.02	31.414
341.38	32.295
341.74	31.316
342.11	32.751
342.47	32.159
342.83	30.651
343.20	32.554
343.56	30.160
343.92	30.877
344.28	32.143
344.65	31.900
345.01	29.966
345.37	30.532
345.73	30.795
346.10	32.140
346.46	31.356
346.82	31.384
347.19	31.913
347.55	30.706
347.91	32.039
348.27	31.389
348.63	32.274
349.00	31.311
349.36	31.281
349.72	31.115
350.08	30.227
350.45	30.919
350.81	30.382
351.17	29.903
351.53	30.139
351.89	30.858
352.26	30.939
352.62	31.756
352.98	29.903
353.34	31.471
353.70	30.442
354.07	31.210
354.43	31.190
354.79	30.088
355.15	31.045
355.51	31.815
355.87	31.673
356.24	30.782
356.60	31.275
356.96	30.973
357.32	31.316
357.68	30.472
358.04	31.196
358.40	32.383
358.77	30.516
359.13	29.834
359.49	30.588
359.85	29.683
360.21	30.064
360.57	31.051
360.93	32.231
361.29	30.537
361.66	29.721
362.02	30.746
362.38	29.886
362.74	30.655
363.10	29.830
363.46	31.695
363.82	30.839
364.18	30.984
364.54	31.947
364.90	30.807
365.26	31.103
365.62	31.775
365.98	31.337
366.35	29.943
366.71	30.296
367.07	30.590
367.43	31.205
367.79	32.405
368.15	32.399
368.51	30.741
368.87	31.977
369.23	30.139
369.59	33.309
369.95	31.250
370.31	30.983
370.67	31.232
371.03	31.386
371.39	30.904
371.75	30.882
372.11	31.437
372.47	31.891
372.83	32.349
373.19	31.647
373.55	32.003
373.91	32.842
374.27	31.340
374.63	31.418
374.99	31.497
375.35	30.077
375.71	32.214
376.07	31.619
376.42	31.981
376.78	32.936
377.14	32.293
377.50	32.848
377.86	31.117
378.22	32.111
378.58	31.642
378.94	32.055
379.30	32.188
379.66	33.058
380.02	32.678
380.38	31.937
380.74	32.593
381.09	32.274
381.45	33.620
381.81	32.985
382.17	33.439
382.53	32.830
382.89	33.519
383.25	32.708
383.61	33.643
383.97	32.958
384.32	33.624
384.68	32.590
385.04	34.173
385.40	33.127
385.76	33.907
386.12	33.549
386.48	33.669
386.83	33.996
387.19	34.323
387.55	34.014
387.91	33.857
388.27	33.415
388.62	34.604
388.98	33.600
389.34	34.793
389.70	35.071
390.06	34.347
390.42	34.436
390.77	35.814
391.13	34.844
391.49	35.025
391.85	33.864
392.20	34.259
392.56	35.543
392.92	34.314
393.28	33.787
393.64	34.832
393.99	35.370
394.35	34.864
394.71	35.383
395.07	35.389
395.42	36.218
395.78	36.069
396.14	35.878
396.50	36.717
396.85	37.190
397.21	35.943
397.57	35.462
397.92	36.058
398.28	36.379
398.64	36.201
399.00	36.877
399.35	36.605
399.71	36.748
400.07	37.611
400.42	37.730
400.78	38.239
401.14	36.768
401.49	36.836
401.85	36.661
402.21	35.988
402.57	37.754
402.92	37.579
403.28	38.913
403.63	38.490
403.99	38.408
404.35	37.758
404.70	38.789
405.06	38.206
405.42	38.677
405.77	37.429
406.13	37.246
406.49	38.734
406.84	38.807
407.20	39.243
407.55	39.821
407.91	39.533
408.27	37.971
408.62	39.133
408.98	39.216
409.34	38.622
409.69	40.323
410.05	38.042
410.40	40.673
410.76	40.980
411.11	39.264
411.47	40.575
411.83	39.585
412.18	39.951
412.54	40.971
412.89	40.482
413.25	40.378
413.60	40.581
413.96	39.769
414.31	41.252
414.67	40.304
415.03	40.861
415.38	40.851
415.74	40.514
416.09	42.064
416.45	40.295
416.80	41.904
417.16	42.091
417.51	42.269
417.87	41.554
418.22	41.956
418.58	42.866
418.93	42.445
419.29	41.757
419.64	42.003
420.00	40.854
420.35	42.087
420.71	43.515
421.06	43.198
421.42	42.339
421.77	42.433
422.12	41.606
422.48	42.418
422.83	43.390
423.19	42.652
423.54	42.948
423.90	42.029
424.25	42.937
424.61	42.679
424.96	41.983
425.31	42.746
425.67	42.753
426.02	42.114
426.38	44.017
426.73	43.359
427.09	42.857
427.44	43.588
427.79	43.818
428.15	44.583
428.50	42.305
428.85	44.815
429.21	42.463
429.56	44.012
429.92	43.030
430.27	43.496
430.62	42.396
430.98	43.020
431.33	44.794
431.68	44.136
432.04	43.131
432.39	43.689
432.74	44.584
433.10	45.161
433.45	43.790
433.80	44.235
434.16	43.857
434.51	44.000
434.86	44.584
435.22	44.469
435.57	45.228
435.92	44.470
436.28	45.611
436.63	45.088
436.98	44.018
437.34	45.677
437.69	45.274
438.04	44.519
438.39	45.493
438.75	45.148
439.10	45.531
439.45	45.218
439.81	45.498
440.16	45.059
440.51	45.987
440.86	45.744
441.22	44.939
441.57	44.533
441.92	45.650
442.27	44.672
442.63	44.602
442.98	46.028
443.33	45.000
443.68	45.844
444.03	45.144
444.39	44.547
444.74	45.942
445.09	46.038
445.44	44.997
445.79	44.978
446.15	45.156
446.50	45.450
446.85	45.067
447.20	44.722
447.55	45.840
447.91	45.284
448.26	45.520
448.61	45.958
448.96	45.515
449.31	45.669
449.66	46.764
450.02	45.237
450.37	45.238
450.72	45.572
451.07	46.009
451.42	45.836
451.77	44.627
452.12	46.536
452.47	45.398
452.83	45.921
453.18	45.966
453.53	47.248
453.88	45.836
454.23	46.623
454.58	46.336
454.93	47.235
455.28	44.825
455.63	46.238
455.98	47.143
456.34	45.477
456.69	46.525
457.04	46.873
457.39	46.873
457.74	46.547
458.09	44.796
458.44	46.123
458.79	44.902
459.14	46.163
459.49	46.410
459.84	46.260
460.19	45.256
460.54	44.560
460.89	45.145
461.24	46.570
461.59	46.833
461.94	46.178
462.29	46.944
462.64	45.182
462.99	45.348
463.34	46.800
463.69	47.092
464.04	46.435
464.39	45.507
464.74	46.346
465.09	44.934
465.44	44.377
465.79	45.470
466.14	45.430
466.49	45.829
466.84	45.067
467.19	45.564
467.54	46.938
467.89	45.018
468.24	45.666
468.59	46.703
468.94	45.571
469.29	45.823
469.64	47.456
469.99	46.685
470.34	47.028
470.68	47.198
471.03	45.102
471.38	46.630
471.73	46.236
472.08	46.711
472.43	45.477
472.78	46.412
473.13	46.598
473.48	46.380
473.83	46.646
474.17	46.049
474.52	46.526
474.87	45.476
475.22	45.618
475.57	44.438
475.92	44.981
476.27	44.758
476.61	46.111
476.96	44.750
477.31	45.003
477.66	45.295
478.01	44.433
478.36	45.531
478.70	44.444
479.05	45.314
479.40	45.599
479.75	45.043
480.10	44.533
480.45	44.598
480.79	44.290
481.14	45.646
481.49	44.803
481.84	44.399
482.19	44.298
482.53	44.450
482.88	44.486
483.23	44.579
483.58	44.131
483.92	44.705
484.27	42.571
484.62	43.405
484.97	43.161
485.31	44.418
485.66	43.019
486.01	40.604
486.36	39.865
486.70	39.623
487.05	40.347
487.40	41.471
487.75	41.977
488.09	43.342
488.44	43.329
488.79	44.882
489.13	44.920
489.48	43.679
489.83	44.411
490.17	44.630
490.52	44.198
490.87	44.595
491.22	44.020
491.56	42.916
491.91	43.927
492.26	43.592
492.60	43.641
492.95	42.376
493.30	44.626
493.64	43.630
493.99	42.665
494.34	43.663
494.68	44.277
495.03	44.831
495.37	43.276
495.72	44.201
496.07	44.362
496.41	41.681
496.76	42.964
497.11	43.629
497.45	43.456
497.80	42.754
498.14	44.058
498.49	43.463
498.84	42.953
499.18	43.619
499.53	43.637
499.87	43.616
500.22	43.052
500.56	43.301
500.91	41.971
501.26	43.480
501.60	43.854
501.95	42.621
502.29	43.393
502.64	43.063
502.98	43.385
503.33	42.687
503.67	42.088
504.02	42.937
504.36	42.864
504.71	43.478
505.06	42.988
505.40	43.170
505.75	42.430
506.09	43.878
506.44	43.463
506.78	42.621
507.13	43.766
507.47	43.333
507.82	43.617
508.16	43.769
508.51	44.191
508.85	43.198
509.19	43.418
509.54	43.265
509.88	43.483
510.23	42.674
510.57	43.447
510.92	42.672
511.26	44.090
511.61	42.842
511.95	42.589
512.30	42.895
512.64	42.182
512.98	42.712
513.33	43.576
513.67	42.476
514.02	43.615
514.36	44.020
514.70	43.110
515.05	42.499
515.39	43.746
515.74	43.131
516.08	43.991
516.42	44.340
516.77	43.590
517.11	42.730
517.46	43.849
517.80	44.077
518.14	42.849
518.49	44.982
518.83	43.580
519.17	43.822
519.52	42.275
519.86	43.240
520.20	44.393
520.55	44.704
520.89	44.221
521.23	45.115
521.58	43.517
521.92	44.397
522.26	42.831
522.61	44.361
522.95	43.892
523.29	43.944
523.64	43.232
523.98	44.362
524.32	43.788
524.66	44.197
525.01	43.137
525.35	43.123
525.69	43.288
526.04	43.489
526.38	44.173
526.72	42.086
527.06	43.189
527.41	42.698
527.75	44.887
528.09	43.995
528.43	44.041
528.78	43.331
529.12	44.061
529.46	44.764
529.80	44.059
530.15	43.988
530.49	43.077
530.83	42.848
531.17	44.778
531.51	45.136
531.86	44.516
532.20	43.807
532.54	43.434
532.88	43.068
533.22	42.723
533.57	42.222
533.91	42.083
534.25	43.135
534.59	42.282
534.93	42.356
535.27	42.849
535.62	42.918
535.96	42.938
536.30	43.420
536.64	43.335
536.98	43.862
537.32	44.174
537.66	42.867
538.01	43.384
538.35	44.473
538.69	44.352
539.03	42.495
539.37	42.812
539.71	41.996
540.05	43.333
540.39	43.920
540.73	41.397
541.07	43.868
541.42	43.183
541.76	43.742
542.10	43.338
542.44	43.113
542.78	42.754
543.12	42.802
543.46	43.279
543.80	43.787
544.14	42.105
544.48	43.429
544.82	42.207
545.16	43.006
545.50	42.545
545.84	43.212
546.18	42.896
546.52	44.047
546.86	43.505
547.20	42.414
547.54	43.687
547.88	43.559
548.22	41.656
548.56	41.761
548.90	41.677
549.24	42.357
549.58	41.746
549.92	42.514
550.26	43.324
550.60	42.254
550.94	42.183
551.28	41.990
551.62	42.703
551.96	42.246
552.30	42.799
552.64	42.461
552.98	42.712
553.32	41.605
553.66	42.604
554.00	42.965
554.34	41.546
554.68	42.561
555.02	42.525
555.36	42.102
555.69	40.663
556.03	41.723
556.37	41.064
556.71	41.746
557.05	41.667
557.39	41.707
557.73	42.625
558.07	42.204
558.41	41.462
558.75	43.350
559.08	42.356
559.42	43.235
559.76	43.015
560.10	40.828
560.44	41.509
560.78	39.587
561.12	41.491
561.45	42.177
561.79	41.266
562.13	40.845
562.47	40.232
562.81	41.841
563.15	40.669
563.48	40.252
563.82	40.574
564.16	41.661
564.50	40.755
564.84	39.317
565.17	41.055
565.51	41.086
565.85	40.546
566.19	39.386
566.52	40.342
566.86	40.084
567.20	40.566
567.54	39.897
567.88	39.544
568.21	39.312
568.55	38.220
568.89	38.716
569.23	37.790
569.56	37.449
569.90	37.321
570.24	36.347
570.57	35.974
570.91	35.133
571.25	35.300
571.59	35.523
571.92	35.340
572.26	36.366
572.60	36.096
572.93	35.532
573.27	35.256
573.61	35.678
573.95	35.607
574.28	34.874
574.62	35.107
574.96	34.719
575.29	34.821
575.63	34.782
575.97	34.705
576.30	35.449
576.64	34.749
576.98	34.954
577.31	34.612
577.65	34.701
577.98	33.856
578.32	33.856
578.66	33.941
578.99	34.102
579.33	34.156
579.67	34.639
580.00	34.428
580.34	34.409
580.67	34.862
581.01	34.765
581.35	34.117
581.68	33.997
582.02	33.514
582.35	33.400
582.69	33.314
583.02	33.794
583.36	34.263
583.70	35.290
584.03	34.718
584.37	35.837
584.70	35.031
585.04	34.393
585.37	34.180
585.71	34.258
586.04	34.525
586.38	34.666
586.72	34.659
587.05	33.714
587.39	34.142
587.72	34.321
588.06	34.525
588.39	34.540
588.73	34.497
589.06	35.338
589.40	35.690
589.73	35.586
590.07	35.587
590.40	35.075
590.73	36.261
591.07	36.711
591.40	36.946
591.74	36.190
592.07	35.253
592.41	35.593
592.74	34.981
593.08	34.610
593.41	33.692
593.75	33.479
594.08	33.859
594.41	34.288
594.75	34.270
595.08	34.359
595.42	34.221
595.75	34.865
596.09	35.223
596.42	35.010
596.75	35.669
597.09	36.840
597.42	34.359
597.75	35.791
598.09	35.696
598.42	35.137
598.76	34.131
599.09	33.257
599.42	32.897
599.76	34.297
600.09	33.151
600.42	33.236
600.76	33.357
601.09	33.807
601.42	34.209
601.76	33.814
602.09	33.913
602.42	34.196
602.76	34.502
603.09	34.461
603.42	34.010
603.76	33.727
604.09	34.005
604.42	33.999
604.76	34.332
605.09	34.338
605.42	33.476
605.75	34.106
606.09	34.323
606.42	33.347
606.75	33.762
607.09	34.491
607.42	33.462
607.75	33.460
608.08	33.782
608.42	34.424
608.75	33.589
609.08	34.413
609.41	33.984
609.75	34.207
610.08	34.590
610.41	34.311
610.74	34.106
611.07	34.437
611.41	34.200
611.74	34.791
612.07	34.472
612.40	35.047
612.73	34.316
613.07	35.075
613.40	34.755
613.73	33.875
614.06	33.871
614.39	34.190
614.72	34.368
615.06	34.559
615.39	33.864
615.72	33.845
616.05	33.652
616.38	34.297
616.71	34.442
617.05	36.042
617.38	34.215
617.71	35.075
618.04	35.577
618.37	34.418
618.70	34.723
619.03	35.329
619.36	35.574
619.69	36.549
620.03	35.852
620.36	35.762
620.69	36.986
621.02	35.914
621.35	37.197
621.68	34.813
622.01	35.604
622.34	36.233
622.67	36.654
623.00	34.776
623.33	35.096
623.66	36.169
623.99	35.125
624.32	35.307
624.65	36.088
624.99	34.207
625.32	34.540
625.65	36.063
625.98	36.126
626.31	36.703
626.64	36.898
626.97	37.739
627.30	37.406
627.63	35.685
627.96	37.006
628.29	38.145
628.62	37.328
628.95	38.774
629.28	37.500
629.61	38.863
629.94	36.952
630.26	38.036
630.59	36.892
630.92	36.111
631.25	37.512
631.58	37.137
631.91	39.148
632.24	36.392
632.57	37.041
632.90	38.377
633.23	38.702
633.56	38.192
633.89	38.052
634.22	37.571
634.55	40.473
634.88	37.365
635.20	39.307
635.53	38.795
635.86	39.975
636.19	38.706
636.52	38.639
636.85	39.061
637.18	36.406
637.51	41.135
637.83	35.882
638.16	40.153
638.49	37.406
638.82	40.455
639.15	40.750
639.48	40.648
639.81	40.214
640.13	39.974
640.46	38.658
640.79	39.630
641.12	37.001
641.45	41.341
641.77	41.826
642.10	40.497
642.43	39.489
642.76	40.712
643.09	42.485
643.41	40.971
643.74	40.741
644.07	41.006
644.40	40.337
644.73	41.732
645.05	41.521
645.38	41.548
645.71	40.902
646.04	44.352
646.36	42.571
646.69	43.144
647.02	42.687
647.35	42.096
647.67	41.416
648.00	41.463
648.33	41.419
648.66	37.576
648.98	38.681
649.31	38.714
649.64	42.750
649.96	37.854
650.29	42.022
650.62	38.997
650.94	41.977
651.27	41.892
651.60	40.266
651.92	39.297
652.25	38.599
652.58	41.900
652.90	41.390
653.23	38.059
653.56	36.850
653.88	39.620
654.21	41.232
654.54	39.604
654.86	39.408
655.19	37.162
655.52	26.420
655.84	22.721
656.17	29.889
656.49	40.059
656.82	41.283
657.15	31.801
657.47	23.786
657.80	18.390
658.13	19.358
658.45	28.932
658.78	29.980
659.10	31.580
659.43	33.424
659.75	35.194
660.08	38.544
660.41	41.620
660.73	43.075
661.06	41.083
661.38	42.000
661.71	41.731
662.03	44.379
662.36	37.972
662.68	42.369
663.01	42.222
663.33	42.038
663.66	41.387
663.98	42.117
664.31	42.857
664.63	40.688
664.96	38.431
665.28	43.238
665.61	41.910
665.93	43.058
666.26	42.394
666.58	41.213
666.91	43.340
667.23	45.169
667.56	40.389
667.88	44.017
668.21	42.431
668.53	43.384
668.86	40.043
669.18	43.497
669.50	44.130
669.83	44.880
670.15	45.111
670.48	37.255
670.80	44.828
671.13	43.949
671.45	39.149
671.77	40.733
672.10	40.481
672.42	39.046
672.75	39.469
673.07	38.380
673.39	36.347
673.72	38.281
674.04	39.412
674.37	40.000
674.69	39.673
675.01	40.586
675.34	43.532
675.66	46.316
675.98	41.752
676.31	43.487
676.63	42.038
676.95	39.413
677.28	40.888
677.60	41.758
677.92	44.093
678.25	40.452
678.57	41.633
678.89	42.084
679.22	39.686
679.54	38.740
679.86	39.450
680.18	39.893
680.51	38.830
680.83	37.189
681.15	38.491
681.48	37.807
681.80	39.458
682.12	38.123
682.44	36.557
682.77	40.733
683.09	39.700
683.41	41.685
683.73	42.826
684.06	42.149
684.38	39.922
684.70	39.922
685.02	42.589
685.34	39.011
685.67	37.238
685.99	36.942
686.31	36.177
686.63	36.042
686.96	38.750
687.28	39.350
687.60	36.957
687.92	39.305
688.24	37.643
688.56	41.165
688.89	40.871
689.21	41.266
689.53	39.040
689.85	42.350
690.17	38.302
690.49	40.552
690.82	41.355
691.14	38.839
691.46	39.030
691.78	37.952
692.10	38.430
692.42	38.922
692.74	39.004
693.06	40.213
693.39	37.988
693.71	40.830
694.03	41.053
694.35	39.827
694.67	39.817
694.99	41.463
695.31	39.461
695.63	41.148
695.95	39.853
696.27	39.340
696.59	41.969
696.91	40.933
697.23	39.437
697.56	40.512
697.88	35.378
698.20	38.750
698.52	39.355
698.84	36.303
699.16	40.783
699.48	41.093
699.80	41.063
700.12	45.974
700.44	40.318
700.76	43.370
701.08	43.103
701.40	42.458
701.72	47.522
702.04	45.170
702.36	42.776
702.68	41.926
703.00	42.105
703.32	39.894
703.64	42.359
703.96	44.290
704.28	42.733
704.60	44.575
704.91	45.104
705.23	44.868
705.55	48.837
705.87	45.183
706.19	48.057
706.51	42.991
706.83	42.424
707.15	45.098
707.47	39.646
707.79	39.558
708.11	37.900
708.43	35.952
708.74	40.816
709.06	43.377
709.38	42.520
709.70	42.733
710.02	44.510
710.34	42.727
710.66	43.284
710.98	45.170
711.29	40.698
711.61	45.428
711.93	43.910
712.25	46.302
712.57	45.221
712.89	45.329
713.20	46.505
713.52	45.066
713.84	42.405
714.16	43.902
714.48	41.092
714.80	47.112
715.11	42.363
715.43	39.169
715.75	39.710
716.07	45.687
716.39	43.260
716.70	45.515
717.02	46.043
717.34	45.583
717.66	47.015
717.97	52.590
718.29	42.593
718.61	50.730
718.93	43.015
719.24	47.059
719.56	43.729
719.88	44.068
720.20	46.959
720.51	47.735
720.83	50.929
721.15	45.896
721.46	47.872
721.78	51.971
722.10	51.698
722.42	49.248
722.73	49.813
723.05	45.492
723.37	45.344
723.68	48.263
724.00	48.374
724.32	47.177
724.63	47.967
724.95	48.536
725.27	47.773
725.58	48.047
725.90	43.066
726.22	46.038
726.53	46.181
726.85	45.392
727.16	46.975
727.48	44.326
727.80	46.970
728.11	45.652
728.43	44.615
728.74	43.369
729.06	49.635
729.38	48.529
729.69	43.416
730.01	46.416
730.32	42.361
730.64	45.485
730.96	38.614
731.27	45.033
731.59	42.813
731.90	40.816
732.22	41.615
732.53	39.628
732.85	42.949
733.16	44.373
733.48	45.515
733.80	43.182
734.11	47.771
734.43	41.420
734.74	40.286
735.06	40.974
735.37	42.197
735.69	41.720
736.00	43.464
736.32	43.614
736.63	42.492
736.95	42.173
737.26	39.116
737.58	39.677
737.89	44.147
738.21	45.051
738.52	42.500
738.83	45.283
739.15	46.538
739.46	44.526
739.78	45.139
740.09	41.231
740.41	46.129
740.72	39.721
741.04	45.185
741.35	48.333
741.66	53.778
741.98	46.698
742.29	48.804
742.61	47.414
742.92	49.321
743.23	47.863
743.55	43.200
743.86	53.509
744.18	56.195
744.49	51.675
744.80	50.235
745.12	55.000
745.43	50.661
745.74	54.505
746.06	49.083
746.37	53.812
746.68	51.131
747.00	56.019
747.31	51.429
747.62	47.345
747.94	44.934
748.25	43.404
748.56	52.863
748.88	52.475
749.19	58.000
749.50	51.163
749.82	45.528
750.13	46.122
750.44	43.796
750.75	44.912
751.07	44.373
751.38	43.206
751.69	45.487
752.01	49.248
752.32	42.960
752.63	40.780
752.94	45.902
753.26	51.200
753.57	36.992
753.88	47.656
754.19	40.714
754.51	47.917
754.82	37.184
755.13	47.547
755.44	37.218
755.75	43.066
756.07	39.007
756.38	39.781
756.69	44.295
757.00	36.228
757.31	38.576
757.63	38.889
757.94	35.657
758.25	37.990
758.56	36.543
758.87	37.903
759.18	40.606
759.50	38.558
759.81	40.498
760.12	37.500
760.43	38.682
760.74	37.772
761.05	38.136
761.36	35.561
761.67	37.500
761.99	35.714
762.30	42.014
762.61	45.420
762.92	48.047
763.23	41.176
763.54	47.200
763.85	41.797
764.16	46.538
764.47	46.768
764.78	41.343
765.10	35.127
765.41	38.348
765.72	39.820
766.03	39.812
766.34	42.000
766.65	47.234
766.96	46.581
767.27	54.822
767.58	56.250
767.89	60.526
768.20	55.747
768.51	53.299
768.82	50.000
769.13	43.902
769.44	44.534
769.75	50.215
770.06	43.578
770.37	52.036
770.68	50.926
770.99	45.778
771.30	43.852
771.61	46.188
771.92	45.082
772.23	48.739
772.54	51.795
772.85	52.356
773.16	54.255
773.47	53.804
773.78	56.853
774.09	51.786
774.39	53.216
774.70	64.815
775.01	62.319
775.32	64.052
775.63	55.263
775.94	59.712
776.25	60.630
776.56	70.896
776.87	66.393
777.18	72.656
777.48	74.046
777.79	59.091
778.10	62.222
778.41	74.107
778.72	57.664
779.03	63.758
779.34	59.732
779.65	54.054
779.95	54.601
780.26	64.052
780.57	59.310
780.88	75.000
781.19	58.647
781.50	64.189
781.80	54.088
782.11	50.282
782.42	54.430
782.73	53.374
783.04	60.811
783.34	57.746
783.65	67.808
783.96	61.194
784.27	59.441
784.57	53.957
784.88	63.889
785.19	65.873
785.50	66.981
785.81	69.403
786.11	68.852
786.42	68.992
786.73	72.566
787.04	76.415
787.34	76.786
787.65	80.000
787.96	72.973
788.26	74.380
788.57	60.169
788.88	76.860
789.19	63.889
789.49	72.727
789.80	71.756
790.11	81.905
790.41	77.228
790.72	83.133
791.03	82.609
791.33	94.186
791.64	81.443
791.95	81.188
792.25	86.667
792.56	89.610
792.87	101.282
793.17	100.000
793.48	86.207
793.79	87.356
794.09	81.818
794.40	73.109
794.70	73.529
795.01	60.741
795.32	51.799
795.62	70.866
795.93	63.793
796.23	72.566
796.54	82.353
796.85	87.838
797.15	109.859
797.46	101.515
797.76	102.410
798.07	93.671
798.37	101.538
798.68	96.970
798.99	105.634
799.29	85.714
799.60	78.409
799.90	105.479
800.21	108.955
800.51	110.345
800.82	138.596
801.12	106.557
801.43	107.576
801.73	91.892
802.04	123.810
802.34	101.235
802.65	115.625
802.95	122.034
803.26	107.813
803.56	92.857
803.87	96.923
804.17	100.000
804.48	159.259
804.78	93.103
805.09	100.000
805.39	123.077
805.70	117.857
806.00	126.230
806.30	84.848
806.61	101.220
806.91	84.810
807.22	86.842
807.52	89.552
807.83	97.183
808.13	112.500
808.43	116.667
808.74	93.421
809.04	98.551
809.35	102.985
809.65	114.474
809.95	132.258
810.26	103.390
810.56	103.175
810.86	156.818
811.17	152.381
811.47	133.333
811.77	109.259
812.08	129.091
812.38	122.000
812.69	177.778
812.99	168.182
813.29	132.653
813.59	147.619
813.90	144.898
814.20	123.636
814.50	109.231
814.81	113.235
815.11	153.061
815.41	103.279
815.72	169.048
816.02	125.455
816.32	173.810
816.62	130.000
816.93	163.415
817.23	166.667
817.53	147.727
817.84	203.030
818.14	136.957
818.44	155.556
818.74	167.647
819.04	150.000
819.35	205.714
819.65	208.824
819.95	228.571
820.25	230.000
820.56	192.308
820.86	147.727
821.16	169.767
821.46	158.974
821.76	152.000
822.07	171.429
822.37	167.500
822.67	193.939
822.97	135.294
823.27	235.714
823.57	172.973
823.88	170.000
824.18	183.333
824.48	176.190
824.78	248.000
825.08	220.833
825.38	162.162
825.69	148.780
825.99	283.333
826.29	213.793
826.59	184.211
826.89	181.579
827.19	205.882
827.49	219.355
827.79	165.909
828.09	159.091
828.39	136.170
828.70	132.653
829.00	196.296
829.30	151.613
829.60	177.500
829.90	373.333
830.20	239.286
830.50	239.130
830.80	256.522
831.10	223.333
831.40	206.667
831.70	247.826
832.00	234.615
832.30	218.519
832.60	325.000
832.90	236.667
833.20	428.571
833.50	225.806
833.80	206.897
834.10	243.750
834.40	242.308
834.70	288.889
835.00	323.810
835.30	177.143
835.60	330.769
835.90	206.897
836.20	350.000
836.50	244.828
836.80	208.000
837.10	205.556
837.40	261.905
837.70	364.706
838.00	240.741
838.30	347.619
838.60	300.000
838.90	242.308
839.19	275.000
839.49	457.143
839.79	345.000
840.09	225.000
840.39	304.762
840.69	256.522
840.99	338.889
841.29	510.000
841.59	416.667
841.88	406.250
842.18	220.690
842.48	271.429
842.78	200.000
843.08	252.174
843.38	209.375
843.68	1050.000
843.97	219.231
844.27	227.586
844.57	347.619
844.87	462.500
845.17	237.037
845.47	1700.000
845.76	522.222
846.06	388.235
846.36	650.000
846.66	450.000
846.96	325.000
847.25	500.000
847.55	527.273
847.85	308.696
848.15	570.000
848.44	414.286
848.74	283.333
849.04	317.647
849.34	590.000
849.63	257.895
849.93	436.364
850.23	1120.000
850.53	428.571
850.82	2550.000
851.12	-4100.000
851.42	5400.000
851.71	310.000
852.01	-1866.667
852.31	254.167
852.61	1666.667
852.90	290.476
853.20	292.000
853.50	364.706
853.79	314.286
854.09	241.667
854.39	300.000
854.68	200.000
854.98	174.194
855.28	203.333
855.57	227.586
855.87	248.148
856.17	236.842
856.46	326.667
856.76	358.824
857.05	234.483
857.35	250.000
857.65	380.000
857.94	278.261
858.24	288.462
858.53	310.000
858.83	281.818
859.13	393.333
859.42	0.000
859.72	577.778
860.01	509.091
860.31	318.182
860.60	347.368
860.90	239.130
861.20	666.667
861.49	591.667
861.79	-5800.000
862.08	700.000
862.38	323.810
862.67	476.923
862.97	376.471
863.26	677.778
863.56	300.000
863.85	525.000
864.15	687.500
864.44	380.000
864.74	1066.667
865.03	725.000
865.33	357.895
865.62	463.636
865.92	469.231
866.21	450.000
866.51	0.000
866.80	463.636
867.10	1260.000
867.39	484.615
867.69	554.545
867.98	352.632
868.27	490.909
868.57	336.842
868.86	-4800.000
869.16	356.250
869.45	2200.000
869.75	-4400.000
870.04	525.000
870.33	700.000
870.63	1150.000
870.92	2700.000
871.22	771.429
871.51	370.588
871.80	261.905
872.10	414.286
>>>>>End Processed Spectral Data<<<<<
