SpectraSuite Data File
++++++++++++++++++++++++++++++++++++
Date: Wed May 13 19:37:40 PDT 2015
User: schluterlab
Dark Spectrum Present: Yes
Reference Spectrum Present: Yes
Number of Sampled Component Spectra: 1
Spectrometers: USB2E3373
Integration Time (usec): 3000 (USB2E3373)
Spectra Averaged: 3 (USB2E3373)
Boxcar Smoothing: 0 (USB2E3373)
Correct for Electrical Dark: No (USB2E3373)
Strobe/Lamp Enabled: No (USB2E3373)
Correct for Detector Non-linearity: No (USB2E3373)
Correct for Stray Light: No (USB2E3373)
Number of Pixels in Processed Spectrum: 2048
>>>>>Begin Processed Spectral Data<<<<<
178.53	0.000
178.91	-1300.000
179.29	-1450.000
179.67	-238.889
180.04	-1450.000
180.42	2700.000
180.80	1280.000
181.18	-1150.000
181.56	914.286
181.94	0.000
182.31	-757.143
182.69	1900.000
183.07	-612.500
183.45	-533.333
183.83	500.000
184.20	-470.000
184.58	2500.000
184.96	6000.000
185.34	-1000.000
185.72	-687.500
186.09	-2750.000
186.47	2500.000
186.85	2700.000
187.23	5900.000
187.61	-1566.667
187.98	1675.000
188.36	563.636
188.74	545.455
189.12	-800.000
189.49	600.000
189.87	-5100.000
190.25	-1325.000
190.63	485.714
191.00	476.923
191.38	883.333
191.76	-1200.000
192.14	1350.000
192.51	675.000
192.89	950.000
193.27	625.000
193.65	-1200.000
194.02	630.000
194.40	1020.000
194.78	510.000
195.15	458.333
195.53	570.000
195.91	-2000.000
196.29	331.250
196.66	321.053
197.04	-350.000
197.42	0.000
197.79	720.000
198.17	-5900.000
198.55	785.714
198.92	750.000
199.30	980.000
199.68	0.000
200.05	355.556
200.43	800.000
200.81	4900.000
201.18	1933.333
201.56	-1800.000
201.94	722.222
202.31	677.778
202.69	508.333
203.07	530.000
203.44	0.000
203.82	1350.000
204.19	785.714
204.57	507.143
204.95	662.500
205.32	1700.000
205.70	554.545
206.08	407.143
206.45	3100.000
206.83	281.250
207.20	966.667
207.58	600.000
207.96	366.667
208.33	725.000
208.71	-916.667
209.08	671.429
209.46	588.889
209.84	527.273
210.21	-1400.000
210.59	1250.000
210.96	-587.500
211.34	2550.000
211.71	560.000
212.09	783.333
212.46	0.000
212.84	2000.000
213.22	1475.000
213.59	-5100.000
213.97	866.667
214.34	785.714
214.72	627.273
215.09	1180.000
215.47	-2450.000
215.84	-2750.000
216.22	1966.667
216.59	464.286
216.97	1200.000
217.34	481.818
217.72	-766.667
218.09	0.000
218.47	-4000.000
218.84	811.111
219.22	814.286
219.59	1766.667
219.97	-600.000
220.34	1180.000
220.72	-2000.000
221.09	464.286
221.47	1425.000
221.84	-1016.667
222.22	0.000
222.59	1400.000
222.97	-2500.000
223.34	1160.000
223.72	423.077
224.09	1300.000
224.46	2450.000
224.84	-5300.000
225.21	-1080.000
225.59	-5600.000
225.96	600.000
226.34	295.000
226.71	3350.000
227.08	637.500
227.46	530.000
227.83	-1325.000
228.21	-2250.000
228.58	688.889
228.95	-2800.000
229.33	-2750.000
229.70	2000.000
230.08	757.143
230.45	-1040.000
230.82	416.667
231.20	850.000
231.57	685.714
231.95	483.333
232.32	295.455
232.69	309.091
233.07	742.857
233.44	423.077
233.81	-1800.000
234.19	331.579
234.56	466.667
234.93	333.333
235.31	472.727
235.68	392.308
236.05	421.429
236.43	190.909
236.80	300.000
237.17	3600.000
237.55	223.810
237.92	228.571
238.29	271.429
238.67	177.419
239.04	213.793
239.41	166.667
239.79	102.174
240.16	135.714
240.53	125.000
240.91	96.078
241.28	112.000
241.65	94.000
242.02	102.899
242.40	85.484
242.77	91.667
243.14	68.817
243.51	65.169
243.89	67.059
244.26	62.222
244.63	53.763
245.00	61.702
245.38	54.455
245.75	57.009
246.12	45.872
246.49	51.825
246.87	51.200
247.24	51.538
247.61	47.857
247.98	43.791
248.36	40.541
248.73	38.854
249.10	42.675
249.47	33.333
249.84	41.711
250.22	37.433
250.59	32.544
250.96	33.333
251.33	30.332
251.70	38.119
252.08	30.952
252.45	30.493
252.82	29.130
253.19	29.787
253.56	28.235
253.94	29.461
254.31	30.469
254.68	34.231
255.05	24.354
255.42	25.610
255.79	23.897
256.16	25.271
256.54	22.968
256.91	24.555
257.28	19.784
257.65	25.083
258.02	19.565
258.39	23.344
258.76	21.405
259.14	23.214
259.51	25.836
259.88	18.634
260.25	21.752
260.62	22.832
260.99	21.429
261.36	22.523
261.73	21.490
262.10	20.930
262.47	23.662
262.85	20.891
263.22	17.949
263.59	22.222
263.96	20.055
264.33	20.888
264.70	20.263
265.07	18.670
265.44	19.949
265.81	15.815
266.18	20.603
266.55	18.537
266.92	20.639
267.29	18.056
267.66	17.661
268.03	18.864
268.40	21.729
268.77	18.616
269.14	16.892
269.51	20.090
269.88	16.317
270.25	19.865
270.62	17.978
270.99	20.000
271.36	17.811
271.73	17.523
272.10	19.130
272.47	19.355
272.84	15.152
273.21	17.400
273.58	14.192
273.95	15.723
274.32	16.322
274.69	16.488
275.06	15.354
275.43	17.234
275.80	14.429
276.17	16.090
276.54	15.177
276.91	15.613
277.28	13.867
277.65	14.313
278.02	15.321
278.39	16.992
278.76	16.727
279.13	15.283
279.50	16.574
279.87	14.343
280.23	16.168
280.60	15.087
280.97	11.645
281.34	15.398
281.71	16.909
282.08	17.466
282.45	15.273
282.82	15.275
283.19	11.052
283.56	14.386
283.92	14.552
284.29	15.344
284.66	16.697
285.03	12.658
285.40	13.732
285.77	13.131
286.14	13.644
286.51	14.167
286.87	15.043
287.24	14.658
287.61	15.088
287.98	14.773
288.35	12.678
288.72	14.019
289.08	13.302
289.45	12.026
289.82	13.659
290.19	11.460
290.56	12.711
290.93	13.142
291.29	13.804
291.66	12.979
292.03	14.826
292.40	15.419
292.77	12.574
293.13	11.940
293.50	11.516
293.87	10.815
294.24	12.148
294.60	11.936
294.97	12.936
295.34	13.681
295.71	13.068
296.08	13.105
296.44	10.179
296.81	12.153
297.18	12.331
297.55	10.554
297.91	10.686
298.28	11.780
298.65	12.533
299.02	13.043
299.38	10.093
299.75	8.491
300.12	11.111
300.48	10.750
300.85	11.097
301.22	10.701
301.59	9.848
301.95	10.202
302.32	11.297
302.69	11.111
303.05	10.667
303.42	10.247
303.79	10.193
304.15	10.373
304.52	10.081
304.89	9.756
305.25	10.325
305.62	11.778
305.99	11.924
306.35	9.396
306.72	10.090
307.09	10.988
307.45	11.261
307.82	9.821
308.19	11.148
308.55	10.787
308.92	10.634
309.29	9.398
309.65	9.862
310.02	10.148
310.38	10.538
310.75	11.088
311.12	10.952
311.48	10.345
311.85	11.111
312.22	10.614
312.58	10.811
312.95	12.460
313.31	10.583
313.68	11.019
314.05	13.215
314.41	11.759
314.78	11.682
315.14	12.413
315.51	12.564
315.87	13.168
316.24	12.016
316.61	12.865
316.97	12.427
317.34	12.035
317.70	13.384
318.07	14.341
318.43	13.796
318.80	14.902
319.16	14.783
319.53	14.071
319.89	16.000
320.26	16.600
320.62	16.567
320.99	17.273
321.35	17.879
321.72	17.248
322.08	18.559
322.45	19.303
322.81	19.089
323.18	19.942
323.54	19.202
323.91	19.906
324.27	21.511
324.64	19.105
325.00	20.469
325.37	21.747
325.73	22.352
326.10	21.094
326.46	21.326
326.83	22.347
327.19	22.716
327.56	23.432
327.92	24.147
328.29	24.579
328.65	25.414
329.01	24.188
329.38	25.532
329.74	25.208
330.11	25.636
330.47	26.814
330.84	27.390
331.20	25.956
331.56	27.431
331.93	27.130
332.29	26.087
332.66	27.345
333.02	27.971
333.38	26.649
333.75	27.629
334.11	26.601
334.48	26.619
334.84	27.849
335.20	27.818
335.57	28.105
335.93	27.946
336.29	28.114
336.66	27.953
337.02	28.326
337.38	30.000
337.75	28.342
338.11	29.275
338.47	29.466
338.84	28.323
339.20	28.165
339.56	29.380
339.93	28.909
340.29	27.808
340.65	30.125
341.02	28.621
341.38	29.982
341.74	28.772
342.11	30.480
342.47	29.956
342.83	30.394
343.20	31.082
343.56	28.728
343.92	29.825
344.28	30.612
344.65	31.212
345.01	29.377
345.37	29.674
345.73	30.541
346.10	29.923
346.46	30.254
346.82	31.549
347.19	30.075
347.55	30.213
347.91	31.311
348.27	31.964
348.63	31.522
349.00	31.472
349.36	30.706
349.72	30.473
350.08	30.227
350.45	32.465
350.81	30.950
351.17	32.091
351.53	31.450
351.89	31.023
352.26	31.097
352.62	32.157
352.98	32.415
353.34	31.717
353.70	31.097
354.07	31.129
354.43	30.873
354.79	31.698
355.15	32.562
355.51	34.293
355.87	33.714
356.24	32.818
356.60	32.879
356.96	33.307
357.32	34.096
357.68	32.598
358.04	32.858
358.40	33.571
358.77	33.568
359.13	33.228
359.49	32.549
359.85	32.302
360.21	32.376
360.57	34.397
360.93	33.154
361.29	33.409
361.66	32.972
362.02	32.910
362.38	33.688
362.74	33.705
363.10	33.309
363.46	34.483
363.82	34.392
364.18	34.361
364.54	35.290
364.90	33.782
365.26	35.000
365.62	35.354
365.98	34.186
366.35	32.665
366.71	34.996
367.07	34.596
367.43	35.414
367.79	36.117
368.15	36.063
368.51	34.811
368.87	35.189
369.23	34.528
369.59	35.771
369.95	34.485
370.31	35.541
370.67	34.203
371.03	37.079
371.39	35.350
371.75	35.221
372.11	35.917
372.47	34.971
372.83	37.320
373.19	35.766
373.55	36.807
373.91	36.672
374.27	35.052
374.63	35.491
374.99	36.088
375.35	35.241
375.71	35.709
376.07	36.283
376.42	36.107
376.78	35.454
377.14	35.550
377.50	35.695
377.86	35.306
378.22	36.662
378.58	35.840
378.94	35.575
379.30	35.051
379.66	37.183
380.02	35.749
380.38	36.369
380.74	36.915
381.09	36.369
381.45	36.693
381.81	36.671
382.17	37.580
382.53	36.226
382.89	36.173
383.25	36.023
383.61	37.794
383.97	36.585
384.32	35.683
384.68	36.679
385.04	36.939
385.40	36.223
385.76	36.425
386.12	37.111
386.48	37.634
386.83	37.845
387.19	37.168
387.55	36.425
387.91	36.941
388.27	36.174
388.62	37.001
388.98	36.486
389.34	37.297
389.70	37.216
390.06	37.199
390.42	38.003
390.77	36.196
391.13	37.013
391.49	36.548
391.85	37.046
392.20	35.899
392.56	38.194
392.92	37.728
393.28	35.917
393.64	37.290
393.99	37.752
394.35	36.104
394.71	36.512
395.07	37.695
395.42	37.330
395.78	37.532
396.14	37.803
396.50	37.469
396.85	37.444
397.21	36.683
397.57	37.012
397.92	36.418
398.28	35.930
398.64	37.575
399.00	36.430
399.35	34.913
399.71	36.285
400.07	36.783
400.42	37.178
400.78	36.791
401.14	36.098
401.49	36.478
401.85	36.056
402.21	36.108
402.57	35.225
402.92	36.318
403.28	36.540
403.63	35.767
403.99	35.605
404.35	36.182
404.70	35.492
405.06	35.877
405.42	35.371
405.77	35.086
406.13	34.819
406.49	36.192
406.84	35.499
407.20	35.106
407.55	35.737
407.91	35.400
408.27	36.184
408.62	35.882
408.98	35.172
409.34	35.732
409.69	36.452
410.05	34.201
410.40	34.312
410.76	35.066
411.11	34.620
411.47	34.824
411.83	35.064
412.18	34.694
412.54	34.869
412.89	35.904
413.25	35.419
413.60	35.145
413.96	33.698
414.31	34.569
414.67	34.981
415.03	35.232
415.38	35.052
415.74	34.920
416.09	35.206
416.45	33.936
416.80	34.633
417.16	35.724
417.51	34.705
417.87	34.489
418.22	34.890
418.58	34.151
418.93	34.091
419.29	35.646
419.64	34.509
420.00	34.268
420.35	34.551
420.71	33.652
421.06	33.413
421.42	34.854
421.77	33.576
422.12	33.801
422.48	33.837
422.83	33.663
423.19	34.696
423.54	34.185
423.90	35.246
424.25	33.557
424.61	33.036
424.96	34.286
425.31	33.887
425.67	33.146
426.02	33.543
426.38	34.371
426.73	33.821
427.09	34.225
427.44	33.410
427.79	34.100
428.15	33.988
428.50	34.172
428.85	34.207
429.21	33.352
429.56	33.385
429.92	32.813
430.27	33.168
430.62	32.565
430.98	33.316
431.33	32.423
431.68	33.770
432.04	32.748
432.39	32.724
432.74	32.795
433.10	33.560
433.45	33.586
433.80	32.650
434.16	33.440
434.51	32.842
434.86	33.295
435.22	32.462
435.57	33.070
435.92	32.943
436.28	33.274
436.63	32.285
436.98	33.200
437.34	34.228
437.69	34.014
438.04	33.165
438.39	33.015
438.75	34.224
439.10	32.849
439.45	31.877
439.81	32.508
440.16	32.355
440.51	33.040
440.86	33.179
441.22	32.425
441.57	33.386
441.92	32.497
442.27	33.477
442.63	32.754
442.98	32.620
443.33	32.989
443.68	32.215
444.03	32.552
444.39	32.473
444.74	32.305
445.09	31.321
445.44	32.531
445.79	32.261
446.15	32.080
446.50	32.579
446.85	32.374
447.20	32.228
447.55	32.607
447.91	31.771
448.26	32.666
448.61	32.222
448.96	32.226
449.31	31.946
449.66	32.358
450.02	31.086
450.37	31.066
450.72	32.205
451.07	31.140
451.42	30.578
451.77	31.826
452.12	31.120
452.47	31.779
452.83	31.702
453.18	31.846
453.53	31.664
453.88	30.597
454.23	30.783
454.58	30.951
454.93	32.486
455.28	30.611
455.63	30.947
455.98	31.548
456.34	30.653
456.69	32.123
457.04	30.526
457.39	31.268
457.74	30.760
458.09	31.052
458.44	29.989
458.79	29.393
459.14	29.402
459.49	30.006
459.84	28.809
460.19	28.639
460.54	28.183
460.89	28.963
461.24	30.358
461.59	30.680
461.94	29.531
462.29	30.504
462.64	29.483
462.99	28.953
463.34	30.600
463.69	30.269
464.04	28.812
464.39	29.101
464.74	28.580
465.09	28.287
465.44	27.922
465.79	28.971
466.14	28.079
466.49	28.087
466.84	27.671
467.19	28.727
467.54	29.250
467.89	27.251
468.24	28.156
468.59	29.182
468.94	27.550
469.29	28.406
469.64	29.183
469.99	28.214
470.34	28.005
470.68	29.885
471.03	27.279
471.38	28.978
471.73	28.914
472.08	28.421
472.43	27.387
472.78	27.057
473.13	27.535
473.48	27.278
473.83	27.378
474.17	26.945
474.52	27.481
474.87	26.912
475.22	27.046
475.57	26.384
475.92	26.288
476.27	26.888
476.61	25.869
476.96	26.608
477.31	26.478
477.66	26.805
478.01	26.085
478.36	25.595
478.70	24.870
479.05	25.772
479.40	25.537
479.75	25.013
480.10	25.000
480.45	25.178
480.79	24.558
481.14	25.196
481.49	24.917
481.84	25.286
482.19	24.398
482.53	24.495
482.88	24.477
483.23	24.766
483.58	24.067
483.92	25.070
484.27	23.573
484.62	23.966
484.97	23.571
485.31	23.767
485.66	22.198
486.01	21.039
486.36	20.609
486.70	20.223
487.05	21.267
487.40	21.757
487.75	21.796
488.09	22.687
488.44	22.548
488.79	22.640
489.13	22.956
489.48	22.798
489.83	22.788
490.17	23.455
490.52	22.852
490.87	22.569
491.22	23.192
491.56	22.005
491.91	22.708
492.26	22.600
492.60	22.581
492.95	21.749
493.30	22.290
493.64	22.678
493.99	21.541
494.34	21.693
494.68	23.077
495.03	22.462
495.37	22.801
495.72	22.368
496.07	22.691
496.41	21.283
496.76	21.900
497.11	21.702
497.45	21.938
497.80	22.169
498.14	21.739
498.49	21.463
498.84	21.860
499.18	21.048
499.53	21.747
499.87	21.622
500.22	20.961
500.56	22.136
500.91	21.202
501.26	21.100
501.60	22.069
501.95	20.577
502.29	20.806
502.64	21.648
502.98	21.225
503.33	21.207
503.67	21.392
504.02	19.878
504.36	20.636
504.71	21.690
505.06	21.398
505.40	21.001
505.75	20.588
506.09	20.311
506.44	20.720
506.78	20.945
507.13	20.697
507.47	21.111
507.82	20.618
508.16	20.871
508.51	21.258
508.85	21.003
509.19	20.000
509.54	20.969
509.88	20.402
510.23	20.823
510.57	21.362
510.92	20.922
511.26	20.504
511.61	20.799
511.95	20.198
512.30	20.891
512.64	21.333
512.98	20.472
513.33	20.236
513.67	20.331
514.02	20.887
514.36	20.918
514.70	20.587
515.05	20.636
515.39	21.144
515.74	20.833
516.08	21.185
516.42	21.254
516.77	21.349
517.11	19.978
517.46	20.880
517.80	19.803
518.14	19.745
518.49	21.004
518.83	20.739
519.17	20.554
519.52	20.996
519.86	21.107
520.20	20.867
520.55	21.005
520.89	20.560
521.23	21.894
521.58	20.528
521.92	21.066
522.26	21.049
522.61	21.682
522.95	21.179
523.29	21.302
523.64	21.463
523.98	20.949
524.32	20.205
524.66	20.325
525.01	20.159
525.35	20.384
525.69	21.244
526.04	20.872
526.38	20.683
526.72	20.613
527.06	20.653
527.41	19.369
527.75	20.643
528.09	20.681
528.43	20.140
528.78	21.389
529.12	21.091
529.46	20.759
529.80	20.792
530.15	21.121
530.49	19.569
530.83	20.570
531.17	21.475
531.51	21.012
531.86	20.516
532.20	20.730
532.54	21.204
532.88	20.347
533.22	19.363
533.57	20.247
533.91	19.687
534.25	19.988
534.59	19.219
534.93	19.274
535.27	19.493
535.62	20.574
535.96	20.590
536.30	19.771
536.64	20.476
536.98	20.106
537.32	20.145
537.66	19.733
538.01	20.342
538.35	20.168
538.69	19.847
539.03	19.558
539.37	19.425
539.71	18.859
540.05	19.804
540.39	20.000
540.73	19.728
541.07	20.117
541.42	19.896
541.76	20.968
542.10	19.470
542.44	19.868
542.78	20.553
543.12	19.578
543.46	20.262
543.80	19.128
544.14	19.191
544.48	19.619
544.82	19.500
545.16	20.299
545.50	17.738
545.84	19.288
546.18	19.192
546.52	20.165
546.86	19.863
547.20	19.690
547.54	19.506
547.88	19.133
548.22	19.178
548.56	18.428
548.90	18.630
549.24	18.721
549.58	19.714
549.92	18.475
550.26	19.602
550.60	19.571
550.94	19.014
551.28	18.581
551.62	19.626
551.96	18.737
552.30	19.317
552.64	19.473
552.98	19.593
553.32	18.881
553.66	19.564
554.00	20.522
554.34	18.634
554.68	19.671
555.02	18.336
555.36	18.024
555.69	18.065
556.03	18.708
556.37	18.963
556.71	17.599
557.05	18.137
557.39	18.824
557.73	19.054
558.07	19.289
558.41	19.247
558.75	19.398
559.08	18.867
559.42	18.972
559.76	19.118
560.10	18.701
560.44	18.938
560.78	17.831
561.12	18.404
561.45	18.514
561.79	17.996
562.13	17.304
562.47	18.374
562.81	18.201
563.15	18.194
563.48	17.507
563.82	18.069
564.16	18.574
564.50	17.708
564.84	17.636
565.17	18.275
565.51	18.211
565.85	17.259
566.19	17.783
566.52	18.303
566.86	16.757
567.20	17.748
567.54	16.952
567.88	16.567
568.21	16.825
568.55	17.290
568.89	16.342
569.23	15.686
569.56	15.789
569.90	15.396
570.24	15.501
570.57	14.995
570.91	14.803
571.25	14.608
571.59	14.462
571.92	14.372
572.26	14.674
572.60	14.865
572.93	14.213
573.27	14.581
573.61	14.796
573.95	14.599
574.28	14.422
574.62	13.970
574.96	14.146
575.29	13.967
575.63	14.024
575.97	14.606
576.30	14.180
576.64	13.899
576.98	13.952
577.31	13.655
577.65	13.702
577.98	13.671
578.32	13.423
578.66	13.941
578.99	14.152
579.33	13.968
579.67	13.719
580.00	13.834
580.34	14.001
580.67	13.992
581.01	13.987
581.35	13.622
581.68	13.651
582.02	13.066
582.35	13.382
582.69	13.398
583.02	13.664
583.36	13.927
583.70	14.186
584.03	14.028
584.37	14.598
584.70	14.080
585.04	14.384
585.37	13.793
585.71	14.074
586.04	13.892
586.38	13.715
586.72	14.471
587.05	14.127
587.39	13.562
587.72	14.120
588.06	13.954
588.39	14.156
588.73	13.875
589.06	14.459
589.40	14.276
589.73	14.537
590.07	14.804
590.40	15.090
590.73	14.988
591.07	15.100
591.40	15.099
591.74	15.541
592.07	14.921
592.41	14.675
592.74	14.082
593.08	14.390
593.41	13.761
593.75	13.710
594.08	14.381
594.41	14.811
594.75	14.529
595.08	14.567
595.42	14.501
595.75	14.138
596.09	14.232
596.42	14.971
596.75	15.027
597.09	15.628
597.42	15.008
597.75	14.748
598.09	14.783
598.42	14.863
598.76	14.430
599.09	14.139
599.42	13.901
599.76	14.056
600.09	14.353
600.42	14.207
600.76	14.393
601.09	14.098
601.42	14.422
601.76	14.004
602.09	14.545
602.42	14.570
602.76	15.034
603.09	14.398
603.42	14.838
603.76	13.986
604.09	14.192
604.42	14.554
604.76	15.521
605.09	14.548
605.42	13.638
605.75	14.694
606.09	13.949
606.42	13.813
606.75	14.475
607.09	14.985
607.42	14.891
607.75	13.418
608.08	13.678
608.42	13.895
608.75	14.382
609.08	14.200
609.41	14.755
609.75	14.245
610.08	14.750
610.41	14.525
610.74	14.380
611.07	14.476
611.41	14.720
611.74	15.435
612.07	15.373
612.40	15.110
612.73	14.789
613.07	15.140
613.40	15.377
613.73	13.949
614.06	14.731
614.39	14.893
614.72	15.474
615.06	15.074
615.39	14.544
615.72	14.315
616.05	14.301
616.38	14.786
616.71	15.618
617.05	15.724
617.38	15.755
617.71	14.595
618.04	15.505
618.37	15.316
618.70	15.246
619.03	16.645
619.36	15.207
619.69	16.056
620.03	17.514
620.36	16.310
620.69	16.644
621.02	16.740
621.35	15.740
621.68	15.732
622.01	17.802
622.34	16.566
622.67	15.970
623.00	16.067
623.33	15.368
623.66	15.654
623.99	15.758
624.32	16.405
624.65	16.031
624.99	15.368
625.32	16.220
625.65	16.454
625.98	16.603
626.31	17.030
626.64	16.980
626.97	16.791
627.30	16.958
627.63	16.735
627.96	16.821
628.29	18.285
628.62	18.298
628.95	18.396
629.28	18.157
629.61	18.148
629.94	16.286
630.26	16.397
630.59	17.350
630.92	17.433
631.25	16.979
631.58	18.619
631.91	18.256
632.24	17.616
632.57	19.098
632.90	18.969
633.23	18.009
633.56	19.548
633.89	18.007
634.22	19.183
634.55	19.172
634.88	17.246
635.20	19.235
635.53	20.241
635.86	19.059
636.19	18.706
636.52	18.570
636.85	19.244
637.18	17.281
637.51	19.267
637.83	16.276
638.16	19.693
638.49	19.144
638.82	20.480
639.15	17.750
639.48	19.451
639.81	19.705
640.13	19.922
640.46	19.732
640.79	20.211
641.12	18.982
641.45	19.134
641.77	20.913
642.10	20.760
642.43	19.369
642.76	20.124
643.09	20.092
643.41	20.789
643.74	22.994
644.07	20.579
644.40	22.239
644.73	21.575
645.05	22.821
645.38	21.327
645.71	22.866
646.04	21.429
646.36	23.372
646.69	22.241
647.02	18.878
647.35	21.649
647.67	23.186
648.00	22.276
648.33	20.792
648.66	20.758
648.98	20.690
649.31	18.984
649.64	20.478
649.96	20.119
650.29	22.907
650.62	20.712
650.94	21.718
651.27	20.777
651.60	22.130
651.92	19.808
652.25	20.521
652.58	19.938
652.90	20.379
653.23	20.031
653.56	20.157
653.88	22.187
654.21	21.643
654.54	21.452
654.86	21.495
655.19	18.919
655.52	11.895
655.84	8.988
656.17	10.988
656.49	15.121
656.82	15.600
657.15	11.949
657.47	9.165
657.80	7.176
658.13	7.512
658.45	11.303
658.78	11.619
659.10	12.500
659.43	13.376
659.75	13.577
660.08	15.570
660.41	16.946
660.73	19.822
661.06	22.134
661.38	21.455
661.71	25.577
662.03	25.641
662.36	22.664
662.68	22.691
663.01	22.424
663.33	22.718
663.66	22.269
663.98	22.678
664.31	25.420
664.63	22.065
664.96	21.529
665.28	25.205
665.61	22.222
665.93	21.529
666.26	22.921
666.58	23.222
666.91	24.101
667.23	24.270
667.56	22.030
667.88	21.795
668.21	23.881
668.53	22.560
668.86	22.078
669.18	25.586
669.50	25.217
669.83	23.747
670.15	26.444
670.48	23.965
670.80	23.060
671.13	24.416
671.45	20.851
671.77	25.662
672.10	22.921
672.42	21.025
672.75	20.564
673.07	21.655
673.39	20.615
673.72	20.312
674.04	19.608
674.37	22.718
674.69	23.108
675.01	20.711
675.34	24.846
675.66	23.368
675.98	24.644
676.31	24.580
676.63	25.053
676.95	25.786
677.28	21.028
677.60	23.956
677.92	24.051
678.25	22.998
678.57	23.506
678.89	21.042
679.22	22.200
679.54	22.710
679.86	22.385
680.18	20.215
680.51	20.745
680.83	21.174
681.15	22.075
681.48	24.764
681.80	18.956
682.12	22.031
682.44	18.956
682.77	22.607
683.09	22.318
683.41	22.173
683.73	22.958
684.06	22.314
684.38	22.114
684.70	22.868
685.02	22.702
685.34	22.161
685.67	20.280
685.99	19.931
686.31	20.137
686.63	19.788
686.96	20.536
687.28	22.202
687.60	19.022
687.92	20.658
688.24	20.152
688.56	23.293
688.89	22.822
689.21	25.328
689.53	24.426
689.85	23.282
690.17	21.325
690.49	25.690
690.82	23.131
691.14	20.759
691.46	21.730
691.78	22.691
692.10	23.967
692.42	22.954
692.74	19.917
693.06	22.553
693.39	24.435
693.71	21.397
694.03	22.526
694.35	21.429
694.67	23.112
694.99	25.366
695.31	22.304
695.63	25.120
695.95	24.694
696.27	20.812
696.59	25.389
696.91	25.648
697.23	21.596
697.56	23.454
697.88	19.632
698.20	20.417
698.52	21.935
698.84	22.049
699.16	21.659
699.48	24.228
699.80	23.913
700.12	27.792
700.44	23.607
700.76	26.796
701.08	26.149
701.40	27.933
701.72	27.405
702.04	28.125
702.36	25.779
702.68	25.496
703.00	21.607
703.32	24.202
703.64	22.788
703.96	27.855
704.28	26.744
704.60	29.619
704.91	26.409
705.23	28.446
705.55	29.900
705.87	30.233
706.19	28.622
706.51	28.660
706.83	29.394
707.15	26.331
707.47	26.515
707.79	24.324
708.11	23.516
708.43	24.524
708.74	23.469
709.06	24.935
709.38	25.197
709.70	26.744
710.02	31.751
710.34	23.333
710.66	30.149
710.98	25.568
711.29	31.395
711.61	30.088
711.93	23.397
712.25	30.547
712.57	27.574
712.89	25.952
713.20	27.052
713.52	32.237
713.84	28.165
714.16	27.134
714.48	26.437
714.80	30.091
715.11	24.784
715.43	30.564
715.75	26.957
716.07	23.642
716.39	28.527
716.70	26.910
717.02	27.698
717.34	27.562
717.66	32.836
717.97	37.052
718.29	26.667
718.61	27.372
718.93	29.779
719.24	25.260
719.56	29.153
719.88	28.136
720.20	32.095
720.51	29.617
720.83	29.740
721.15	31.343
721.46	27.660
721.78	31.541
722.10	29.057
722.42	33.459
722.73	32.210
723.05	30.738
723.37	31.984
723.68	32.432
724.00	26.016
724.32	31.048
724.63	30.081
724.95	28.870
725.27	34.413
725.58	30.078
725.90	32.847
726.22	29.434
726.53	32.292
726.85	32.423
727.16	31.673
727.48	28.723
727.80	34.470
728.11	28.986
728.43	31.538
728.74	27.599
729.06	29.927
729.38	31.250
729.69	31.317
730.01	26.621
730.32	28.472
730.64	28.094
730.96	27.723
731.27	26.490
731.59	26.300
731.90	26.531
732.22	26.708
732.53	23.839
732.85	27.564
733.16	23.794
733.48	25.914
733.80	26.623
734.11	28.025
734.43	28.402
734.74	22.000
735.06	22.923
735.37	29.769
735.69	24.522
736.00	31.373
736.32	28.037
736.63	23.962
736.95	29.073
737.26	24.490
737.58	24.516
737.89	26.421
738.21	28.669
738.52	27.143
738.83	29.811
739.15	29.231
739.46	29.927
739.78	29.514
740.09	26.154
740.41	27.097
740.72	24.390
741.04	29.259
741.35	25.833
741.66	39.556
741.98	35.377
742.29	35.407
742.61	36.638
742.92	32.579
743.23	33.761
743.55	36.800
743.86	33.772
744.18	34.513
744.49	38.278
744.80	38.028
745.12	38.636
745.43	37.004
745.74	36.036
746.06	37.615
746.37	35.426
746.68	30.769
747.00	37.037
747.31	35.238
747.62	33.186
747.94	30.837
748.25	31.915
748.56	36.123
748.88	31.683
749.19	35.500
749.50	33.023
749.82	30.894
750.13	31.837
750.44	25.912
750.75	25.965
751.07	30.868
751.38	29.617
751.69	30.325
752.01	29.699
752.32	28.159
752.63	26.950
752.94	29.918
753.26	35.600
753.57	32.520
753.88	37.500
754.19	25.714
754.51	29.167
754.82	27.798
755.13	26.792
755.44	28.947
755.75	31.022
756.07	29.433
756.38	23.358
756.69	30.872
757.00	26.946
757.31	24.036
757.63	23.684
757.94	28.418
758.25	24.020
758.56	21.975
758.87	23.656
759.18	23.636
759.50	27.586
759.81	28.349
760.12	22.500
760.43	24.928
760.74	24.185
761.05	21.469
761.36	24.599
761.67	29.261
761.99	25.155
762.30	31.250
762.61	30.534
762.92	32.422
763.23	34.034
763.54	33.200
763.85	29.687
764.16	33.462
764.47	29.658
764.78	27.915
765.10	23.418
765.41	27.729
765.72	28.144
766.03	27.273
766.34	26.667
766.65	28.511
766.96	30.342
767.27	33.503
767.58	38.542
767.89	42.632
768.20	39.655
768.51	39.086
768.82	36.239
769.13	30.081
769.44	31.579
769.75	30.472
770.06	29.358
770.37	30.769
770.68	33.333
770.99	32.444
771.30	28.689
771.61	35.874
771.92	36.475
772.23	35.294
772.54	35.385
772.85	41.361
773.16	32.979
773.47	41.304
773.78	41.624
774.09	41.667
774.39	43.275
774.70	38.272
775.01	48.551
775.32	45.752
775.63	53.947
775.94	42.446
776.25	48.819
776.56	49.254
776.87	51.639
777.18	55.469
777.48	54.962
777.79	51.515
778.10	54.815
778.41	51.786
778.72	44.526
779.03	46.309
779.34	38.926
779.65	52.027
779.95	45.399
780.26	50.980
780.57	50.345
780.88	55.469
781.19	53.383
781.50	50.676
781.80	38.365
782.11	36.158
782.42	39.873
782.73	36.810
783.04	47.297
783.34	45.070
783.65	56.849
783.96	52.239
784.27	46.853
784.57	48.921
784.88	44.444
785.19	52.381
785.50	57.547
785.81	55.970
786.11	52.459
786.42	55.814
786.73	54.867
787.04	55.660
787.34	65.179
787.65	65.000
787.96	62.162
788.26	50.413
788.57	63.559
788.88	51.240
789.19	56.250
789.49	55.303
789.80	51.908
790.11	71.429
790.41	76.238
790.72	79.518
791.03	72.826
791.33	68.605
791.64	63.918
791.95	65.347
792.25	68.889
792.56	79.221
792.87	91.026
793.17	86.076
793.48	71.264
793.79	67.816
794.09	81.818
794.40	59.664
794.70	60.294
795.01	54.815
795.32	48.201
795.62	52.756
795.93	59.483
796.23	64.602
796.54	76.471
796.85	75.676
797.15	90.141
797.46	103.030
797.76	84.337
798.07	72.152
798.37	76.923
798.68	89.394
798.99	69.014
799.29	64.935
799.60	69.318
799.90	78.082
800.21	91.045
800.51	74.138
800.82	96.491
801.12	104.918
801.43	93.939
801.73	82.432
802.04	88.889
802.34	72.840
802.65	85.938
802.95	106.780
803.26	114.063
803.56	71.429
803.87	104.615
804.17	75.000
804.48	96.296
804.78	84.483
805.09	98.529
805.39	86.538
805.70	94.643
806.00	108.197
806.30	90.909
806.61	74.390
806.91	84.810
807.22	81.579
807.52	70.149
807.83	88.732
808.13	93.750
808.43	113.333
808.74	80.263
809.04	97.101
809.35	91.045
809.65	80.263
809.95	104.839
810.26	98.305
810.56	90.476
810.86	152.273
811.17	142.857
811.47	108.333
811.77	118.519
812.08	105.455
812.38	126.000
812.69	147.222
812.99	150.000
813.29	140.816
813.59	126.190
813.90	140.816
814.20	110.909
814.50	96.923
814.81	111.765
815.11	126.531
815.41	90.164
815.72	161.905
816.02	116.364
816.32	114.286
816.62	115.000
816.93	136.585
817.23	164.286
817.53	136.364
817.84	163.636
818.14	128.261
818.44	126.667
818.74	161.765
819.04	145.000
819.35	154.286
819.65	173.529
819.95	210.714
820.25	245.000
820.56	161.538
820.86	140.909
821.16	146.512
821.46	146.154
821.76	144.000
822.07	197.143
822.37	167.500
822.67	206.061
822.97	121.569
823.27	214.286
823.57	156.757
823.88	145.000
824.18	210.000
824.48	145.238
824.78	180.000
825.08	216.667
825.38	181.081
825.69	143.902
825.99	266.667
826.29	186.207
826.59	134.211
826.89	150.000
827.19	194.118
827.49	203.226
827.79	154.545
828.09	165.909
828.39	140.426
828.70	124.490
829.00	196.296
829.30	177.419
829.60	157.500
829.90	340.000
830.20	182.143
830.50	230.435
830.80	260.870
831.10	180.000
831.40	173.333
831.70	208.696
832.00	234.615
832.30	207.407
832.60	368.750
832.90	220.000
833.20	414.286
833.50	200.000
833.80	200.000
834.10	181.250
834.40	238.462
834.70	283.333
835.00	261.905
835.30	180.000
835.60	338.462
835.90	227.586
836.20	378.571
836.50	196.552
836.80	236.000
837.10	180.556
837.40	252.381
837.70	300.000
838.00	255.556
838.30	266.667
838.60	285.714
838.90	211.538
839.19	320.000
839.49	421.429
839.79	310.000
840.09	290.000
840.39	261.905
840.69	300.000
840.99	272.222
841.29	500.000
841.59	400.000
841.88	393.750
842.18	196.552
842.48	252.381
842.78	196.667
843.08	273.913
843.38	156.250
843.68	1033.333
843.97	250.000
844.27	234.483
844.57	266.667
844.87	362.500
845.17	229.630
845.47	1566.667
845.76	444.444
846.06	341.176
846.36	612.500
846.66	457.143
846.96	300.000
847.25	400.000
847.55	381.818
847.85	269.565
848.15	530.000
848.44	357.143
848.74	344.444
849.04	311.765
849.34	550.000
849.63	273.684
849.93	481.818
850.23	1060.000
850.53	492.857
850.82	3050.000
851.12	-5000.000
851.42	5600.000
851.71	320.000
852.01	-1566.667
852.31	254.167
852.61	1700.000
852.90	271.429
853.20	240.000
853.50	347.059
853.79	295.238
854.09	187.500
854.39	437.500
854.68	191.892
854.98	206.452
855.28	223.333
855.57	237.931
855.87	200.000
856.17	247.368
856.46	260.000
856.76	300.000
857.05	165.517
857.35	308.333
857.65	426.667
857.94	230.435
858.24	250.000
858.53	300.000
858.83	213.636
859.13	413.333
859.42	0.000
859.72	600.000
860.01	490.909
860.31	259.091
860.60	326.316
860.90	256.522
861.20	444.444
861.49	533.333
861.79	-4500.000
862.08	712.500
862.38	323.810
862.67	423.077
862.97	358.824
863.26	577.778
863.56	311.111
863.85	441.667
864.15	612.500
864.44	440.000
864.74	1016.667
865.03	725.000
865.33	342.105
865.62	536.364
865.92	469.231
866.21	466.667
866.51	0.000
866.80	518.182
867.10	1300.000
867.39	430.769
867.69	490.909
867.98	273.684
868.27	490.909
868.57	326.316
868.86	-4800.000
869.16	331.250
869.45	2700.000
869.75	-4100.000
870.04	508.333
870.33	785.714
870.63	1250.000
870.92	2750.000
871.22	857.143
871.51	405.882
871.80	209.524
872.10	371.429
>>>>>End Processed Spectral Data<<<<<
