SpectraSuite Data File
++++++++++++++++++++++++++++++++++++
Date: Wed May 13 19:10:47 PDT 2015
User: schluterlab
Dark Spectrum Present: Yes
Reference Spectrum Present: Yes
Number of Sampled Component Spectra: 1
Spectrometers: USB2E3373
Integration Time (usec): 3000 (USB2E3373)
Spectra Averaged: 3 (USB2E3373)
Boxcar Smoothing: 0 (USB2E3373)
Correct for Electrical Dark: No (USB2E3373)
Strobe/Lamp Enabled: No (USB2E3373)
Correct for Detector Non-linearity: No (USB2E3373)
Correct for Stray Light: No (USB2E3373)
Number of Pixels in Processed Spectrum: 2048
>>>>>Begin Processed Spectral Data<<<<<
178.53	0.000
178.91	-1575.000
179.29	-1375.000
179.67	-272.222
180.04	-1475.000
180.42	2800.000
180.80	1260.000
181.18	-1225.000
181.56	857.143
181.94	0.000
182.31	-728.571
182.69	1933.333
183.07	-537.500
183.45	-555.556
183.83	627.273
184.20	-470.000
184.58	2800.000
184.96	6900.000
185.34	-1040.000
185.72	-725.000
186.09	-2700.000
186.47	3450.000
186.85	2750.000
187.23	6100.000
187.61	-2033.333
187.98	1575.000
188.36	636.364
188.74	600.000
189.12	-1160.000
189.49	670.000
189.87	-5300.000
190.25	-1575.000
190.63	485.714
191.00	476.923
191.38	1050.000
191.76	-1400.000
192.14	1525.000
192.51	762.500
192.89	1133.333
193.27	600.000
193.65	-1450.000
194.02	640.000
194.40	1120.000
194.78	650.000
195.15	600.000
195.53	710.000
195.91	-2400.000
196.29	368.750
196.66	363.158
197.04	-410.000
197.42	0.000
197.79	650.000
198.17	-5100.000
198.55	785.714
198.92	850.000
199.30	1040.000
199.68	0.000
200.05	372.222
200.43	785.714
200.81	6600.000
201.18	1900.000
201.56	-1966.667
201.94	688.889
202.31	677.778
202.69	441.667
203.07	720.000
203.44	0.000
203.82	1375.000
204.19	842.857
204.57	442.857
204.95	712.500
205.32	1700.000
205.70	681.818
206.08	457.143
206.45	2800.000
206.83	343.750
207.20	916.667
207.58	860.000
207.96	438.889
208.33	762.500
208.71	-1066.667
209.08	957.143
209.46	666.667
209.84	636.364
210.21	-1933.333
210.59	1575.000
210.96	-550.000
211.34	2800.000
211.71	710.000
212.09	783.333
212.46	0.000
212.84	1833.333
213.22	1600.000
213.59	-5800.000
213.97	833.333
214.34	985.714
214.72	590.909
215.09	1200.000
215.47	-2800.000
215.84	-3100.000
216.22	2200.000
216.59	414.286
216.97	1375.000
217.34	609.091
217.72	-850.000
218.09	0.000
218.47	-4600.000
218.84	677.778
219.22	1042.857
219.59	1833.333
219.97	-828.571
220.34	1220.000
220.72	-2266.667
221.09	521.429
221.47	1675.000
221.84	-1066.667
222.22	0.000
222.59	1550.000
222.97	-3150.000
223.34	1240.000
223.72	438.462
224.09	1400.000
224.46	2200.000
224.84	-6300.000
225.21	-1320.000
225.59	-5600.000
225.96	630.000
226.34	370.000
226.71	3200.000
227.08	762.500
227.46	640.000
227.83	-1675.000
228.21	-3100.000
228.58	711.111
228.95	-2700.000
229.33	-2500.000
229.70	1966.667
230.08	842.857
230.45	-1100.000
230.82	500.000
231.20	1000.000
231.57	814.286
231.95	516.667
232.32	290.909
232.69	400.000
233.07	628.571
233.44	376.923
233.81	-1933.333
234.19	336.842
234.56	500.000
234.93	458.333
235.31	500.000
235.68	376.923
236.05	392.857
236.43	218.182
236.80	247.368
237.17	5400.000
237.55	266.667
237.92	232.143
238.29	233.333
238.67	190.323
239.04	241.379
239.41	163.889
239.79	121.739
240.16	157.143
240.53	122.727
240.91	113.725
241.28	114.000
241.65	108.000
242.02	105.797
242.40	90.323
242.77	83.333
243.14	66.667
243.51	79.775
243.89	74.118
244.26	61.111
244.63	70.968
245.00	68.085
245.38	62.376
245.75	61.682
246.12	57.798
246.49	49.635
246.87	57.600
247.24	53.077
247.61	50.714
247.98	45.752
248.36	45.270
248.73	36.943
249.10	38.217
249.47	33.333
249.84	40.107
250.22	41.176
250.59	38.462
250.96	36.869
251.33	39.336
251.70	36.634
252.08	36.190
252.45	33.184
252.82	31.739
253.19	33.191
253.56	32.941
253.94	32.780
254.31	33.594
254.68	30.000
255.05	32.103
255.42	34.146
255.79	33.088
256.16	32.130
256.54	25.088
256.91	28.826
257.28	20.504
257.65	28.713
258.02	29.503
258.39	23.975
258.76	24.749
259.14	25.595
259.51	22.796
259.88	23.602
260.25	25.680
260.62	25.723
260.99	23.602
261.36	25.826
261.73	22.636
262.10	25.581
262.47	24.507
262.85	25.348
263.22	23.362
263.59	25.926
263.96	20.879
264.33	24.543
264.70	22.632
265.07	24.808
265.44	23.485
265.81	23.114
266.18	21.608
266.55	22.195
266.92	19.410
267.29	20.139
267.66	19.266
268.03	21.818
268.40	20.093
268.77	19.809
269.14	19.369
269.51	22.799
269.88	20.513
270.25	21.670
270.62	22.022
270.99	23.441
271.36	21.888
271.73	19.626
272.10	18.696
272.47	20.430
272.84	20.346
273.21	18.449
273.58	18.777
273.95	17.610
274.32	18.182
274.69	20.128
275.06	18.307
275.43	18.723
275.80	18.838
276.17	17.108
276.54	20.166
276.91	16.403
277.28	18.750
277.65	18.956
278.02	18.427
278.39	16.992
278.76	18.727
279.13	18.679
279.50	18.063
279.87	16.932
280.23	17.166
280.60	18.375
280.97	14.972
281.34	18.053
281.71	20.000
282.08	16.315
282.45	17.818
282.82	17.052
283.19	14.795
283.56	18.421
283.92	16.920
284.29	17.989
284.66	17.786
285.03	17.179
285.40	16.373
285.77	15.825
286.14	16.580
286.51	16.000
286.87	16.410
287.24	17.915
287.61	14.446
287.98	17.045
288.35	16.957
288.72	15.265
289.08	16.432
289.45	15.157
289.82	14.146
290.19	13.815
290.56	15.161
290.93	14.199
291.29	12.577
291.66	14.454
292.03	16.134
292.40	17.474
292.77	11.686
293.13	14.478
293.50	14.286
293.87	15.852
294.24	13.481
294.60	13.246
294.97	13.081
295.34	16.079
295.71	14.631
296.08	12.251
296.44	13.205
296.81	13.474
297.18	13.008
297.55	10.686
297.91	13.061
298.28	13.788
298.65	14.621
299.02	12.780
299.38	13.944
299.75	12.534
300.12	12.005
300.48	13.000
300.85	12.454
301.22	12.866
301.59	11.237
301.95	12.469
302.32	12.195
302.69	12.784
303.05	10.424
303.42	10.988
303.79	12.911
304.15	10.723
304.52	11.935
304.89	12.079
305.25	11.369
305.62	12.571
305.99	12.279
306.35	11.633
306.72	12.556
307.09	12.320
307.45	12.162
307.82	10.491
308.19	11.479
308.55	11.435
308.92	11.815
309.29	11.616
309.65	11.135
310.02	11.734
310.38	10.968
310.75	11.827
311.12	11.259
311.48	11.808
311.85	12.579
312.22	11.967
312.58	11.850
312.95	12.566
313.31	10.777
313.68	11.123
314.05	13.807
314.41	12.362
314.78	12.085
315.14	12.214
315.51	12.358
315.87	13.267
316.24	12.711
316.61	12.378
316.97	13.112
317.34	12.524
317.70	13.767
318.07	13.282
318.43	13.503
318.80	14.339
319.16	14.783
319.53	14.634
319.89	15.714
320.26	16.000
320.62	16.567
320.99	15.152
321.35	17.071
321.72	17.043
322.08	16.782
322.45	17.711
322.81	18.023
323.18	17.341
323.54	16.605
323.91	18.208
324.27	16.826
324.64	17.894
325.00	19.657
325.37	19.745
325.73	19.928
326.10	20.212
326.46	19.892
326.83	21.311
327.19	21.008
327.56	20.296
327.92	22.222
328.29	22.804
328.65	20.994
329.01	21.119
329.38	22.664
329.74	21.145
330.11	22.714
330.47	22.314
330.84	22.886
331.20	22.495
331.56	23.853
331.93	23.611
332.29	23.248
332.66	23.805
333.02	23.218
333.38	24.481
333.75	23.797
334.11	23.932
334.48	23.780
334.84	24.173
335.20	24.273
335.57	23.300
335.93	22.589
336.29	23.352
336.66	24.797
337.02	23.620
337.38	24.722
337.75	23.975
338.11	25.157
338.47	23.941
338.84	24.106
339.20	24.128
339.56	26.004
339.93	25.000
340.29	24.275
340.65	24.777
341.02	23.997
341.38	25.445
341.74	23.421
342.11	24.367
342.47	24.405
342.83	24.486
343.20	25.281
343.56	23.673
343.92	25.175
344.28	24.065
344.65	24.936
345.01	23.232
345.37	23.328
345.73	24.704
346.10	25.320
346.46	25.169
346.82	24.465
347.19	24.561
347.55	24.631
347.91	25.243
348.27	26.048
348.63	25.418
349.00	25.000
349.36	24.220
349.72	24.619
350.08	24.311
350.45	25.305
350.81	24.208
351.17	24.311
351.53	25.635
351.89	23.680
352.26	24.546
352.62	25.822
352.98	23.420
353.34	25.308
353.70	24.059
354.07	24.597
354.43	24.048
354.79	24.377
355.15	24.661
355.51	25.659
355.87	24.490
356.24	25.407
356.60	24.699
356.96	25.664
357.32	24.530
357.68	25.197
358.04	25.337
358.40	25.337
358.77	25.430
359.13	25.335
359.49	25.176
359.85	25.000
360.21	24.003
360.57	26.304
360.93	26.308
361.29	25.246
361.66	25.155
362.02	25.672
362.38	26.084
362.74	25.670
363.10	24.648
363.46	25.238
363.82	25.170
364.18	25.184
364.54	25.854
364.90	26.487
365.26	26.029
365.62	26.881
365.98	24.763
366.35	25.072
366.71	26.320
367.07	25.492
367.43	26.923
367.79	26.695
368.15	26.437
368.51	25.073
368.87	26.552
369.23	25.896
369.59	26.503
369.95	26.250
370.31	27.422
370.67	26.377
371.03	26.667
371.39	26.385
371.75	26.471
372.11	25.533
372.47	26.466
372.83	27.810
373.19	26.879
373.55	26.829
373.91	28.277
374.27	27.079
374.63	26.982
374.99	26.907
375.35	26.029
375.71	27.279
376.07	27.366
376.42	27.923
376.78	27.568
377.14	26.730
377.50	27.815
377.86	27.194
378.22	27.750
378.58	27.318
378.94	27.404
379.30	27.735
379.66	27.919
380.02	28.440
380.38	26.290
380.74	28.391
381.09	28.056
381.45	27.412
381.81	28.563
382.17	27.580
382.53	28.176
382.89	27.901
383.25	28.205
383.61	27.695
383.97	28.580
384.32	28.072
384.68	28.129
385.04	28.334
385.40	27.492
385.76	27.641
386.12	29.469
386.48	29.452
386.83	28.159
387.19	29.190
387.55	28.881
387.91	28.295
388.27	27.836
388.62	28.519
388.98	29.238
389.34	29.599
389.70	28.081
390.06	29.214
390.42	28.470
390.77	29.707
391.13	28.717
391.49	29.061
391.85	29.281
392.20	29.211
392.56	29.545
392.92	28.546
393.28	28.639
393.64	29.856
393.99	29.933
394.35	28.412
394.71	28.984
395.07	28.723
395.42	29.852
395.78	29.707
396.14	29.299
396.50	29.010
396.85	30.324
397.21	29.162
397.57	30.006
397.92	29.267
398.28	29.204
398.64	29.211
399.00	29.155
399.35	28.596
399.71	29.572
400.07	29.213
400.42	29.632
400.78	29.373
401.14	28.659
401.49	29.552
401.85	28.433
402.21	28.802
402.57	30.167
402.92	28.625
403.28	29.856
403.63	29.765
403.99	29.554
404.35	29.455
404.70	29.077
405.06	28.655
405.42	29.570
405.77	28.629
406.13	28.781
406.49	28.622
406.84	28.766
407.20	28.664
407.55	28.781
407.91	30.133
408.27	29.355
408.62	29.561
408.98	28.676
409.34	28.229
409.69	30.129
410.05	28.810
410.40	29.052
410.76	28.136
411.11	29.674
411.47	29.201
411.83	29.078
412.18	27.767
412.54	29.514
412.89	29.036
413.25	29.103
413.60	30.080
413.96	29.022
414.31	28.433
414.67	29.911
415.03	29.272
415.38	29.381
415.74	28.746
416.09	29.197
416.45	28.112
416.80	28.883
417.16	29.424
417.51	29.728
417.87	29.159
418.22	29.338
418.58	29.567
418.93	28.624
419.29	30.045
419.64	28.715
420.00	29.024
420.35	28.522
420.71	29.468
421.06	28.759
421.42	28.889
421.77	28.812
422.12	28.243
422.48	28.117
422.83	27.897
423.19	28.066
423.54	28.381
423.90	29.101
424.25	29.090
424.61	27.798
424.96	28.397
425.31	28.073
425.67	27.640
426.02	27.943
426.38	27.900
426.73	28.028
427.09	27.538
427.44	28.062
427.79	27.832
428.15	28.512
428.50	28.496
428.85	29.142
429.21	27.885
429.56	27.320
429.92	27.529
430.27	26.713
430.62	27.803
430.98	27.296
431.33	27.320
431.68	27.225
432.04	27.370
432.39	27.242
432.74	28.007
433.10	27.674
433.45	28.163
433.80	26.718
434.16	27.724
434.51	27.105
434.86	27.309
435.22	27.237
435.57	28.024
435.92	27.326
436.28	26.928
436.63	27.152
436.98	26.445
437.34	27.788
437.69	27.421
438.04	27.094
438.39	27.164
438.75	27.426
439.10	27.765
439.45	27.273
439.81	27.009
440.16	26.539
440.51	28.002
440.86	27.852
441.22	27.030
441.57	26.539
441.92	27.431
442.27	26.426
442.63	26.119
442.98	26.873
443.33	26.467
443.68	25.710
444.03	26.745
444.39	25.803
444.74	26.948
445.09	26.415
445.44	27.064
445.79	26.423
446.15	26.575
446.50	25.525
446.85	26.105
447.20	25.905
447.55	26.912
447.91	25.593
448.26	26.210
448.61	25.721
448.96	26.357
449.31	26.547
449.66	26.505
450.02	25.348
450.37	26.134
450.72	25.832
451.07	26.204
451.42	24.620
451.77	26.189
452.12	25.635
452.47	26.679
452.83	25.408
453.18	25.000
453.53	26.469
453.88	25.399
454.23	25.045
454.58	25.803
454.93	26.192
455.28	25.436
455.63	25.728
455.98	26.548
456.34	25.754
456.69	25.861
457.04	25.387
457.39	24.196
457.74	24.492
458.09	25.532
458.44	25.029
458.79	24.078
459.14	25.169
459.49	24.810
459.84	24.155
460.19	24.808
460.54	24.595
460.89	24.794
461.24	25.440
461.59	25.915
461.94	25.339
462.29	24.688
462.64	25.207
462.99	24.398
463.34	25.133
463.69	24.828
464.04	24.754
464.39	23.768
464.74	23.648
465.09	23.643
465.44	23.490
465.79	22.483
466.14	23.426
466.49	23.804
466.84	22.942
467.19	23.959
467.54	23.875
467.89	23.349
468.24	24.200
468.59	23.748
468.94	23.030
469.29	23.458
469.64	24.699
469.99	23.275
470.34	23.448
470.68	23.922
471.03	22.857
471.38	23.697
471.73	23.185
472.08	24.408
472.43	23.178
472.78	22.449
473.13	23.620
473.48	23.720
473.83	23.415
474.17	22.278
474.52	23.015
474.87	22.475
475.22	22.287
475.57	21.333
475.92	21.721
476.27	21.646
476.61	21.346
476.96	21.385
477.31	21.769
477.66	21.608
478.01	21.432
478.36	21.100
478.70	21.132
479.05	21.353
479.40	20.983
479.75	20.336
480.10	20.278
480.45	20.990
480.79	21.214
481.14	20.205
481.49	21.073
481.84	20.119
482.19	20.036
482.53	20.275
482.88	19.777
483.23	20.234
483.58	20.064
483.92	20.478
484.27	19.129
484.62	20.474
484.97	19.432
485.31	19.555
485.66	18.781
486.01	17.889
486.36	17.451
486.70	17.643
487.05	17.479
487.40	17.926
487.75	18.593
488.09	18.866
488.44	18.546
488.79	19.928
489.13	19.481
489.48	18.760
489.83	18.472
490.17	19.377
490.52	19.176
490.87	18.996
491.22	19.236
491.56	18.269
491.91	18.846
492.26	17.823
492.60	18.571
492.95	18.522
493.30	18.084
493.64	17.545
493.99	18.338
494.34	18.548
494.68	18.315
495.03	18.186
495.37	18.567
495.72	17.836
496.07	18.237
496.41	17.566
496.76	17.810
497.11	17.650
497.45	17.746
497.80	18.234
498.14	17.971
498.49	17.902
498.84	17.929
499.18	17.762
499.53	16.999
499.87	17.381
500.22	17.428
500.56	18.544
500.91	17.308
501.26	16.880
501.60	18.225
501.95	16.728
502.29	17.713
502.64	16.946
502.98	16.877
503.33	16.773
503.67	16.705
504.02	17.072
504.36	17.080
504.71	16.659
505.06	16.867
505.40	17.258
505.75	16.104
506.09	16.667
506.44	17.070
506.78	16.512
507.13	17.214
507.47	16.970
507.82	17.528
508.16	16.616
508.51	17.047
508.85	16.336
509.19	16.071
509.54	16.276
509.88	16.589
510.23	16.761
510.57	16.615
510.92	16.831
511.26	16.650
511.61	16.286
511.95	16.023
512.30	16.119
512.64	16.443
512.98	16.077
513.33	16.809
513.67	16.382
514.02	15.747
514.36	16.985
514.70	16.159
515.05	16.843
515.39	16.489
515.74	15.428
516.08	16.266
516.42	17.037
516.77	16.778
517.11	15.094
517.46	16.535
517.80	15.738
518.14	15.229
518.49	16.511
518.83	15.852
519.17	15.531
519.52	15.563
519.86	15.859
520.20	16.301
520.55	15.500
520.89	16.302
521.23	16.405
521.58	16.086
521.92	16.167
522.26	15.192
522.61	15.826
522.95	16.022
523.29	15.277
523.64	16.463
523.98	15.896
524.32	15.862
524.66	15.995
525.01	16.422
525.35	16.233
525.69	15.702
526.04	15.016
526.38	15.619
526.72	15.767
527.06	16.196
527.41	14.728
527.75	15.563
528.09	15.800
528.43	16.125
528.78	16.165
529.12	15.212
529.46	15.738
529.80	15.470
530.15	15.826
530.49	15.446
530.83	16.519
531.17	15.992
531.51	16.148
531.86	15.806
532.20	16.037
532.54	15.631
532.88	15.148
533.22	14.553
533.57	14.938
533.91	15.774
534.25	14.945
534.59	14.765
534.93	15.170
535.27	15.269
535.62	15.263
535.96	14.878
536.30	14.495
536.64	15.454
536.98	14.864
537.32	14.681
537.66	15.667
538.01	15.010
538.35	15.902
538.69	15.507
539.03	14.750
539.37	14.441
539.71	13.480
540.05	14.902
540.39	14.884
540.73	14.295
541.07	15.380
541.42	14.873
541.76	16.000
542.10	15.718
542.44	14.636
542.78	15.481
543.12	13.756
543.46	14.820
543.80	15.485
544.14	13.928
544.48	15.238
544.82	13.855
545.16	14.639
545.50	14.203
545.84	14.516
546.18	14.209
546.52	14.866
546.86	15.052
547.20	14.767
547.54	14.562
547.88	15.625
548.22	14.819
548.56	14.340
548.90	14.661
549.24	14.141
549.58	14.802
549.92	14.217
550.26	14.773
550.60	14.108
550.94	14.930
551.28	13.826
551.62	14.809
551.96	13.404
552.30	14.403
552.64	15.010
552.98	14.034
553.32	14.835
553.66	15.610
554.00	15.237
554.34	13.596
554.68	14.664
555.02	15.656
555.36	14.405
555.69	14.411
556.03	14.334
556.37	13.438
556.71	14.256
557.05	14.006
557.39	13.996
557.73	14.397
558.07	14.141
558.41	14.255
558.75	13.960
559.08	14.765
559.42	14.437
559.76	14.412
560.10	14.061
560.44	14.326
560.78	13.107
561.12	13.127
561.45	14.472
561.79	14.305
562.13	13.816
562.47	13.934
562.81	13.877
563.15	13.712
563.48	13.793
563.82	14.416
564.16	13.865
564.50	13.086
564.84	13.274
565.17	14.093
565.51	13.291
565.85	13.452
566.19	12.774
566.52	13.110
566.86	12.719
567.20	13.149
567.54	12.671
567.88	12.710
568.21	13.175
568.55	12.892
568.89	12.646
569.23	12.567
569.56	12.470
569.90	12.302
570.24	11.733
570.57	12.105
570.91	11.668
571.25	11.550
571.59	11.311
571.92	11.204
572.26	11.467
572.60	11.471
572.93	11.124
573.27	11.742
573.61	11.725
573.95	11.654
574.28	11.508
574.62	11.224
574.96	11.231
575.29	11.397
575.63	11.306
575.97	11.481
576.30	11.285
576.64	11.120
576.98	10.938
577.31	10.744
577.65	11.205
577.98	10.977
578.32	10.663
578.66	11.132
578.99	11.481
579.33	10.869
579.67	10.849
580.00	10.933
580.34	11.438
580.67	11.203
581.01	11.064
581.35	10.943
581.68	11.047
582.02	10.880
582.35	10.542
582.69	10.934
583.02	10.860
583.36	11.021
583.70	11.114
584.03	11.416
584.37	11.357
584.70	11.207
585.04	10.788
585.37	10.718
585.71	11.278
586.04	11.138
586.38	11.233
586.72	11.350
587.05	11.247
587.39	10.739
587.72	11.234
588.06	10.966
588.39	11.248
588.73	11.118
589.06	11.405
589.40	11.582
589.73	11.404
590.07	11.530
590.40	11.545
590.73	11.553
591.07	12.047
591.40	12.273
591.74	12.165
592.07	12.042
592.41	11.699
592.74	11.610
593.08	11.692
593.41	11.262
593.75	11.274
594.08	11.364
594.41	10.817
594.75	11.275
595.08	11.596
595.42	11.699
595.75	11.788
596.09	11.716
596.42	11.395
596.75	12.284
597.09	12.381
597.42	11.425
597.75	11.125
598.09	11.870
598.42	11.770
598.76	11.431
599.09	11.098
599.42	11.499
599.76	11.201
600.09	11.293
600.42	11.249
600.76	11.393
601.09	11.330
601.42	11.416
601.76	11.461
602.09	11.621
602.42	11.783
602.76	11.407
603.09	11.841
603.42	11.363
603.76	10.709
604.09	11.477
604.42	11.578
604.76	12.231
605.09	11.621
605.42	11.629
605.75	11.589
606.09	11.590
606.42	11.524
606.75	11.613
607.09	11.595
607.42	12.152
607.75	11.308
608.08	11.333
608.42	11.923
608.75	11.722
609.08	11.702
609.41	12.137
609.75	11.625
610.08	12.158
610.41	11.359
610.74	11.211
611.07	11.660
611.41	11.825
611.74	12.720
612.07	11.905
612.40	12.067
612.73	11.474
613.07	12.500
613.40	12.428
613.73	11.484
614.06	12.366
614.39	12.166
614.72	11.789
615.06	12.553
615.39	11.571
615.72	11.759
616.05	11.590
616.38	12.785
616.71	12.292
617.05	12.309
617.38	12.387
617.71	12.252
618.04	12.500
618.37	12.123
618.70	12.694
619.03	13.289
619.36	12.967
619.69	12.535
620.03	12.981
620.36	13.503
620.69	13.836
621.02	13.496
621.35	13.312
621.68	12.617
622.01	13.467
622.34	13.918
622.67	12.776
623.00	13.206
623.33	12.366
623.66	12.938
623.99	12.887
624.32	12.482
624.65	12.641
624.99	11.544
625.32	13.034
625.65	12.998
625.98	12.452
626.31	13.530
626.64	13.633
626.97	12.718
627.30	12.552
627.63	13.864
627.96	13.625
628.29	13.648
628.62	16.194
628.95	14.717
629.28	14.690
629.61	14.940
629.94	13.714
630.26	13.060
630.59	15.062
630.92	14.368
631.25	14.413
631.58	13.714
631.91	13.996
632.24	13.819
632.57	13.956
632.90	14.145
633.23	15.324
633.56	16.723
633.89	15.062
634.22	14.302
634.55	15.266
634.88	13.892
635.20	17.443
635.53	14.819
635.86	14.604
636.19	15.059
636.52	15.571
636.85	15.808
637.18	14.862
637.51	15.248
637.83	13.440
638.16	15.857
638.49	16.499
638.82	16.056
639.15	15.125
639.48	15.835
639.81	15.282
640.13	17.057
640.46	15.168
640.79	16.380
641.12	14.993
641.45	15.922
641.77	15.758
642.10	16.667
642.43	14.414
642.76	14.706
643.09	17.331
643.41	16.692
643.74	17.130
644.07	16.616
644.40	16.564
644.73	18.268
645.05	17.433
645.38	15.798
645.71	17.391
646.04	16.611
646.36	18.364
646.69	19.064
647.02	17.517
647.35	19.588
647.67	17.168
648.00	17.886
648.33	15.842
648.66	17.121
648.98	16.042
649.31	15.994
649.64	15.097
649.96	16.095
650.29	18.167
650.62	15.696
650.94	17.018
651.27	18.919
651.60	18.469
651.92	17.891
652.25	15.798
652.58	17.757
652.90	15.798
653.23	14.484
653.56	16.220
653.88	16.640
654.21	19.115
654.54	17.987
654.86	19.470
655.19	14.865
655.52	9.803
655.84	7.866
656.17	9.994
656.49	13.789
656.82	14.021
657.15	10.685
657.47	8.019
657.80	6.345
658.13	6.542
658.45	9.954
658.78	9.993
659.10	10.862
659.43	11.334
659.75	12.059
660.08	13.291
660.41	15.829
660.73	17.662
661.06	17.197
661.38	20.000
661.71	21.346
662.03	21.696
662.36	15.507
662.68	20.884
663.01	19.596
663.33	18.259
663.66	21.639
663.98	20.734
664.31	18.277
664.63	20.040
664.96	19.115
665.28	17.828
665.61	19.298
665.93	20.121
666.26	18.256
666.58	19.247
666.91	18.605
667.23	18.427
667.56	17.711
667.88	20.726
668.21	20.469
668.53	19.089
668.86	19.264
669.18	21.535
669.50	19.783
669.83	21.786
670.15	20.444
670.48	18.519
670.80	20.259
671.13	19.745
671.45	18.511
671.77	21.996
672.10	17.560
672.42	18.198
672.75	17.413
673.07	17.077
673.39	16.998
673.72	15.625
674.04	19.804
674.37	18.835
674.69	17.587
675.01	19.874
675.34	20.534
675.66	20.421
675.98	20.570
676.31	21.429
676.63	20.594
676.95	21.593
677.28	20.093
677.60	18.242
677.92	21.097
678.25	20.534
678.57	18.526
678.89	18.637
679.22	17.878
679.54	18.130
679.86	19.083
680.18	19.141
680.51	18.262
680.83	19.573
681.15	19.434
681.48	19.471
681.80	18.569
682.12	19.157
682.44	18.956
682.77	19.145
683.09	20.386
683.41	20.843
683.73	20.088
684.06	19.628
684.38	17.613
684.70	18.217
685.02	19.137
685.34	17.949
685.67	17.483
685.99	15.464
686.31	15.700
686.63	14.841
686.96	17.321
687.28	19.314
687.60	16.304
687.92	19.927
688.24	16.730
688.56	18.273
688.89	19.502
689.21	22.489
689.53	18.372
689.85	21.508
690.17	17.805
690.49	21.019
690.82	21.028
691.14	19.196
691.46	18.565
691.78	18.072
692.10	19.628
692.42	19.561
692.74	17.842
693.06	20.213
693.39	19.097
693.71	20.306
694.03	19.579
694.35	20.130
694.67	20.137
694.99	21.220
695.31	19.118
695.63	19.378
695.95	21.760
696.27	16.244
696.59	20.984
696.91	22.798
697.23	18.545
697.56	19.829
697.88	17.178
698.20	17.292
698.52	21.720
698.84	21.826
699.16	18.894
699.48	19.240
699.80	21.498
700.12	22.857
700.44	23.873
700.76	21.823
701.08	22.414
701.40	24.581
701.72	22.157
702.04	28.409
702.36	22.946
702.68	23.513
703.00	22.438
703.32	23.670
703.64	21.716
703.96	24.513
704.28	21.512
704.60	23.167
704.91	22.849
705.23	26.393
705.55	21.927
705.87	28.571
706.19	21.555
706.51	25.545
706.83	23.939
707.15	23.529
707.47	21.717
707.79	20.885
708.11	20.091
708.43	20.952
708.74	19.388
709.06	22.597
709.38	21.522
709.70	22.965
710.02	26.113
710.34	23.030
710.66	25.672
710.98	26.989
711.29	22.965
711.61	28.614
711.93	25.321
712.25	26.367
712.57	23.897
712.89	28.720
713.20	26.140
713.52	28.289
713.84	21.519
714.16	23.780
714.48	24.713
714.80	27.356
715.11	25.072
715.43	27.300
715.75	27.536
716.07	23.003
716.39	27.273
716.70	27.907
717.02	26.978
717.34	28.269
717.66	29.478
717.97	29.880
718.29	26.667
718.61	28.467
718.93	28.676
719.24	26.298
719.56	25.424
719.88	28.814
720.20	27.703
720.51	26.829
720.83	29.368
721.15	23.134
721.46	24.113
721.78	27.599
722.10	30.189
722.42	32.331
722.73	29.963
723.05	26.639
723.37	26.721
723.68	29.730
724.00	25.610
724.32	32.258
724.63	31.301
724.95	27.197
725.27	32.794
725.58	29.687
725.90	29.562
726.22	29.434
726.53	29.861
726.85	24.915
727.16	26.690
727.48	30.496
727.80	28.788
728.11	29.710
728.43	26.154
728.74	26.523
729.06	30.657
729.38	29.044
729.69	26.335
730.01	26.621
730.32	27.083
730.64	30.100
730.96	21.452
731.27	26.159
731.59	22.324
731.90	24.490
732.22	23.913
732.53	21.362
732.85	25.000
733.16	24.116
733.48	25.914
733.80	26.948
734.11	27.070
734.43	26.923
734.74	26.000
735.06	21.490
735.37	25.145
735.69	23.248
736.00	28.758
736.32	26.480
736.63	27.796
736.95	27.157
737.26	22.109
737.58	20.000
737.89	24.749
738.21	29.352
738.52	25.357
738.83	29.057
739.15	25.000
739.46	28.467
739.78	25.347
740.09	25.538
740.41	26.129
740.72	26.829
741.04	32.222
741.35	27.083
741.66	32.000
741.98	33.491
742.29	38.278
742.61	39.655
742.92	29.412
743.23	29.915
743.55	33.600
743.86	33.333
744.18	37.611
744.49	36.364
744.80	38.498
745.12	36.364
745.43	34.361
745.74	34.685
746.06	36.697
746.37	36.771
746.68	30.317
747.00	34.259
747.31	33.810
747.62	28.761
747.94	33.040
748.25	29.787
748.56	40.529
748.88	27.228
749.19	45.000
749.50	33.023
749.82	28.455
750.13	25.306
750.44	29.562
750.75	26.667
751.07	30.868
751.38	33.798
751.69	28.520
752.01	27.820
752.32	26.715
752.63	27.305
752.94	30.738
753.26	33.600
753.57	23.171
753.88	33.203
754.19	29.286
754.51	32.292
754.82	27.076
755.13	30.189
755.44	31.203
755.75	29.927
756.07	28.723
756.38	26.642
756.69	25.839
757.00	27.246
757.31	24.629
757.63	23.977
757.94	21.716
758.25	22.549
758.56	20.741
758.87	22.043
759.18	25.455
759.50	23.511
759.81	27.414
760.12	26.250
760.43	23.496
760.74	22.283
761.05	25.706
761.36	23.262
761.67	24.432
761.99	27.019
762.30	27.083
762.61	30.534
762.92	29.297
763.23	27.731
763.54	32.000
763.85	29.687
764.16	31.923
764.47	30.418
764.78	29.682
765.10	25.949
765.41	25.074
765.72	23.653
766.03	23.511
766.34	25.000
766.65	30.213
766.96	32.479
767.27	33.503
767.58	41.146
767.89	42.105
768.20	42.529
768.51	36.041
768.82	36.697
769.13	26.829
769.44	29.960
769.75	31.760
770.06	28.440
770.37	34.389
770.68	34.259
770.99	32.444
771.30	26.639
771.61	30.045
771.92	29.098
772.23	34.034
772.54	33.846
772.85	44.503
773.16	39.894
773.47	47.283
773.78	40.609
774.09	38.095
774.39	42.105
774.70	43.827
775.01	44.203
775.32	54.902
775.63	48.684
775.94	47.482
776.25	51.181
776.56	53.731
776.87	50.000
777.18	50.000
777.48	63.359
777.79	50.758
778.10	46.667
778.41	50.893
778.72	43.796
779.03	46.309
779.34	44.966
779.65	49.324
779.95	42.331
780.26	45.098
780.57	46.207
780.88	63.281
781.19	54.135
781.50	55.405
781.80	43.396
782.11	39.548
782.42	36.076
782.73	34.969
783.04	45.270
783.34	55.634
783.65	54.795
783.96	51.493
784.27	46.853
784.57	47.482
784.88	50.926
785.19	52.381
785.50	56.604
785.81	55.970
786.11	64.754
786.42	51.938
786.73	54.867
787.04	60.377
787.34	50.893
787.65	66.000
787.96	57.658
788.26	57.851
788.57	60.169
788.88	56.198
789.19	60.417
789.49	52.273
789.80	51.145
790.11	70.476
790.41	66.337
790.72	62.651
791.03	64.130
791.33	72.093
791.64	68.041
791.95	70.297
792.25	66.667
792.56	77.922
792.87	85.897
793.17	89.873
793.48	82.759
793.79	68.966
794.09	80.682
794.40	58.824
794.70	55.147
795.01	52.593
795.32	54.676
795.62	54.331
795.93	60.345
796.23	64.602
796.54	75.294
796.85	70.270
797.15	108.451
797.46	77.273
797.76	84.337
798.07	70.886
798.37	89.231
798.68	81.818
798.99	71.831
799.29	81.818
799.60	63.636
799.90	102.740
800.21	89.552
800.51	89.655
800.82	105.263
801.12	88.525
801.43	84.848
801.73	94.595
802.04	101.587
802.34	95.062
802.65	89.062
802.95	106.780
803.26	114.063
803.56	65.714
803.87	78.462
804.17	86.765
804.48	125.926
804.78	100.000
805.09	98.529
805.39	125.000
805.70	110.714
806.00	98.361
806.30	96.970
806.61	90.244
806.91	68.354
807.22	89.474
807.52	82.090
807.83	94.366
808.13	95.312
808.43	101.667
808.74	77.632
809.04	102.899
809.35	94.030
809.65	76.316
809.95	116.129
810.26	120.339
810.56	106.349
810.86	140.909
811.17	152.381
811.47	116.667
811.77	118.519
812.08	132.727
812.38	122.000
812.69	158.333
812.99	152.273
813.29	126.531
813.59	145.238
813.90	144.898
814.20	94.545
814.50	89.231
814.81	102.941
815.11	126.531
815.41	106.557
815.72	164.286
816.02	130.909
816.32	147.619
816.62	117.500
816.93	129.268
817.23	138.095
817.53	134.091
817.84	181.818
818.14	145.652
818.44	128.889
818.74	182.353
819.04	135.000
819.35	168.571
819.65	200.000
819.95	196.429
820.25	225.000
820.56	179.487
820.86	154.545
821.16	146.512
821.46	138.462
821.76	128.000
822.07	171.429
822.37	152.500
822.67	169.697
822.97	111.765
823.27	200.000
823.57	140.541
823.88	180.000
824.18	210.000
824.48	164.286
824.78	200.000
825.08	179.167
825.38	186.486
825.69	139.024
825.99	241.667
826.29	189.655
826.59	171.053
826.89	157.895
827.19	152.941
827.49	190.323
827.79	156.818
828.09	143.182
828.39	129.787
828.70	126.531
829.00	200.000
829.30	177.419
829.60	162.500
829.90	333.333
830.20	182.143
830.50	247.826
830.80	278.261
831.10	200.000
831.40	193.333
831.70	234.783
832.00	188.462
832.30	229.630
832.60	381.250
832.90	226.667
833.20	421.429
833.50	219.355
833.80	210.345
834.10	218.750
834.40	238.462
834.70	361.111
835.00	376.190
835.30	197.143
835.60	392.308
835.90	210.345
836.20	335.714
836.50	213.793
836.80	228.000
837.10	202.778
837.40	266.667
837.70	329.412
838.00	240.741
838.30	257.143
838.60	290.476
838.90	300.000
839.19	240.000
839.49	478.571
839.79	370.000
840.09	315.000
840.39	228.571
840.69	234.783
840.99	338.889
841.29	580.000
841.59	466.667
841.88	393.750
842.18	203.448
842.48	328.571
842.78	230.000
843.08	252.174
843.38	190.625
843.68	1000.000
843.97	257.692
844.27	217.241
844.57	300.000
844.87	412.500
845.17	225.926
845.47	1633.333
845.76	522.222
846.06	294.118
846.36	575.000
846.66	414.286
846.96	312.500
847.25	472.727
847.55	409.091
847.85	278.261
848.15	600.000
848.44	421.429
848.74	327.778
849.04	329.412
849.34	620.000
849.63	273.684
849.93	436.364
850.23	1040.000
850.53	435.714
850.82	2500.000
851.12	-5100.000
851.42	5900.000
851.71	335.000
852.01	-1433.333
852.31	241.667
852.61	1666.667
852.90	285.714
853.20	232.000
853.50	352.941
853.79	257.143
854.09	225.000
854.39	343.750
854.68	178.378
854.98	180.645
855.28	190.000
855.57	220.690
855.87	255.556
856.17	284.211
856.46	313.333
856.76	358.824
857.05	237.931
857.35	237.500
857.65	320.000
857.94	321.739
858.24	280.769
858.53	300.000
858.83	277.273
859.13	433.333
859.42	0.000
859.72	633.333
860.01	509.091
860.31	290.909
860.60	310.526
860.90	256.522
861.20	655.556
861.49	533.333
861.79	-6300.000
862.08	625.000
862.38	314.286
862.67	430.769
862.97	376.471
863.26	588.889
863.56	305.556
863.85	441.667
864.15	662.500
864.44	420.000
864.74	916.667
865.03	712.500
865.33	315.789
865.62	427.273
865.92	438.462
866.21	491.667
866.51	0.000
866.80	445.455
867.10	1140.000
867.39	507.692
867.69	490.909
867.98	315.789
868.27	536.364
868.57	336.842
868.86	-5600.000
869.16	387.500
869.45	2500.000
869.75	-5700.000
870.04	491.667
870.33	685.714
870.63	1250.000
870.92	2900.000
871.22	828.571
871.51	394.118
871.80	276.190
872.10	350.000
>>>>>End Processed Spectral Data<<<<<
