SpectraSuite Data File
++++++++++++++++++++++++++++++++++++
Date: Wed May 13 19:50:52 PDT 2015
User: schluterlab
Dark Spectrum Present: Yes
Reference Spectrum Present: Yes
Number of Sampled Component Spectra: 1
Spectrometers: USB2E3373
Integration Time (usec): 3000 (USB2E3373)
Spectra Averaged: 3 (USB2E3373)
Boxcar Smoothing: 0 (USB2E3373)
Correct for Electrical Dark: No (USB2E3373)
Strobe/Lamp Enabled: No (USB2E3373)
Correct for Detector Non-linearity: No (USB2E3373)
Correct for Stray Light: No (USB2E3373)
Number of Pixels in Processed Spectrum: 2048
>>>>>Begin Processed Spectral Data<<<<<
178.53	0.000
178.91	-1375.000
179.29	-1650.000
179.67	-305.556
180.04	-1325.000
180.42	2750.000
180.80	1300.000
181.18	-1150.000
181.56	657.143
181.94	0.000
182.31	-842.857
182.69	2100.000
183.07	-650.000
183.45	-511.111
183.83	545.455
184.20	-460.000
184.58	2900.000
184.96	5900.000
185.34	-1100.000
185.72	-662.500
186.09	-2950.000
186.47	3300.000
186.85	2500.000
187.23	5900.000
187.61	-2233.333
187.98	1625.000
188.36	563.636
188.74	445.455
189.12	-920.000
189.49	540.000
189.87	-5900.000
190.25	-1200.000
190.63	485.714
191.00	423.077
191.38	900.000
191.76	-1100.000
192.14	1325.000
192.51	725.000
192.89	816.667
193.27	600.000
193.65	-1175.000
194.02	660.000
194.40	1000.000
194.78	670.000
195.15	525.000
195.53	620.000
195.91	-2400.000
196.29	393.750
196.66	336.842
197.04	-420.000
197.42	0.000
197.79	590.000
198.17	-5000.000
198.55	685.714
198.92	775.000
199.30	960.000
199.68	0.000
200.05	322.222
200.43	842.857
200.81	5400.000
201.18	1866.667
201.56	-1800.000
201.94	533.333
202.31	722.222
202.69	475.000
203.07	560.000
203.44	0.000
203.82	1275.000
204.19	914.286
204.57	464.286
204.95	600.000
205.32	1733.333
205.70	463.636
206.08	407.143
206.45	2850.000
206.83	368.750
207.20	1000.000
207.58	720.000
207.96	366.667
208.33	650.000
208.71	-833.333
209.08	657.143
209.46	477.778
209.84	481.818
210.21	-1700.000
210.59	1600.000
210.96	-462.500
211.34	2450.000
211.71	590.000
212.09	950.000
212.46	0.000
212.84	1733.333
213.22	1575.000
213.59	-4800.000
213.97	866.667
214.34	971.429
214.72	627.273
215.09	1080.000
215.47	-2400.000
215.84	-2500.000
216.22	1700.000
216.59	364.286
216.97	1425.000
217.34	545.455
217.72	-733.333
218.09	0.000
218.47	-5200.000
218.84	588.889
219.22	785.714
219.59	1900.000
219.97	-657.143
220.34	920.000
220.72	-1666.667
221.09	464.286
221.47	1400.000
221.84	-1033.333
222.22	0.000
222.59	1525.000
222.97	-2750.000
223.34	1100.000
223.72	484.615
224.09	1180.000
224.46	2200.000
224.84	-4300.000
225.21	-1220.000
225.59	-5000.000
225.96	650.000
226.34	325.000
226.71	2500.000
227.08	700.000
227.46	610.000
227.83	-1275.000
228.21	-2550.000
228.58	655.556
228.95	-2250.000
229.33	-2200.000
229.70	1433.333
230.08	842.857
230.45	-760.000
230.82	500.000
231.20	916.667
231.57	857.143
231.95	491.667
232.32	236.364
232.69	463.636
233.07	800.000
233.44	423.077
233.81	-1966.667
234.19	300.000
234.56	391.667
234.93	491.667
235.31	472.727
235.68	407.692
236.05	371.429
236.43	212.121
236.80	242.105
237.17	4400.000
237.55	219.048
237.92	232.143
238.29	238.095
238.67	167.742
239.04	162.069
239.41	144.444
239.79	145.652
240.16	133.333
240.53	156.818
240.91	113.725
241.28	130.000
241.65	86.000
242.02	92.754
242.40	108.065
242.77	105.000
243.14	69.892
243.51	75.281
243.89	80.000
244.26	70.000
244.63	66.667
245.00	67.021
245.38	72.277
245.75	70.093
246.12	58.716
246.49	64.234
246.87	72.000
247.24	60.769
247.61	60.000
247.98	55.556
248.36	47.297
248.73	49.682
249.10	55.414
249.47	48.023
249.84	42.246
250.22	45.989
250.59	44.970
250.96	50.505
251.33	50.237
251.70	48.515
252.08	40.000
252.45	39.462
252.82	40.000
253.19	44.255
253.56	41.569
253.94	42.739
254.31	37.891
254.68	38.846
255.05	38.376
255.42	39.024
255.79	40.809
256.16	37.906
256.54	34.276
256.91	36.299
257.28	32.734
257.65	33.333
258.02	36.025
258.39	35.016
258.76	35.117
259.14	38.988
259.51	33.739
259.88	33.540
260.25	33.837
260.62	34.682
260.99	34.472
261.36	33.934
261.73	28.653
262.10	30.233
262.47	34.930
262.85	31.476
263.22	29.630
263.59	36.752
263.96	28.297
264.33	33.681
264.70	29.737
265.07	34.271
265.44	32.323
265.81	28.467
266.18	32.161
266.55	28.780
266.92	31.695
267.29	28.472
267.66	29.817
268.03	28.864
268.40	30.140
268.77	26.969
269.14	29.279
269.51	30.023
269.88	26.573
270.25	28.668
270.62	26.517
270.99	30.108
271.36	27.468
271.73	25.467
272.10	27.174
272.47	28.817
272.84	26.407
273.21	29.769
273.58	25.546
273.95	26.205
274.32	26.653
274.69	26.552
275.06	25.394
275.43	28.511
275.80	28.457
276.17	28.921
276.54	26.403
276.91	26.482
277.28	26.758
277.65	27.079
278.02	27.122
278.39	28.320
278.76	26.182
279.13	26.604
279.50	26.443
279.87	26.096
280.23	26.148
280.60	25.338
280.97	25.693
281.34	25.487
281.71	26.727
282.08	28.407
282.45	23.273
282.82	24.512
283.19	22.460
283.56	24.561
283.92	27.073
284.29	24.868
284.66	26.134
285.03	24.955
285.40	26.585
285.77	26.599
286.14	25.734
286.51	25.500
286.87	24.786
287.24	28.339
287.61	24.077
287.98	25.812
288.35	21.870
288.72	22.741
289.08	23.005
289.45	23.229
289.82	22.114
290.19	20.879
290.56	22.052
290.93	19.940
291.29	21.779
291.66	23.009
292.03	23.110
292.40	22.173
292.77	21.450
293.13	20.896
293.50	21.429
293.87	21.333
294.24	22.370
294.60	20.233
294.97	21.221
295.34	20.310
295.71	20.881
296.08	19.658
296.44	20.495
296.81	20.079
297.18	21.680
297.55	18.074
297.91	18.734
298.28	20.616
298.65	19.452
299.02	20.817
299.38	18.858
299.75	16.038
300.12	18.774
300.48	19.625
300.85	18.496
301.22	17.707
301.59	16.667
301.95	18.010
302.32	18.357
302.69	18.996
303.05	16.485
303.42	18.642
303.79	17.214
304.15	16.783
304.52	17.265
304.89	16.841
305.25	17.749
305.62	18.233
305.99	17.119
306.35	16.667
306.72	16.816
307.09	17.425
307.45	19.257
307.82	15.625
308.19	17.108
308.55	17.799
308.92	15.789
309.29	16.473
309.65	17.497
310.02	17.548
310.38	16.237
310.75	16.367
311.12	15.967
311.48	16.092
311.85	16.667
312.22	17.378
312.58	17.152
312.95	17.107
313.31	17.282
313.68	17.879
314.05	17.850
314.41	16.884
314.78	18.731
315.14	16.087
315.51	17.405
315.87	18.218
316.24	16.783
316.61	17.251
316.97	18.004
317.34	16.732
317.70	17.591
318.07	18.094
318.43	16.243
318.80	18.463
319.16	17.797
319.53	17.167
319.89	18.476
320.26	19.600
320.62	17.460
320.99	18.788
321.35	19.091
321.72	18.480
322.08	19.743
322.45	19.502
322.81	18.702
323.18	20.328
323.54	19.852
323.91	20.283
324.27	20.268
324.64	17.241
325.00	18.034
325.37	20.200
325.73	19.928
326.10	19.594
326.46	19.444
326.83	19.931
327.19	20.581
327.56	20.122
327.92	20.647
328.29	19.787
328.65	21.363
329.01	21.029
329.38	20.999
329.74	20.129
330.11	20.829
330.47	20.753
330.84	22.518
331.20	20.674
331.56	20.734
331.93	21.759
332.29	21.384
332.66	21.681
333.02	21.115
333.38	22.222
333.75	21.747
334.11	21.352
334.48	19.876
334.84	21.507
335.20	22.636
335.57	20.943
335.93	20.536
336.29	20.604
336.66	22.904
337.02	20.452
337.38	22.593
337.75	20.232
338.11	21.128
338.47	19.982
338.84	21.998
339.20	21.468
339.56	21.442
339.93	21.727
340.29	20.743
340.65	22.103
341.02	22.077
341.38	20.996
341.74	20.263
342.11	21.310
342.47	20.881
342.83	20.976
343.20	21.126
343.56	21.230
343.92	21.316
344.28	21.003
344.65	20.894
345.01	20.623
345.37	21.012
345.73	21.320
346.10	21.398
346.46	21.610
346.82	20.758
347.19	19.131
347.55	20.361
347.91	21.197
348.27	21.693
348.63	21.237
349.00	21.440
349.36	22.085
349.72	20.449
350.08	19.530
350.45	22.050
350.81	21.608
351.17	21.232
351.53	21.376
351.89	20.875
352.26	21.310
352.62	22.133
352.98	21.151
353.34	22.432
353.70	21.440
354.07	20.968
354.43	21.032
354.79	20.032
355.15	21.069
355.51	21.663
355.87	21.633
356.24	22.068
356.60	21.492
356.96	20.756
357.32	21.423
357.68	21.811
358.04	21.298
358.40	21.853
358.77	21.362
359.13	21.547
359.49	21.255
359.85	20.556
360.21	20.973
360.57	22.802
360.93	21.692
361.29	20.862
361.66	20.124
362.02	21.418
362.38	22.281
362.74	21.429
363.10	20.429
363.46	21.423
363.82	22.147
364.18	21.292
364.54	21.471
364.90	20.751
365.26	20.735
365.62	21.987
365.98	21.402
366.35	20.702
366.71	21.114
367.07	21.267
367.43	21.916
367.79	23.126
368.15	22.270
368.51	22.093
368.87	22.413
369.23	22.677
369.59	21.941
369.95	22.353
370.31	21.011
370.67	21.739
371.03	22.172
371.39	22.741
371.75	21.765
372.11	22.191
372.47	22.874
372.83	23.055
373.19	21.893
373.55	22.099
373.91	23.564
374.27	21.856
374.63	21.527
374.99	23.234
375.35	21.214
375.71	22.138
376.07	22.428
376.42	21.596
376.78	22.598
377.14	22.659
377.50	23.709
377.86	22.340
378.22	23.325
378.58	22.368
378.94	22.313
379.30	23.219
379.66	22.335
380.02	23.034
380.38	22.101
380.74	23.770
381.09	23.716
381.45	23.479
381.81	23.956
382.17	23.885
382.53	23.899
382.89	23.333
383.25	23.827
383.61	24.164
383.97	23.952
384.32	23.955
384.68	23.544
385.04	23.663
385.40	23.963
385.76	24.017
386.12	24.223
386.48	24.544
386.83	24.759
387.19	24.181
387.55	24.119
387.91	24.184
388.27	23.605
388.62	25.507
388.98	24.570
389.34	25.594
389.70	25.077
390.06	25.919
390.42	25.616
390.77	26.209
391.13	25.590
391.49	25.888
391.85	25.525
392.20	25.489
392.56	25.568
392.92	25.368
393.28	25.089
393.64	26.199
393.99	27.001
394.35	26.179
394.71	25.345
395.07	25.234
395.42	25.464
395.78	25.700
396.14	25.760
396.50	26.190
396.85	26.128
397.21	25.709
397.57	26.472
397.92	26.382
398.28	25.785
398.64	26.344
399.00	26.245
399.35	26.114
399.71	26.678
400.07	27.144
400.42	26.380
400.78	27.624
401.14	28.415
401.49	28.179
401.85	27.284
402.21	26.826
402.57	26.589
402.92	27.364
403.28	27.983
403.63	27.228
403.99	27.962
404.35	27.576
404.70	27.578
405.06	27.490
405.42	27.823
405.77	27.600
406.13	27.822
406.49	27.617
406.84	27.880
407.20	28.191
407.55	27.760
407.91	29.133
408.27	28.845
408.62	28.537
408.98	28.248
409.34	28.844
409.69	29.935
410.05	29.616
410.40	29.113
410.76	29.032
411.11	29.614
411.47	29.201
411.83	31.155
412.18	29.437
412.54	30.822
412.89	30.843
413.25	29.457
413.60	30.142
413.96	29.812
414.31	29.526
414.67	30.418
415.03	29.669
415.38	30.477
415.74	31.254
416.09	31.940
416.45	30.924
416.80	30.403
417.16	31.836
417.51	31.851
417.87	30.443
418.22	32.681
418.58	31.311
418.93	32.064
419.29	31.190
419.64	32.179
420.00	32.012
420.35	31.884
420.71	31.620
421.06	32.399
421.42	32.281
421.77	32.343
422.12	31.443
422.48	31.678
422.83	32.149
423.19	32.099
423.54	31.863
423.90	33.449
424.25	33.110
424.61	31.786
424.96	31.953
425.31	33.167
425.67	31.742
426.02	33.143
426.38	34.249
426.73	33.294
427.09	33.860
427.44	32.720
427.79	33.410
428.15	34.464
428.50	34.114
428.85	33.671
429.21	33.849
429.56	33.437
429.92	34.575
430.27	33.069
430.62	32.668
430.98	34.094
431.33	32.887
431.68	34.660
432.04	33.653
432.39	34.780
432.74	33.872
433.10	34.522
433.45	34.344
433.80	34.756
434.16	33.921
434.51	34.474
434.86	34.892
435.22	35.019
435.57	35.198
435.92	35.225
436.28	35.291
436.63	36.258
436.98	35.318
437.34	36.315
437.69	36.289
438.04	34.401
438.39	34.209
438.75	35.154
439.10	36.089
439.45	36.068
439.81	35.408
440.16	35.178
440.51	35.442
440.86	36.827
441.22	35.595
441.57	35.881
441.92	36.643
442.27	36.060
442.63	36.072
442.98	35.887
443.33	35.815
443.68	35.364
444.03	36.115
444.39	35.054
444.74	35.606
445.09	35.687
445.44	36.249
445.79	34.785
446.15	35.363
446.50	35.218
446.85	35.868
447.20	35.390
447.55	36.069
447.91	35.907
448.26	35.893
448.61	36.574
448.96	36.600
449.31	37.852
449.66	35.959
450.02	35.153
450.37	35.204
450.72	35.871
451.07	36.076
451.42	35.076
451.77	37.757
452.12	36.316
452.47	37.313
452.83	36.247
453.18	36.797
453.53	36.611
453.88	36.031
454.23	36.581
454.58	36.584
454.93	37.699
455.28	36.160
455.63	37.075
455.98	37.083
456.34	37.751
456.69	37.696
457.04	37.276
457.39	36.411
457.74	37.203
458.09	36.113
458.44	37.115
458.79	36.009
459.14	36.005
459.49	36.953
459.84	36.011
460.19	36.417
460.54	34.144
460.89	36.423
461.24	36.855
461.59	37.130
461.94	35.882
462.29	37.270
462.64	36.950
462.99	35.524
463.34	36.667
463.69	37.649
464.04	37.275
464.39	36.232
464.74	35.413
465.09	36.007
465.44	35.346
465.79	35.850
466.14	35.359
466.49	36.541
466.84	36.486
467.19	37.115
467.54	36.875
467.89	36.014
468.24	36.242
468.59	37.057
468.94	35.614
469.29	37.147
469.64	37.216
469.99	36.333
470.34	37.252
470.68	35.920
471.03	36.122
471.38	37.457
471.73	36.442
472.08	37.368
472.43	36.181
472.78	36.011
473.13	36.585
473.48	35.581
473.83	36.159
474.17	36.839
474.52	36.787
474.87	36.486
475.22	36.506
475.57	35.089
475.92	35.635
476.27	35.287
476.61	36.018
476.96	34.744
477.31	34.799
477.66	35.667
478.01	35.337
478.36	35.325
478.70	36.033
479.05	35.889
479.40	36.080
479.75	35.384
480.10	36.083
480.45	34.841
480.79	33.970
481.14	35.372
481.49	35.596
481.84	34.294
482.19	35.211
482.53	34.450
482.88	35.551
483.23	34.673
483.58	34.895
483.92	34.958
484.27	34.423
484.62	34.483
484.97	33.504
485.31	33.801
485.66	32.571
486.01	31.153
486.36	30.422
486.70	30.143
487.05	30.537
487.40	31.742
487.75	31.709
488.09	32.909
488.44	32.655
488.79	34.105
489.13	33.804
489.48	33.646
489.83	33.880
490.17	34.546
490.52	34.145
490.87	34.283
491.22	34.698
491.56	33.485
491.91	34.109
492.26	33.670
492.60	33.779
492.95	33.302
493.30	33.178
493.64	33.131
493.99	32.730
494.34	34.043
494.68	34.295
495.03	33.976
495.37	33.737
495.72	34.259
496.07	34.060
496.41	32.035
496.76	33.201
497.11	32.868
497.45	33.069
497.80	33.397
498.14	33.188
498.49	33.707
498.84	34.228
499.18	34.333
499.53	33.333
499.87	33.038
500.22	32.972
500.56	33.786
500.91	33.317
501.26	32.432
501.60	34.029
501.95	32.997
502.29	33.177
502.64	32.775
502.98	33.006
503.33	32.176
503.67	32.715
504.02	33.349
504.36	32.569
504.71	33.610
505.06	32.386
505.40	33.641
505.75	32.305
506.09	32.313
506.44	33.103
506.78	33.268
507.13	32.761
507.47	33.737
507.82	33.131
508.16	32.979
508.51	34.044
508.85	32.820
509.19	33.163
509.54	32.347
509.88	33.024
510.23	33.368
510.57	33.437
510.92	32.988
511.26	33.196
511.61	33.610
511.95	31.889
512.30	32.662
512.64	32.993
512.98	33.226
513.33	32.762
513.67	31.750
514.02	31.818
514.36	33.042
514.70	33.204
515.05	33.240
515.39	32.642
515.74	32.601
516.08	33.371
516.42	33.352
516.77	33.055
517.11	33.296
517.46	33.014
517.80	33.449
518.14	32.195
518.49	32.847
518.83	32.955
519.17	32.621
519.52	32.881
519.86	32.972
520.20	33.642
520.55	32.974
520.89	32.968
521.23	33.112
521.58	32.893
521.92	33.007
522.26	31.910
522.61	32.960
522.95	32.658
523.29	33.049
523.64	32.195
523.98	33.826
524.32	32.871
524.66	32.411
525.01	32.598
525.35	32.342
525.69	31.527
526.04	32.586
526.38	32.398
526.72	32.454
527.06	32.517
527.41	31.869
527.75	32.540
528.09	32.820
528.43	33.142
528.78	32.514
529.12	32.303
529.46	33.190
529.80	32.116
530.15	32.586
530.49	31.262
530.83	31.582
531.17	32.637
531.51	33.852
531.86	32.581
532.20	32.790
532.54	31.839
532.88	32.349
533.22	31.980
533.57	31.667
533.91	31.005
534.25	31.896
534.59	31.849
534.93	31.291
535.27	30.416
535.62	32.357
535.96	31.325
536.30	31.914
536.64	31.809
536.98	31.719
537.32	31.336
537.66	31.533
538.01	31.073
538.35	31.480
538.69	32.291
539.03	31.839
539.37	30.863
539.71	31.497
540.05	31.830
540.39	31.495
540.73	30.789
541.07	32.057
541.42	30.985
541.76	32.065
542.10	30.530
542.44	31.391
542.78	32.345
543.12	31.094
543.46	30.230
543.80	31.555
544.14	29.910
544.48	30.921
544.82	30.276
545.16	30.254
545.50	30.270
545.84	29.906
546.18	31.919
546.52	31.039
546.86	31.203
547.20	31.086
547.54	31.530
547.88	31.059
548.22	29.888
548.56	29.560
548.90	29.001
549.24	30.438
549.58	30.286
549.92	31.319
550.26	30.682
550.60	30.360
550.94	31.338
551.28	29.481
551.62	31.488
551.96	30.596
552.30	30.922
552.64	29.953
552.98	30.034
553.32	29.400
553.66	29.993
554.00	29.787
554.34	29.538
554.68	29.399
555.02	30.536
555.36	30.619
555.69	29.093
556.03	30.215
556.37	29.741
556.71	28.172
557.05	30.112
557.39	30.301
557.73	30.628
558.07	30.964
558.41	29.667
558.75	30.713
559.08	31.022
559.42	30.537
559.76	29.338
560.10	29.550
560.44	29.769
560.78	28.942
561.12	29.222
561.45	28.748
561.79	28.345
562.13	28.236
562.47	29.235
562.81	28.452
563.15	28.361
563.48	28.846
563.82	27.919
564.16	28.646
564.50	28.841
564.84	27.560
565.17	28.185
565.51	28.882
565.85	28.997
566.19	27.239
566.52	28.372
566.86	27.306
567.20	28.243
567.54	27.626
567.88	25.584
568.21	26.931
568.55	26.340
568.89	26.800
569.23	25.802
569.56	24.332
569.90	25.283
570.24	24.686
570.57	24.175
570.91	23.723
571.25	23.687
571.59	23.947
571.92	23.358
572.26	23.859
572.60	24.114
572.93	23.808
573.27	23.484
573.61	23.227
573.95	23.721
574.28	22.588
574.62	22.595
574.96	22.581
575.29	22.430
575.63	22.866
575.97	22.833
576.30	22.969
576.64	22.467
576.98	22.946
577.31	22.204
577.65	22.584
577.98	22.236
578.32	21.902
578.66	22.096
578.99	22.415
579.33	22.295
579.67	21.771
580.00	22.297
580.34	22.663
580.67	22.146
581.01	22.667
581.35	22.254
581.68	21.648
582.02	21.182
582.35	21.320
582.69	21.850
583.02	22.097
583.36	21.628
583.70	22.078
584.03	22.571
584.37	23.057
584.70	22.544
585.04	22.652
585.37	22.018
585.71	22.486
586.04	22.228
586.38	22.231
586.72	22.314
587.05	22.711
587.39	21.979
587.72	22.133
588.06	21.878
588.39	21.948
588.73	22.323
589.06	22.873
589.40	22.660
589.73	22.985
590.07	23.381
590.40	22.543
590.73	23.536
591.07	23.606
591.40	23.619
591.74	23.290
592.07	23.647
592.41	23.439
592.74	22.996
593.08	22.219
593.41	21.892
593.75	21.549
594.08	21.891
594.41	22.694
594.75	22.107
595.08	21.904
595.42	22.312
595.75	22.400
596.09	23.282
596.42	23.104
596.75	22.035
597.09	23.290
597.42	22.555
597.75	23.070
598.09	23.130
598.42	23.153
598.76	22.213
599.09	22.045
599.42	21.725
599.76	21.779
600.09	21.676
600.42	21.585
600.76	21.643
601.09	22.077
601.42	21.918
601.76	22.125
602.09	22.253
602.42	22.014
602.76	22.692
603.09	22.227
603.42	22.257
603.76	21.570
604.09	22.257
604.42	22.177
604.76	22.143
605.09	21.931
605.42	21.804
605.75	22.103
606.09	21.919
606.42	22.150
606.75	22.024
607.09	22.352
607.42	22.037
607.75	21.266
608.08	21.363
608.42	22.546
608.75	22.272
609.08	21.462
609.41	21.514
609.75	22.392
610.08	22.903
610.41	22.207
610.74	21.618
611.07	22.036
611.41	22.522
611.74	22.725
612.07	22.257
612.40	23.085
612.73	22.211
613.07	22.791
613.40	22.643
613.73	21.709
614.06	22.849
614.39	22.496
614.72	22.368
615.06	22.111
615.39	21.868
615.72	21.984
616.05	22.116
616.38	22.790
616.71	23.278
617.05	22.733
617.38	22.249
617.71	22.883
618.04	22.716
618.37	22.590
618.70	23.647
619.03	24.079
619.36	22.811
619.69	24.366
620.03	24.931
620.36	24.799
620.69	23.288
621.02	24.410
621.35	23.884
621.68	24.221
622.01	24.303
622.34	24.508
622.67	24.106
623.00	23.478
623.33	22.659
623.66	23.231
623.99	23.049
624.32	23.823
624.65	23.234
624.99	22.450
625.32	22.375
625.65	22.615
625.98	24.981
626.31	25.428
626.64	24.653
626.97	24.023
627.30	24.356
627.63	23.544
627.96	24.558
628.29	23.972
628.62	26.349
628.95	25.849
629.28	25.730
629.61	26.214
629.94	25.143
630.26	24.214
630.59	25.262
630.92	24.904
631.25	25.469
631.58	24.124
631.91	25.558
632.24	24.473
632.57	26.443
632.90	25.768
633.23	26.510
633.56	26.215
633.89	25.595
634.22	26.107
634.55	26.864
634.88	26.108
635.20	27.240
635.53	28.072
635.86	26.856
636.19	24.824
636.52	26.298
636.85	25.773
637.18	25.691
637.51	26.123
637.83	24.908
638.16	26.343
638.49	28.086
638.82	28.445
639.15	26.500
639.48	27.057
639.81	27.078
640.13	26.302
640.46	27.517
640.79	28.137
641.12	24.759
641.45	27.793
641.77	27.393
642.10	28.363
642.43	26.577
642.76	28.019
643.09	28.374
643.41	26.555
643.74	29.321
644.07	25.762
644.40	30.215
644.73	30.709
645.05	29.794
645.38	27.646
645.71	28.341
646.04	28.239
646.36	29.215
646.69	28.428
647.02	28.571
647.35	30.756
647.67	30.973
648.00	28.130
648.33	28.383
648.66	27.424
648.98	28.936
649.31	28.401
649.64	28.251
649.96	27.273
650.29	30.648
650.62	27.832
650.94	29.011
651.27	28.378
651.60	27.953
651.92	27.636
652.25	27.687
652.58	27.882
652.90	29.700
653.23	27.273
653.56	28.504
653.88	28.526
654.21	29.226
654.54	27.888
654.86	26.168
655.19	26.081
655.52	17.394
655.84	14.674
656.17	18.765
656.49	25.151
656.82	25.174
657.15	19.038
657.47	13.985
657.80	10.773
658.13	11.155
658.45	16.679
658.78	17.088
659.10	17.336
659.43	18.720
659.75	20.858
660.08	23.481
660.41	25.512
660.73	27.573
661.06	29.140
661.38	29.636
661.71	31.731
662.03	30.572
662.36	29.225
662.68	31.124
663.01	28.283
663.33	31.847
663.66	29.832
663.98	30.670
664.31	29.412
664.63	30.364
664.96	26.358
665.28	29.508
665.61	30.019
665.93	29.175
666.26	29.209
666.58	29.916
666.91	32.770
667.23	32.135
667.56	30.238
667.88	34.615
668.21	30.064
668.53	29.935
668.86	30.087
669.18	31.557
669.50	30.217
669.83	33.115
670.15	28.889
670.48	29.412
670.80	29.741
671.13	30.573
671.45	28.511
671.77	30.754
672.10	30.129
672.42	26.325
672.75	27.529
673.07	27.641
673.39	25.136
673.72	25.195
674.04	27.451
674.37	28.155
674.69	30.470
675.01	28.243
675.34	28.131
675.66	31.579
675.98	29.532
676.31	30.042
676.63	31.210
676.95	28.721
677.28	30.140
677.60	29.670
677.92	33.122
678.25	29.363
678.57	28.088
678.89	28.457
679.22	27.701
679.54	27.481
679.86	28.257
680.18	26.834
680.51	26.241
680.83	30.783
681.15	26.792
681.48	29.490
681.80	28.240
682.12	27.969
682.44	24.952
682.77	28.513
683.09	31.116
683.41	26.386
683.73	29.360
684.06	29.959
684.38	28.963
684.70	28.295
685.02	28.893
685.34	27.289
685.67	25.874
685.99	25.430
686.31	25.597
686.63	26.678
686.96	26.964
687.28	26.534
687.60	25.906
687.92	26.143
688.24	26.236
688.56	28.313
688.89	32.365
689.21	31.441
689.53	29.228
689.85	29.268
690.17	28.364
690.49	29.936
690.82	30.841
691.14	28.795
691.46	26.371
691.78	27.711
692.10	30.579
692.42	30.539
692.74	25.726
693.06	30.851
693.39	30.390
693.71	28.384
694.03	28.421
694.35	27.273
694.67	26.773
694.99	29.268
695.31	29.902
695.63	28.708
695.95	31.540
696.27	28.934
696.59	29.275
696.91	32.383
697.23	26.056
697.56	28.358
697.88	27.607
698.20	27.917
698.52	26.237
698.84	29.176
699.16	28.571
699.48	29.929
699.80	28.502
700.12	34.805
700.44	31.034
700.76	32.320
701.08	36.782
701.40	33.520
701.72	34.111
702.04	32.955
702.36	30.312
702.68	31.728
703.00	27.701
703.32	30.053
703.64	27.882
703.96	34.262
704.28	31.686
704.60	35.777
704.91	33.531
705.23	34.311
705.55	38.538
705.87	38.870
706.19	32.862
706.51	34.579
706.83	34.848
707.15	34.174
707.47	29.798
707.79	31.941
708.11	27.626
708.43	29.286
708.74	27.296
709.06	30.390
709.38	28.871
709.70	32.267
710.02	33.531
710.34	29.091
710.66	31.642
710.98	30.966
711.29	32.558
711.61	35.988
711.93	33.654
712.25	35.048
712.57	39.338
712.89	32.180
713.20	35.258
713.52	36.513
713.84	32.911
714.16	33.841
714.48	33.333
714.80	37.082
715.11	30.548
715.43	31.157
715.75	30.145
716.07	32.588
716.39	30.408
716.70	34.219
717.02	34.532
717.34	34.276
717.66	39.179
717.97	41.036
718.29	34.074
718.61	34.307
718.93	36.397
719.24	33.218
719.56	32.881
719.88	35.254
720.20	35.135
720.51	36.237
720.83	38.662
721.15	35.448
721.46	36.170
721.78	38.351
722.10	36.981
722.42	36.090
722.73	35.581
723.05	36.066
723.37	34.413
723.68	42.085
724.00	34.553
724.32	35.887
724.63	34.146
724.95	37.238
725.27	34.413
725.58	37.109
725.90	35.766
726.22	37.358
726.53	34.722
726.85	37.201
727.16	35.587
727.48	35.106
727.80	37.500
728.11	34.783
728.43	34.615
728.74	31.900
729.06	36.131
729.38	36.029
729.69	36.655
730.01	35.495
730.32	29.861
730.64	35.786
730.96	28.383
731.27	32.450
731.59	32.110
731.90	30.029
732.22	30.124
732.53	30.960
732.85	31.410
733.16	31.190
733.48	34.219
733.80	32.468
734.11	32.803
734.43	32.840
734.74	27.714
735.06	31.519
735.37	32.081
735.69	29.936
736.00	34.314
736.32	34.579
736.63	30.032
736.95	33.866
737.26	29.592
737.58	29.355
737.89	32.441
738.21	32.765
738.52	35.357
738.83	33.208
739.15	32.308
739.46	37.591
739.78	34.722
740.09	30.154
740.41	35.806
740.72	33.449
741.04	36.296
741.35	41.667
741.66	41.778
741.98	35.849
742.29	40.191
742.61	36.207
742.92	38.462
743.23	37.607
743.55	36.400
743.86	40.351
744.18	38.938
744.49	40.670
744.80	42.254
745.12	43.636
745.43	38.326
745.74	41.892
746.06	40.367
746.37	36.771
746.68	38.009
747.00	42.593
747.31	42.381
747.62	33.628
747.94	38.326
748.25	38.723
748.56	44.053
748.88	45.050
749.19	46.500
749.50	41.395
749.82	35.366
750.13	34.694
750.44	30.292
750.75	35.439
751.07	35.370
751.38	30.662
751.69	34.296
752.01	34.211
752.32	31.769
752.63	36.525
752.94	37.705
753.26	42.800
753.57	30.894
753.88	37.500
754.19	32.143
754.51	33.681
754.82	31.408
755.13	34.717
755.44	38.722
755.75	32.482
756.07	32.624
756.38	33.212
756.69	31.208
757.00	30.838
757.31	34.125
757.63	26.608
757.94	32.172
758.25	27.696
758.56	27.901
758.87	24.731
759.18	30.606
759.50	29.467
759.81	30.841
760.12	28.438
760.43	30.946
760.74	26.630
761.05	30.791
761.36	27.540
761.67	27.557
761.99	26.087
762.30	30.556
762.61	35.115
762.92	35.547
763.23	36.134
763.54	37.600
763.85	33.984
764.16	36.154
764.47	32.319
764.78	27.915
765.10	28.165
765.41	30.678
765.72	30.838
766.03	31.975
766.34	30.000
766.65	36.596
766.96	40.171
767.27	46.701
767.58	42.188
767.89	43.158
768.20	49.425
768.51	39.086
768.82	45.413
769.13	35.366
769.44	33.198
769.75	36.910
770.06	29.358
770.37	35.747
770.68	37.500
770.99	40.889
771.30	28.279
771.61	42.601
771.92	37.705
772.23	41.176
772.54	37.436
772.85	45.026
773.16	48.404
773.47	47.826
773.78	43.147
774.09	42.262
774.39	44.444
774.70	46.296
775.01	50.000
775.32	50.327
775.63	50.000
775.94	50.360
776.25	64.567
776.56	56.716
776.87	54.918
777.18	49.219
777.48	61.832
777.79	47.727
778.10	61.481
778.41	53.571
778.72	44.526
779.03	59.060
779.34	49.664
779.65	45.270
779.95	42.945
780.26	47.712
780.57	55.172
780.88	64.062
781.19	47.368
781.50	57.432
781.80	48.428
782.11	42.373
782.42	36.709
782.73	46.012
783.04	55.405
783.34	49.296
783.65	50.685
783.96	58.955
784.27	52.448
784.57	46.043
784.88	54.630
785.19	63.492
785.50	71.698
785.81	58.955
786.11	60.656
786.42	59.690
786.73	69.912
787.04	56.604
787.34	71.429
787.65	62.000
787.96	62.162
788.26	59.504
788.57	60.169
788.88	63.636
789.19	54.167
789.49	59.091
789.80	54.962
790.11	82.857
790.41	74.257
790.72	63.855
791.03	69.565
791.33	69.767
791.64	64.948
791.95	73.267
792.25	78.889
792.56	77.922
792.87	84.615
793.17	94.937
793.48	66.667
793.79	85.057
794.09	75.000
794.40	63.025
794.70	58.088
795.01	40.741
795.32	54.676
795.62	62.205
795.93	50.862
796.23	63.717
796.54	68.235
796.85	82.432
797.15	114.085
797.46	84.848
797.76	84.337
798.07	82.278
798.37	87.692
798.68	83.333
798.99	61.972
799.29	74.026
799.60	85.227
799.90	102.740
800.21	98.507
800.51	108.621
800.82	105.263
801.12	100.000
801.43	93.939
801.73	83.784
802.04	115.873
802.34	98.765
802.65	100.000
802.95	122.034
803.26	101.563
803.56	92.857
803.87	89.231
804.17	100.000
804.48	114.815
804.78	91.379
805.09	75.000
805.39	78.846
805.70	112.500
806.00	95.082
806.30	83.333
806.61	84.146
806.91	75.949
807.22	75.000
807.52	62.687
807.83	84.507
808.13	95.312
808.43	110.000
808.74	75.000
809.04	95.652
809.35	105.970
809.65	84.211
809.95	120.968
810.26	86.441
810.56	93.651
810.86	140.909
811.17	140.476
811.47	103.333
811.77	88.889
812.08	116.364
812.38	120.000
812.69	158.333
812.99	161.364
813.29	118.367
813.59	109.524
813.90	132.653
814.20	118.182
814.50	95.385
814.81	102.941
815.11	118.367
815.41	101.639
815.72	178.571
816.02	116.364
816.32	135.714
816.62	137.500
816.93	121.951
817.23	123.810
817.53	120.455
817.84	190.909
818.14	134.783
818.44	148.889
818.74	150.000
819.04	142.500
819.35	168.571
819.65	182.353
819.95	146.429
820.25	220.000
820.56	151.282
820.86	113.636
821.16	141.860
821.46	156.410
821.76	134.000
822.07	148.571
822.37	172.500
822.67	178.788
822.97	119.608
823.27	217.857
823.57	154.054
823.88	160.000
824.18	206.667
824.48	161.905
824.78	228.000
825.08	187.500
825.38	183.784
825.69	165.854
825.99	254.167
826.29	155.172
826.59	176.316
826.89	150.000
827.19	185.294
827.49	193.548
827.79	152.273
828.09	163.636
828.39	119.149
828.70	126.531
829.00	185.185
829.30	167.742
829.60	152.500
829.90	306.667
830.20	192.857
830.50	200.000
830.80	200.000
831.10	203.333
831.40	193.333
831.70	213.043
832.00	211.538
832.30	200.000
832.60	275.000
832.90	210.000
833.20	485.714
833.50	203.226
833.80	193.103
834.10	206.250
834.40	203.846
834.70	300.000
835.00	333.333
835.30	171.429
835.60	284.615
835.90	186.207
836.20	364.286
836.50	200.000
836.80	208.000
837.10	180.556
837.40	242.857
837.70	376.471
838.00	225.926
838.30	238.095
838.60	290.476
838.90	234.615
839.19	280.000
839.49	435.714
839.79	290.000
840.09	255.000
840.39	271.429
840.69	273.913
840.99	327.778
841.29	510.000
841.59	283.333
841.88	406.250
842.18	200.000
842.48	261.905
842.78	196.667
843.08	239.130
843.38	193.750
843.68	1000.000
843.97	219.231
844.27	203.448
844.57	304.762
844.87	350.000
845.17	237.037
845.47	1400.000
845.76	477.778
846.06	347.059
846.36	500.000
846.66	392.857
846.96	350.000
847.25	427.273
847.55	381.818
847.85	269.565
848.15	530.000
848.44	364.286
848.74	227.778
849.04	311.765
849.34	580.000
849.63	210.526
849.93	500.000
850.23	1000.000
850.53	428.571
850.82	2700.000
851.12	-4100.000
851.42	4700.000
851.71	315.000
852.01	-1333.333
852.31	295.833
852.61	2000.000
852.90	276.190
853.20	260.000
853.50	329.412
853.79	257.143
854.09	233.333
854.39	375.000
854.68	191.892
854.98	209.677
855.28	203.333
855.57	282.759
855.87	262.963
856.17	242.105
856.46	273.333
856.76	305.882
857.05	182.759
857.35	212.500
857.65	306.667
857.94	208.696
858.24	242.308
858.53	280.000
858.83	272.727
859.13	346.667
859.42	0.000
859.72	577.778
860.01	545.455
860.31	281.818
860.60	289.474
860.90	213.043
861.20	644.444
861.49	500.000
861.79	-4600.000
862.08	687.500
862.38	300.000
862.67	376.923
862.97	335.294
863.26	611.111
863.56	266.667
863.85	408.333
864.15	475.000
864.44	353.333
864.74	900.000
865.03	712.500
865.33	268.421
865.62	490.909
865.92	384.615
866.21	441.667
866.51	0.000
866.80	427.273
867.10	1000.000
867.39	476.923
867.69	427.273
867.98	331.579
868.27	590.909
868.57	310.526
868.86	-4700.000
869.16	306.250
869.45	2700.000
869.75	-4600.000
870.04	416.667
870.33	814.286
870.63	1075.000
870.92	2500.000
871.22	814.286
871.51	347.059
871.80	219.048
872.10	442.857
>>>>>End Processed Spectral Data<<<<<
