SpectraSuite Data File
++++++++++++++++++++++++++++++++++++
Date: Wed May 13 19:58:41 PDT 2015
User: schluterlab
Dark Spectrum Present: Yes
Reference Spectrum Present: Yes
Number of Sampled Component Spectra: 1
Spectrometers: USB2E3373
Integration Time (usec): 3000 (USB2E3373)
Spectra Averaged: 3 (USB2E3373)
Boxcar Smoothing: 0 (USB2E3373)
Correct for Electrical Dark: No (USB2E3373)
Strobe/Lamp Enabled: No (USB2E3373)
Correct for Detector Non-linearity: No (USB2E3373)
Correct for Stray Light: No (USB2E3373)
Number of Pixels in Processed Spectrum: 2048
>>>>>Begin Processed Spectral Data<<<<<
178.53	0.000
178.91	-1300.000
179.29	-1425.000
179.67	-255.556
180.04	-1375.000
180.42	2300.000
180.80	1020.000
181.18	-950.000
181.56	800.000
181.94	0.000
182.31	-785.714
182.69	1733.333
183.07	-575.000
183.45	-522.222
183.83	500.000
184.20	-380.000
184.58	3000.000
184.96	5000.000
185.34	-900.000
185.72	-625.000
186.09	-2750.000
186.47	3100.000
186.85	2700.000
187.23	4000.000
187.61	-1866.667
187.98	1250.000
188.36	472.727
188.74	463.636
189.12	-860.000
189.49	610.000
189.87	-4500.000
190.25	-1300.000
190.63	442.857
191.00	407.692
191.38	950.000
191.76	-1375.000
192.14	1425.000
192.51	662.500
192.89	933.333
193.27	550.000
193.65	-1400.000
194.02	520.000
194.40	960.000
194.78	520.000
195.15	458.333
195.53	630.000
195.91	-2150.000
196.29	362.500
196.66	300.000
197.04	-390.000
197.42	0.000
197.79	630.000
198.17	-4300.000
198.55	557.143
198.92	712.500
199.30	780.000
199.68	0.000
200.05	322.222
200.43	685.714
200.81	4200.000
201.18	1900.000
201.56	-1633.333
201.94	588.889
202.31	555.556
202.69	416.667
203.07	470.000
203.44	0.000
203.82	1125.000
204.19	671.429
204.57	535.714
204.95	662.500
205.32	1900.000
205.70	490.909
206.08	385.714
206.45	2300.000
206.83	300.000
207.20	1050.000
207.58	720.000
207.96	355.556
208.33	637.500
208.71	-850.000
209.08	742.857
209.46	700.000
209.84	445.455
210.21	-1500.000
210.59	1275.000
210.96	-537.500
211.34	2000.000
211.71	570.000
212.09	883.333
212.46	0.000
212.84	1133.333
213.22	1350.000
213.59	-5100.000
213.97	900.000
214.34	828.571
214.72	581.818
215.09	1040.000
215.47	-2100.000
215.84	-2000.000
216.22	1700.000
216.59	385.714
216.97	1250.000
217.34	481.818
217.72	-716.667
218.09	0.000
218.47	-5000.000
218.84	677.778
219.22	842.857
219.59	1733.333
219.97	-542.857
220.34	980.000
220.72	-1700.000
221.09	407.143
221.47	1625.000
221.84	-1033.333
222.22	0.000
222.59	1325.000
222.97	-2750.000
223.34	1180.000
223.72	384.615
224.09	1100.000
224.46	2750.000
224.84	-5100.000
225.21	-1040.000
225.59	-5100.000
225.96	550.000
226.34	260.000
226.71	2350.000
227.08	737.500
227.46	540.000
227.83	-1050.000
228.21	-2350.000
228.58	522.222
228.95	-2250.000
229.33	-2450.000
229.70	1766.667
230.08	757.143
230.45	-940.000
230.82	433.333
231.20	816.667
231.57	700.000
231.95	475.000
232.32	227.273
232.69	436.364
233.07	757.143
233.44	407.692
233.81	-2000.000
234.19	310.526
234.56	508.333
234.93	358.333
235.31	490.909
235.68	430.769
236.05	378.571
236.43	193.939
236.80	252.632
237.17	5100.000
237.55	276.190
237.92	210.714
238.29	257.143
238.67	196.774
239.04	206.897
239.41	161.111
239.79	121.739
240.16	150.000
240.53	150.000
240.91	121.569
241.28	140.000
241.65	134.000
242.02	121.739
242.40	112.903
242.77	111.667
243.14	88.172
243.51	93.258
243.89	82.353
244.26	94.444
244.63	80.645
245.00	82.979
245.38	80.198
245.75	71.028
246.12	74.312
246.49	78.832
246.87	68.800
247.24	75.385
247.61	68.571
247.98	62.092
248.36	73.649
248.73	65.605
249.10	68.153
249.47	59.887
249.84	62.032
250.22	59.358
250.59	62.722
250.96	63.636
251.33	59.716
251.70	60.891
252.08	57.619
252.45	51.570
252.82	51.304
253.19	51.915
253.56	51.373
253.94	51.452
254.31	52.344
254.68	51.923
255.05	54.982
255.42	49.593
255.79	50.000
256.16	52.708
256.54	49.470
256.91	49.822
257.28	47.122
257.65	48.185
258.02	49.689
258.39	49.211
258.76	48.495
259.14	48.214
259.51	45.593
259.88	45.342
260.25	47.734
260.62	45.087
260.99	49.068
261.36	46.246
261.73	46.991
262.10	47.093
262.47	48.732
262.85	44.847
263.22	43.590
263.59	48.148
263.96	41.758
264.33	44.386
264.70	45.526
265.07	47.315
265.44	43.939
265.81	42.336
266.18	44.975
266.55	43.902
266.92	43.980
267.29	43.981
267.66	43.807
268.03	44.091
268.40	43.458
268.77	41.766
269.14	41.667
269.51	42.212
269.88	43.823
270.25	45.598
270.62	41.798
270.99	44.731
271.36	43.348
271.73	42.991
272.10	39.130
272.47	44.946
272.84	39.610
273.21	41.929
273.58	38.865
273.95	41.719
274.32	40.702
274.69	40.257
275.06	37.008
275.43	41.277
275.80	38.277
276.17	40.326
276.54	40.956
276.91	40.909
277.28	36.523
277.65	38.298
278.02	40.166
278.39	41.992
278.76	38.545
279.13	40.189
279.50	39.851
279.87	40.040
280.23	39.521
280.60	37.524
280.97	37.523
281.34	37.699
281.71	39.818
282.08	38.772
282.45	38.000
282.82	40.320
283.19	36.898
283.56	37.719
283.92	40.271
284.29	36.332
284.66	37.750
285.03	34.177
285.40	36.972
285.77	36.532
286.14	36.442
286.51	36.333
286.87	38.120
287.24	38.599
287.61	35.955
287.98	35.877
288.35	35.024
288.72	33.956
289.08	37.559
289.45	35.091
289.82	35.285
290.19	32.653
290.56	33.078
290.93	32.175
291.29	32.975
291.66	33.481
292.03	34.738
292.40	34.508
292.77	31.657
293.13	33.433
293.50	33.528
293.87	31.111
294.24	29.778
294.60	29.403
294.97	30.814
295.34	31.030
295.71	31.676
296.08	31.197
296.44	30.399
296.81	30.647
297.18	29.946
297.55	28.496
297.91	28.364
298.28	29.853
298.65	29.112
299.02	30.962
299.38	29.482
299.75	28.437
300.12	27.586
300.48	28.250
300.85	29.223
301.22	27.771
301.59	27.525
301.95	27.078
302.32	28.883
302.69	27.718
303.05	27.152
303.42	27.531
303.79	27.860
304.15	24.476
304.52	26.535
304.89	26.597
305.25	26.450
305.62	27.067
305.99	27.273
306.35	26.398
306.72	26.009
307.09	27.081
307.45	26.464
307.82	26.228
308.19	25.938
308.55	25.351
308.92	27.282
309.29	24.604
309.65	26.829
310.02	26.533
310.38	25.914
310.75	25.238
311.12	26.203
311.48	27.168
311.85	26.730
312.22	25.806
312.58	25.884
312.95	27.033
313.31	25.340
313.68	25.988
314.05	27.120
314.41	26.834
314.78	25.076
315.14	26.018
315.51	26.674
315.87	27.327
316.24	26.216
316.61	26.218
316.97	26.908
317.34	27.593
317.70	26.195
318.07	28.296
318.43	28.376
318.80	29.803
319.16	28.343
319.53	28.518
319.89	29.714
320.26	30.500
320.62	30.754
320.99	31.212
321.35	31.616
321.72	34.292
322.08	35.242
322.45	36.020
322.81	36.047
323.18	35.838
323.54	37.662
323.91	38.113
324.27	39.293
324.64	40.168
325.00	39.856
325.37	42.493
325.73	43.716
326.10	43.866
326.46	46.057
326.83	47.541
327.19	48.079
327.56	50.261
327.92	53.018
328.29	53.505
328.65	56.262
329.01	54.964
329.38	56.984
329.74	56.971
330.11	59.095
330.47	60.698
330.84	59.926
331.20	60.291
331.56	59.908
331.93	61.944
332.29	61.757
332.66	62.124
333.02	64.077
333.38	64.770
333.75	64.795
334.11	64.324
334.48	64.330
334.84	66.912
335.20	66.636
335.57	66.727
335.93	68.393
336.29	68.407
336.66	70.514
337.02	68.778
337.38	68.889
337.75	69.251
338.11	68.756
338.47	69.521
338.84	71.861
339.20	70.550
339.56	71.989
339.93	71.909
340.29	71.196
340.65	70.766
341.02	73.386
341.38	72.598
341.74	72.982
342.11	71.092
342.47	73.656
342.83	73.202
343.20	73.506
343.56	72.789
343.92	74.825
344.28	74.405
344.65	76.870
345.01	74.411
345.37	73.413
345.73	74.788
346.10	74.510
346.46	75.508
346.82	74.629
347.19	75.773
347.55	73.563
347.91	77.104
348.27	76.993
348.63	76.589
349.00	75.162
349.36	75.041
349.72	75.702
350.08	75.851
350.45	77.461
350.81	76.279
351.17	77.877
351.53	77.969
351.89	77.888
352.26	76.875
352.62	77.306
352.98	77.715
353.34	77.814
353.70	79.133
354.07	79.355
354.43	77.778
354.79	79.083
355.15	78.851
355.51	79.536
355.87	79.918
356.24	81.026
356.60	78.027
356.96	81.416
357.32	81.112
357.68	80.630
358.04	79.731
358.40	80.602
358.77	79.656
359.13	78.611
359.49	81.020
359.85	81.984
360.21	81.260
360.57	82.568
360.93	82.231
361.29	82.237
361.66	81.115
362.02	82.164
362.38	82.662
362.74	82.812
363.10	80.903
363.46	82.172
363.82	83.522
364.18	82.673
364.54	85.290
364.90	82.436
365.26	84.412
365.62	85.099
365.98	83.199
366.35	81.304
366.71	83.442
367.07	84.705
367.43	85.922
367.79	86.081
368.15	84.555
368.51	85.465
368.87	85.011
369.23	86.101
369.59	86.387
369.95	85.000
370.31	84.117
370.67	85.000
371.03	86.891
371.39	87.318
371.75	85.956
372.11	84.353
372.47	87.830
372.83	87.824
373.19	84.393
373.55	87.657
373.91	89.102
374.27	85.773
374.63	89.309
374.99	88.418
375.35	86.322
375.71	86.018
376.07	87.380
376.42	89.752
376.78	87.475
377.14	87.585
377.50	87.748
377.86	86.370
378.22	87.042
378.58	87.218
378.94	87.178
379.30	87.786
379.66	88.325
380.02	88.943
380.38	87.796
380.74	87.335
381.09	88.875
381.45	88.384
381.81	88.636
382.17	90.127
382.53	88.302
382.89	89.691
383.25	89.619
383.61	89.963
383.97	87.930
384.32	87.648
384.68	88.104
385.04	87.339
385.40	88.297
385.76	88.575
386.12	88.148
386.48	88.295
386.83	92.046
387.19	89.920
387.55	88.002
387.91	88.936
388.27	88.964
388.62	88.138
388.98	88.268
389.34	87.985
389.70	88.412
390.06	89.290
390.42	89.364
390.77	88.422
391.13	89.917
391.49	88.832
391.85	89.561
392.20	87.634
392.56	88.763
392.92	87.228
393.28	87.633
393.64	89.269
393.99	87.905
394.35	88.710
394.71	88.833
395.07	87.103
395.42	88.010
395.78	88.550
396.14	88.330
396.50	90.351
396.85	89.320
397.21	86.375
397.57	89.523
397.92	87.380
398.28	88.453
398.64	86.619
399.00	87.913
399.35	87.592
399.71	87.674
400.07	87.463
400.42	87.055
400.78	88.480
401.14	89.817
401.49	87.284
401.85	88.022
402.21	86.048
402.57	86.737
402.92	87.831
403.28	87.570
403.63	87.191
403.99	88.535
404.35	85.697
404.70	86.631
405.06	86.605
405.42	88.272
405.77	86.171
406.13	84.537
406.49	86.931
406.84	85.411
407.20	87.057
407.55	88.130
407.91	87.933
408.27	88.832
408.62	86.273
408.98	85.172
409.34	86.162
409.69	87.161
410.05	86.431
410.40	85.933
410.76	86.679
411.11	84.258
411.47	85.240
411.83	86.011
412.18	86.024
412.54	86.862
412.89	83.916
413.25	85.183
413.60	86.473
413.96	84.214
414.31	84.751
414.67	85.741
415.03	86.490
415.38	84.794
415.74	85.595
416.09	85.826
416.45	85.877
416.80	84.600
417.16	85.925
417.51	85.401
417.87	83.173
418.22	85.237
418.58	85.604
418.93	86.179
419.29	84.978
419.64	86.209
420.00	83.659
420.35	83.478
420.71	85.953
421.06	85.263
421.42	84.211
421.77	83.464
422.12	82.875
422.48	82.947
422.83	83.052
423.19	83.591
423.54	84.562
423.90	84.232
424.25	82.859
424.61	85.179
424.96	84.373
425.31	82.060
425.67	81.236
426.02	82.171
426.38	84.249
426.73	84.260
427.09	83.343
427.44	84.416
427.79	82.806
428.15	84.583
428.50	82.212
428.85	83.552
429.21	83.324
429.56	83.256
429.92	82.386
430.27	83.168
430.62	80.799
430.98	81.733
431.33	82.216
431.68	83.141
432.04	81.896
432.39	83.724
432.74	82.107
433.10	82.173
433.45	83.499
433.80	82.761
434.16	82.425
434.51	80.632
434.86	82.383
435.22	82.157
435.57	84.073
435.92	83.031
436.28	82.681
436.63	81.788
436.98	82.141
437.34	83.005
437.69	82.964
438.04	82.856
438.39	82.567
438.75	83.556
439.10	82.011
439.45	81.405
439.81	83.021
440.16	82.552
440.51	81.371
440.86	82.166
441.22	81.424
441.57	81.423
441.92	81.883
442.27	82.508
442.63	81.201
442.98	82.028
443.33	80.109
443.68	80.227
444.03	81.210
444.39	81.061
444.74	82.792
445.09	81.617
445.44	81.629
445.79	80.406
446.15	79.089
446.50	81.206
446.85	80.627
447.20	80.571
447.55	81.407
447.91	80.585
448.26	80.634
448.61	81.515
448.96	81.174
449.31	81.215
449.66	81.880
450.02	80.891
450.37	80.159
450.72	82.121
451.07	80.561
451.42	80.365
451.77	81.914
452.12	79.330
452.47	79.851
452.83	81.818
453.18	80.623
453.53	81.633
453.88	81.748
454.23	80.992
454.58	80.254
454.93	81.627
455.28	80.923
455.63	79.854
455.98	80.833
456.34	80.528
456.69	80.338
457.04	81.734
457.39	80.421
457.74	79.861
458.09	78.263
458.44	79.361
458.79	78.200
459.14	80.248
459.49	79.218
459.84	79.114
460.19	78.020
460.54	76.620
460.89	78.991
461.24	78.810
461.59	79.954
461.94	78.298
462.29	79.288
462.64	77.983
462.99	78.204
463.34	79.800
463.69	79.049
464.04	78.319
464.39	77.913
464.74	77.243
465.09	76.960
465.44	75.734
465.79	76.398
466.14	75.698
466.49	76.251
466.84	78.050
467.19	76.645
467.54	77.688
467.89	77.911
468.24	78.301
468.59	78.327
468.94	76.665
469.29	77.506
469.64	77.845
469.99	79.364
470.34	78.203
470.68	79.095
471.03	77.551
471.38	79.639
471.73	78.148
472.08	78.553
472.43	77.387
472.78	79.394
473.13	77.150
473.48	77.403
473.83	77.561
474.17	76.291
474.52	77.047
474.87	76.941
475.22	75.392
475.57	74.798
475.92	76.739
476.27	75.028
476.61	75.621
476.96	76.910
477.31	74.045
477.66	76.532
478.01	74.909
478.36	76.203
478.70	74.247
479.05	76.890
479.40	75.793
479.75	74.682
480.10	75.398
480.45	74.679
480.79	75.012
481.14	74.902
481.49	74.798
481.84	73.983
482.19	75.239
482.53	75.275
482.88	74.034
483.23	75.093
483.58	75.523
483.92	74.695
484.27	72.593
484.62	73.190
484.97	71.857
485.31	72.295
485.66	67.994
486.01	65.770
486.36	63.793
486.70	65.007
487.05	66.599
487.40	69.382
487.75	69.606
488.09	72.157
488.44	72.448
488.79	73.382
489.13	73.415
489.48	73.532
489.83	73.630
490.17	74.529
490.52	72.941
490.87	72.727
491.22	73.215
491.56	72.756
491.91	73.057
492.26	71.796
492.60	72.949
492.95	73.152
493.30	71.916
493.64	73.355
493.99	72.609
494.34	73.034
494.68	73.123
495.03	72.838
495.37	72.127
495.72	72.563
496.07	72.483
496.41	69.204
496.76	71.372
497.11	71.094
497.45	71.495
497.80	72.361
498.14	72.512
498.49	73.463
498.84	71.333
499.18	70.905
499.53	72.317
499.87	72.134
500.22	71.079
500.56	73.592
500.91	72.019
501.26	70.460
501.60	72.473
501.95	70.669
502.29	70.431
502.64	71.369
502.98	71.388
503.33	70.293
503.67	70.116
504.02	70.814
504.36	70.379
504.71	71.764
505.06	70.940
505.40	70.831
505.75	70.685
506.09	69.193
506.44	71.436
506.78	71.262
507.13	72.539
507.47	72.222
507.82	70.466
508.16	71.125
508.51	72.400
508.85	70.407
509.19	71.837
509.54	70.918
509.88	70.788
510.23	70.797
510.57	72.549
510.92	71.362
511.26	69.938
511.61	71.732
511.95	70.772
512.30	71.050
512.64	71.682
512.98	71.061
513.33	71.306
513.67	69.797
514.02	71.104
514.36	73.075
514.70	70.836
515.05	71.946
515.39	73.023
515.74	72.128
516.08	71.660
516.42	72.309
516.77	72.520
517.11	72.309
517.46	72.517
517.80	73.577
518.14	71.975
518.49	72.462
518.83	71.136
519.17	71.189
519.52	72.722
519.86	72.048
520.20	71.850
520.55	73.788
520.89	73.540
521.23	73.281
521.58	74.130
521.92	72.505
522.26	71.263
522.61	74.517
522.95	71.087
523.29	72.611
523.64	73.902
523.98	73.691
524.32	72.618
524.66	73.722
525.01	73.039
525.35	73.668
525.69	72.414
526.04	71.340
526.38	71.995
526.72	73.252
527.06	74.765
527.41	70.730
527.75	74.019
528.09	73.410
528.43	72.913
528.78	72.280
529.12	72.000
529.46	72.015
529.80	72.834
530.15	71.402
530.49	71.569
530.83	73.418
531.17	73.825
531.51	73.411
531.86	72.065
532.20	73.533
532.54	74.119
532.88	73.171
533.22	70.144
533.57	71.358
533.91	70.199
534.25	69.988
534.59	72.117
534.93	69.661
535.27	71.092
535.62	71.001
535.96	71.375
536.30	71.774
536.64	72.118
536.98	72.064
537.32	71.955
537.66	71.533
538.01	73.074
538.35	71.816
538.69	72.049
539.03	70.630
539.37	69.137
539.71	68.827
540.05	71.503
540.39	73.090
540.73	70.893
541.07	71.382
541.42	71.820
541.76	71.290
542.10	71.216
542.44	70.662
542.78	71.344
543.12	69.546
543.46	71.213
543.80	71.828
544.14	70.090
544.48	70.286
544.82	70.750
545.16	71.763
545.50	70.051
545.84	70.968
546.18	71.852
546.52	72.058
546.86	72.577
547.20	72.218
547.54	69.806
547.88	68.176
548.22	68.369
548.56	68.553
548.90	70.230
549.24	70.101
549.58	70.259
549.92	70.604
550.26	74.148
550.60	69.502
550.94	70.423
551.28	71.763
551.62	71.747
551.96	69.404
552.30	71.331
552.64	70.115
552.98	70.034
553.32	68.847
553.66	71.438
554.00	71.723
554.34	69.772
554.68	71.459
555.02	69.605
555.36	69.798
555.69	67.050
556.03	69.112
556.37	68.759
556.71	69.304
557.05	71.148
557.39	69.769
557.73	70.360
558.07	71.139
558.41	70.478
558.75	70.463
559.08	72.334
559.42	71.429
559.76	70.147
560.10	69.665
560.44	69.951
560.78	67.598
561.12	67.150
561.45	67.405
561.79	67.568
562.13	68.880
562.47	70.082
562.81	70.990
563.15	68.562
563.48	68.037
563.82	69.080
564.16	68.280
564.50	67.773
564.84	66.625
565.17	66.795
565.51	67.604
565.85	67.766
566.19	65.874
566.52	67.891
566.86	66.064
567.20	65.153
567.54	64.612
567.88	63.661
568.21	64.497
568.55	63.498
568.89	62.500
569.23	61.185
569.56	60.526
569.90	59.057
570.24	58.845
570.57	57.837
570.91	57.531
571.25	56.609
571.59	55.552
571.92	56.740
572.26	55.921
572.60	57.057
572.93	57.331
573.27	56.315
573.61	56.505
573.95	55.891
574.28	54.698
574.62	54.568
574.96	54.767
575.29	54.850
575.63	55.056
575.97	54.934
576.30	54.806
576.64	55.193
576.98	54.375
577.31	54.921
577.65	54.072
577.98	53.438
578.32	52.681
578.66	53.941
578.99	53.937
579.33	54.781
579.67	54.001
580.00	54.591
580.34	54.794
580.67	54.975
581.01	53.272
581.35	52.690
581.68	52.539
582.02	52.265
582.35	52.170
582.69	52.776
583.02	52.731
583.36	55.061
583.70	56.019
584.03	55.068
584.37	55.705
584.70	56.270
585.04	53.963
585.37	54.031
585.71	53.947
586.04	53.540
586.38	54.781
586.72	54.847
587.05	53.817
587.39	53.272
587.72	54.728
588.06	54.216
588.39	54.897
588.73	54.943
589.06	55.625
589.40	55.286
589.73	56.177
590.07	56.192
590.40	56.924
590.73	57.377
591.07	57.875
591.40	58.541
591.74	58.312
592.07	57.373
592.41	57.007
592.74	55.843
593.08	54.564
593.41	54.255
593.75	52.530
594.08	54.744
594.41	55.992
594.75	55.527
595.08	55.261
595.42	54.886
595.75	56.695
596.09	56.215
596.42	57.760
596.75	57.493
597.09	58.225
597.42	55.860
597.75	57.137
598.09	56.696
598.42	56.357
598.76	55.533
599.09	54.504
599.42	52.802
599.76	54.758
600.09	53.953
600.42	54.310
600.76	53.036
601.09	53.698
601.42	54.490
601.76	54.497
602.09	54.980
602.42	55.732
602.76	56.106
603.09	54.563
603.42	55.252
603.76	55.030
604.09	54.478
604.42	55.850
604.76	56.980
605.09	56.182
605.42	54.639
605.75	55.174
606.09	54.738
606.42	54.679
606.75	55.122
607.09	55.881
607.42	56.312
607.75	54.937
608.08	55.015
608.42	56.163
608.75	54.689
609.08	55.088
609.41	57.068
609.75	55.598
610.08	56.550
610.41	56.238
610.74	56.244
611.07	56.769
611.41	56.820
611.74	57.717
612.07	57.764
612.40	57.870
612.73	58.474
613.07	57.920
613.40	58.504
613.73	57.105
614.06	57.473
614.39	56.004
614.72	55.579
615.06	56.355
615.39	55.679
615.72	54.806
616.05	55.290
616.38	57.310
616.71	58.551
617.05	57.951
617.38	57.968
617.71	57.718
618.04	58.654
618.37	57.126
618.70	58.556
619.03	59.079
619.36	59.810
619.69	59.718
620.03	59.821
620.36	59.492
620.69	60.342
621.02	61.062
621.35	62.569
621.68	61.449
622.01	61.920
622.34	60.968
622.67	61.825
623.00	60.308
623.33	59.757
623.66	60.400
623.99	60.604
624.32	60.342
624.65	60.169
624.99	59.773
625.32	59.450
625.65	60.105
625.98	62.567
626.31	62.208
626.64	63.020
626.97	62.677
627.30	62.178
627.63	63.331
627.96	63.751
628.29	63.955
628.62	65.416
628.95	65.660
629.28	63.412
629.61	64.895
629.94	64.857
630.26	66.826
630.59	65.205
630.92	63.793
631.25	65.943
631.58	64.565
631.91	65.010
632.24	65.506
632.57	66.002
632.90	68.092
633.23	66.779
633.56	69.492
633.89	66.251
634.22	67.764
634.55	69.112
634.88	67.545
635.20	71.207
635.53	68.675
635.86	68.812
636.19	66.471
636.52	67.935
636.85	66.781
637.18	64.055
637.51	66.903
637.83	66.215
638.16	68.926
638.49	71.033
638.82	69.279
639.15	68.875
639.48	68.953
639.81	70.777
640.13	69.401
640.46	69.799
640.79	70.013
641.12	69.876
641.45	69.972
641.77	73.932
642.10	72.661
642.43	71.922
642.76	71.517
643.09	72.239
643.41	72.534
643.74	73.920
644.07	71.037
644.40	71.933
644.73	73.858
645.05	75.436
645.38	71.564
645.71	75.362
646.04	75.581
646.36	74.124
646.69	73.077
647.02	74.320
647.35	74.399
647.67	74.513
648.00	72.195
648.33	72.277
648.66	69.091
648.98	68.966
649.31	70.254
649.64	68.012
649.96	69.300
650.29	69.826
650.62	70.874
650.94	72.934
651.27	73.311
651.60	73.544
651.92	69.169
652.25	71.336
652.58	69.470
652.90	71.406
653.23	66.872
653.56	68.976
653.88	69.731
654.21	68.562
654.54	69.967
654.86	67.913
655.19	62.838
655.52	45.248
655.84	37.176
656.17	46.659
656.49	63.589
656.82	66.109
657.15	51.357
657.47	39.138
657.80	30.342
658.13	32.097
658.45	48.613
658.78	50.297
659.10	52.299
659.43	54.595
659.75	58.062
660.08	62.025
660.41	68.436
660.73	72.173
661.06	71.338
661.38	74.182
661.71	74.615
662.03	73.373
662.36	69.980
662.68	72.892
663.01	76.566
663.33	77.282
663.66	75.420
663.98	74.514
664.31	73.739
664.63	71.862
664.96	73.038
665.28	76.434
665.61	71.540
665.93	71.831
666.26	74.645
666.58	75.523
666.91	77.378
667.23	79.551
667.56	74.298
667.88	76.923
668.21	73.987
668.53	73.970
668.86	75.758
669.18	76.333
669.50	74.783
669.83	76.906
670.15	74.444
670.48	72.113
670.80	75.647
671.13	71.338
671.45	69.787
671.77	68.635
672.10	69.316
672.42	66.784
672.75	65.174
673.07	66.901
673.39	67.993
673.72	71.680
674.04	68.431
674.37	70.485
674.69	73.415
675.01	69.665
675.34	73.101
675.66	74.105
675.98	70.468
676.31	72.899
676.63	70.488
676.95	74.214
677.28	78.037
677.60	72.747
677.92	72.363
678.25	67.762
678.57	69.522
678.89	70.541
679.22	67.976
679.54	69.466
679.86	66.972
680.18	65.295
680.51	66.312
680.83	63.345
681.15	68.491
681.48	67.108
681.80	67.311
682.12	65.900
682.44	66.925
682.77	70.061
683.09	72.318
683.41	71.397
683.73	70.640
684.06	69.008
684.38	65.753
684.70	65.504
685.02	64.728
685.34	66.484
685.67	61.713
685.99	61.340
686.31	61.092
686.63	62.014
686.96	63.214
687.28	64.079
687.60	66.304
687.92	65.631
688.24	67.681
688.56	69.679
688.89	67.635
689.21	69.432
689.53	68.685
689.85	70.288
690.17	64.803
690.49	69.002
690.82	71.262
691.14	68.080
691.46	66.456
691.78	66.265
692.10	70.248
692.42	66.068
692.74	65.768
693.06	69.149
693.39	68.583
693.71	67.031
694.03	67.158
694.35	65.584
694.67	66.590
694.99	70.244
695.31	68.627
695.63	67.464
695.95	71.638
696.27	71.320
696.59	71.244
696.91	72.021
697.23	64.319
697.56	62.260
697.88	61.350
698.20	62.708
698.52	64.301
698.84	67.038
699.16	63.825
699.48	67.696
699.80	67.391
700.12	71.948
700.44	73.475
700.76	70.442
701.08	70.977
701.40	70.950
701.72	74.636
702.04	76.989
702.36	69.972
702.68	72.805
703.00	69.529
703.32	65.426
703.64	72.118
703.96	68.802
704.28	74.419
704.60	73.314
704.91	71.810
705.23	72.141
705.55	77.741
705.87	77.409
706.19	76.678
706.51	72.586
706.83	73.030
707.15	69.188
707.47	63.889
707.79	64.865
708.11	62.100
708.43	62.143
708.74	66.582
709.06	68.831
709.38	64.304
709.70	75.000
710.02	70.623
710.34	69.697
710.66	69.851
710.98	67.330
711.29	68.314
711.61	71.976
711.93	68.269
712.25	75.884
712.57	77.941
712.89	70.934
713.20	68.085
713.52	71.711
713.84	71.519
714.16	69.817
714.48	66.379
714.80	70.517
715.11	69.164
715.43	69.733
715.75	63.478
716.07	69.010
716.39	70.219
716.70	70.100
717.02	72.302
717.34	71.731
717.66	73.881
717.97	77.689
718.29	75.185
718.61	71.533
718.93	73.897
719.24	74.394
719.56	71.864
719.88	67.797
720.20	75.000
720.51	68.641
720.83	77.323
721.15	73.507
721.46	69.149
721.78	74.910
722.10	71.321
722.42	75.940
722.73	69.663
723.05	76.230
723.37	74.899
723.68	71.815
724.00	73.984
724.32	73.790
724.63	72.358
724.95	75.732
725.27	75.709
725.58	76.953
725.90	68.613
726.22	72.830
726.53	68.750
726.85	72.014
727.16	65.480
727.48	69.149
727.80	73.864
728.11	70.290
728.43	71.154
728.74	69.534
729.06	69.343
729.38	75.368
729.69	68.327
730.01	66.212
730.32	63.889
730.64	66.555
730.96	65.017
731.27	66.556
731.59	66.667
731.90	59.767
732.22	64.907
732.53	61.300
732.85	65.705
733.16	62.701
733.48	68.106
733.80	63.312
734.11	66.242
734.43	62.130
734.74	63.143
735.06	58.739
735.37	62.717
735.69	64.013
736.00	65.359
736.32	63.863
736.63	61.981
736.95	63.898
737.26	62.245
737.58	62.903
737.89	64.214
738.21	63.823
738.52	65.714
738.83	60.755
739.15	62.308
739.46	65.328
739.78	67.708
740.09	57.846
740.41	61.613
740.72	62.021
741.04	65.556
741.35	72.083
741.66	77.778
741.98	69.811
742.29	77.990
742.61	71.121
742.92	81.448
743.23	71.795
743.55	66.000
743.86	66.228
744.18	76.106
744.49	79.426
744.80	74.178
745.12	78.636
745.43	73.128
745.74	75.225
746.06	72.936
746.37	72.646
746.68	72.851
747.00	79.630
747.31	76.190
747.62	69.912
747.94	72.687
748.25	65.106
748.56	76.211
748.88	79.703
749.19	83.500
749.50	69.767
749.82	65.447
750.13	66.939
750.44	60.219
750.75	62.807
751.07	60.450
751.38	64.460
751.69	63.538
752.01	66.917
752.32	63.538
752.63	65.957
752.94	70.082
753.26	69.600
753.57	65.041
753.88	69.141
754.19	61.071
754.51	62.500
754.82	63.177
755.13	63.774
755.44	65.789
755.75	61.314
756.07	59.220
756.38	59.854
756.69	59.732
757.00	54.192
757.31	55.193
757.63	57.895
757.94	56.300
758.25	53.186
758.56	52.593
758.87	53.495
759.18	58.788
759.50	54.859
759.81	60.125
760.12	57.187
760.43	59.599
760.74	54.348
761.05	54.237
761.36	52.941
761.67	57.955
761.99	55.590
762.30	61.806
762.61	61.069
762.92	61.719
763.23	65.546
763.54	64.400
763.85	60.156
764.16	70.385
764.47	62.738
764.78	58.657
765.10	52.848
765.41	56.932
765.72	55.090
766.03	57.053
766.34	55.333
766.65	70.213
766.96	63.675
767.27	73.096
767.58	76.562
767.89	71.579
768.20	80.460
768.51	65.482
768.82	70.642
769.13	58.537
769.44	66.397
769.75	63.090
770.06	60.092
770.37	69.231
770.68	64.815
770.99	65.778
771.30	57.787
771.61	64.126
771.92	64.344
772.23	69.328
772.54	71.282
772.85	66.492
773.16	73.936
773.47	73.913
773.78	70.558
774.09	75.595
774.39	70.175
774.70	75.926
775.01	84.058
775.32	81.046
775.63	74.342
775.94	80.576
776.25	96.063
776.56	87.313
776.87	89.344
777.18	89.063
777.48	78.626
777.79	87.879
778.10	83.704
778.41	81.250
778.72	78.102
779.03	75.839
779.34	69.799
779.65	75.000
779.95	76.074
780.26	79.085
780.57	79.310
780.88	88.281
781.19	77.444
781.50	79.730
781.80	72.327
782.11	64.972
782.42	72.152
782.73	73.620
783.04	77.703
783.34	78.873
783.65	82.877
783.96	88.060
784.27	68.531
784.57	76.259
784.88	87.037
785.19	87.302
785.50	84.906
785.81	78.358
786.11	85.246
786.42	88.372
786.73	76.991
787.04	97.170
787.34	91.964
787.65	104.000
787.96	96.396
788.26	77.686
788.57	88.136
788.88	95.041
789.19	77.778
789.49	84.091
789.80	75.573
790.11	96.190
790.41	91.089
790.72	92.771
791.03	96.739
791.33	100.000
791.64	90.722
791.95	85.149
792.25	111.111
792.56	102.597
792.87	123.077
793.17	124.051
793.48	91.954
793.79	111.494
794.09	106.818
794.40	75.630
794.70	85.294
795.01	77.778
795.32	71.223
795.62	77.953
795.93	82.759
796.23	86.726
796.54	97.647
796.85	110.811
797.15	123.944
797.46	121.212
797.76	115.663
798.07	113.924
798.37	110.769
798.68	109.091
798.99	101.408
799.29	112.987
799.60	95.455
799.90	120.548
800.21	110.448
800.51	101.724
800.82	149.123
801.12	131.148
801.43	110.606
801.73	122.973
802.04	122.222
802.34	113.580
802.65	106.250
802.95	133.898
803.26	125.000
803.56	94.286
803.87	120.000
804.17	119.118
804.48	140.741
804.78	122.414
805.09	122.059
805.39	128.846
805.70	125.000
806.00	140.984
806.30	112.121
806.61	108.537
806.91	93.671
807.22	113.158
807.52	94.030
807.83	130.986
808.13	123.438
808.43	103.333
808.74	96.053
809.04	111.594
809.35	117.910
809.65	102.632
809.95	150.000
810.26	116.949
810.56	130.159
810.86	172.727
811.17	173.810
811.47	148.333
811.77	129.630
812.08	130.909
812.38	156.000
812.69	175.000
812.99	179.545
813.29	155.102
813.59	150.000
813.90	151.020
814.20	109.091
814.50	104.615
814.81	123.529
815.11	148.980
815.41	119.672
815.72	178.571
816.02	152.727
816.32	176.190
816.62	157.500
816.93	151.220
817.23	173.810
817.53	150.000
817.84	224.242
818.14	163.043
818.44	160.000
818.74	229.412
819.04	170.000
819.35	185.714
819.65	194.118
819.95	210.714
820.25	225.000
820.56	182.051
820.86	152.273
821.16	176.744
821.46	187.179
821.76	188.000
822.07	168.571
822.37	152.500
822.67	190.909
822.97	131.373
823.27	232.143
823.57	170.270
823.88	167.500
824.18	236.667
824.48	171.429
824.78	268.000
825.08	216.667
825.38	202.703
825.69	151.220
825.99	287.500
826.29	200.000
826.59	147.368
826.89	163.158
827.19	135.294
827.49	196.774
827.79	140.909
828.09	161.364
828.39	127.660
828.70	138.776
829.00	177.778
829.30	177.419
829.60	157.500
829.90	366.667
830.20	225.000
830.50	239.130
830.80	243.478
831.10	233.333
831.40	196.667
831.70	230.435
832.00	276.923
832.30	222.222
832.60	362.500
832.90	206.667
833.20	442.857
833.50	222.581
833.80	220.690
834.10	196.875
834.40	219.231
834.70	288.889
835.00	347.619
835.30	197.143
835.60	423.077
835.90	231.034
836.20	435.714
836.50	196.552
836.80	248.000
837.10	188.889
837.40	290.476
837.70	317.647
838.00	240.741
838.30	228.571
838.60	300.000
838.90	250.000
839.19	265.000
839.49	428.571
839.79	330.000
840.09	300.000
840.39	285.714
840.69	273.913
840.99	311.111
841.29	620.000
841.59	391.667
841.88	368.750
842.18	200.000
842.48	271.429
842.78	176.667
843.08	226.087
843.38	190.625
843.68	783.333
843.97	246.154
844.27	193.103
844.57	285.714
844.87	381.250
845.17	207.407
845.47	1766.667
845.76	500.000
846.06	364.706
846.36	500.000
846.66	378.571
846.96	325.000
847.25	436.364
847.55	454.545
847.85	265.217
848.15	570.000
848.44	342.857
848.74	261.111
849.04	358.824
849.34	610.000
849.63	263.158
849.93	454.545
850.23	980.000
850.53	457.143
850.82	2900.000
851.12	-4800.000
851.42	5400.000
851.71	300.000
852.01	-1500.000
852.31	258.333
852.61	1600.000
852.90	290.476
853.20	248.000
853.50	376.471
853.79	280.952
854.09	275.000
854.39	368.750
854.68	202.703
854.98	203.226
855.28	156.667
855.57	258.621
855.87	222.222
856.17	268.421
856.46	306.667
856.76	300.000
857.05	234.483
857.35	216.667
857.65	400.000
857.94	260.870
858.24	242.308
858.53	240.000
858.83	300.000
859.13	353.333
859.42	0.000
859.72	600.000
860.01	527.273
860.31	286.364
860.60	294.737
860.90	256.522
861.20	588.889
861.49	491.667
861.79	-6200.000
862.08	687.500
862.38	257.143
862.67	415.385
862.97	411.765
863.26	566.667
863.56	316.667
863.85	408.333
864.15	587.500
864.44	400.000
864.74	933.333
865.03	650.000
865.33	294.737
865.62	545.455
865.92	461.538
866.21	433.333
866.51	0.000
866.80	463.636
867.10	1260.000
867.39	392.308
867.69	445.455
867.98	252.632
868.27	527.273
868.57	305.263
868.86	-4200.000
869.16	375.000
869.45	2000.000
869.75	-4300.000
870.04	425.000
870.33	714.286
870.63	1075.000
870.92	2800.000
871.22	685.714
871.51	341.176
871.80	266.667
872.10	385.714
>>>>>End Processed Spectral Data<<<<<
