SpectraSuite Data File
++++++++++++++++++++++++++++++++++++
Date: Wed May 13 19:49:43 PDT 2015
User: schluterlab
Dark Spectrum Present: Yes
Reference Spectrum Present: Yes
Number of Sampled Component Spectra: 1
Spectrometers: USB2E3373
Integration Time (usec): 3000 (USB2E3373)
Spectra Averaged: 3 (USB2E3373)
Boxcar Smoothing: 0 (USB2E3373)
Correct for Electrical Dark: No (USB2E3373)
Strobe/Lamp Enabled: No (USB2E3373)
Correct for Detector Non-linearity: No (USB2E3373)
Correct for Stray Light: No (USB2E3373)
Number of Pixels in Processed Spectrum: 2048
>>>>>Begin Processed Spectral Data<<<<<
178.53	0.000
178.91	-1350.000
179.29	-1175.000
179.67	-255.556
180.04	-1375.000
180.42	2100.000
180.80	1260.000
181.18	-1025.000
181.56	828.571
181.94	0.000
182.31	-585.714
182.69	1766.667
183.07	-587.500
183.45	-555.556
183.83	600.000
184.20	-440.000
184.58	2450.000
184.96	6200.000
185.34	-860.000
185.72	-662.500
186.09	-2400.000
186.47	2650.000
186.85	3150.000
187.23	5300.000
187.61	-1700.000
187.98	1450.000
188.36	581.818
188.74	481.818
189.12	-980.000
189.49	510.000
189.87	-4900.000
190.25	-1150.000
190.63	414.286
191.00	507.692
191.38	916.667
191.76	-1200.000
192.14	1075.000
192.51	550.000
192.89	1016.667
193.27	662.500
193.65	-1050.000
194.02	600.000
194.40	1060.000
194.78	510.000
195.15	541.667
195.53	660.000
195.91	-2150.000
196.29	356.250
196.66	347.368
197.04	-370.000
197.42	0.000
197.79	600.000
198.17	-4800.000
198.55	728.571
198.92	825.000
199.30	1040.000
199.68	0.000
200.05	327.778
200.43	771.429
200.81	4400.000
201.18	1666.667
201.56	-1500.000
201.94	455.556
202.31	600.000
202.69	450.000
203.07	590.000
203.44	0.000
203.82	1250.000
204.19	871.429
204.57	442.857
204.95	612.500
205.32	2033.333
205.70	490.909
206.08	392.857
206.45	2650.000
206.83	387.500
207.20	916.667
207.58	780.000
207.96	338.889
208.33	650.000
208.71	-883.333
209.08	685.714
209.46	677.778
209.84	572.727
210.21	-1366.667
210.59	1600.000
210.96	-612.500
211.34	2850.000
211.71	590.000
212.09	950.000
212.46	0.000
212.84	1733.333
213.22	1350.000
213.59	-4700.000
213.97	916.667
214.34	942.857
214.72	554.545
215.09	1100.000
215.47	-2500.000
215.84	-2600.000
216.22	1766.667
216.59	421.429
216.97	1275.000
217.34	600.000
217.72	-883.333
218.09	0.000
218.47	-4900.000
218.84	666.667
219.22	714.286
219.59	1833.333
219.97	-642.857
220.34	980.000
220.72	-1733.333
221.09	500.000
221.47	1775.000
221.84	-816.667
222.22	0.000
222.59	1300.000
222.97	-2750.000
223.34	1300.000
223.72	423.077
224.09	1120.000
224.46	2550.000
224.84	-4600.000
225.21	-980.000
225.59	-4600.000
225.96	660.000
226.34	285.000
226.71	3050.000
227.08	662.500
227.46	560.000
227.83	-1050.000
228.21	-2200.000
228.58	600.000
228.95	-2500.000
229.33	-2150.000
229.70	1800.000
230.08	942.857
230.45	-800.000
230.82	516.667
231.20	916.667
231.57	771.429
231.95	516.667
232.32	304.545
232.69	445.455
233.07	728.571
233.44	453.846
233.81	-1900.000
234.19	310.526
234.56	558.333
234.93	525.000
235.31	481.818
235.68	446.154
236.05	378.571
236.43	166.667
236.80	300.000
237.17	4600.000
237.55	252.381
237.92	228.571
238.29	261.905
238.67	187.097
239.04	234.483
239.41	180.556
239.79	123.913
240.16	178.571
240.53	172.727
240.91	135.294
241.28	128.000
241.65	126.000
242.02	115.942
242.40	119.355
242.77	116.667
243.14	91.398
243.51	86.517
243.89	85.882
244.26	93.333
244.63	90.323
245.00	81.915
245.38	78.218
245.75	73.832
246.12	71.560
246.49	78.102
246.87	77.600
247.24	70.769
247.61	64.286
247.98	60.784
248.36	64.189
248.73	64.331
249.10	68.153
249.47	56.497
249.84	64.171
250.22	51.872
250.59	57.396
250.96	59.091
251.33	56.872
251.70	55.446
252.08	55.238
252.45	51.121
252.82	53.478
253.19	54.894
253.56	57.647
253.94	52.282
254.31	47.656
254.68	51.538
255.05	49.815
255.42	52.439
255.79	50.735
256.16	50.542
256.54	44.876
256.91	47.331
257.28	44.604
257.65	46.205
258.02	48.758
258.39	46.372
258.76	47.157
259.14	41.964
259.51	47.720
259.88	45.031
260.25	48.338
260.62	47.110
260.99	47.205
261.36	44.745
261.73	43.553
262.10	45.058
262.47	46.479
262.85	41.783
263.22	41.311
263.59	46.154
263.96	44.231
264.33	43.603
264.70	46.579
265.07	45.013
265.44	41.919
265.81	40.389
266.18	41.206
266.55	40.000
266.92	43.980
267.29	42.824
267.66	40.367
268.03	42.273
268.40	39.252
268.77	40.573
269.14	38.288
269.51	41.084
269.88	41.725
270.25	41.986
270.62	42.472
270.99	41.290
271.36	40.343
271.73	40.421
272.10	39.348
272.47	37.204
272.84	40.909
273.21	39.413
273.58	39.738
273.95	40.042
274.32	35.537
274.69	37.687
275.06	38.780
275.43	41.489
275.80	36.874
276.17	38.697
276.54	39.293
276.91	39.723
277.28	35.938
277.65	41.006
278.02	36.439
278.39	38.672
278.76	36.909
279.13	38.491
279.50	37.430
279.87	38.247
280.23	43.114
280.60	38.685
280.97	36.229
281.34	36.283
281.71	36.545
282.08	39.731
282.45	36.545
282.82	36.590
283.19	33.690
283.56	34.211
283.92	38.409
284.29	32.451
284.66	36.661
285.03	35.262
285.40	38.732
285.77	37.205
286.14	35.579
286.51	33.833
286.87	36.239
287.24	36.482
287.61	35.634
287.98	34.578
288.35	33.439
288.72	33.022
289.08	33.646
289.45	32.455
289.82	34.797
290.19	33.752
290.56	33.691
290.93	31.722
291.29	32.055
291.66	31.268
292.03	33.866
292.40	32.746
292.77	30.325
293.13	29.851
293.50	31.195
293.87	29.185
294.24	31.259
294.60	28.239
294.97	31.395
295.34	30.324
295.71	30.114
296.08	28.632
296.44	30.261
296.81	28.534
297.18	31.301
297.55	26.781
297.91	28.100
298.28	29.719
298.65	29.112
299.02	29.644
299.38	27.888
299.75	26.685
300.12	30.140
300.48	27.250
300.85	27.497
301.22	28.280
301.59	27.399
301.95	27.582
302.32	27.471
302.69	26.762
303.05	27.758
303.42	27.901
303.79	27.520
304.15	25.991
304.52	25.492
304.89	24.855
305.25	26.566
305.62	25.708
305.99	27.391
306.35	26.846
306.72	26.906
307.09	26.415
307.45	26.689
307.82	25.558
308.19	25.276
308.55	25.674
308.92	25.349
309.29	25.977
309.65	25.133
310.02	26.321
310.38	25.054
310.75	25.554
311.12	25.179
311.48	26.646
311.85	26.730
312.22	26.015
312.58	25.676
312.95	27.666
313.31	24.369
313.68	27.131
314.05	29.093
314.41	27.437
314.78	27.190
315.14	27.706
315.51	27.085
315.87	27.426
316.24	28.401
316.61	28.558
316.97	27.593
317.34	28.082
317.70	28.298
318.07	27.238
318.43	29.452
318.80	29.053
319.16	28.719
319.53	29.737
319.89	30.571
320.26	31.400
320.62	30.556
320.99	30.101
321.35	30.404
321.72	32.546
322.08	33.268
322.45	34.030
322.81	32.849
323.18	34.200
323.54	32.560
323.91	33.019
324.27	34.895
324.64	34.296
325.00	34.536
325.37	35.669
325.73	35.189
326.10	35.658
326.46	35.305
326.83	36.756
327.19	35.867
327.56	36.585
327.92	39.020
328.29	39.042
328.65	39.503
329.01	39.079
329.38	39.315
329.74	39.428
330.11	40.151
330.47	40.220
330.84	40.993
331.20	40.437
331.56	39.450
331.93	40.185
332.29	38.687
332.66	40.796
333.02	41.133
333.38	40.108
333.75	41.979
334.11	41.281
334.48	40.550
334.84	42.096
335.20	40.091
335.57	40.526
335.93	40.357
336.29	41.850
336.66	40.938
337.02	40.543
337.38	41.389
337.75	40.285
338.11	41.182
338.47	41.252
338.84	42.346
339.20	39.908
339.56	41.150
339.93	41.364
340.29	42.120
340.65	41.266
341.02	42.845
341.38	41.014
341.74	40.877
342.11	42.358
342.47	40.969
342.83	39.983
343.20	41.905
343.56	40.775
343.92	41.842
344.28	41.412
344.65	41.015
345.01	39.646
345.37	40.566
345.73	41.371
346.10	40.750
346.46	40.763
346.82	39.044
347.19	39.933
347.55	40.312
347.91	41.181
348.27	41.906
348.63	41.806
349.00	40.210
349.36	41.379
349.72	39.856
350.08	40.357
350.45	41.253
350.81	40.780
351.17	40.032
351.53	39.967
351.89	38.861
352.26	38.990
352.62	40.577
352.98	39.465
353.34	39.441
353.70	40.016
354.07	39.677
354.43	40.238
354.79	39.019
355.15	39.745
355.51	39.808
355.87	41.143
356.24	40.147
356.60	39.615
356.96	39.743
357.32	39.902
357.68	39.449
358.04	38.559
358.40	38.876
358.77	39.358
359.13	39.542
359.49	39.451
359.85	39.444
360.21	39.872
360.57	40.000
360.93	41.077
361.29	40.816
361.66	38.700
362.02	39.776
362.38	40.760
362.74	39.881
363.10	38.638
363.46	39.252
363.82	39.153
364.18	40.308
364.54	39.970
364.90	39.023
365.26	39.485
365.62	39.445
365.98	38.422
366.35	38.324
366.71	38.901
367.07	39.257
367.43	39.695
367.79	39.829
368.15	39.224
368.51	38.517
368.87	38.687
369.23	39.210
369.59	39.681
369.95	39.044
370.31	38.248
370.67	38.116
371.03	41.124
371.39	39.796
371.75	38.676
372.11	38.265
372.47	40.323
372.83	40.130
373.19	37.861
373.55	39.616
373.91	39.985
374.27	37.182
374.63	38.982
374.99	39.266
375.35	38.730
375.71	38.245
376.07	38.272
376.42	38.996
376.78	39.364
377.14	38.399
377.50	39.801
377.86	37.367
378.22	38.432
378.58	36.967
378.94	38.341
379.30	37.977
379.66	38.706
380.02	38.698
380.38	36.612
380.74	37.755
381.09	39.487
381.45	37.800
381.81	38.391
382.17	38.344
382.53	38.239
382.89	38.765
383.25	38.712
383.61	39.157
383.97	38.649
384.32	38.490
384.68	37.670
385.04	37.615
385.40	37.523
385.76	38.084
386.12	37.435
386.48	38.767
386.83	38.999
387.19	38.837
387.55	38.219
387.91	37.787
388.27	37.278
388.62	37.615
388.98	37.899
389.34	37.797
389.70	37.768
390.06	38.276
390.42	38.392
390.77	37.595
391.13	38.098
391.49	38.135
391.85	37.492
392.20	36.909
392.56	37.689
392.92	36.845
393.28	35.799
393.64	37.350
393.99	36.652
394.35	37.469
394.71	37.327
395.07	37.259
395.42	37.763
395.78	37.150
396.14	37.058
396.50	37.970
396.85	37.953
397.21	38.101
397.57	36.516
397.92	37.440
398.28	35.314
398.64	36.440
399.00	38.165
399.35	36.830
399.71	36.979
400.07	37.374
400.42	36.810
400.78	37.455
401.14	37.256
401.49	37.433
401.85	36.963
402.21	36.228
402.57	35.719
402.92	37.768
403.28	36.914
403.63	36.139
403.99	35.669
404.35	36.061
404.70	36.091
405.06	36.459
405.42	36.744
405.77	35.771
406.13	35.722
406.49	36.724
406.84	35.794
407.20	36.702
407.55	36.311
407.91	36.600
408.27	36.694
408.62	36.785
408.98	36.029
409.34	36.162
409.69	36.516
410.05	35.936
410.40	37.615
410.76	35.842
411.11	35.404
411.47	35.847
411.83	36.103
412.18	35.931
412.54	35.928
412.89	34.759
413.25	35.124
413.60	36.133
413.96	35.458
414.31	36.148
414.67	36.312
415.03	35.960
415.38	36.276
415.74	37.170
416.09	36.185
416.45	36.078
416.80	35.889
417.16	35.992
417.51	35.435
417.87	34.811
418.22	36.088
418.58	35.571
418.93	35.934
419.29	35.646
419.64	35.579
420.00	35.488
420.35	35.536
420.71	35.983
421.06	34.308
421.42	36.023
421.77	34.585
422.12	34.812
422.48	33.351
422.83	35.818
423.19	35.691
423.54	35.694
423.90	35.246
424.25	34.953
424.61	34.524
424.96	34.869
425.31	34.164
425.67	33.989
426.02	34.229
426.38	36.752
426.73	35.576
427.09	35.015
427.44	35.135
427.79	34.158
428.15	35.119
428.50	35.167
428.85	34.863
429.21	33.959
429.56	34.889
429.92	34.826
430.27	34.310
430.62	33.487
430.98	34.354
431.33	34.021
431.68	35.236
432.04	34.878
432.39	35.009
432.74	35.428
433.10	35.654
433.45	35.277
433.80	34.091
434.16	34.509
434.51	33.895
434.86	34.721
435.22	34.575
435.57	35.684
435.92	34.582
436.28	34.816
436.63	34.603
436.98	35.089
437.34	35.301
437.69	35.823
438.04	34.963
438.39	34.627
438.75	34.747
439.10	34.358
439.45	34.534
439.81	34.260
440.16	33.992
440.51	35.384
440.86	35.437
441.22	35.039
441.57	34.395
441.92	34.033
442.27	34.553
442.63	34.650
442.98	35.099
443.33	34.511
443.68	34.693
444.03	35.530
444.39	33.982
444.74	34.416
445.09	34.070
445.44	34.281
445.79	33.795
446.15	33.404
446.50	33.656
446.85	34.224
447.20	33.758
447.55	34.338
447.91	34.308
448.26	34.446
448.61	34.313
448.96	34.053
449.31	34.871
449.66	34.102
450.02	33.816
450.37	33.560
450.72	34.292
451.07	33.333
451.42	34.407
451.77	34.469
452.12	33.314
452.47	33.520
452.83	33.916
453.18	33.985
453.53	34.756
453.88	34.141
454.23	33.413
454.58	34.464
454.93	35.537
455.28	34.102
455.63	33.981
455.98	34.821
456.34	34.296
456.69	34.690
457.04	34.737
457.39	34.015
457.74	33.082
458.09	34.388
458.44	34.436
458.79	33.134
459.14	34.481
459.49	33.392
459.84	32.909
460.19	33.353
460.54	33.044
460.89	33.571
461.24	34.608
461.59	34.282
461.94	33.539
462.29	34.362
462.64	34.716
462.99	33.182
463.34	34.467
463.69	33.333
464.04	33.507
464.39	32.696
464.74	34.046
465.09	33.293
465.44	33.241
465.79	32.606
466.14	33.060
466.49	32.759
466.84	33.508
467.19	33.555
467.54	35.062
467.89	33.493
468.24	33.392
468.59	34.799
468.94	33.415
469.29	34.319
469.64	34.739
469.99	33.897
470.34	33.421
470.68	33.621
471.03	34.082
471.38	34.746
471.73	33.711
472.08	34.605
472.43	34.108
472.78	33.904
473.13	32.991
473.48	33.458
473.83	34.146
474.17	32.794
474.52	33.685
474.87	34.209
475.22	32.908
475.57	32.671
475.92	32.236
476.27	33.089
476.61	33.094
476.96	31.886
477.31	32.025
477.66	32.877
478.01	30.894
478.36	32.734
478.70	32.191
479.05	32.588
479.40	32.549
479.75	32.588
480.10	31.759
480.45	31.556
480.79	31.725
481.14	32.779
481.49	31.941
481.84	31.687
482.19	31.259
482.53	31.651
482.88	31.643
483.23	32.664
483.58	32.029
483.92	32.287
484.27	31.068
484.62	32.026
484.97	31.060
485.31	31.473
485.66	29.277
486.01	28.261
486.36	27.071
486.70	27.361
487.05	28.484
487.40	29.571
487.75	30.175
488.09	31.362
488.44	31.788
488.79	32.405
489.13	31.742
489.48	31.974
489.83	31.679
490.17	32.179
490.52	31.399
490.87	31.660
491.22	32.106
491.56	31.298
491.91	31.410
492.26	31.373
492.60	31.106
492.95	31.104
493.30	30.701
493.64	30.798
493.99	30.966
494.34	30.851
494.68	31.777
495.03	31.532
495.37	30.991
495.72	31.287
496.07	31.787
496.41	29.735
496.76	30.563
497.11	30.707
497.45	31.206
497.80	31.910
498.14	30.870
498.49	30.585
498.84	31.064
499.18	30.857
499.53	30.674
499.87	30.988
500.22	31.512
500.56	32.524
500.91	30.817
501.26	30.773
501.60	31.087
501.95	30.385
502.29	30.975
502.64	30.866
502.98	31.043
503.33	30.622
503.67	30.626
504.02	30.075
504.36	29.995
504.71	31.754
505.06	30.699
505.40	30.481
505.75	30.762
506.09	30.369
506.44	30.390
506.78	29.761
507.13	30.994
507.47	31.111
507.82	30.952
508.16	31.611
508.51	31.355
508.85	30.338
509.19	30.612
509.54	30.918
509.88	30.500
510.23	30.334
510.57	32.147
510.92	31.020
511.26	30.730
511.61	31.328
511.95	29.228
512.30	30.700
512.64	31.059
512.98	30.547
513.33	31.531
513.67	30.416
514.02	30.844
514.36	31.622
514.70	30.327
515.05	30.954
515.39	31.296
515.74	30.856
516.08	30.855
516.42	31.021
516.77	30.881
517.11	30.577
517.46	30.587
517.80	31.707
518.14	31.268
518.49	31.914
518.83	31.023
519.17	30.543
519.52	30.956
519.86	30.861
520.20	31.387
520.55	31.358
520.89	31.509
521.23	31.484
521.58	31.693
521.92	31.660
522.26	30.445
522.61	30.467
522.95	31.921
523.29	30.980
523.64	31.524
523.98	31.608
524.32	31.363
524.66	31.269
525.01	29.534
525.35	30.793
525.69	30.419
526.04	31.277
526.38	31.117
526.72	31.534
527.06	32.141
527.41	29.332
527.75	30.547
528.09	31.407
528.43	31.103
528.78	31.223
529.12	30.364
529.46	29.884
529.80	31.064
530.15	30.966
530.49	30.400
530.83	30.506
531.17	31.136
531.51	31.518
531.86	29.226
532.20	32.073
532.54	31.454
532.88	31.194
533.22	29.169
533.57	30.062
533.91	30.163
534.25	29.830
534.59	29.591
534.93	29.685
535.27	29.934
535.62	29.548
535.96	29.567
536.30	30.006
536.64	30.650
536.98	30.126
537.32	30.810
537.66	31.133
538.01	29.822
538.35	30.705
538.69	30.951
539.03	28.915
539.37	28.882
539.71	29.618
540.05	30.261
540.39	31.362
540.73	29.690
541.07	31.019
541.42	30.594
541.76	31.032
542.10	30.272
542.44	29.536
542.78	30.369
543.12	29.303
543.46	30.557
543.80	29.668
544.14	29.076
544.48	30.286
544.82	29.378
545.16	29.928
545.50	29.627
545.84	30.242
546.18	30.370
546.52	30.282
546.86	30.103
547.20	31.018
547.54	29.927
547.88	30.421
548.22	28.580
548.56	29.937
548.90	28.489
549.24	29.428
549.58	30.355
549.92	29.258
550.26	29.759
550.60	29.737
550.94	30.141
551.28	28.676
551.62	30.625
551.96	28.351
552.30	29.966
552.64	30.426
552.98	30.712
553.32	29.198
553.66	29.857
554.00	30.268
554.34	30.021
554.68	29.828
555.02	30.042
555.36	29.854
555.69	28.552
556.03	29.542
556.37	28.854
556.71	28.854
557.05	28.922
557.39	29.321
557.73	29.852
558.07	30.747
558.41	30.680
558.75	30.051
559.08	30.350
559.42	30.612
559.76	30.588
560.10	28.765
560.44	28.861
560.78	28.809
561.12	29.024
561.45	29.140
561.79	28.477
562.13	29.510
562.47	29.372
562.81	29.498
563.15	28.629
563.48	29.045
563.82	28.115
564.16	28.319
564.50	28.581
564.84	28.571
565.17	28.507
565.51	28.051
565.85	29.188
566.19	27.239
566.52	28.499
566.86	27.607
567.20	28.479
567.54	28.025
567.88	27.648
568.21	27.725
568.55	27.351
568.89	27.091
569.23	26.248
569.56	25.628
569.90	25.396
570.24	24.758
570.57	24.855
570.91	24.531
571.25	24.367
571.59	24.389
571.92	24.568
572.26	24.292
572.60	25.135
572.93	24.768
573.27	24.667
573.61	24.707
573.95	24.599
574.28	24.095
574.62	23.882
574.96	23.799
575.29	23.739
575.63	23.755
575.97	23.926
576.30	24.668
576.64	24.210
576.98	23.554
577.31	23.729
577.65	23.105
577.98	23.542
578.32	23.431
578.66	23.270
578.99	23.533
579.33	23.699
579.67	23.255
580.00	24.311
580.34	24.371
580.67	24.368
581.01	23.949
581.35	23.215
581.68	23.247
582.02	22.599
582.35	22.984
582.69	23.157
583.02	23.331
583.36	24.256
583.70	24.076
584.03	24.765
584.37	25.086
584.70	24.478
585.04	23.801
585.37	23.788
585.71	23.473
586.04	23.701
586.38	24.556
586.72	24.496
587.05	23.662
587.39	23.879
587.72	23.679
588.06	23.746
588.39	24.390
588.73	24.083
589.06	25.210
589.40	25.185
589.73	24.463
590.07	24.520
590.40	24.772
590.73	25.098
591.07	25.967
591.40	25.221
591.74	26.407
592.07	25.436
592.41	24.969
592.74	24.157
593.08	23.951
593.41	23.410
593.75	23.204
594.08	24.237
594.41	24.850
594.75	24.806
595.08	23.944
595.42	24.623
595.75	24.751
596.09	25.047
596.42	25.619
596.75	25.369
597.09	25.887
597.42	25.000
597.75	24.752
598.09	24.652
598.42	25.515
598.76	24.645
599.09	24.211
599.42	24.418
599.76	24.012
600.09	23.971
600.42	23.484
600.76	23.571
601.09	23.934
601.42	24.429
601.76	24.782
602.09	24.585
602.42	25.080
602.76	24.788
603.09	25.138
603.42	24.209
603.76	23.819
604.09	24.234
604.42	24.338
604.76	25.053
605.09	24.334
605.42	24.583
605.75	24.421
606.09	23.790
606.42	24.275
606.75	24.886
607.09	24.529
607.42	23.449
607.75	24.093
608.08	24.620
608.42	24.877
608.75	24.662
609.08	24.884
609.41	24.179
609.75	25.345
610.08	24.411
610.41	24.814
610.74	24.267
611.07	25.840
611.41	24.975
611.74	25.490
612.07	25.621
612.40	26.233
612.73	24.895
613.07	25.377
613.40	25.803
613.73	24.698
614.06	25.269
614.39	25.695
614.72	24.947
615.06	25.158
615.39	24.894
615.72	25.000
616.05	24.561
616.38	25.125
616.71	26.247
617.05	26.266
617.38	25.496
617.71	25.886
618.04	26.262
618.37	25.488
618.70	26.011
619.03	27.500
619.36	26.341
619.69	25.493
620.03	27.198
620.36	26.671
620.69	26.918
621.02	28.171
621.35	27.095
621.68	25.857
622.01	27.090
622.34	26.551
622.67	26.616
623.00	26.045
623.33	25.518
623.66	26.305
623.99	26.804
624.32	25.892
624.65	26.554
624.99	26.700
625.32	26.792
625.65	25.319
625.98	26.441
626.31	27.683
626.64	27.918
626.97	28.013
627.30	26.683
627.63	27.071
627.96	27.839
628.29	27.297
628.62	27.722
628.95	29.717
629.28	27.828
629.61	28.414
629.94	28.095
630.26	28.217
630.59	27.931
630.92	28.065
631.25	27.443
631.58	28.028
631.91	28.600
632.24	27.848
632.57	28.122
632.90	29.496
633.23	29.418
633.56	29.718
633.89	29.785
634.22	30.420
634.55	31.598
634.88	29.701
635.20	29.749
635.53	29.157
635.86	29.332
636.19	30.118
636.52	29.181
636.85	30.126
637.18	29.378
637.51	29.905
637.83	28.113
638.16	30.307
638.49	29.975
638.82	32.364
639.15	30.000
639.48	32.419
639.81	29.625
640.13	30.599
640.46	31.141
640.79	30.779
641.12	29.711
641.45	29.888
641.77	30.928
642.10	31.140
642.43	30.781
642.76	32.043
643.09	33.742
643.41	30.197
643.74	33.488
644.07	33.232
644.40	32.055
644.73	33.701
645.05	31.854
645.38	32.070
645.71	30.435
646.04	32.558
646.36	33.723
646.69	34.114
647.02	32.653
647.35	32.474
647.67	30.973
648.00	33.333
648.33	31.518
648.66	30.455
648.98	31.934
649.31	29.297
649.64	31.689
649.96	30.999
650.29	29.858
650.62	32.201
650.94	31.605
651.27	34.122
651.60	34.775
651.92	32.109
652.25	31.596
652.58	32.243
652.90	32.543
653.23	30.663
653.56	29.134
653.88	32.964
654.21	32.070
654.54	31.353
654.86	30.841
655.19	27.297
655.52	19.964
655.84	16.879
656.17	21.635
656.49	29.733
656.82	31.395
657.15	24.466
657.47	18.415
657.80	14.234
658.13	15.380
658.45	23.784
658.78	24.160
659.10	25.634
659.43	28.319
659.75	29.477
660.08	31.709
660.41	33.613
660.73	36.086
661.06	35.510
661.38	34.909
661.71	33.846
662.03	33.925
662.36	34.195
662.68	33.133
663.01	34.545
663.33	32.272
663.66	35.294
663.98	33.909
664.31	33.193
664.63	35.425
664.96	31.992
665.28	32.787
665.61	33.138
665.93	33.602
666.26	32.860
666.58	34.310
666.91	34.884
667.23	35.506
667.56	33.909
667.88	35.470
668.21	33.262
668.53	34.056
668.86	33.550
669.18	36.247
669.50	33.478
669.83	33.987
670.15	36.222
670.48	33.115
670.80	35.345
671.13	35.244
671.45	34.894
671.77	34.827
672.10	34.381
672.42	28.975
672.75	30.680
673.07	30.810
673.39	30.922
673.72	31.055
674.04	32.157
674.37	33.592
674.69	31.902
675.01	33.891
675.34	34.908
675.66	32.632
675.98	34.012
676.31	32.983
676.63	35.881
676.95	33.333
677.28	35.047
677.60	34.945
677.92	36.076
678.25	33.265
678.57	32.669
678.89	33.066
679.22	33.006
679.54	31.107
679.86	33.578
680.18	31.127
680.51	30.496
680.83	29.537
681.15	31.698
681.48	33.270
681.80	32.689
682.12	32.184
682.44	30.368
682.77	32.994
683.09	37.124
683.41	32.151
683.73	35.541
684.06	34.711
684.38	29.746
684.70	31.008
685.02	30.019
685.34	31.319
685.67	28.322
685.99	28.866
686.31	29.863
686.63	30.035
686.96	29.286
687.28	31.408
687.60	29.529
687.92	31.079
688.24	31.179
688.56	32.129
688.89	33.402
689.21	33.406
689.53	31.524
689.85	35.477
690.17	27.329
690.49	36.093
690.82	33.178
691.14	35.491
691.46	30.591
691.78	33.133
692.10	31.818
692.42	32.136
692.74	32.988
693.06	33.404
693.39	29.569
693.71	31.223
694.03	32.842
694.35	32.468
694.67	32.037
694.99	36.585
695.31	33.824
695.63	33.732
695.95	36.675
696.27	32.995
696.59	34.456
696.91	35.492
697.23	30.047
697.56	31.343
697.88	28.221
698.20	33.958
698.52	31.183
698.84	31.403
699.16	33.180
699.48	33.729
699.80	35.990
700.12	37.662
700.44	37.401
700.76	36.188
701.08	35.920
701.40	35.475
701.72	39.942
702.04	36.648
702.36	37.394
702.68	34.561
703.00	34.072
703.32	35.372
703.64	33.780
703.96	34.262
704.28	34.302
704.60	36.657
704.91	38.279
705.23	40.762
705.55	41.860
705.87	39.867
706.19	42.049
706.51	38.006
706.83	38.182
707.15	34.454
707.47	34.848
707.79	33.907
708.11	33.562
708.43	32.619
708.74	32.143
709.06	33.247
709.38	33.071
709.70	36.628
710.02	37.685
710.34	36.061
710.66	38.209
710.98	37.784
711.29	36.919
711.61	41.298
711.93	37.500
712.25	37.621
712.57	37.132
712.89	38.062
713.20	37.386
713.52	43.092
713.84	37.975
714.16	34.756
714.48	34.483
714.80	42.553
715.11	34.294
715.43	34.718
715.75	33.913
716.07	35.463
716.39	35.110
716.70	40.532
717.02	37.410
717.34	39.576
717.66	40.299
717.97	43.426
718.29	42.222
718.61	37.591
718.93	40.074
719.24	39.446
719.56	35.932
719.88	37.627
720.20	37.838
720.51	34.146
720.83	43.866
721.15	37.313
721.46	37.234
721.78	44.444
722.10	37.736
722.42	42.105
722.73	37.828
723.05	45.082
723.37	42.510
723.68	43.243
724.00	41.463
724.32	40.726
724.63	41.057
724.95	39.749
725.27	42.105
725.58	42.969
725.90	40.511
726.22	40.000
726.53	36.458
726.85	38.225
727.16	41.281
727.48	37.589
727.80	39.773
728.11	34.058
728.43	35.385
728.74	39.427
729.06	39.416
729.38	42.647
729.69	40.925
730.01	37.201
730.32	34.722
730.64	34.448
730.96	34.653
731.27	37.417
731.59	37.615
731.90	36.443
732.22	36.646
732.53	37.152
732.85	37.179
733.16	36.013
733.48	35.216
733.80	36.039
734.11	36.624
734.43	36.391
734.74	30.857
735.06	36.390
735.37	33.237
735.69	33.758
736.00	41.176
736.32	37.072
736.63	34.824
736.95	33.866
737.26	33.673
737.58	33.871
737.89	36.455
738.21	40.956
738.52	33.571
738.83	37.358
739.15	40.385
739.46	36.861
739.78	38.194
740.09	33.846
740.41	35.806
740.72	39.024
741.04	37.037
741.35	37.500
741.66	43.111
741.98	37.736
742.29	46.890
742.61	44.397
742.92	40.271
743.23	43.162
743.55	44.000
743.86	42.105
744.18	40.708
744.49	46.411
744.80	49.296
745.12	50.909
745.43	41.410
745.74	43.243
746.06	48.165
746.37	43.049
746.68	43.439
747.00	46.296
747.31	48.571
747.62	39.823
747.94	40.529
748.25	37.872
748.56	44.934
748.88	40.099
749.19	47.500
749.50	45.116
749.82	38.211
750.13	38.776
750.44	35.036
750.75	37.895
751.07	40.836
751.38	41.812
751.69	39.350
752.01	37.218
752.32	38.267
752.63	34.752
752.94	35.656
753.26	37.600
753.57	41.057
753.88	46.875
754.19	34.286
754.51	42.014
754.82	37.906
755.13	39.623
755.44	35.714
755.75	39.416
756.07	40.071
756.38	36.496
756.69	36.242
757.00	34.431
757.31	33.234
757.63	32.456
757.94	33.780
758.25	30.637
758.56	31.852
758.87	32.796
759.18	35.758
759.50	34.796
759.81	34.268
760.12	33.125
760.43	34.097
760.74	32.609
761.05	36.158
761.36	32.086
761.67	34.375
761.99	32.298
762.30	38.194
762.61	43.130
762.92	41.797
763.23	42.017
763.54	44.400
763.85	41.406
764.16	39.615
764.47	38.783
764.78	36.396
765.10	29.430
765.41	34.218
765.72	32.635
766.03	37.618
766.34	35.667
766.65	45.106
766.96	38.889
767.27	44.670
767.58	46.875
767.89	48.421
768.20	45.977
768.51	42.640
768.82	43.119
769.13	39.431
769.44	38.462
769.75	39.485
770.06	40.367
770.37	41.176
770.68	43.056
770.99	35.556
771.30	35.656
771.61	41.256
771.92	39.754
772.23	46.218
772.54	43.590
772.85	50.262
773.16	46.277
773.47	51.087
773.78	43.147
774.09	50.000
774.39	47.368
774.70	54.321
775.01	56.522
775.32	58.824
775.63	56.579
775.94	61.871
776.25	61.417
776.56	52.985
776.87	63.115
777.18	59.375
777.48	61.832
777.79	56.061
778.10	53.333
778.41	63.393
778.72	47.445
779.03	53.691
779.34	57.047
779.65	54.054
779.95	56.442
780.26	55.556
780.57	53.103
780.88	54.688
781.19	49.624
781.50	52.027
781.80	54.088
782.11	48.023
782.42	45.570
782.73	43.558
783.04	56.081
783.34	55.634
783.65	55.479
783.96	58.209
784.27	48.252
784.57	46.043
784.88	62.037
785.19	57.937
785.50	61.321
785.81	69.403
786.11	66.393
786.42	65.891
786.73	55.752
787.04	66.038
787.34	70.536
787.65	73.000
787.96	71.171
788.26	61.157
788.57	59.322
788.88	70.248
789.19	63.194
789.49	60.606
789.80	56.489
790.11	70.476
790.41	67.327
790.72	60.241
791.03	72.826
791.33	80.233
791.64	72.165
791.95	69.307
792.25	84.444
792.56	85.714
792.87	87.179
793.17	98.734
793.48	77.011
793.79	77.011
794.09	82.955
794.40	63.866
794.70	60.294
795.01	56.296
795.32	51.079
795.62	58.268
795.93	61.207
796.23	67.257
796.54	83.529
796.85	86.486
797.15	100.000
797.46	87.879
797.76	85.542
798.07	79.747
798.37	80.000
798.68	92.424
798.99	85.915
799.29	81.818
799.60	78.409
799.90	104.110
800.21	85.075
800.51	108.621
800.82	103.509
801.12	116.393
801.43	109.091
801.73	83.784
802.04	111.111
802.34	71.605
802.65	103.125
802.95	110.169
803.26	101.563
803.56	87.143
803.87	86.154
804.17	108.824
804.48	107.407
804.78	105.172
805.09	80.882
805.39	103.846
805.70	116.071
806.00	109.836
806.30	100.000
806.61	90.244
806.91	88.608
807.22	84.211
807.52	85.075
807.83	100.000
808.13	90.625
808.43	110.000
808.74	86.842
809.04	95.652
809.35	101.493
809.65	109.211
809.95	124.194
810.26	108.475
810.56	103.175
810.86	136.364
811.17	147.619
811.47	111.667
811.77	127.778
812.08	118.182
812.38	126.000
812.69	186.111
812.99	156.818
813.29	136.735
813.59	121.429
813.90	122.449
814.20	103.636
814.50	81.538
814.81	105.882
815.11	128.571
815.41	124.590
815.72	183.333
816.02	120.000
816.32	145.238
816.62	142.500
816.93	151.220
817.23	140.476
817.53	150.000
817.84	169.697
818.14	134.783
818.44	131.111
818.74	164.706
819.04	137.500
819.35	160.000
819.65	161.765
819.95	182.143
820.25	255.000
820.56	158.974
820.86	161.364
821.16	158.140
821.46	123.077
821.76	162.000
822.07	151.429
822.37	165.000
822.67	187.879
822.97	113.725
823.27	207.143
823.57	148.649
823.88	177.500
824.18	223.333
824.48	147.619
824.78	192.000
825.08	220.833
825.38	156.757
825.69	153.659
825.99	241.667
826.29	172.414
826.59	157.895
826.89	165.789
827.19	188.235
827.49	187.097
827.79	179.545
828.09	143.182
828.39	127.660
828.70	132.653
829.00	233.333
829.30	167.742
829.60	162.500
829.90	380.000
830.20	203.571
830.50	186.957
830.80	213.043
831.10	190.000
831.40	190.000
831.70	243.478
832.00	273.077
832.30	203.704
832.60	368.750
832.90	236.667
833.20	464.286
833.50	225.806
833.80	189.655
834.10	190.625
834.40	230.769
834.70	338.889
835.00	309.524
835.30	157.143
835.60	338.462
835.90	203.448
836.20	378.571
836.50	196.552
836.80	224.000
837.10	169.444
837.40	309.524
837.70	341.176
838.00	248.148
838.30	252.381
838.60	314.286
838.90	238.462
839.19	280.000
839.49	435.714
839.79	360.000
840.09	280.000
840.39	285.714
840.69	252.174
840.99	333.333
841.29	390.000
841.59	358.333
841.88	337.500
842.18	172.414
842.48	295.238
842.78	180.000
843.08	226.087
843.38	212.500
843.68	950.000
843.97	223.077
844.27	182.759
844.57	276.190
844.87	343.750
845.17	211.111
845.47	1533.333
845.76	577.778
846.06	341.176
846.36	612.500
846.66	457.143
846.96	356.250
847.25	545.455
847.55	509.091
847.85	278.261
848.15	530.000
848.44	392.857
848.74	250.000
849.04	300.000
849.34	610.000
849.63	247.368
849.93	427.273
850.23	1020.000
850.53	435.714
850.82	2900.000
851.12	-4400.000
851.42	5300.000
851.71	300.000
852.01	-1433.333
852.31	245.833
852.61	1533.333
852.90	280.952
853.20	220.000
853.50	282.353
853.79	280.952
854.09	266.667
854.39	287.500
854.68	186.486
854.98	174.194
855.28	176.667
855.57	227.586
855.87	244.444
856.17	315.789
856.46	320.000
856.76	358.824
857.05	210.345
857.35	258.333
857.65	313.333
857.94	247.826
858.24	223.077
858.53	290.000
858.83	281.818
859.13	400.000
859.42	0.000
859.72	533.333
860.01	472.727
860.31	250.000
860.60	315.789
860.90	247.826
861.20	600.000
861.49	466.667
861.79	-4700.000
862.08	812.500
862.38	280.952
862.67	338.462
862.97	352.941
863.26	577.778
863.56	272.222
863.85	433.333
864.15	525.000
864.44	413.333
864.74	933.333
865.03	687.500
865.33	257.895
865.62	472.727
865.92	446.154
866.21	466.667
866.51	0.000
866.80	445.455
867.10	1360.000
867.39	438.462
867.69	418.182
867.98	294.737
868.27	663.636
868.57	321.053
868.86	-5000.000
869.16	362.500
869.45	2200.000
869.75	-3600.000
870.04	491.667
870.33	685.714
870.63	1125.000
870.92	2700.000
871.22	714.286
871.51	352.941
871.80	233.333
872.10	364.286
>>>>>End Processed Spectral Data<<<<<
