SpectraSuite Data File
++++++++++++++++++++++++++++++++++++
Date: Wed May 13 19:54:23 PDT 2015
User: schluterlab
Dark Spectrum Present: Yes
Reference Spectrum Present: Yes
Number of Sampled Component Spectra: 1
Spectrometers: USB2E3373
Integration Time (usec): 3000 (USB2E3373)
Spectra Averaged: 3 (USB2E3373)
Boxcar Smoothing: 0 (USB2E3373)
Correct for Electrical Dark: No (USB2E3373)
Strobe/Lamp Enabled: No (USB2E3373)
Correct for Detector Non-linearity: No (USB2E3373)
Correct for Stray Light: No (USB2E3373)
Number of Pixels in Processed Spectrum: 2048
>>>>>Begin Processed Spectral Data<<<<<
178.53	0.000
178.91	-1450.000
179.29	-1200.000
179.67	-261.111
180.04	-1225.000
180.42	2850.000
180.80	920.000
181.18	-1075.000
181.56	771.429
181.94	0.000
182.31	-628.571
182.69	2066.667
183.07	-537.500
183.45	-511.111
183.83	590.909
184.20	-400.000
184.58	2700.000
184.96	5100.000
185.34	-720.000
185.72	-600.000
186.09	-2150.000
186.47	2600.000
186.85	2750.000
187.23	5600.000
187.61	-1966.667
187.98	1375.000
188.36	590.909
188.74	518.182
189.12	-840.000
189.49	550.000
189.87	-5600.000
190.25	-1075.000
190.63	442.857
191.00	469.231
191.38	883.333
191.76	-1300.000
192.14	1400.000
192.51	750.000
192.89	1000.000
193.27	600.000
193.65	-1175.000
194.02	600.000
194.40	920.000
194.78	580.000
195.15	525.000
195.53	660.000
195.91	-2100.000
196.29	375.000
196.66	373.684
197.04	-440.000
197.42	0.000
197.79	610.000
198.17	-4100.000
198.55	742.857
198.92	650.000
199.30	960.000
199.68	0.000
200.05	344.444
200.43	842.857
200.81	4500.000
201.18	1566.667
201.56	-1633.333
201.94	444.444
202.31	544.444
202.69	458.333
203.07	530.000
203.44	0.000
203.82	1400.000
204.19	771.429
204.57	442.857
204.95	637.500
205.32	1833.333
205.70	445.455
206.08	335.714
206.45	2450.000
206.83	412.500
207.20	916.667
207.58	740.000
207.96	350.000
208.33	700.000
208.71	-933.333
209.08	871.429
209.46	588.889
209.84	536.364
210.21	-1633.333
210.59	1250.000
210.96	-462.500
211.34	2850.000
211.71	590.000
212.09	766.667
212.46	0.000
212.84	1466.667
213.22	1400.000
213.59	-6000.000
213.97	916.667
214.34	871.429
214.72	627.273
215.09	1080.000
215.47	-2500.000
215.84	-2700.000
216.22	1633.333
216.59	414.286
216.97	1400.000
217.34	527.273
217.72	-816.667
218.09	0.000
218.47	-5500.000
218.84	588.889
219.22	814.286
219.59	1733.333
219.97	-757.143
220.34	960.000
220.72	-1800.000
221.09	442.857
221.47	1650.000
221.84	-883.333
222.22	0.000
222.59	1300.000
222.97	-2400.000
223.34	1360.000
223.72	407.692
224.09	1060.000
224.46	2400.000
224.84	-5200.000
225.21	-1120.000
225.59	-5500.000
225.96	560.000
226.34	310.000
226.71	3000.000
227.08	750.000
227.46	550.000
227.83	-1100.000
228.21	-2500.000
228.58	633.333
228.95	-2400.000
229.33	-2850.000
229.70	1766.667
230.08	771.429
230.45	-900.000
230.82	400.000
231.20	783.333
231.57	742.857
231.95	441.667
232.32	304.545
232.69	427.273
233.07	671.429
233.44	376.923
233.81	-1700.000
234.19	315.789
234.56	483.333
234.93	433.333
235.31	509.091
235.68	330.769
236.05	350.000
236.43	190.909
236.80	300.000
237.17	4600.000
237.55	257.143
237.92	182.143
238.29	261.905
238.67	196.774
239.04	224.138
239.41	166.667
239.79	132.609
240.16	154.762
240.53	140.909
240.91	109.804
241.28	136.000
241.65	96.000
242.02	101.449
242.40	95.161
242.77	95.000
243.14	78.495
243.51	80.899
243.89	72.941
244.26	64.444
244.63	63.441
245.00	71.277
245.38	73.267
245.75	59.813
246.12	66.055
246.49	60.584
246.87	62.400
247.24	59.231
247.61	47.857
247.98	53.595
248.36	44.595
248.73	45.860
249.10	52.229
249.47	45.198
249.84	49.198
250.22	45.989
250.59	44.970
250.96	39.899
251.33	43.128
251.70	43.069
252.08	42.857
252.45	36.771
252.82	37.391
253.19	36.596
253.56	38.431
253.94	41.494
254.31	41.406
254.68	34.615
255.05	39.483
255.42	36.585
255.79	36.397
256.16	35.740
256.54	36.749
256.91	37.011
257.28	33.813
257.65	35.644
258.02	33.540
258.39	34.069
258.76	34.448
259.14	33.036
259.51	31.003
259.88	28.882
260.25	33.535
260.62	31.503
260.99	31.677
261.36	33.033
261.73	31.232
262.10	31.105
262.47	32.113
262.85	33.148
263.22	30.484
263.59	31.909
263.96	27.473
264.33	28.982
264.70	33.421
265.07	28.645
265.44	29.293
265.81	27.494
266.18	30.653
266.55	30.244
266.92	27.518
267.29	28.935
267.66	26.376
268.03	27.955
268.40	28.738
268.77	27.446
269.14	28.378
269.51	28.442
269.88	29.604
270.25	28.894
270.62	27.191
270.99	31.828
271.36	27.253
271.73	25.000
272.10	29.348
272.47	30.753
272.84	28.355
273.21	28.721
273.58	25.328
273.95	26.625
274.32	25.207
274.69	25.696
275.06	25.197
275.43	26.596
275.80	25.251
276.17	27.699
276.54	27.235
276.91	25.099
277.28	23.242
277.65	24.952
278.02	25.880
278.39	27.930
278.76	27.091
279.13	25.660
279.50	26.257
279.87	26.494
280.23	25.349
280.60	26.306
280.97	26.063
281.34	26.372
281.71	26.182
282.08	26.104
282.45	24.364
282.82	25.933
283.19	21.747
283.56	25.088
283.92	26.227
284.29	26.279
284.66	25.590
285.03	24.774
285.40	23.415
285.77	22.727
286.14	22.798
286.51	23.667
286.87	24.103
287.24	23.453
287.61	24.398
287.98	26.461
288.35	22.187
288.72	23.053
289.08	21.753
289.45	21.582
289.82	22.276
290.19	21.664
290.56	22.511
290.93	20.091
291.29	22.699
291.66	20.206
292.03	23.401
292.40	21.439
292.77	19.822
293.13	21.343
293.50	18.950
293.87	21.630
294.24	20.296
294.60	20.233
294.97	20.203
295.34	21.862
295.71	19.886
296.08	18.803
296.44	20.633
296.81	19.287
297.18	20.461
297.55	17.942
297.91	19.129
298.28	20.884
298.65	18.538
299.02	20.685
299.38	18.327
299.75	17.251
300.12	17.114
300.48	18.625
300.85	18.866
301.22	17.580
301.59	18.939
301.95	18.010
302.32	17.715
302.69	17.324
303.05	17.212
303.42	17.778
303.79	17.894
304.15	15.734
304.52	16.454
304.89	17.886
305.25	16.473
305.62	18.573
305.99	17.828
306.35	18.009
306.72	16.256
307.09	18.424
307.45	17.455
307.82	16.518
308.19	16.998
308.55	17.907
308.92	16.327
309.29	16.156
309.65	17.497
310.02	18.182
310.38	17.742
310.75	17.212
311.12	17.093
311.48	17.032
311.85	19.078
312.22	16.337
312.58	16.528
312.95	17.846
313.31	15.825
313.68	18.711
314.05	19.724
314.41	18.794
314.78	17.221
315.14	18.371
315.51	17.611
315.87	19.406
316.24	18.669
316.61	18.519
316.97	19.276
317.34	19.961
317.70	19.598
318.07	20.308
318.43	21.624
318.80	21.837
319.16	21.751
319.53	21.670
319.89	22.571
320.26	25.700
320.62	24.802
320.99	25.556
321.35	25.657
321.72	26.899
322.08	27.937
322.45	29.353
322.81	31.008
323.18	30.636
323.54	31.725
323.91	33.113
324.27	33.939
324.64	34.762
325.00	33.454
325.37	37.125
325.73	39.497
326.10	39.982
326.46	39.964
326.83	43.054
327.19	45.944
327.56	45.209
327.92	47.157
328.29	48.004
328.65	49.908
329.01	50.181
329.38	51.989
329.74	52.909
330.11	53.346
330.47	54.913
330.84	56.710
331.20	56.193
331.56	57.064
331.93	60.000
332.29	57.941
332.66	60.088
333.02	60.878
333.38	60.976
333.75	60.784
334.11	62.456
334.48	62.112
334.84	63.787
335.20	64.818
335.57	64.823
335.93	64.554
336.29	66.117
336.66	66.456
337.02	66.154
337.38	67.037
337.75	66.578
338.11	69.472
338.47	68.600
338.84	69.019
339.20	69.908
339.56	69.799
339.93	70.909
340.29	70.380
340.65	69.697
341.02	70.855
341.38	71.619
341.74	72.193
342.11	72.140
342.47	72.159
342.83	71.062
343.20	70.909
343.56	69.334
343.92	72.193
344.28	72.024
344.65	73.001
345.01	71.380
345.37	72.384
345.73	73.435
346.10	73.402
346.46	74.068
346.82	72.488
347.19	73.768
347.55	73.317
347.91	74.919
348.27	75.431
348.63	75.167
349.00	73.301
349.36	74.631
349.72	73.536
350.08	73.663
350.45	75.997
350.81	74.005
351.17	74.554
351.53	76.331
351.89	74.422
352.26	76.243
352.62	75.621
352.98	76.661
353.34	76.089
353.70	75.123
354.07	75.323
354.43	75.397
354.79	75.463
355.15	77.015
355.51	76.259
355.87	79.102
356.24	77.524
356.60	74.178
356.96	78.198
357.32	77.187
357.68	75.984
358.04	76.326
358.40	76.643
358.77	77.308
359.13	76.322
359.49	77.020
359.85	76.270
360.21	78.628
360.57	78.833
360.93	77.769
361.29	78.534
361.66	77.399
362.02	78.060
362.38	78.403
362.74	77.679
363.10	76.758
363.46	77.476
363.82	78.534
364.18	77.093
364.54	79.569
364.90	77.975
365.26	78.676
365.62	77.867
365.98	79.036
366.35	75.358
366.71	77.585
367.07	79.170
367.43	79.536
367.79	79.729
368.15	79.167
368.51	78.997
368.87	78.587
369.23	78.859
369.59	78.783
369.95	77.574
370.31	76.567
370.67	78.841
371.03	80.300
371.39	79.592
371.75	78.971
372.11	77.952
372.47	79.692
372.83	79.971
373.19	79.263
373.55	79.970
373.91	79.381
374.27	77.526
374.63	79.927
374.99	79.308
375.35	79.693
375.71	77.999
376.07	78.807
376.42	78.817
376.78	78.661
377.14	78.494
377.50	78.212
377.86	77.793
378.22	80.215
378.58	77.068
378.94	78.190
379.30	80.534
379.66	79.632
380.02	78.870
380.38	78.142
380.74	78.992
381.09	80.012
381.45	79.840
381.81	78.071
382.17	78.217
382.53	79.182
382.89	80.123
383.25	79.675
383.61	79.120
383.97	80.613
384.32	78.478
384.68	79.306
385.04	78.611
385.40	78.885
385.76	77.580
386.12	77.720
386.48	79.043
386.83	79.282
387.19	79.963
387.55	77.922
387.91	79.202
388.27	78.786
388.62	79.226
388.98	77.211
389.34	78.411
389.70	77.866
390.06	78.644
390.42	80.285
390.77	78.690
391.13	77.983
391.49	77.855
391.85	77.403
392.20	78.927
392.56	79.356
392.92	77.516
393.28	77.160
393.64	78.657
393.99	76.359
394.35	78.040
394.71	77.478
395.07	77.695
395.42	78.863
395.78	77.163
396.14	76.909
396.50	78.571
396.85	77.750
397.21	76.202
397.57	77.433
397.92	77.284
398.28	75.336
398.64	76.464
399.00	77.280
399.35	75.296
399.71	76.505
400.07	76.700
400.42	76.810
400.78	75.935
401.14	77.134
401.49	76.119
401.85	76.104
402.21	75.749
402.57	75.756
402.92	76.860
403.28	76.390
403.63	76.238
403.99	77.134
404.35	74.424
404.70	74.880
405.06	75.946
405.42	77.230
405.77	75.714
406.13	73.251
406.49	75.222
406.84	73.538
407.20	73.759
407.55	75.686
407.91	75.400
408.27	74.537
408.62	74.654
408.98	74.449
409.34	74.293
409.69	73.935
410.05	73.606
410.40	74.312
410.76	75.388
411.11	72.859
411.47	72.396
411.83	73.549
412.18	73.469
412.54	74.471
412.89	72.711
413.25	72.314
413.60	72.761
413.96	71.949
414.31	73.329
414.67	71.736
415.03	72.649
415.38	71.843
415.74	73.119
416.09	74.526
416.45	73.628
416.80	73.430
417.16	73.660
417.51	72.528
417.87	72.575
418.22	73.565
418.58	72.692
418.93	72.850
419.29	72.884
419.64	73.426
420.00	72.195
420.35	70.841
420.71	73.341
421.06	69.153
421.42	70.643
421.77	70.796
422.12	70.803
422.48	70.588
422.83	72.161
423.19	69.890
423.54	71.619
423.90	70.841
424.25	70.073
424.61	70.179
424.96	71.720
425.31	69.546
425.67	70.000
426.02	70.686
426.38	70.879
426.73	70.919
427.09	70.638
427.44	71.823
427.79	69.638
428.15	69.524
428.50	70.626
428.85	69.964
429.21	70.293
429.56	69.155
429.92	68.546
430.27	67.676
430.62	68.817
430.98	68.915
431.33	67.165
431.68	69.005
432.04	68.956
432.39	69.960
432.74	68.402
433.10	69.553
433.45	70.496
433.80	69.235
434.16	68.162
434.51	67.789
434.86	68.301
435.22	70.039
435.57	70.334
435.92	67.700
436.28	70.996
436.63	68.488
436.98	68.346
437.34	70.364
437.69	69.078
438.04	69.702
438.39	68.597
438.75	68.913
439.10	69.385
439.45	68.182
439.81	69.607
440.16	68.154
440.51	68.307
440.86	69.543
441.22	68.910
441.57	67.994
441.92	68.833
442.27	67.169
442.63	67.983
442.98	67.380
443.33	66.413
443.68	65.720
444.03	66.032
444.39	66.991
444.74	67.587
445.09	67.871
445.44	66.703
445.79	66.304
446.15	65.537
446.50	65.051
446.85	65.827
447.20	65.528
447.55	67.616
447.91	65.803
448.26	65.832
448.61	67.044
448.96	67.220
449.31	67.379
449.66	66.460
450.02	65.237
450.37	66.553
450.72	67.231
451.07	64.899
451.42	65.714
451.77	67.234
452.12	65.531
452.47	66.107
452.83	65.967
453.18	64.914
453.53	66.296
453.88	65.800
454.23	64.435
454.58	66.323
454.93	66.624
455.28	64.464
455.63	65.898
455.98	66.429
456.34	65.389
456.69	66.187
457.04	65.635
457.39	65.167
457.74	65.467
458.09	64.117
458.44	64.196
458.79	63.178
459.14	65.745
459.49	63.573
459.84	62.992
460.19	63.406
460.54	61.921
460.89	63.851
461.24	64.420
461.59	63.858
461.94	62.639
462.29	63.976
462.64	63.816
462.99	64.346
463.34	63.133
463.69	64.415
464.04	61.971
464.39	62.609
464.74	62.448
465.09	61.882
465.44	63.767
465.79	60.962
466.14	60.591
466.49	60.178
466.84	61.646
467.19	61.497
467.54	63.000
467.89	61.044
468.24	60.442
468.59	62.943
468.94	60.599
469.29	63.368
469.64	64.391
469.99	63.058
470.34	63.276
470.68	63.506
471.03	62.109
471.38	63.099
471.73	60.959
472.08	63.355
472.43	61.244
472.78	61.422
473.13	61.489
473.48	61.049
473.83	61.585
474.17	61.045
474.52	61.663
474.87	61.821
475.22	60.302
475.57	59.592
475.92	59.745
476.27	59.470
476.61	59.735
476.96	60.693
477.31	59.498
477.66	60.722
478.01	58.233
478.36	59.122
478.70	59.190
479.05	58.892
479.40	59.519
479.75	59.126
480.10	58.151
480.45	57.449
480.79	57.382
481.14	58.806
481.49	58.614
481.84	57.796
482.19	58.292
482.53	58.532
482.88	58.167
483.23	58.318
483.58	57.052
483.92	58.294
484.27	55.338
484.62	56.810
484.97	55.538
485.31	56.062
485.66	53.097
486.01	51.308
486.36	49.871
486.70	50.201
487.05	50.429
487.40	52.094
487.75	52.601
488.09	54.110
488.44	54.670
488.79	56.022
489.13	56.150
489.48	56.077
489.83	56.668
490.17	56.817
490.52	56.067
490.87	57.078
491.22	55.161
491.56	55.034
491.91	56.259
492.26	54.800
492.60	55.806
492.95	55.987
493.30	55.047
493.64	56.416
493.99	55.896
494.34	56.059
494.68	55.769
495.03	55.357
495.37	55.142
495.72	56.384
496.07	56.288
496.41	52.743
496.76	53.914
497.11	54.435
497.45	54.960
497.80	54.798
498.14	55.604
498.49	55.073
498.84	55.513
499.18	54.286
499.53	55.223
499.87	55.266
500.22	54.545
500.56	56.214
500.91	54.567
501.26	54.481
501.60	54.533
501.95	53.804
502.29	54.545
502.64	54.702
502.98	54.745
503.33	52.102
503.67	52.947
504.02	53.742
504.36	54.048
504.71	54.861
505.06	53.590
505.40	53.719
505.75	53.472
506.09	53.644
506.44	54.070
506.78	53.093
507.13	54.417
507.47	54.242
507.82	55.623
508.16	53.901
508.51	54.997
508.85	53.128
509.19	53.673
509.54	52.908
509.88	54.508
510.23	54.756
510.57	54.850
510.92	54.894
511.26	52.775
511.61	54.098
511.95	53.445
512.30	54.030
512.64	54.326
512.98	54.716
513.33	53.908
513.67	52.882
514.02	53.463
514.36	54.997
514.70	55.174
515.05	53.820
515.39	54.571
515.74	54.167
516.08	54.500
516.42	54.162
516.77	54.571
517.11	52.386
517.46	54.007
517.80	53.891
518.14	52.866
518.49	54.901
518.83	53.125
519.17	52.771
519.52	53.198
519.86	54.478
520.20	54.104
520.55	56.014
520.89	54.380
521.23	55.066
521.58	54.922
521.92	55.052
522.26	53.935
522.61	55.078
522.95	54.266
523.29	53.439
523.64	55.061
523.98	54.467
524.32	53.679
524.66	54.299
525.01	52.880
525.35	53.841
525.69	52.340
526.04	52.773
526.38	54.240
526.72	53.006
527.06	53.923
527.41	52.599
527.75	56.077
528.09	53.757
528.43	53.282
528.78	52.797
529.12	50.909
529.46	52.970
529.80	54.022
530.15	53.022
530.49	52.554
530.83	53.418
531.17	54.961
531.51	54.345
531.86	53.806
532.20	53.716
532.54	54.644
532.88	54.108
533.22	51.655
533.57	50.741
533.91	52.137
534.25	52.430
534.59	50.946
534.93	50.982
535.27	51.116
535.62	52.259
535.96	51.915
536.30	50.922
536.64	52.093
536.98	53.285
537.32	51.152
537.66	52.933
538.01	52.930
538.35	52.101
538.69	52.457
539.03	50.162
539.37	50.607
539.71	50.227
540.05	52.614
540.39	51.960
540.73	50.841
541.07	51.914
541.42	52.577
541.76	51.677
542.10	51.682
542.44	51.523
542.78	51.581
543.12	50.352
543.46	51.016
543.80	51.399
544.14	50.321
544.48	51.111
544.82	50.674
545.16	50.618
545.50	49.293
545.84	50.941
546.18	50.303
546.52	50.998
546.86	51.753
547.20	50.506
547.54	51.035
547.88	49.872
548.22	49.191
548.56	49.119
548.90	49.296
549.24	49.428
549.58	50.819
549.92	51.511
550.26	50.994
550.60	50.622
550.94	52.606
551.28	51.207
551.62	51.186
551.96	51.789
552.30	50.580
552.64	51.251
552.98	51.322
553.32	49.966
553.66	50.988
554.00	50.309
554.34	50.449
554.68	52.146
555.02	51.128
555.36	50.313
555.69	49.188
556.03	49.596
556.37	49.591
556.71	50.477
557.05	50.140
557.39	49.545
557.73	50.176
558.07	51.849
558.41	50.579
558.75	49.155
559.08	51.976
559.42	51.247
559.76	50.588
560.10	50.107
560.44	48.987
560.78	47.505
561.12	48.681
561.45	49.739
561.79	49.110
562.13	48.960
562.47	49.454
562.81	48.884
563.15	49.097
563.48	48.873
563.82	48.924
564.16	49.248
564.50	47.721
564.84	47.092
565.17	48.906
565.51	47.604
565.85	48.287
566.19	47.589
566.52	46.675
566.86	47.378
567.20	47.406
567.54	46.176
567.88	46.062
568.21	46.085
568.55	44.237
568.89	43.872
569.23	43.360
569.56	42.348
569.90	41.283
570.24	41.335
570.57	40.462
570.91	39.496
571.25	39.469
571.59	39.205
571.92	39.343
572.26	39.399
572.60	39.489
572.93	38.861
573.27	39.456
573.61	39.112
573.95	38.734
574.28	38.166
574.62	38.047
574.96	37.491
575.29	37.318
575.63	37.551
575.97	38.011
576.30	38.370
576.64	37.402
576.98	37.190
577.31	37.361
577.65	37.372
577.98	37.254
578.32	35.842
578.66	36.310
578.99	37.229
579.33	37.231
579.67	37.242
580.00	37.018
580.34	37.304
580.67	37.083
581.01	36.631
581.35	36.470
581.68	35.987
582.02	35.141
582.35	35.552
582.69	35.399
583.02	36.179
583.36	37.261
583.70	37.388
584.03	37.513
584.37	38.235
584.70	37.539
585.04	36.473
585.37	36.277
585.71	36.701
586.04	36.796
586.38	36.964
586.72	37.780
587.05	36.294
587.39	36.913
587.72	37.027
588.06	36.980
588.39	37.668
588.73	37.636
589.06	38.423
589.40	38.485
589.73	38.719
590.07	39.288
590.40	37.669
590.73	39.383
591.07	40.659
591.40	39.814
591.74	40.779
592.07	41.318
592.41	40.885
592.74	38.502
593.08	37.308
593.41	37.267
593.75	36.196
594.08	37.714
594.41	38.423
594.75	38.336
595.08	37.724
595.42	38.494
595.75	37.749
596.09	39.016
596.42	39.528
596.75	40.186
597.09	39.784
597.42	38.617
597.75	39.974
598.09	39.913
598.42	39.519
598.76	38.508
599.09	37.704
599.42	37.664
599.76	36.786
600.09	38.106
600.42	37.253
600.76	37.607
601.09	37.486
601.42	37.785
601.76	37.685
602.09	37.826
602.42	38.296
602.76	39.379
603.09	39.064
603.42	38.149
603.76	38.224
604.09	38.232
604.42	38.361
604.76	39.350
605.09	39.275
605.42	39.119
605.75	38.121
606.09	38.105
606.42	38.455
606.75	38.905
607.09	38.594
607.42	38.383
607.75	38.228
608.08	38.124
608.42	39.489
608.75	39.540
609.08	38.529
609.41	38.934
609.75	39.543
610.08	40.763
610.41	38.687
610.74	38.978
611.07	39.625
611.41	39.745
611.74	40.020
612.07	40.166
612.40	41.343
612.73	39.895
613.07	40.140
613.40	40.495
613.73	38.857
614.06	39.785
614.39	39.696
614.72	40.053
615.06	40.284
615.39	39.437
615.72	38.139
616.05	38.915
616.38	39.855
616.71	41.983
617.05	41.932
617.38	41.371
617.71	41.381
618.04	40.625
618.37	40.863
618.70	42.564
619.03	42.434
619.36	43.177
619.69	43.380
620.03	42.995
620.36	42.714
620.69	43.288
621.02	43.142
621.35	44.166
621.68	43.536
622.01	45.433
622.34	43.343
622.67	43.650
623.00	43.360
623.33	42.745
623.66	42.959
623.99	42.857
624.32	43.367
624.65	42.938
624.99	41.997
625.32	42.723
625.65	44.102
625.98	44.197
626.31	44.946
626.64	44.735
626.97	45.220
627.30	43.973
627.63	45.611
627.96	46.341
628.29	45.144
628.62	45.837
628.95	48.491
629.28	46.077
629.61	46.654
629.94	46.190
630.26	46.997
630.59	46.997
630.92	47.031
631.25	46.298
631.58	47.548
631.91	47.769
632.24	48.629
632.57	49.423
632.90	51.645
633.23	48.434
633.56	50.960
633.89	50.396
634.22	48.922
634.55	52.781
634.88	49.940
635.20	52.569
635.53	50.843
635.86	51.980
636.19	50.941
636.52	48.789
636.85	49.714
637.18	48.848
637.51	48.700
637.83	47.719
638.16	52.174
638.49	51.889
638.82	52.971
639.15	53.000
639.48	51.870
639.81	53.753
640.13	52.995
640.46	51.678
640.79	52.444
641.12	50.481
641.45	52.095
641.77	54.492
642.10	54.240
642.43	54.805
642.76	56.192
643.09	54.908
643.41	52.504
643.74	55.864
644.07	56.250
644.40	55.215
644.73	56.535
645.05	57.052
645.38	54.976
645.71	53.462
646.04	56.146
646.36	59.265
646.69	56.020
647.02	55.782
647.35	56.873
647.67	56.814
648.00	56.748
648.33	55.281
648.66	52.273
648.98	53.523
649.31	52.466
649.64	52.915
649.96	51.863
650.29	53.712
650.62	53.236
650.94	55.105
651.27	56.757
651.60	57.072
651.92	52.077
652.25	53.909
652.58	52.804
652.90	54.976
653.23	51.772
653.56	51.969
653.88	53.407
654.21	53.239
654.54	54.125
654.86	49.533
655.19	49.865
655.52	32.516
655.84	25.480
656.17	32.682
656.49	43.360
656.82	44.712
657.15	34.091
657.47	25.509
657.80	19.866
658.13	20.629
658.45	31.060
658.78	31.737
659.10	33.166
659.43	34.547
659.75	37.695
660.08	41.456
660.41	46.182
660.73	50.953
661.06	54.618
661.38	55.455
661.71	57.500
662.03	57.988
662.36	53.678
662.68	56.827
663.01	57.172
663.33	58.599
663.66	61.134
663.98	59.395
664.31	58.403
664.63	57.490
664.96	53.320
665.28	56.148
665.61	54.191
665.93	56.539
666.26	58.418
666.58	57.113
666.91	60.042
667.23	61.124
667.56	57.667
667.88	57.479
668.21	57.356
668.53	60.304
668.86	59.307
669.18	60.981
669.50	55.652
669.83	62.092
670.15	61.333
670.48	56.427
670.80	58.836
671.13	60.297
671.45	56.383
671.77	59.674
672.10	54.159
672.42	51.767
672.75	51.575
673.07	51.585
673.39	55.696
673.72	57.227
674.04	55.490
674.37	53.204
674.69	58.282
675.01	55.649
675.34	57.084
675.66	55.579
675.98	56.823
676.31	57.773
676.63	56.900
676.95	59.119
677.28	60.514
677.60	58.022
677.92	57.806
678.25	55.441
678.57	54.781
678.89	55.511
679.22	55.206
679.54	51.336
679.86	52.477
680.18	50.626
680.51	51.418
680.83	52.135
681.15	52.642
681.48	52.552
681.80	54.159
682.12	50.192
682.44	51.838
682.77	54.379
683.09	56.009
683.41	56.763
683.73	57.616
684.06	55.579
684.38	51.663
684.70	53.101
685.02	52.345
685.34	48.718
685.67	48.951
685.99	50.344
686.31	49.147
686.63	48.763
686.96	48.750
687.28	49.278
687.60	50.362
687.92	51.371
688.24	52.091
688.56	52.410
688.89	52.697
689.21	55.240
689.53	53.445
689.85	57.871
690.17	53.209
690.49	55.839
690.82	56.075
691.14	53.571
691.46	50.844
691.78	52.610
692.10	54.545
692.42	52.695
692.74	49.793
693.06	52.979
693.39	52.772
693.71	54.148
694.03	54.316
694.35	51.515
694.67	54.462
694.99	59.024
695.31	54.412
695.63	55.981
695.95	55.257
696.27	55.076
696.59	55.699
696.91	57.772
697.23	50.939
697.56	50.746
697.88	47.239
698.20	47.917
698.52	53.118
698.84	55.234
699.16	51.152
699.48	54.869
699.80	55.072
700.12	60.779
700.44	57.560
700.76	58.011
701.08	54.598
701.40	54.469
701.72	60.058
702.04	63.920
702.36	57.224
702.68	59.207
703.00	57.618
703.32	53.457
703.64	55.496
703.96	56.267
704.28	59.012
704.60	61.877
704.91	58.754
705.23	57.771
705.55	62.791
705.87	67.774
706.19	66.078
706.51	59.813
706.83	62.727
707.15	57.423
707.47	52.778
707.79	54.545
708.11	50.913
708.43	55.000
708.74	52.041
709.06	54.545
709.38	52.493
709.70	57.558
710.02	59.050
710.34	57.576
710.66	58.806
710.98	59.659
711.29	58.140
711.61	57.522
711.93	57.692
712.25	64.630
712.57	66.544
712.89	61.938
713.20	56.839
713.52	61.184
713.84	60.759
714.16	55.793
714.48	56.322
714.80	62.310
715.11	57.061
715.43	54.006
715.75	53.623
716.07	59.105
716.39	56.426
716.70	62.458
717.02	62.230
717.34	59.364
717.66	64.925
717.97	66.135
718.29	61.481
718.61	60.584
718.93	61.029
719.24	58.478
719.56	58.644
719.88	59.322
720.20	60.811
720.51	60.627
720.83	64.684
721.15	58.209
721.46	58.511
721.78	65.591
722.10	58.113
722.42	62.782
722.73	61.798
723.05	61.885
723.37	64.372
723.68	61.390
724.00	64.634
724.32	62.903
724.63	65.041
724.95	64.435
725.27	68.016
725.58	64.844
725.90	62.409
726.22	61.887
726.53	58.333
726.85	60.751
727.16	60.142
727.48	57.447
727.80	56.818
728.11	56.159
728.43	54.231
728.74	56.631
729.06	60.949
729.38	59.559
729.69	59.431
730.01	53.584
730.32	53.472
730.64	51.839
730.96	54.125
731.27	56.291
731.59	56.881
731.90	51.895
732.22	50.932
732.53	52.632
732.85	55.128
733.16	52.733
733.48	54.485
733.80	55.519
734.11	53.503
734.43	52.959
734.74	47.714
735.06	46.418
735.37	55.780
735.69	49.682
736.00	53.922
736.32	52.648
736.63	53.355
736.95	50.799
737.26	50.680
737.58	50.645
737.89	56.187
738.21	54.608
738.52	56.071
738.83	55.094
739.15	57.308
739.46	59.489
739.78	52.083
740.09	50.462
740.41	52.903
740.72	55.052
741.04	54.815
741.35	61.250
741.66	71.111
741.98	64.623
742.29	73.684
742.61	67.241
742.92	58.824
743.23	59.402
743.55	58.800
743.86	64.035
744.18	66.814
744.49	65.072
744.80	66.667
745.12	64.545
745.43	61.674
745.74	62.613
746.06	63.303
746.37	61.883
746.68	63.348
747.00	65.741
747.31	70.952
747.62	54.867
747.94	61.233
748.25	56.170
748.56	63.436
748.88	62.871
749.19	75.000
749.50	66.047
749.82	64.228
750.13	54.286
750.44	54.380
750.75	58.246
751.07	53.698
751.38	58.188
751.69	54.513
752.01	57.143
752.32	52.708
752.63	54.965
752.94	55.738
753.26	58.800
753.57	50.813
753.88	57.422
754.19	57.143
754.51	56.944
754.82	53.791
755.13	63.774
755.44	54.511
755.75	55.474
756.07	52.128
756.38	53.285
756.69	53.020
757.00	46.108
757.31	48.961
757.63	46.784
757.94	46.917
758.25	41.667
758.56	43.457
758.87	42.742
759.18	47.879
759.50	47.022
759.81	53.271
760.12	47.188
760.43	48.997
760.74	46.467
761.05	48.870
761.36	45.989
761.67	50.000
761.99	47.516
762.30	57.292
762.61	57.252
762.92	57.422
763.23	56.303
763.54	59.200
763.85	54.688
764.16	58.846
764.47	54.753
764.78	51.237
765.10	45.253
765.41	46.608
765.72	47.605
766.03	48.903
766.34	48.000
766.65	62.553
766.96	55.983
767.27	62.944
767.58	71.354
767.89	63.684
768.20	68.966
768.51	64.975
768.82	62.844
769.13	50.813
769.44	50.202
769.75	57.940
770.06	56.422
770.37	58.824
770.68	58.333
770.99	59.556
771.30	52.459
771.61	62.332
771.92	55.328
772.23	62.605
772.54	65.641
772.85	70.157
773.16	61.702
773.47	65.761
773.78	70.051
774.09	63.095
774.39	76.023
774.70	70.988
775.01	81.884
775.32	75.163
775.63	82.237
775.94	71.223
776.25	78.740
776.56	75.373
776.87	73.770
777.18	82.031
777.48	80.916
777.79	78.030
778.10	82.222
778.41	74.107
778.72	66.423
779.03	77.181
779.34	65.101
779.65	68.243
779.95	68.712
780.26	79.085
780.57	69.655
780.88	85.156
781.19	81.203
781.50	72.973
781.80	65.409
782.11	64.972
782.42	63.924
782.73	62.577
783.04	67.568
783.34	69.014
783.65	77.397
783.96	76.119
784.27	71.329
784.57	68.345
784.88	69.444
785.19	80.159
785.50	91.509
785.81	70.896
786.11	92.623
786.42	79.070
786.73	70.796
787.04	91.509
787.34	77.679
787.65	88.000
787.96	81.081
788.26	80.165
788.57	88.136
788.88	85.950
789.19	74.306
789.49	75.758
789.80	82.443
790.11	88.571
790.41	101.980
790.72	85.542
791.03	94.565
791.33	82.558
791.64	90.722
791.95	90.099
792.25	92.222
792.56	103.896
792.87	121.795
793.17	110.127
793.48	102.299
793.79	101.149
794.09	103.409
794.40	82.353
794.70	82.353
795.01	68.148
795.32	62.590
795.62	79.528
795.93	75.000
796.23	79.646
796.54	90.588
796.85	105.405
797.15	115.493
797.46	115.152
797.76	110.843
798.07	98.734
798.37	127.692
798.68	122.727
798.99	112.676
799.29	114.286
799.60	72.727
799.90	110.959
800.21	122.388
800.51	118.966
800.82	126.316
801.12	129.508
801.43	96.970
801.73	113.514
802.04	141.270
802.34	102.469
802.65	123.438
802.95	122.034
803.26	135.938
803.56	125.714
803.87	101.538
804.17	98.529
804.48	148.148
804.78	118.966
805.09	108.824
805.39	138.462
805.70	117.857
806.00	124.590
806.30	112.121
806.61	102.439
806.91	91.139
807.22	92.105
807.52	95.522
807.83	116.901
808.13	129.688
808.43	130.000
808.74	96.053
809.04	111.594
809.35	114.925
809.65	106.579
809.95	141.935
810.26	113.559
810.56	126.984
810.86	152.273
811.17	173.810
811.47	123.333
811.77	137.037
812.08	127.273
812.38	152.000
812.69	177.778
812.99	175.000
813.29	151.020
813.59	126.190
813.90	134.694
814.20	118.182
814.50	104.615
814.81	123.529
815.11	128.571
815.41	134.426
815.72	185.714
816.02	156.364
816.32	161.905
816.62	157.500
816.93	170.732
817.23	161.905
817.53	152.273
817.84	215.152
818.14	158.696
818.44	144.444
818.74	217.647
819.04	172.500
819.35	194.286
819.65	205.882
819.95	207.143
820.25	215.000
820.56	212.821
820.86	181.818
821.16	167.442
821.46	156.410
821.76	154.000
822.07	220.000
822.37	172.500
822.67	181.818
822.97	143.137
823.27	228.571
823.57	181.081
823.88	187.500
824.18	216.667
824.48	164.286
824.78	244.000
825.08	262.500
825.38	200.000
825.69	158.537
825.99	258.333
826.29	210.345
826.59	181.579
826.89	207.895
827.19	179.412
827.49	206.452
827.79	156.818
828.09	134.091
828.39	146.809
828.70	167.347
829.00	214.815
829.30	164.516
829.60	182.500
829.90	360.000
830.20	196.429
830.50	234.783
830.80	300.000
831.10	233.333
831.40	206.667
831.70	239.130
832.00	257.692
832.30	262.963
832.60	325.000
832.90	250.000
833.20	492.857
833.50	232.258
833.80	224.138
834.10	203.125
834.40	273.077
834.70	344.444
835.00	338.095
835.30	197.143
835.60	376.923
835.90	193.103
836.20	378.571
836.50	231.034
836.80	272.000
837.10	200.000
837.40	261.905
837.70	388.235
838.00	229.630
838.30	242.857
838.60	319.048
838.90	223.077
839.19	320.000
839.49	392.857
839.79	330.000
840.09	320.000
840.39	276.190
840.69	265.217
840.99	300.000
841.29	550.000
841.59	450.000
841.88	400.000
842.18	179.310
842.48	323.810
842.78	193.333
843.08	252.174
843.38	187.500
843.68	983.333
843.97	257.692
844.27	200.000
844.57	319.048
844.87	381.250
845.17	262.963
845.47	1800.000
845.76	533.333
846.06	341.176
846.36	500.000
846.66	364.286
846.96	343.750
847.25	527.273
847.55	463.636
847.85	286.957
848.15	530.000
848.44	478.571
848.74	288.889
849.04	364.706
849.34	480.000
849.63	273.684
849.93	536.364
850.23	1000.000
850.53	478.571
850.82	2900.000
851.12	-4500.000
851.42	5500.000
851.71	265.000
852.01	-1666.667
852.31	291.667
852.61	1900.000
852.90	285.714
853.20	248.000
853.50	382.353
853.79	304.762
854.09	233.333
854.39	368.750
854.68	178.378
854.98	200.000
855.28	183.333
855.57	241.379
855.87	218.519
856.17	263.158
856.46	260.000
856.76	329.412
857.05	203.448
857.35	225.000
857.65	320.000
857.94	269.565
858.24	242.308
858.53	285.000
858.83	254.545
859.13	373.333
859.42	0.000
859.72	777.778
860.01	454.545
860.31	286.364
860.60	305.263
860.90	282.609
861.20	577.778
861.49	583.333
861.79	-5000.000
862.08	662.500
862.38	295.238
862.67	284.615
862.97	370.588
863.26	544.444
863.56	294.444
863.85	433.333
864.15	600.000
864.44	426.667
864.74	883.333
865.03	700.000
865.33	315.789
865.62	463.636
865.92	484.615
866.21	358.333
866.51	0.000
866.80	509.091
867.10	1060.000
867.39	469.231
867.69	463.636
867.98	331.579
868.27	463.636
868.57	310.526
868.86	-4000.000
869.16	337.500
869.45	1950.000
869.75	-4900.000
870.04	491.667
870.33	642.857
870.63	1075.000
870.92	3200.000
871.22	742.857
871.51	376.471
871.80	219.048
872.10	357.143
>>>>>End Processed Spectral Data<<<<<
