SpectraSuite Data File
++++++++++++++++++++++++++++++++++++
Date: Tue May 12 19:42:37 PDT 2015
User: schluterlab
Dark Spectrum Present: Yes
Reference Spectrum Present: Yes
Number of Sampled Component Spectra: 1
Spectrometers: USB2E3373
Integration Time (usec): 3000 (USB2E3373)
Spectra Averaged: 3 (USB2E3373)
Boxcar Smoothing: 0 (USB2E3373)
Correct for Electrical Dark: No (USB2E3373)
Strobe/Lamp Enabled: No (USB2E3373)
Correct for Detector Non-linearity: No (USB2E3373)
Correct for Stray Light: No (USB2E3373)
Number of Pixels in Processed Spectrum: 2048
>>>>>Begin Processed Spectral Data<<<<<
178.53	0.000
178.91	-10.000
179.29	-100.000
179.67	266.667
180.04	0.000
180.42	-120.000
180.80	-33.333
181.18	950.000
181.56	-600.000
181.94	250.000
182.31	1000.000
182.69	-114.286
183.07	0.000
183.45	175.000
183.83	340.000
184.20	183.333
184.58	700.000
184.96	233.333
185.34	-400.000
185.72	-64.286
186.09	-116.667
186.47	-1600.000
186.85	-20.000
187.23	141.667
187.61	-42.857
187.98	-260.000
188.36	550.000
188.74	-25.000
189.12	-44.444
189.49	-60.000
189.87	275.000
190.25	133.333
190.63	666.667
191.00	160.000
191.38	-366.667
191.76	380.000
192.14	-57.143
192.51	-10.000
192.89	-160.000
193.27	-80.000
193.65	-366.667
194.02	-166.667
194.40	900.000
194.78	-87.500
195.15	-228.571
195.53	266.667
195.91	240.000
196.29	-175.000
196.66	-333.333
197.04	-314.286
197.42	140.000
197.79	-112.500
198.17	-91.667
198.55	400.000
198.92	-88.889
199.30	550.000
199.68	-150.000
200.05	-550.000
200.43	-38.889
200.81	-41.667
201.18	216.667
201.56	-500.000
201.94	-1500.000
202.31	-58.333
202.69	144.444
203.07	-33.333
203.44	-350.000
203.82	0.000
204.19	300.000
204.57	-433.333
204.95	145.455
205.32	320.000
205.70	250.000
206.08	-100.000
206.45	-60.000
206.83	1400.000
207.20	-33.333
207.58	-69.231
207.96	300.000
208.33	533.333
208.71	200.000
209.08	250.000
209.46	33.333
209.84	566.667
210.21	-466.667
210.59	600.000
210.96	222.222
211.34	-250.000
211.71	1050.000
212.09	-60.000
212.46	-225.000
212.84	-125.000
213.22	71.429
213.59	-125.000
213.97	0.000
214.34	-350.000
214.72	-300.000
215.09	550.000
215.47	40.000
215.84	-50.000
216.22	600.000
216.59	900.000
216.97	0.000
217.34	66.667
217.72	38.889
218.09	375.000
218.47	0.000
218.84	-200.000
219.22	-42.857
219.59	-50.000
219.97	-20.000
220.34	183.333
220.72	100.000
221.09	-300.000
221.47	0.000
221.84	200.000
222.22	-175.000
222.59	-50.000
222.97	0.000
223.34	100.000
223.72	385.714
224.09	50.000
224.46	138.462
224.84	-73.333
225.21	-50.000
225.59	-350.000
225.96	25.000
226.34	316.667
226.71	150.000
227.08	-61.538
227.46	-185.714
227.83	-58.333
228.21	-750.000
228.58	183.333
228.95	-5.263
229.33	62.500
229.70	-100.000
230.08	-44.444
230.45	-533.333
230.82	-700.000
231.20	-19.048
231.57	-260.000
231.95	-333.333
232.32	122.222
232.69	-750.000
233.07	37.500
233.44	0.000
233.81	25.806
234.19	-240.000
234.56	-83.333
234.93	-233.333
235.31	18.519
235.68	-29.630
236.05	-11.538
236.43	-15.789
236.80	22.727
237.17	-157.143
237.55	-75.000
237.92	20.930
238.29	-9.677
238.67	-17.857
239.04	-11.429
239.41	-17.647
239.79	6.000
240.16	-2.500
240.53	-10.345
240.91	-2.740
241.28	-12.676
241.65	-6.250
242.02	0.000
242.40	-16.000
242.77	-6.316
243.14	5.882
243.51	4.301
243.89	-5.714
244.26	2.778
244.63	-6.122
245.00	0.000
245.38	-15.126
245.75	-2.542
246.12	6.250
246.49	0.800
246.87	-11.475
247.24	-12.676
247.61	1.987
247.98	3.933
248.36	0.629
248.73	-2.841
249.10	0.000
249.47	1.042
249.84	-2.538
250.22	-9.896
250.59	-5.618
250.96	-0.909
251.33	0.943
251.70	0.917
252.08	0.866
252.45	-2.857
252.82	-2.532
253.19	3.891
253.56	1.176
253.94	-1.626
254.31	6.475
254.68	-0.347
255.05	3.311
255.42	0.364
255.79	-0.662
256.16	-1.736
256.54	3.333
256.91	3.526
257.28	1.299
257.65	-2.951
258.02	1.201
258.39	2.719
258.76	0.306
259.14	-0.882
259.51	4.507
259.88	2.882
260.25	-1.989
260.62	0.000
260.99	-0.279
261.36	1.149
261.73	0.267
262.10	1.090
262.47	2.755
262.85	4.884
263.22	-1.344
263.59	2.681
263.96	0.261
264.33	-1.617
264.70	-0.246
265.07	0.985
265.44	1.639
265.81	2.651
266.18	0.468
266.55	2.619
266.92	3.125
267.29	2.000
267.66	-1.136
268.03	2.366
268.40	1.373
268.77	0.223
269.14	1.050
269.51	0.452
269.88	3.205
270.25	0.422
270.62	2.941
270.99	0.632
271.36	-2.870
271.73	1.667
272.10	2.697
272.47	0.600
272.84	0.000
273.21	0.209
273.58	0.408
273.95	2.590
274.32	4.062
274.69	1.174
275.06	2.627
275.43	1.800
275.80	1.530
276.17	-0.593
276.54	3.992
276.91	2.111
277.28	2.128
277.65	0.567
278.02	0.947
278.39	3.085
278.76	3.724
279.13	4.472
279.50	0.542
279.87	2.075
280.23	2.914
280.60	-0.883
280.97	0.703
281.34	1.864
281.71	-1.066
282.08	1.431
282.45	1.411
282.82	1.515
283.19	1.347
283.56	2.730
283.92	2.212
284.29	1.354
284.66	1.947
285.03	-1.372
285.40	1.667
285.77	2.135
286.14	0.634
286.51	1.929
286.87	1.621
287.24	1.122
287.61	1.235
287.98	2.660
288.35	1.395
288.72	2.752
289.08	0.314
289.45	1.560
289.82	1.863
290.19	0.000
290.56	2.605
290.93	1.182
291.29	2.979
291.66	1.826
292.03	2.296
292.40	4.460
292.77	-0.146
293.13	2.496
293.50	1.791
293.87	1.248
294.24	1.404
294.60	1.503
294.97	0.831
295.34	1.507
295.71	0.832
296.08	0.410
296.44	2.240
296.81	1.552
297.18	3.493
297.55	1.508
297.91	2.665
298.28	1.151
298.65	1.035
299.02	2.096
299.38	0.255
299.75	3.089
300.12	1.679
300.48	1.408
300.85	1.467
301.22	1.322
301.59	1.095
301.95	1.951
302.32	0.972
302.69	-0.119
303.05	0.708
303.42	2.415
303.79	0.899
304.15	1.925
304.52	2.346
304.89	0.564
305.25	1.606
305.62	1.250
305.99	2.352
306.35	0.000
306.72	2.397
307.09	1.306
307.45	1.510
307.82	2.028
308.19	3.080
308.55	2.743
308.92	2.119
309.29	1.464
309.65	1.548
310.02	2.201
310.38	1.919
310.75	2.049
311.12	2.645
311.48	2.672
311.85	2.330
312.22	3.306
312.58	1.712
312.95	2.669
313.31	4.130
313.68	2.979
314.05	2.979
314.41	5.010
314.78	2.412
315.14	3.722
315.51	5.065
315.87	4.785
316.24	3.462
316.61	4.466
316.97	4.804
317.34	4.402
317.70	3.175
318.07	3.279
318.43	4.253
318.80	4.463
319.16	4.473
319.53	4.811
319.89	6.439
320.26	6.883
320.62	6.202
320.99	7.041
321.35	6.324
321.72	7.172
322.08	6.931
322.45	6.607
322.81	7.980
323.18	7.670
323.54	7.204
323.91	7.306
324.27	7.811
324.64	6.842
325.00	7.825
325.37	8.813
325.73	8.120
326.10	9.019
326.46	9.701
326.83	9.147
327.19	9.782
327.56	10.698
327.92	9.028
328.29	10.036
328.65	10.075
329.01	11.009
329.38	10.193
329.74	11.885
330.11	9.506
330.47	11.359
330.84	11.748
331.20	10.536
331.56	10.283
331.93	10.522
332.29	11.101
332.66	10.307
333.02	12.071
333.38	12.224
333.75	11.711
334.11	11.302
334.48	11.360
334.84	11.549
335.20	11.370
335.57	11.626
335.93	11.442
336.29	11.974
336.66	12.204
337.02	11.333
337.38	10.472
337.75	13.000
338.11	13.036
338.47	10.585
338.84	11.786
339.20	12.191
339.56	12.022
339.93	10.901
340.29	12.149
340.65	13.059
341.02	12.755
341.38	12.092
341.74	12.544
342.11	11.760
342.47	12.238
342.83	10.668
343.20	12.467
343.56	11.451
343.92	12.248
344.28	12.264
344.65	12.671
345.01	12.456
345.37	12.479
345.73	12.575
346.10	11.841
346.46	11.217
346.82	11.130
347.19	11.438
347.55	12.245
347.91	12.203
348.27	12.300
348.63	13.483
349.00	12.521
349.36	12.448
349.72	13.136
350.08	12.439
350.45	12.286
350.81	13.543
351.17	11.450
351.53	12.319
351.89	12.263
352.26	12.195
352.62	13.491
352.98	13.054
353.34	13.367
353.70	12.016
354.07	14.168
354.43	12.104
354.79	13.115
355.15	12.510
355.51	12.877
355.87	12.073
356.24	13.399
356.60	13.189
356.96	13.428
357.32	13.498
357.68	13.365
358.04	12.966
358.40	13.993
358.77	13.173
359.13	15.100
359.49	12.320
359.85	13.669
360.21	13.561
360.57	13.876
360.93	13.460
361.29	14.252
361.66	13.091
362.02	15.071
362.38	14.608
362.74	14.450
363.10	12.896
363.46	13.243
363.82	14.472
364.18	14.080
364.54	13.893
364.90	13.481
365.26	13.785
365.62	14.610
365.98	15.292
366.35	15.053
366.71	14.712
367.07	15.867
367.43	14.946
367.79	13.953
368.15	13.862
368.51	15.581
368.87	14.831
369.23	14.686
369.59	15.074
369.95	15.052
370.31	15.455
370.67	16.090
371.03	15.712
371.39	16.390
371.75	15.379
372.11	14.963
372.47	15.961
372.83	16.362
373.19	15.286
373.55	15.644
373.91	16.212
374.27	17.366
374.63	17.378
374.99	15.373
375.35	15.602
375.71	16.284
376.07	15.972
376.42	16.528
376.78	16.516
377.14	15.992
377.50	16.895
377.86	17.061
378.22	17.834
378.58	16.842
378.94	17.485
379.30	17.375
379.66	17.670
380.02	17.355
380.38	18.130
380.74	17.775
381.09	17.217
381.45	17.968
381.81	18.240
382.17	18.241
382.53	18.146
382.89	17.768
383.25	18.263
383.61	17.737
383.97	19.038
384.32	18.645
384.68	19.093
385.04	18.205
385.40	18.850
385.76	18.659
386.12	17.888
386.48	17.678
386.83	18.631
387.19	19.029
387.55	18.588
387.91	18.380
388.27	20.154
388.62	19.754
388.98	20.293
389.34	18.543
389.70	19.295
390.06	19.868
390.42	19.675
390.77	19.651
391.13	19.909
391.49	21.226
391.85	18.829
392.20	20.594
392.56	19.974
392.92	19.109
393.28	19.509
393.64	20.013
393.99	18.506
394.35	19.598
394.71	19.470
395.07	18.767
395.42	19.683
395.78	20.094
396.14	20.386
396.50	20.957
396.85	19.564
397.21	20.116
397.57	20.211
397.92	19.720
398.28	20.204
398.64	20.571
399.00	20.778
399.35	21.278
399.71	20.898
400.07	21.495
400.42	21.282
400.78	21.241
401.14	21.528
401.49	21.237
401.85	20.508
402.21	21.447
402.57	20.348
402.92	21.248
403.28	21.261
403.63	20.962
403.99	20.476
404.35	20.064
404.70	20.393
405.06	20.521
405.42	21.145
405.77	20.095
406.13	20.370
406.49	20.757
406.84	21.669
407.20	20.632
407.55	21.309
407.91	19.790
408.27	21.077
408.62	20.064
408.98	20.849
409.34	20.999
409.69	20.134
410.05	20.596
410.40	20.745
410.76	20.984
411.11	19.651
411.47	21.156
411.83	20.026
412.18	20.681
412.54	21.151
412.89	20.013
413.25	20.564
413.60	20.599
413.96	21.230
414.31	20.841
414.67	21.810
415.03	20.678
415.38	20.334
415.74	21.558
416.09	20.951
416.45	20.594
416.80	19.332
417.16	20.099
417.51	21.929
417.87	20.930
418.22	21.123
418.58	21.216
418.93	20.825
419.29	20.556
419.64	21.703
420.00	21.611
420.35	21.406
420.71	20.999
421.06	21.415
421.42	21.079
421.77	21.742
422.12	21.146
422.48	21.245
422.83	20.912
423.19	21.176
423.54	21.014
423.90	21.075
424.25	20.846
424.61	20.903
424.96	20.270
425.31	20.773
425.67	20.970
426.02	21.180
426.38	20.206
426.73	21.059
427.09	21.077
427.44	20.617
427.79	21.535
428.15	21.116
428.50	21.168
428.85	20.847
429.21	22.534
429.56	21.381
429.92	21.092
430.27	20.640
430.62	21.633
430.98	21.118
431.33	20.412
431.68	20.241
432.04	21.864
432.39	21.331
432.74	20.873
433.10	21.225
433.45	22.229
433.80	21.726
434.16	21.577
434.51	21.572
434.86	21.692
435.22	20.955
435.57	21.834
435.92	20.743
436.28	20.672
436.63	20.513
436.98	21.728
437.34	22.457
437.69	21.543
438.04	20.974
438.39	21.997
438.75	21.477
439.10	22.560
439.45	22.080
439.81	21.841
440.16	22.449
440.51	21.314
440.86	22.727
441.22	22.096
441.57	21.766
441.92	21.701
442.27	23.143
442.63	21.840
442.98	23.411
443.33	22.620
443.68	21.742
444.03	22.423
444.39	22.176
444.74	23.125
445.09	22.609
445.44	22.799
445.79	22.816
446.15	22.974
446.50	22.903
446.85	23.047
447.20	22.812
447.55	22.746
447.91	22.340
448.26	23.858
448.61	23.625
448.96	22.768
449.31	23.086
449.66	22.155
450.02	23.136
450.37	23.451
450.72	23.040
451.07	22.676
451.42	23.452
451.77	22.446
452.12	23.559
452.47	23.509
452.83	23.661
453.18	23.498
453.53	24.233
453.88	23.548
454.23	23.003
454.58	23.760
454.93	22.480
455.28	23.354
455.63	23.652
455.98	23.350
456.34	22.907
456.69	24.035
457.04	23.950
457.39	23.596
457.74	23.704
458.09	22.900
458.44	23.789
458.79	22.909
459.14	23.137
459.49	23.694
459.84	23.424
460.19	23.390
460.54	21.717
460.89	22.353
461.24	23.831
461.59	23.281
461.94	22.748
462.29	23.183
462.64	23.259
462.99	23.423
463.34	22.784
463.69	23.937
464.04	23.156
464.39	23.215
464.74	23.037
465.09	22.572
465.44	22.795
465.79	22.684
466.14	22.375
466.49	22.606
466.84	23.219
467.19	22.937
467.54	22.745
467.89	22.861
468.24	22.538
468.59	22.906
468.94	21.923
469.29	22.976
469.64	22.903
469.99	22.999
470.34	21.924
470.68	23.615
471.03	21.679
471.38	21.990
471.73	22.892
472.08	22.562
472.43	23.237
472.78	22.915
473.13	23.298
473.48	23.029
473.83	23.118
474.17	22.081
474.52	22.907
474.87	22.601
475.22	22.554
475.57	23.502
475.92	22.740
476.27	23.327
476.61	22.872
476.96	22.466
477.31	22.489
477.66	22.429
478.01	22.719
478.36	23.037
478.70	22.761
479.05	22.171
479.40	22.167
479.75	22.771
480.10	22.781
480.45	23.037
480.79	22.989
481.14	22.246
481.49	22.211
481.84	22.374
482.19	21.561
482.53	21.961
482.88	22.115
483.23	22.060
483.58	22.723
483.92	22.714
484.27	22.410
484.62	22.537
484.97	21.793
485.31	21.887
485.66	21.657
486.01	20.770
486.36	20.992
486.70	21.351
487.05	21.322
487.40	21.542
487.75	21.300
488.09	20.708
488.44	21.605
488.79	22.362
489.13	20.948
489.48	21.687
489.83	21.405
490.17	21.472
490.52	21.272
490.87	22.206
491.22	21.795
491.56	21.887
491.91	21.486
492.26	21.928
492.60	22.296
492.95	21.355
493.30	21.380
493.64	21.755
493.99	22.382
494.34	21.541
494.68	20.515
495.03	20.385
495.37	21.845
495.72	22.310
496.07	21.400
496.41	20.800
496.76	21.012
497.11	21.713
497.45	22.049
497.80	21.288
498.14	21.595
498.49	22.104
498.84	21.069
499.18	21.069
499.53	21.859
499.87	20.993
500.22	20.519
500.56	21.664
500.91	21.342
501.26	21.522
501.60	21.407
501.95	21.853
502.29	21.036
502.64	21.005
502.98	20.798
503.33	21.118
503.67	21.337
504.02	21.144
504.36	20.904
504.71	21.011
505.06	21.585
505.40	21.769
505.75	20.853
506.09	20.368
506.44	21.513
506.78	21.146
507.13	21.064
507.47	21.274
507.82	21.150
508.16	21.269
508.51	21.937
508.85	21.868
509.19	21.064
509.54	21.473
509.88	20.598
510.23	21.517
510.57	20.784
510.92	21.825
511.26	20.965
511.61	21.804
511.95	21.457
512.30	21.565
512.64	21.056
512.98	21.559
513.33	21.161
513.67	21.138
514.02	21.334
514.36	22.242
514.70	21.919
515.05	21.463
515.39	21.895
515.74	21.805
516.08	21.908
516.42	21.815
516.77	22.236
517.11	21.101
517.46	22.111
517.80	22.719
518.14	23.023
518.49	22.574
518.83	22.114
519.17	21.787
519.52	21.986
519.86	22.103
520.20	22.484
520.55	22.258
520.89	22.807
521.23	21.643
521.58	22.487
521.92	22.296
522.26	22.680
522.61	23.003
522.95	21.712
523.29	22.267
523.64	21.506
523.98	21.976
524.32	22.963
524.66	22.638
525.01	23.024
525.35	22.709
525.69	21.955
526.04	23.115
526.38	21.522
526.72	22.222
527.06	22.222
527.41	21.828
527.75	22.469
528.09	21.924
528.43	22.750
528.78	22.292
529.12	22.260
529.46	22.259
529.80	21.579
530.15	22.516
530.49	22.943
530.83	22.560
531.17	20.904
531.51	22.841
531.86	22.899
532.20	20.707
532.54	21.942
532.88	21.600
533.22	22.198
533.57	22.000
533.91	21.955
534.25	21.860
534.59	21.664
534.93	22.095
535.27	21.347
535.62	22.552
535.96	21.005
536.30	22.686
536.64	21.531
536.98	21.681
537.32	22.321
537.66	22.141
538.01	22.018
538.35	22.255
538.69	20.382
539.03	21.125
539.37	21.536
539.71	22.246
540.05	20.912
540.39	21.786
540.73	22.344
541.07	21.250
541.42	21.454
541.76	21.583
542.10	21.377
542.44	21.676
542.78	20.455
543.12	19.783
543.46	21.013
543.80	21.086
544.14	21.219
544.48	21.053
544.82	21.647
545.16	20.797
545.50	21.106
545.84	21.653
546.18	20.524
546.52	21.138
546.86	21.041
547.20	21.212
547.54	20.849
547.88	19.801
548.22	20.816
548.56	20.507
548.90	20.281
549.24	19.883
549.58	20.939
549.92	19.699
550.26	22.008
550.60	20.619
550.94	20.635
551.28	19.756
551.62	21.048
551.96	20.367
552.30	20.543
552.64	19.985
552.98	19.539
553.32	20.227
553.66	20.106
554.00	20.541
554.34	20.937
554.68	19.537
555.02	20.476
555.36	18.507
555.69	19.985
556.03	19.512
556.37	19.955
556.71	18.929
557.05	18.984
557.39	20.723
557.73	18.868
558.07	19.953
558.41	18.516
558.75	19.087
559.08	19.149
559.42	20.234
559.76	19.208
560.10	19.967
560.44	19.715
560.78	19.083
561.12	19.459
561.45	19.940
561.79	18.135
562.13	19.348
562.47	19.266
562.81	19.712
563.15	19.240
563.48	17.528
563.82	18.632
564.16	18.505
564.50	19.198
564.84	18.994
565.17	19.170
565.51	20.127
565.85	20.141
566.19	19.276
566.52	19.355
566.86	18.443
567.20	18.430
567.54	18.826
567.88	18.022
568.21	18.230
568.55	17.997
568.89	17.527
569.23	17.972
569.56	17.931
569.90	17.388
570.24	17.730
570.57	17.231
570.91	17.431
571.25	17.769
571.59	16.984
571.92	16.930
572.26	16.878
572.60	16.677
572.93	16.634
573.27	16.677
573.61	17.208
573.95	16.690
574.28	16.552
574.62	16.380
574.96	16.245
575.29	15.875
575.63	16.360
575.97	16.109
576.30	16.310
576.64	16.235
576.98	16.644
577.31	16.205
577.65	16.487
577.98	16.452
578.32	16.370
578.66	15.987
578.99	16.603
579.33	16.262
579.67	15.962
580.00	16.407
580.34	16.294
580.67	16.378
581.01	15.940
581.35	16.225
581.68	15.947
582.02	15.947
582.35	15.722
582.69	16.225
583.02	15.602
583.36	16.070
583.70	16.004
584.03	16.388
584.37	16.529
584.70	15.801
585.04	15.855
585.37	15.794
585.71	16.239
586.04	16.028
586.38	16.154
586.72	16.220
587.05	16.179
587.39	15.877
587.72	15.643
588.06	15.868
588.39	15.600
588.73	15.959
589.06	15.684
589.40	15.980
589.73	16.343
590.07	15.757
590.40	15.817
590.73	16.118
591.07	17.143
591.40	16.080
591.74	15.951
592.07	16.380
592.41	16.307
592.74	15.850
593.08	15.890
593.41	15.941
593.75	15.807
594.08	16.124
594.41	15.674
594.75	15.975
595.08	16.245
595.42	16.072
595.75	15.265
596.09	15.612
596.42	15.476
596.75	16.864
597.09	15.951
597.42	15.814
597.75	16.182
598.09	15.871
598.42	16.327
598.76	15.756
599.09	15.504
599.42	15.342
599.76	15.692
600.09	15.856
600.42	14.648
600.76	15.281
601.09	15.529
601.42	15.580
601.76	15.138
602.09	15.501
602.42	15.762
602.76	15.620
603.09	15.753
603.42	15.375
603.76	14.687
604.09	15.079
604.42	16.273
604.76	15.564
605.09	14.974
605.42	15.403
605.75	15.030
606.09	15.200
606.42	15.311
606.75	15.453
607.09	15.812
607.42	15.053
607.75	15.565
608.08	14.640
608.42	14.306
608.75	14.407
609.08	14.488
609.41	15.759
609.75	15.377
610.08	14.625
610.41	15.013
610.74	15.167
611.07	15.230
611.41	14.882
611.74	15.125
612.07	15.123
612.40	14.986
612.73	15.336
613.07	14.797
613.40	15.239
613.73	15.407
614.06	15.164
614.39	15.524
614.72	14.935
615.06	15.672
615.39	15.069
615.72	15.398
616.05	14.609
616.38	14.650
616.71	14.801
617.05	15.578
617.38	14.710
617.71	15.741
618.04	15.900
618.37	14.846
618.70	14.538
619.03	15.954
619.36	15.832
619.69	13.997
620.03	15.408
620.36	16.175
620.69	15.521
621.02	15.598
621.35	16.340
621.68	15.932
622.01	14.617
622.34	15.327
622.67	14.924
623.00	15.889
623.33	15.591
623.66	15.060
623.99	15.630
624.32	13.900
624.65	15.078
624.99	14.219
625.32	14.692
625.65	15.452
625.98	15.417
626.31	14.026
626.64	15.766
626.97	15.901
627.30	15.185
627.63	13.860
627.96	15.456
628.29	15.296
628.62	15.361
628.95	14.784
629.28	14.979
629.61	14.525
629.94	16.183
630.26	15.586
630.59	16.754
630.92	13.909
631.25	15.531
631.58	15.233
631.91	14.009
632.24	14.438
632.57	16.052
632.90	16.974
633.23	16.258
633.56	14.465
633.89	12.929
634.22	15.769
634.55	15.112
634.88	17.001
635.20	15.068
635.53	16.341
635.86	17.527
636.19	14.325
636.52	17.385
636.85	13.690
637.18	15.155
637.51	14.363
637.83	16.061
638.16	15.363
638.49	15.130
638.82	14.627
639.15	15.857
639.48	15.575
639.81	14.754
640.13	15.314
640.46	15.906
640.79	14.419
641.12	15.349
641.45	13.841
641.77	15.764
642.10	16.287
642.43	16.835
642.76	15.950
643.09	14.360
643.41	15.771
643.74	15.972
644.07	13.051
644.40	14.621
644.73	14.917
645.05	16.031
645.38	16.923
645.71	16.031
646.04	16.543
646.36	13.068
646.69	17.408
647.02	16.211
647.35	16.400
647.67	18.637
648.00	17.282
648.33	14.836
648.66	17.254
648.98	15.424
649.31	14.630
649.64	14.974
649.96	13.514
650.29	13.451
650.62	15.399
650.94	16.451
651.27	13.487
651.60	15.296
651.92	16.985
652.25	10.325
652.58	13.285
652.90	12.278
653.23	12.614
653.56	13.542
653.88	13.139
654.21	15.123
654.54	12.570
654.86	15.108
655.19	12.419
655.52	14.031
655.84	12.120
656.17	12.164
656.49	16.231
656.82	19.141
657.15	15.091
657.47	11.408
657.80	8.252
658.13	6.999
658.45	11.573
658.78	11.834
659.10	11.396
659.43	11.974
659.75	10.649
660.08	11.533
660.41	11.550
660.73	12.881
661.06	11.455
661.38	14.919
661.71	18.162
662.03	14.583
662.36	11.933
662.68	14.388
663.01	13.942
663.33	16.038
663.66	14.354
663.98	15.159
664.31	12.927
664.63	16.743
664.96	13.064
665.28	14.421
665.61	15.187
665.93	15.438
666.26	14.570
666.58	14.220
666.91	15.925
667.23	15.764
667.56	14.321
667.88	13.534
668.21	12.437
668.53	14.213
668.86	13.520
669.18	10.152
669.50	19.537
669.83	12.000
670.15	10.500
670.48	13.033
670.80	14.213
671.13	14.217
671.45	14.796
671.77	14.251
672.10	12.967
672.42	11.753
672.75	12.427
673.07	15.140
673.39	14.591
673.72	12.810
674.04	15.532
674.37	14.319
674.69	13.785
675.01	18.140
675.34	13.235
675.66	11.190
675.98	14.141
676.31	11.083
676.63	10.052
676.95	10.552
677.28	12.376
677.60	15.789
677.92	15.539
678.25	10.905
678.57	9.513
678.89	6.651
679.22	10.550
679.54	12.027
679.86	15.203
680.18	12.134
680.51	11.294
680.83	11.458
681.15	13.508
681.48	12.979
681.80	11.739
682.12	14.133
682.44	9.914
682.77	13.182
683.09	11.520
683.41	17.544
683.73	11.055
684.06	12.183
684.38	11.990
684.70	13.164
685.02	9.957
685.34	7.741
685.67	11.265
685.99	12.375
686.31	12.313
686.63	11.845
686.96	10.569
687.28	13.963
687.60	11.704
687.92	9.072
688.24	14.105
688.56	10.769
688.89	14.384
689.21	10.698
689.53	11.509
689.85	11.646
690.17	11.275
690.49	13.882
690.82	10.319
691.14	12.533
691.46	13.250
691.78	12.201
692.10	13.761
692.42	13.303
692.74	11.848
693.06	13.253
693.39	10.837
693.71	11.395
694.03	11.836
694.35	10.149
694.67	15.013
694.99	10.512
695.31	12.748
695.63	9.459
695.95	14.607
696.27	15.297
696.59	13.353
696.91	11.681
697.23	13.181
697.56	10.104
697.88	9.602
698.20	7.990
698.52	11.298
698.84	11.278
699.16	13.193
699.48	12.565
699.80	10.440
700.12	10.193
700.44	7.670
700.76	12.934
701.08	11.111
701.40	13.158
701.72	14.333
702.04	9.864
702.36	11.148
702.68	14.430
703.00	13.249
703.32	6.587
703.64	12.934
703.96	8.544
704.28	7.042
704.60	11.301
704.91	8.553
705.23	7.719
705.55	7.063
705.87	9.353
706.19	6.375
706.51	7.031
706.83	10.989
707.15	11.525
707.47	11.677
707.79	12.321
708.11	10.847
708.43	14.400
708.74	10.929
709.06	10.123
709.38	13.947
709.70	8.442
710.02	9.441
710.34	4.965
710.66	11.236
710.98	7.343
711.29	12.027
711.61	8.511
711.93	10.487
712.25	9.434
712.57	8.203
712.89	13.469
713.20	11.290
713.52	6.504
713.84	16.423
714.16	12.838
714.48	11.604
714.80	14.478
715.11	14.433
715.43	9.898
715.75	11.579
716.07	8.364
716.39	12.287
716.70	9.200
717.02	7.661
717.34	12.121
717.66	8.182
717.97	10.648
718.29	7.556
718.61	8.559
718.93	8.824
719.24	7.950
719.56	9.375
719.88	10.588
720.20	6.838
720.51	7.895
720.83	12.971
721.15	8.980
721.46	8.861
721.78	11.255
722.10	12.016
722.42	9.565
722.73	9.955
723.05	5.530
723.37	6.335
723.68	9.005
724.00	9.722
724.32	14.019
724.63	14.932
724.95	2.740
725.27	9.859
725.58	10.502
725.90	4.505
726.22	7.860
726.53	11.885
726.85	7.778
727.16	10.526
727.48	9.274
727.80	7.306
728.11	8.889
728.43	6.173
728.74	7.456
729.06	9.170
729.38	12.016
729.69	7.200
730.01	9.205
730.32	6.773
730.64	14.615
730.96	7.336
731.27	5.019
731.59	7.744
731.90	9.539
732.22	10.963
732.53	6.316
732.85	2.113
733.16	12.821
733.48	4.851
733.80	9.818
734.11	9.929
734.43	10.469
734.74	8.100
735.06	13.505
735.37	8.307
735.69	2.465
736.00	5.185
736.32	9.441
736.63	11.111
736.95	5.447
737.26	9.783
737.58	4.380
737.89	7.925
738.21	9.160
738.52	9.836
738.83	5.556
739.15	8.636
739.46	6.306
739.78	7.336
740.09	8.730
740.41	12.879
740.72	7.968
741.04	11.067
741.35	7.623
741.66	8.602
741.98	5.612
742.29	8.808
742.61	5.202
742.92	9.804
743.23	9.950
743.55	7.254
743.86	12.560
744.18	7.000
744.49	10.556
744.80	13.441
745.12	5.641
745.43	5.882
745.74	6.952
746.06	14.368
746.37	-2.778
746.68	10.270
747.00	1.657
747.31	10.471
747.62	8.947
747.94	7.547
748.25	14.286
748.56	11.111
748.88	9.290
749.19	14.508
749.50	6.471
749.82	13.000
750.13	10.680
750.44	3.004
750.75	8.000
751.07	6.276
751.38	3.516
751.69	12.698
752.01	7.983
752.32	7.025
752.63	3.493
752.94	10.800
753.26	5.479
753.57	9.479
753.88	5.116
754.19	4.405
754.51	3.347
754.82	7.500
755.13	0.442
755.44	10.390
755.75	7.631
756.07	6.009
756.38	10.879
756.69	10.566
757.00	7.092
757.31	12.457
757.63	7.843
757.94	6.667
758.25	6.548
758.56	8.649
758.87	10.119
759.18	12.150
759.50	11.744
759.81	6.178
760.12	7.117
760.43	9.635
760.74	8.683
761.05	7.372
761.36	9.792
761.67	11.550
761.99	7.358
762.30	10.909
762.61	13.415
762.92	10.222
763.23	10.698
763.54	6.599
763.85	9.050
764.16	2.174
764.47	8.696
764.78	6.855
765.10	6.693
765.41	12.040
765.72	6.020
766.03	8.361
766.34	8.333
766.65	8.203
766.96	8.000
767.27	11.173
767.58	11.950
767.89	6.494
768.20	5.405
768.51	9.195
768.82	-1.250
769.13	9.722
769.44	7.075
769.75	8.333
770.06	5.340
770.37	4.255
770.68	5.641
770.99	7.614
771.30	2.062
771.61	5.830
771.92	7.075
772.23	11.058
772.54	5.882
772.85	4.110
773.16	0.645
773.47	5.732
773.78	11.377
774.09	3.289
774.39	5.882
774.70	12.030
775.01	10.000
775.32	0.794
775.63	1.575
775.94	4.717
776.25	8.148
776.56	0.909
776.87	6.838
777.18	5.000
777.48	-1.923
777.79	12.963
778.10	1.887
778.41	1.961
778.72	7.547
779.03	-0.877
779.34	0.840
779.65	2.817
779.95	-1.439
780.26	6.452
780.57	8.696
780.88	10.092
781.19	-2.778
781.50	0.820
781.80	11.679
782.11	8.333
782.42	-2.759
782.73	10.490
783.04	1.600
783.34	0.000
783.65	-1.626
783.96	8.197
784.27	1.681
784.57	2.804
784.88	2.679
785.19	6.186
785.50	4.211
785.81	0.000
786.11	-6.931
786.42	-29.412
786.73	7.292
787.04	-7.143
787.34	9.259
787.65	14.151
787.96	-10.309
788.26	2.970
788.57	6.957
788.88	2.752
789.19	0.000
789.49	0.000
789.80	9.483
790.11	-4.878
790.41	6.742
790.72	4.651
791.03	-4.651
791.33	-19.481
791.64	2.439
791.95	-12.195
792.25	-10.843
792.56	-3.704
792.87	-4.225
793.17	8.434
793.48	5.882
793.79	0.000
794.09	-18.333
794.40	1.087
794.70	-6.087
795.01	3.670
795.32	4.724
795.62	-6.863
795.93	0.980
796.23	3.030
796.54	-5.814
796.85	2.899
797.15	0.000
797.46	1.695
797.76	-1.639
798.07	3.947
798.37	-8.065
798.68	-7.812
798.99	7.692
799.29	-12.121
799.60	2.899
799.90	1.429
800.21	-12.281
800.51	0.000
800.82	-16.981
801.12	-21.569
801.43	-11.290
801.73	0.000
802.04	-4.000
802.34	-7.547
802.65	15.789
802.95	0.000
803.26	11.321
803.56	-3.279
803.87	2.000
804.17	-5.556
804.48	21.154
804.78	-24.490
805.09	-2.128
805.39	15.254
805.70	-29.167
806.00	-21.429
806.30	3.390
806.61	-3.077
806.91	-4.615
807.22	-7.895
807.52	-4.286
807.83	-15.517
808.13	11.392
808.43	-1.639
808.74	-6.557
809.04	14.865
809.35	-3.704
809.65	0.000
809.95	-6.780
810.26	-30.612
810.56	7.547
810.86	15.686
811.17	13.514
811.47	-51.852
811.77	3.922
812.08	0.000
812.38	-12.500
812.69	-10.256
812.99	11.905
813.29	17.391
813.59	2.857
813.90	19.048
814.20	-3.636
814.50	-14.286
814.81	-37.255
815.11	-4.167
815.41	-4.878
815.72	-38.462
816.02	-8.511
816.32	25.000
816.62	-12.121
816.93	-18.182
817.23	-5.405
817.53	-17.647
817.84	40.000
818.14	-55.882
818.44	-37.500
818.74	-47.619
819.04	-17.143
819.35	-11.429
819.65	-13.636
819.95	10.256
820.25	-33.333
820.56	-48.276
820.86	-28.571
821.16	-73.913
821.46	-19.048
821.76	18.519
822.07	-21.739
822.37	4.082
822.67	-25.581
822.97	-43.478
823.27	-38.462
823.57	-22.222
823.88	-25.000
824.18	-41.026
824.48	-17.857
824.78	-18.182
825.08	-93.333
825.38	2.500
825.69	-127.778
825.99	0.000
826.29	24.444
826.59	-18.519
826.89	-14.815
827.19	-50.000
827.49	-27.273
827.79	-77.273
828.09	-72.727
828.39	-69.565
828.70	-40.741
829.00	-32.143
829.30	7.143
829.60	-12.903
829.90	-53.846
830.20	5.128
830.50	-40.909
830.80	-47.619
831.10	-22.222
831.40	-114.286
831.70	-25.926
832.00	-41.176
832.30	8.696
832.60	-37.500
832.90	-100.000
833.20	-61.111
833.50	28.125
833.80	3.846
834.10	20.000
834.40	25.000
834.70	-40.909
835.00	11.538
835.30	-75.000
835.60	-220.000
835.90	-55.000
836.20	0.000
836.50	-8.696
836.80	-38.889
837.10	-13.333
837.40	-130.000
837.70	13.043
838.00	-7.143
838.30	1800.000
838.60	32.000
838.90	-160.000
839.19	11.111
839.49	-800.000
839.79	11.765
840.09	-44.444
840.39	3.571
840.69	-127.778
840.99	-58.333
841.29	-20.690
841.59	-53.333
841.88	-54.545
842.18	-250.000
842.48	-81.250
842.78	-23.077
843.08	-47.059
843.38	-50.000
843.68	-7.692
843.97	-58.824
844.27	-20.000
844.57	-4.167
844.87	-63.636
845.17	-89.474
845.47	-61.111
845.76	16.667
846.06	-47.619
846.36	-100.000
846.66	-222.222
846.96	-25.000
847.25	-100.000
847.55	-112.500
847.85	-113.333
848.15	-250.000
848.44	-42.105
848.74	-13.333
849.04	-47.368
849.34	333.333
849.63	-16.667
849.93	-29.412
850.23	-45.455
850.53	-300.000
850.82	-80.000
851.12	-166.667
851.42	-242.857
851.71	-80.000
852.01	-14.286
852.31	-100.000
852.61	-7.692
852.90	-100.000
853.20	-211.111
853.50	-177.778
853.79	-130.000
854.09	-50.000
854.39	-78.947
854.68	-45.000
854.98	-525.000
855.28	-11.111
855.57	-78.571
855.87	-52.632
856.17	-43.750
856.46	3.846
856.76	-20.000
857.05	-43.750
857.35	4.167
857.65	-50.000
857.94	12.500
858.24	-13.043
858.53	-150.000
858.83	-500.000
859.13	-109.091
859.42	-110.000
859.72	233.333
860.01	0.000
860.31	-150.000
860.60	-250.000
860.90	-150.000
861.20	-116.667
861.49	-350.000
861.79	700.000
862.08	38.710
862.38	-52.632
862.67	15.385
862.97	-110.000
863.26	16.667
863.56	-17.391
863.85	-116.667
864.15	-57.143
864.44	-31.250
864.74	-100.000
865.03	-44.444
865.33	-166.667
865.62	-2200.000
865.92	-650.000
866.21	-133.333
866.51	-36.364
866.80	-100.000
867.10	-285.714
867.39	0.000
867.69	-100.000
867.98	260.000
868.27	-275.000
868.57	375.000
868.86	-93.333
869.16	-46.154
869.45	1050.000
869.75	-133.333
870.04	-50.000
870.33	11.765
870.63	14.286
870.92	26.087
871.22	-112.500
871.51	460.000
871.80	-37.500
872.10	-66.667
>>>>>End Processed Spectral Data<<<<<
