SpectraSuite Data File
++++++++++++++++++++++++++++++++++++
Date: Wed May 13 19:56:45 PDT 2015
User: schluterlab
Dark Spectrum Present: Yes
Reference Spectrum Present: Yes
Number of Sampled Component Spectra: 1
Spectrometers: USB2E3373
Integration Time (usec): 3000 (USB2E3373)
Spectra Averaged: 3 (USB2E3373)
Boxcar Smoothing: 0 (USB2E3373)
Correct for Electrical Dark: No (USB2E3373)
Strobe/Lamp Enabled: No (USB2E3373)
Correct for Detector Non-linearity: No (USB2E3373)
Correct for Stray Light: No (USB2E3373)
Number of Pixels in Processed Spectrum: 2048
>>>>>Begin Processed Spectral Data<<<<<
178.53	0.000
178.91	-1300.000
179.29	-1250.000
179.67	-238.889
180.04	-1375.000
180.42	2700.000
180.80	1040.000
181.18	-900.000
181.56	728.571
181.94	0.000
182.31	-628.571
182.69	1666.667
183.07	-550.000
183.45	-544.444
183.83	581.818
184.20	-370.000
184.58	2250.000
184.96	5500.000
185.34	-780.000
185.72	-650.000
186.09	-2550.000
186.47	2300.000
186.85	2300.000
187.23	4200.000
187.61	-1600.000
187.98	1200.000
188.36	527.273
188.74	490.909
189.12	-780.000
189.49	590.000
189.87	-5300.000
190.25	-1075.000
190.63	435.714
191.00	400.000
191.38	900.000
191.76	-1250.000
192.14	1475.000
192.51	737.500
192.89	1000.000
193.27	637.500
193.65	-1325.000
194.02	550.000
194.40	760.000
194.78	440.000
195.15	491.667
195.53	690.000
195.91	-2700.000
196.29	356.250
196.66	342.105
197.04	-390.000
197.42	0.000
197.79	590.000
198.17	-4900.000
198.55	785.714
198.92	700.000
199.30	920.000
199.68	0.000
200.05	327.778
200.43	828.571
200.81	4300.000
201.18	1733.333
201.56	-1533.333
201.94	666.667
202.31	633.333
202.69	433.333
203.07	560.000
203.44	0.000
203.82	1300.000
204.19	857.143
204.57	514.286
204.95	562.500
205.32	1433.333
205.70	490.909
206.08	371.429
206.45	2550.000
206.83	375.000
207.20	916.667
207.58	900.000
207.96	300.000
208.33	662.500
208.71	-933.333
209.08	757.143
209.46	555.556
209.84	509.091
210.21	-1600.000
210.59	1550.000
210.96	-375.000
211.34	3250.000
211.71	610.000
212.09	766.667
212.46	0.000
212.84	1866.667
213.22	1125.000
213.59	-4100.000
213.97	850.000
214.34	842.857
214.72	581.818
215.09	860.000
215.47	-2450.000
215.84	-2550.000
216.22	1566.667
216.59	464.286
216.97	1425.000
217.34	490.909
217.72	-783.333
218.09	0.000
218.47	-4900.000
218.84	700.000
219.22	771.429
219.59	1766.667
219.97	-628.571
220.34	880.000
220.72	-1566.667
221.09	428.571
221.47	1500.000
221.84	-1033.333
222.22	0.000
222.59	1600.000
222.97	-2750.000
223.34	1240.000
223.72	453.846
224.09	1160.000
224.46	2650.000
224.84	-5400.000
225.21	-1140.000
225.59	-5200.000
225.96	580.000
226.34	310.000
226.71	2800.000
227.08	637.500
227.46	590.000
227.83	-1225.000
228.21	-2750.000
228.58	611.111
228.95	-2300.000
229.33	-2450.000
229.70	1600.000
230.08	700.000
230.45	-1080.000
230.82	425.000
231.20	900.000
231.57	800.000
231.95	475.000
232.32	259.091
232.69	490.909
233.07	614.286
233.44	384.615
233.81	-1800.000
234.19	378.947
234.56	491.667
234.93	483.333
235.31	463.636
235.68	300.000
236.05	450.000
236.43	203.030
236.80	289.474
237.17	5300.000
237.55	257.143
237.92	239.286
238.29	280.952
238.67	206.452
239.04	237.931
239.41	211.111
239.79	141.304
240.16	180.952
240.53	168.182
240.91	168.627
241.28	160.000
241.65	182.000
242.02	134.783
242.40	150.000
242.77	143.333
243.14	107.527
243.51	113.483
243.89	105.882
244.26	103.333
244.63	96.774
245.00	108.511
245.38	100.000
245.75	99.065
246.12	99.083
246.49	93.431
246.87	100.000
247.24	96.154
247.61	90.714
247.98	92.810
248.36	87.162
248.73	92.357
249.10	91.083
249.47	77.401
249.84	88.235
250.22	81.818
250.59	85.207
250.96	87.374
251.33	84.360
251.70	87.624
252.08	82.857
252.45	73.543
252.82	83.478
253.19	80.000
253.56	73.725
253.94	79.668
254.31	76.953
254.68	79.231
255.05	74.908
255.42	78.862
255.79	75.735
256.16	79.422
256.54	73.145
256.91	76.157
257.28	72.662
257.65	77.228
258.02	71.739
258.39	74.763
258.76	69.565
259.14	70.833
259.51	67.781
259.88	70.497
260.25	75.831
260.62	71.965
260.99	78.882
261.36	72.372
261.73	72.206
262.10	74.419
262.47	74.930
262.85	73.816
263.22	67.806
263.59	72.650
263.96	66.758
264.33	67.624
264.70	68.947
265.07	68.031
265.44	70.455
265.81	69.100
266.18	74.623
266.55	69.756
266.92	71.744
267.29	69.213
267.66	70.413
268.03	67.045
268.40	72.664
268.77	69.928
269.14	67.342
269.51	66.366
269.88	69.231
270.25	69.526
270.62	66.292
270.99	67.527
271.36	67.597
271.73	71.028
272.10	67.609
272.47	70.108
272.84	65.801
273.21	65.409
273.58	68.777
273.95	66.457
274.32	63.430
274.69	68.308
275.06	62.402
275.43	67.021
275.80	65.731
276.17	65.580
276.54	65.281
276.91	65.613
277.28	63.867
277.65	62.282
278.02	66.046
278.39	65.234
278.76	62.364
279.13	67.170
279.50	63.128
279.87	64.542
280.23	65.669
280.60	62.669
280.97	63.216
281.34	63.363
281.71	61.273
282.08	63.724
282.45	61.818
282.82	62.700
283.19	62.210
283.56	61.228
283.92	59.729
284.29	64.021
284.66	62.069
285.03	58.409
285.40	62.500
285.77	60.774
286.14	60.794
286.51	61.333
286.87	61.709
287.24	57.655
287.61	59.390
287.98	57.468
288.35	55.626
288.72	57.165
289.08	55.399
289.45	58.649
289.82	58.049
290.19	56.672
290.56	56.815
290.93	53.625
291.29	53.988
291.66	54.867
292.03	56.977
292.40	53.157
292.77	52.367
293.13	51.493
293.50	53.936
293.87	52.444
294.24	50.370
294.60	50.655
294.97	50.727
295.34	52.609
295.71	50.710
296.08	48.006
296.44	50.206
296.81	48.481
297.18	50.949
297.55	46.702
297.91	48.945
298.28	51.138
298.65	47.258
299.02	50.593
299.38	47.809
299.75	45.148
300.12	47.126
300.48	45.625
300.85	46.609
301.22	47.261
301.59	46.717
301.95	46.599
302.32	47.240
302.69	44.325
303.05	45.212
303.42	45.802
303.79	44.394
304.15	44.755
304.52	44.264
304.89	43.670
305.25	43.735
305.62	43.941
305.99	44.864
306.35	44.072
306.72	44.731
307.09	44.506
307.45	44.257
307.82	42.969
308.19	43.488
308.55	43.689
308.92	43.394
309.29	41.499
309.65	42.100
310.02	41.755
310.38	41.720
310.75	43.717
311.12	42.272
311.48	41.797
311.85	42.662
312.22	41.831
312.58	40.125
312.95	41.394
313.31	39.320
313.68	43.347
314.05	42.209
314.41	42.211
314.78	40.987
315.14	40.814
315.51	41.401
315.87	42.475
316.24	40.218
316.61	40.448
316.97	40.607
317.34	40.215
317.70	41.300
318.07	42.156
318.43	41.683
318.80	41.987
319.16	41.525
319.53	39.962
319.89	41.333
320.26	41.100
320.62	41.369
320.99	41.313
321.35	40.303
321.72	42.813
322.08	41.165
322.45	41.393
322.81	40.601
323.18	40.848
323.54	40.538
323.91	40.849
324.27	40.153
324.64	40.075
325.00	38.954
325.37	41.583
325.73	40.395
326.10	40.688
326.46	39.964
326.83	41.070
327.19	39.283
327.56	39.808
327.92	40.595
328.29	40.905
328.65	39.779
329.01	40.433
329.38	39.038
329.74	39.335
330.11	40.905
330.47	40.404
330.84	39.798
331.20	38.980
331.56	40.550
331.93	39.907
332.29	38.154
332.66	39.381
333.02	39.671
333.38	39.837
333.75	39.394
334.11	39.146
334.48	38.332
334.84	40.257
335.20	40.091
335.57	39.438
335.93	39.107
336.29	38.828
336.66	40.216
337.02	37.466
337.38	40.370
337.75	39.127
338.11	38.854
338.47	38.582
338.84	39.780
339.20	38.349
339.56	40.146
339.93	37.909
340.29	37.953
340.65	37.611
341.02	38.394
341.38	38.879
341.74	36.842
342.11	37.817
342.47	38.238
342.83	38.014
343.20	36.190
343.56	37.995
343.92	37.544
344.28	37.245
344.65	36.715
345.01	36.869
345.37	38.508
345.73	37.479
346.10	37.681
346.46	37.458
346.82	37.479
347.19	36.508
347.55	37.521
347.91	37.702
348.27	37.223
348.63	36.873
349.00	36.812
349.36	37.438
349.72	36.488
350.08	35.656
350.45	36.941
350.81	36.881
351.17	36.143
351.53	36.036
351.89	34.983
352.26	37.096
352.62	37.771
352.98	36.467
353.34	36.237
353.70	35.106
354.07	34.839
354.43	35.873
354.79	35.076
355.15	35.515
355.51	37.010
355.87	35.918
356.24	35.261
356.60	35.605
356.96	36.042
357.32	36.468
357.68	36.457
358.04	36.025
358.40	36.263
358.77	35.446
359.13	34.886
359.49	35.294
359.85	34.683
360.21	35.646
360.57	35.953
360.93	35.231
361.29	33.711
361.66	34.056
362.02	34.478
362.38	34.144
362.74	34.821
363.10	34.345
363.46	34.409
363.82	34.467
364.18	33.847
364.54	34.695
364.90	35.127
365.26	34.559
365.62	34.551
365.98	34.916
366.35	33.739
366.71	33.767
367.07	33.139
367.43	35.051
367.79	34.118
368.15	33.836
368.51	33.576
368.87	33.833
369.23	34.967
369.59	34.902
369.95	34.044
370.31	34.473
370.67	33.116
371.03	34.232
371.39	33.746
371.75	34.338
372.11	32.504
372.47	34.091
372.83	33.934
373.19	32.803
373.55	35.403
373.91	34.242
374.27	32.440
374.63	33.382
374.99	33.616
375.35	33.217
375.71	32.762
376.07	32.990
376.42	33.563
376.78	33.333
377.14	32.429
377.50	33.775
377.86	32.380
378.22	32.680
378.58	31.892
378.94	33.375
379.30	32.952
379.66	32.043
380.02	33.231
380.38	32.301
380.74	32.353
381.09	33.068
381.45	33.128
381.81	32.002
382.17	32.357
382.53	32.327
382.89	33.272
383.25	32.083
383.61	33.333
383.97	32.458
384.32	32.127
384.68	31.970
385.04	32.084
385.40	31.331
385.76	31.327
386.12	31.023
386.48	32.788
386.83	31.944
387.19	32.529
387.55	32.653
387.91	32.648
388.27	31.760
388.62	32.329
388.98	31.818
389.34	31.790
389.70	32.495
390.06	31.812
390.42	32.685
390.77	31.679
391.13	32.865
391.49	31.916
391.85	32.209
392.20	31.609
392.56	31.439
392.92	31.666
393.28	31.302
393.64	30.875
393.99	32.193
394.35	31.576
394.71	31.179
395.07	31.028
395.42	31.273
395.78	31.234
396.14	30.975
396.50	31.830
396.85	31.914
397.21	31.319
397.57	31.432
397.92	31.070
398.28	30.774
398.64	30.645
399.00	31.729
399.35	30.626
399.71	30.498
400.07	30.633
400.42	31.350
400.78	31.544
401.14	30.976
401.49	31.403
401.85	31.397
402.21	30.299
402.57	31.462
402.92	31.463
403.28	30.731
403.63	31.436
403.99	30.701
404.35	31.333
404.70	30.695
405.06	30.052
405.42	31.192
405.77	29.886
406.13	30.361
406.49	29.805
406.84	31.364
407.20	30.437
407.55	30.887
407.91	31.133
408.27	31.589
408.62	30.343
408.98	30.882
409.34	30.566
409.69	29.548
410.05	31.289
410.40	31.988
410.76	30.645
411.11	29.493
411.47	30.224
411.83	30.360
412.18	30.674
412.54	30.635
412.89	31.566
413.25	30.342
413.60	30.883
413.96	30.115
414.31	30.073
414.67	30.545
415.03	30.000
415.38	31.572
415.74	30.032
416.09	30.830
416.45	30.455
416.80	30.866
417.16	30.697
417.51	31.918
417.87	30.122
418.22	30.221
418.58	31.762
418.93	30.713
419.29	30.172
419.64	30.668
420.00	30.732
420.35	30.841
420.71	31.082
421.06	30.370
421.42	29.942
421.77	30.157
422.12	29.534
422.48	29.304
422.83	30.635
423.19	30.221
423.54	29.948
423.90	30.899
424.25	28.978
424.61	29.524
424.96	30.554
425.31	30.066
425.67	29.775
426.02	30.000
426.38	30.586
426.73	29.901
427.09	30.395
427.44	29.730
427.79	29.787
428.15	30.655
428.50	30.310
428.85	30.215
429.21	29.597
429.56	29.860
429.92	30.196
430.27	29.494
430.62	29.339
430.98	29.839
431.33	29.330
431.68	29.948
432.04	29.606
432.39	29.526
432.74	30.401
433.10	29.825
433.45	29.971
433.80	29.767
434.16	30.449
434.51	29.632
434.86	29.190
435.22	29.461
435.57	30.881
435.92	29.666
436.28	30.071
436.63	30.740
436.98	30.395
437.34	30.352
437.69	30.338
438.04	29.511
438.39	30.627
438.75	30.331
439.10	29.944
439.45	30.579
439.81	29.547
440.16	29.362
440.51	30.287
440.86	30.863
441.22	30.200
441.57	30.414
441.92	29.632
442.27	29.548
442.63	29.384
442.98	30.141
443.33	29.239
443.68	29.633
444.03	30.551
444.39	29.406
444.74	30.141
445.09	29.811
445.44	29.579
445.79	30.381
446.15	29.381
446.50	29.779
446.85	28.726
447.20	29.628
447.55	29.927
447.91	29.675
448.26	29.716
448.61	29.226
448.96	30.122
449.31	30.484
449.66	29.432
450.02	29.638
450.37	29.365
450.72	30.118
451.07	29.129
451.42	27.964
451.77	30.123
452.12	28.984
452.47	30.908
452.83	30.012
453.18	30.012
453.53	29.746
453.88	29.238
454.23	30.424
454.58	30.164
454.93	30.451
455.28	30.611
455.63	30.583
455.98	30.714
456.34	30.151
456.69	30.432
457.04	30.217
457.39	30.333
457.74	29.948
458.09	29.845
458.44	30.103
458.79	28.742
459.14	30.643
459.49	30.006
459.84	30.249
460.19	29.994
460.54	28.588
460.89	30.170
461.24	30.055
461.59	29.518
461.94	29.285
462.29	30.208
462.64	29.866
462.99	28.757
463.34	29.333
463.69	29.894
464.04	30.841
464.39	29.507
464.74	29.649
465.09	28.890
465.44	29.197
465.79	29.866
466.14	29.283
466.49	29.422
466.84	29.247
467.19	29.270
467.54	30.250
467.89	28.752
468.24	29.552
468.59	29.853
468.94	28.406
469.29	30.141
469.64	30.254
469.99	29.973
470.34	29.326
470.68	29.526
471.03	28.912
471.38	30.090
471.73	28.714
472.08	30.395
472.43	29.020
472.78	28.769
473.13	29.461
473.48	29.463
473.83	29.329
474.17	29.371
474.52	29.218
474.87	29.422
475.22	29.367
475.57	28.694
475.92	29.102
476.27	27.959
476.61	28.682
476.96	28.477
477.31	28.048
477.66	29.595
478.01	28.646
478.36	28.874
478.70	27.778
479.05	28.647
479.40	28.864
479.75	28.266
480.10	27.982
480.45	28.367
480.79	27.950
481.14	28.474
481.49	28.714
481.84	27.343
482.19	27.669
482.53	28.394
482.88	28.199
483.23	28.972
483.58	28.207
483.92	27.835
484.27	27.582
484.62	27.069
484.97	27.395
485.31	28.836
485.66	28.343
486.01	28.500
486.36	27.635
486.70	27.105
487.05	27.289
487.40	27.630
487.75	26.917
488.09	27.722
488.44	27.185
488.79	27.378
489.13	27.311
489.48	27.284
489.83	27.320
490.17	28.146
490.52	27.236
490.87	27.499
491.22	27.876
491.56	27.016
491.91	28.106
492.26	27.056
492.60	27.696
492.95	26.707
493.30	27.150
493.64	27.252
493.99	27.623
494.34	27.567
494.68	27.244
495.03	28.008
495.37	27.129
495.72	28.119
496.07	27.471
496.41	26.814
496.76	27.353
497.11	27.645
497.45	27.014
497.80	27.207
498.14	26.763
498.49	27.122
498.84	27.804
499.18	27.333
499.53	27.635
499.87	27.773
500.22	27.979
500.56	28.252
500.91	27.308
501.26	26.743
501.60	28.002
501.95	26.489
502.29	28.163
502.64	27.514
502.98	27.536
503.33	26.828
503.67	27.100
504.02	27.643
504.36	27.422
504.71	27.308
505.06	26.699
505.40	27.078
505.75	27.146
506.09	27.745
506.44	27.775
506.78	27.521
507.13	28.016
507.47	27.273
507.82	27.508
508.16	28.217
508.51	28.108
508.85	26.614
509.19	26.939
509.54	26.888
509.88	27.563
510.23	26.735
510.57	27.657
510.92	27.343
511.26	26.824
511.61	27.801
511.95	26.722
512.30	26.511
512.64	27.136
512.98	27.438
513.33	27.302
513.67	26.147
514.02	26.190
514.36	27.307
514.70	26.729
515.05	26.548
515.39	26.809
515.74	27.646
516.08	26.663
516.42	26.804
516.77	27.425
517.11	26.415
517.46	27.201
517.80	27.120
518.14	26.809
518.49	26.546
518.83	26.420
519.17	27.079
519.52	26.712
519.86	27.382
520.20	27.630
520.55	27.887
520.89	26.946
521.23	27.322
521.58	27.011
521.92	27.250
522.26	26.419
522.61	26.480
522.95	26.397
523.29	26.598
523.64	26.463
523.98	27.234
524.32	26.960
524.66	26.879
525.01	26.532
525.35	25.836
525.69	27.032
526.04	27.227
526.38	27.212
526.72	26.074
527.06	26.365
527.41	25.248
527.75	27.331
528.09	27.296
528.43	26.195
528.78	26.798
529.12	26.848
529.46	27.189
529.80	27.228
530.15	27.290
530.49	26.585
530.83	26.266
531.17	27.219
531.51	27.367
531.86	26.323
532.20	27.705
532.54	27.162
532.88	26.893
533.22	27.171
533.57	27.778
533.91	27.634
534.25	27.400
534.59	27.090
534.93	26.115
535.27	26.856
535.62	27.595
535.96	27.809
536.30	26.192
536.64	28.010
536.98	27.074
537.32	26.860
537.66	26.400
538.01	27.781
538.35	26.955
538.69	27.696
539.03	27.225
539.37	25.367
539.71	26.442
540.05	25.621
540.39	27.309
540.73	26.779
541.07	27.579
541.42	26.875
541.76	27.742
542.10	27.878
542.44	27.748
542.78	28.458
543.12	26.615
543.46	27.410
543.80	27.261
544.14	26.701
544.48	28.063
544.82	27.004
545.16	27.131
545.50	27.314
545.84	26.344
546.18	27.340
546.52	27.529
546.86	27.079
547.20	26.837
547.54	28.123
547.88	28.125
548.22	27.958
548.56	27.358
548.90	26.953
549.24	26.667
549.58	27.763
549.92	26.580
550.26	27.202
550.60	26.694
550.94	26.408
551.28	25.823
551.62	27.318
551.96	26.807
552.30	27.986
552.64	26.978
552.98	27.254
553.32	27.107
553.66	27.198
554.00	27.042
554.34	27.398
554.68	28.398
555.02	27.645
555.36	26.931
555.69	26.861
556.03	27.254
556.37	27.012
556.71	26.739
557.05	27.171
557.39	27.362
557.73	26.888
558.07	27.846
558.41	27.352
558.75	27.112
559.08	28.486
559.42	27.135
559.76	27.059
560.10	26.909
560.44	26.625
560.78	27.545
561.12	27.177
561.45	27.966
561.79	26.632
562.13	26.559
562.47	27.869
562.81	28.173
563.15	27.090
563.48	27.785
563.82	27.006
564.16	27.338
564.50	26.107
564.84	26.612
565.17	27.413
565.51	27.540
565.85	27.348
566.19	26.738
566.52	27.676
566.86	27.728
567.20	27.182
567.54	27.112
567.88	27.213
568.21	28.360
568.55	27.300
568.89	27.529
569.23	26.916
569.56	27.530
569.90	28.189
570.24	27.664
570.57	27.202
570.91	26.697
571.25	26.838
571.59	27.158
571.92	27.477
572.26	27.614
572.60	28.168
572.93	26.897
573.27	26.945
573.61	27.331
573.95	27.519
574.28	27.563
574.62	27.235
574.96	26.547
575.29	26.358
575.63	26.728
575.97	26.868
576.30	26.792
576.64	26.687
576.98	26.592
577.31	27.079
577.65	26.927
577.98	26.980
578.32	26.906
578.66	27.107
578.99	27.414
579.33	26.918
579.67	26.782
580.00	27.020
580.34	26.981
580.67	27.015
581.01	27.029
581.35	27.347
581.68	27.357
582.02	27.497
582.35	27.577
582.69	27.383
583.02	27.140
583.36	27.369
583.70	27.622
584.03	26.933
584.37	26.877
584.70	27.142
585.04	27.177
585.37	27.353
585.71	27.397
586.04	27.132
586.38	26.985
586.72	27.755
587.05	27.330
587.39	26.649
587.72	27.184
588.06	26.601
588.39	27.654
588.73	27.427
589.06	27.703
589.40	27.576
589.73	26.927
590.07	26.975
590.40	27.256
590.73	27.088
591.07	27.554
591.40	27.077
591.74	28.095
592.07	26.963
592.41	27.160
592.74	27.416
593.08	27.249
593.41	27.713
593.75	26.858
594.08	27.288
594.41	27.854
594.75	26.691
595.08	26.736
595.42	27.285
595.75	26.603
596.09	27.676
596.42	27.505
596.75	27.142
597.09	27.186
597.42	27.150
597.75	27.038
598.09	27.217
598.42	26.761
598.76	27.077
599.09	27.176
599.42	27.365
599.76	27.635
600.09	27.577
600.42	27.064
600.76	26.821
601.09	26.958
601.42	27.131
601.76	27.287
602.09	26.680
602.42	27.189
602.76	27.610
603.09	27.105
603.42	27.919
603.76	26.982
604.09	27.181
604.42	27.884
604.76	27.415
605.09	27.785
605.42	26.507
605.75	27.235
606.09	26.922
606.42	27.135
606.75	26.960
607.09	27.250
607.42	27.257
607.75	26.709
608.08	26.748
608.42	27.342
608.75	27.638
609.08	27.105
609.41	26.702
609.75	26.441
610.08	27.286
610.41	26.769
610.74	27.720
611.07	28.014
611.41	27.036
611.74	27.300
612.07	27.019
612.40	27.964
612.73	26.895
613.07	27.209
613.40	27.435
613.73	27.373
614.06	27.097
614.39	27.163
614.72	27.000
615.06	27.048
615.39	27.017
615.72	27.198
616.05	26.422
616.38	27.349
616.71	27.910
617.05	26.737
617.38	27.300
617.71	27.748
618.04	27.704
618.37	26.671
618.70	27.442
619.03	28.026
619.36	27.088
619.69	27.958
620.03	28.091
620.36	28.008
620.69	27.808
621.02	27.655
621.35	27.565
621.68	26.947
622.01	27.554
622.34	27.837
622.67	27.757
623.00	27.513
623.33	26.948
623.66	27.377
623.99	27.099
624.32	26.890
624.65	27.260
624.99	27.479
625.32	26.647
625.65	26.972
625.98	27.748
626.31	27.916
626.64	26.612
626.97	27.431
627.30	27.764
627.63	27.153
627.96	27.418
628.29	26.684
628.62	27.356
628.95	29.717
629.28	27.737
629.61	28.231
629.94	27.048
630.26	26.501
630.59	27.645
630.92	26.916
631.25	27.641
631.58	28.228
631.91	27.688
632.24	28.692
632.57	28.332
632.90	27.522
633.23	28.523
633.56	28.136
633.89	26.954
634.22	28.150
634.55	28.521
634.88	26.826
635.20	28.913
635.53	28.675
635.86	27.228
636.19	28.824
636.52	27.682
636.85	28.751
637.18	25.000
637.51	29.196
637.83	26.387
638.16	29.156
638.49	28.086
638.82	28.951
639.15	28.375
639.48	28.678
639.81	29.223
640.13	28.906
640.46	29.396
640.79	28.005
641.12	28.748
641.45	28.631
641.77	30.339
642.10	27.778
642.43	28.979
642.76	27.554
643.09	29.141
643.41	28.832
643.74	30.864
644.07	27.439
644.40	27.454
644.73	29.291
645.05	30.428
645.38	29.068
645.71	29.630
646.04	28.239
646.36	31.553
646.69	27.759
647.02	28.061
647.35	30.584
647.67	29.912
648.00	29.106
648.33	30.198
648.66	28.636
648.98	29.835
649.31	28.550
649.64	27.055
649.96	29.657
650.29	28.594
650.62	29.773
650.94	31.605
651.27	30.405
651.60	29.118
651.92	29.393
652.25	27.362
652.58	30.841
652.90	29.542
653.23	28.505
653.56	28.031
653.88	29.160
654.21	30.332
654.54	27.228
654.86	30.997
655.19	25.811
655.52	23.431
655.84	24.810
656.17	33.166
656.49	44.548
656.82	44.373
657.15	32.709
657.47	23.871
657.80	18.042
658.13	18.409
658.45	26.235
658.78	25.434
659.10	25.476
659.43	25.085
659.75	25.145
660.08	27.152
660.41	28.678
660.73	28.971
661.06	27.070
661.38	29.636
661.71	31.154
662.03	30.375
662.36	26.243
662.68	30.924
663.01	29.899
663.33	30.786
663.66	30.462
663.98	31.533
664.31	30.882
664.63	29.150
664.96	30.181
665.28	31.148
665.61	31.189
665.93	30.584
666.26	31.034
666.58	31.799
666.91	32.347
667.23	33.483
667.56	30.670
667.88	29.274
668.21	31.557
668.53	29.067
668.86	28.355
669.18	30.917
669.50	35.870
669.83	33.115
670.15	32.667
670.48	30.283
670.80	30.172
671.13	32.484
671.45	31.915
671.77	32.790
672.10	29.575
672.42	28.975
672.75	31.509
673.07	30.282
673.39	31.284
673.72	32.617
674.04	32.549
674.37	28.932
674.69	29.448
675.01	32.218
675.34	31.622
675.66	30.947
675.98	31.976
676.31	31.933
676.63	30.998
676.95	31.447
677.28	32.243
677.60	31.429
677.92	34.177
678.25	29.158
678.57	30.677
678.89	31.864
679.22	30.845
679.54	33.397
679.86	31.193
680.18	28.801
680.51	31.915
680.83	29.537
681.15	33.585
681.48	32.325
681.80	30.561
682.12	32.184
682.44	29.207
682.77	33.605
683.09	35.622
683.41	30.599
683.73	31.788
684.06	33.471
684.38	30.724
684.70	30.426
685.02	29.831
685.34	30.220
685.67	30.245
685.99	30.412
686.31	31.570
686.63	29.329
686.96	29.107
687.28	29.422
687.60	29.891
687.92	31.993
688.24	29.848
688.56	34.538
688.89	31.950
689.21	33.624
689.53	31.733
689.85	33.259
690.17	29.193
690.49	32.484
690.82	32.944
691.14	29.911
691.46	31.435
691.78	30.321
692.10	32.231
692.42	33.333
692.74	31.535
693.06	33.191
693.39	31.622
693.71	33.406
694.03	32.421
694.35	31.385
694.67	34.554
694.99	31.951
695.31	33.333
695.63	31.100
695.95	32.029
696.27	32.487
696.59	33.938
696.91	32.642
697.23	28.873
697.56	32.409
697.88	27.403
698.20	30.417
698.52	32.688
698.84	32.962
699.16	31.106
699.48	31.354
699.80	32.367
700.12	36.104
700.44	34.483
700.76	33.149
701.08	36.207
701.40	33.240
701.72	39.942
702.04	36.932
702.36	30.595
702.68	35.127
703.00	34.903
703.32	32.979
703.64	35.389
703.96	30.362
704.28	36.337
704.60	32.845
704.91	37.389
705.23	34.018
705.55	40.532
705.87	40.864
706.19	34.982
706.51	31.464
706.83	35.758
707.15	35.574
707.47	30.303
707.79	35.135
708.11	34.247
708.43	35.000
708.74	32.653
709.06	32.208
709.38	35.433
709.70	37.209
710.02	37.389
710.34	33.939
710.66	34.328
710.98	36.364
711.29	37.500
711.61	37.168
711.93	33.974
712.25	39.550
712.57	36.765
712.89	39.446
713.20	37.386
713.52	35.855
713.84	36.076
714.16	36.280
714.48	35.632
714.80	40.426
715.11	36.311
715.43	33.531
715.75	38.841
716.07	37.380
716.39	36.050
716.70	38.538
717.02	38.129
717.34	36.749
717.66	43.284
717.97	40.239
718.29	39.259
718.61	35.401
718.93	38.971
719.24	37.370
719.56	36.610
719.88	37.288
720.20	44.257
720.51	39.373
720.83	41.636
721.15	36.567
721.46	36.879
721.78	39.785
722.10	43.774
722.42	38.722
722.73	37.828
723.05	40.574
723.37	35.628
723.68	42.471
724.00	39.837
724.32	38.710
724.63	38.211
724.95	37.657
725.27	43.725
725.58	39.453
725.90	43.066
726.22	43.396
726.53	37.847
726.85	36.177
727.16	36.299
727.48	39.362
727.80	38.636
728.11	39.855
728.43	41.923
728.74	35.484
729.06	42.336
729.38	43.750
729.69	40.214
730.01	37.201
730.32	36.458
730.64	37.124
730.96	35.644
731.27	42.384
731.59	37.309
731.90	37.901
732.22	36.646
732.53	34.365
732.85	38.141
733.16	37.942
733.48	39.535
733.80	37.987
734.11	41.401
734.43	38.757
734.74	36.000
735.06	36.390
735.37	40.173
735.69	38.854
736.00	42.157
736.32	36.449
736.63	36.422
736.95	38.658
737.26	36.054
737.58	37.097
737.89	37.458
738.21	40.273
738.52	39.286
738.83	35.094
739.15	40.000
739.46	39.781
739.78	39.236
740.09	39.385
740.41	37.742
740.72	38.676
741.04	41.481
741.35	43.750
741.66	46.667
741.98	45.755
742.29	40.670
742.61	48.276
742.92	42.534
743.23	41.026
743.55	43.200
743.86	47.368
744.18	46.903
744.49	44.976
744.80	48.826
745.12	46.818
745.43	40.529
745.74	44.144
746.06	39.450
746.37	40.359
746.68	43.439
747.00	46.296
747.31	42.381
747.62	41.150
747.94	43.172
748.25	41.277
748.56	45.374
748.88	44.554
749.19	49.000
749.50	47.907
749.82	38.618
750.13	40.816
750.44	41.606
750.75	44.561
751.07	45.659
751.38	43.554
751.69	46.209
752.01	43.233
752.32	40.072
752.63	41.489
752.94	42.213
753.26	43.200
753.57	34.146
753.88	45.312
754.19	39.643
754.51	42.014
754.82	36.823
755.13	38.491
755.44	36.842
755.75	39.051
756.07	39.362
756.38	40.511
756.69	42.953
757.00	37.425
757.31	38.279
757.63	38.889
757.94	38.070
758.25	37.745
758.56	37.531
758.87	36.022
759.18	40.303
759.50	36.677
759.81	39.564
760.12	35.000
760.43	36.963
760.74	35.870
761.05	37.006
761.36	35.027
761.67	40.057
761.99	42.236
762.30	43.750
762.61	43.130
762.92	44.141
763.23	46.218
763.54	43.200
763.85	41.406
764.16	45.769
764.47	41.825
764.78	39.576
765.10	36.709
765.41	39.528
765.72	42.216
766.03	43.260
766.34	36.000
766.65	45.957
766.96	44.444
767.27	47.716
767.58	51.562
767.89	48.421
768.20	52.299
768.51	53.807
768.82	49.083
769.13	44.309
769.44	42.510
769.75	43.348
770.06	39.908
770.37	50.679
770.68	46.759
770.99	45.333
771.30	39.754
771.61	43.946
771.92	45.902
772.23	51.261
772.54	53.333
772.85	50.262
773.16	52.128
773.47	55.435
773.78	50.761
774.09	48.214
774.39	51.462
774.70	58.642
775.01	65.217
775.32	63.399
775.63	57.895
775.94	54.676
776.25	59.055
776.56	62.687
776.87	58.197
777.18	53.906
777.48	62.595
777.79	64.394
778.10	61.481
778.41	63.393
778.72	50.365
779.03	52.349
779.34	55.705
779.65	55.405
779.95	51.534
780.26	54.902
780.57	55.862
780.88	78.125
781.19	53.383
781.50	65.541
781.80	55.975
782.11	56.497
782.42	54.430
782.73	53.988
783.04	58.784
783.34	60.563
783.65	65.753
783.96	59.701
784.27	50.350
784.57	54.676
784.88	61.111
785.19	70.635
785.50	60.377
785.81	66.418
786.11	68.033
786.42	65.891
786.73	72.566
787.04	69.811
787.34	75.893
787.65	68.000
787.96	69.369
788.26	59.504
788.57	85.593
788.88	81.818
789.19	57.639
789.49	68.182
789.80	67.176
790.11	77.143
790.41	67.327
790.72	87.952
791.03	83.696
791.33	70.930
791.64	68.041
791.95	78.218
792.25	70.000
792.56	81.818
792.87	91.026
793.17	89.873
793.48	80.460
793.79	82.759
794.09	82.955
794.40	64.706
794.70	63.235
795.01	61.481
795.32	58.273
795.62	59.843
795.93	62.931
796.23	65.487
796.54	75.294
796.85	86.486
797.15	104.225
797.46	80.303
797.76	72.289
798.07	79.747
798.37	104.615
798.68	92.424
798.99	83.099
799.29	94.805
799.60	75.000
799.90	101.370
800.21	98.507
800.51	94.828
800.82	108.772
801.12	98.361
801.43	87.879
801.73	75.676
802.04	107.937
802.34	95.062
802.65	96.875
802.95	100.000
803.26	112.500
803.56	84.286
803.87	78.462
804.17	105.882
804.48	105.556
804.78	112.069
805.09	97.059
805.39	111.538
805.70	103.571
806.00	98.361
806.30	95.455
806.61	93.902
806.91	67.089
807.22	86.842
807.52	92.537
807.83	95.775
808.13	100.000
808.43	91.667
808.74	78.947
809.04	98.551
809.35	102.985
809.65	76.316
809.95	117.742
810.26	94.915
810.56	96.825
810.86	129.545
811.17	135.714
811.47	113.333
811.77	114.815
812.08	125.455
812.38	126.000
812.69	161.111
812.99	136.364
813.29	128.571
813.59	95.238
813.90	144.898
814.20	103.636
814.50	101.538
814.81	108.824
815.11	116.327
815.41	108.197
815.72	142.857
816.02	123.636
816.32	138.095
816.62	125.000
816.93	129.268
817.23	171.429
817.53	129.545
817.84	184.848
818.14	119.565
818.44	124.444
818.74	191.176
819.04	147.500
819.35	165.714
819.65	191.176
819.95	196.429
820.25	260.000
820.56	161.538
820.86	156.818
821.16	160.465
821.46	156.410
821.76	160.000
822.07	145.714
822.37	135.000
822.67	172.727
822.97	125.490
823.27	203.571
823.57	164.865
823.88	170.000
824.18	210.000
824.48	154.762
824.78	212.000
825.08	200.000
825.38	148.649
825.69	109.756
825.99	245.833
826.29	137.931
826.59	147.368
826.89	160.526
827.19	164.706
827.49	219.355
827.79	159.091
828.09	136.364
828.39	123.404
828.70	138.776
829.00	155.556
829.30	161.290
829.60	147.500
829.90	366.667
830.20	200.000
830.50	221.739
830.80	239.130
831.10	216.667
831.40	183.333
831.70	208.696
832.00	226.923
832.30	170.370
832.60	312.500
832.90	223.333
833.20	407.143
833.50	219.355
833.80	206.897
834.10	218.750
834.40	230.769
834.70	333.333
835.00	257.143
835.30	185.714
835.60	323.077
835.90	231.034
836.20	357.143
836.50	206.897
836.80	168.000
837.10	186.111
837.40	276.190
837.70	300.000
838.00	225.926
838.30	252.381
838.60	309.524
838.90	226.923
839.19	285.000
839.49	371.429
839.79	335.000
840.09	300.000
840.39	323.810
840.69	260.870
840.99	288.889
841.29	510.000
841.59	366.667
841.88	368.750
842.18	200.000
842.48	300.000
842.78	210.000
843.08	260.870
843.38	184.375
843.68	1133.333
843.97	219.231
844.27	186.207
844.57	323.810
844.87	343.750
845.17	229.630
845.47	1533.333
845.76	422.222
846.06	305.882
846.36	475.000
846.66	364.286
846.96	312.500
847.25	436.364
847.55	409.091
847.85	256.522
848.15	520.000
848.44	385.714
848.74	255.556
849.04	305.882
849.34	520.000
849.63	315.789
849.93	436.364
850.23	1000.000
850.53	400.000
850.82	2350.000
851.12	-4600.000
851.42	4800.000
851.71	300.000
852.01	-1433.333
852.31	262.500
852.61	1533.333
852.90	323.810
853.20	220.000
853.50	276.471
853.79	285.714
854.09	195.833
854.39	250.000
854.68	186.486
854.98	200.000
855.28	183.333
855.57	234.483
855.87	214.815
856.17	294.737
856.46	266.667
856.76	270.588
857.05	206.897
857.35	220.833
857.65	386.667
857.94	273.913
858.24	242.308
858.53	355.000
858.83	240.909
859.13	380.000
859.42	0.000
859.72	544.444
860.01	472.727
860.31	281.818
860.60	305.263
860.90	239.130
861.20	577.778
861.49	550.000
861.79	-4800.000
862.08	612.500
862.38	309.524
862.67	353.846
862.97	335.294
863.26	577.778
863.56	316.667
863.85	416.667
864.15	537.500
864.44	420.000
864.74	950.000
865.03	837.500
865.33	315.789
865.62	445.455
865.92	530.769
866.21	400.000
866.51	0.000
866.80	445.455
867.10	1160.000
867.39	500.000
867.69	427.273
867.98	300.000
868.27	436.364
868.57	284.211
868.86	-3900.000
869.16	350.000
869.45	2400.000
869.75	-3400.000
870.04	416.667
870.33	642.857
870.63	1200.000
870.92	2250.000
871.22	700.000
871.51	382.353
871.80	228.571
872.10	364.286
>>>>>End Processed Spectral Data<<<<<
