SpectraSuite Data File
++++++++++++++++++++++++++++++++++++
Date: Tue May 12 19:35:59 PDT 2015
User: schluterlab
Dark Spectrum Present: Yes
Reference Spectrum Present: Yes
Number of Sampled Component Spectra: 1
Spectrometers: USB2E3373
Integration Time (usec): 3000 (USB2E3373)
Spectra Averaged: 3 (USB2E3373)
Boxcar Smoothing: 0 (USB2E3373)
Correct for Electrical Dark: No (USB2E3373)
Strobe/Lamp Enabled: No (USB2E3373)
Correct for Detector Non-linearity: No (USB2E3373)
Correct for Stray Light: No (USB2E3373)
Number of Pixels in Processed Spectrum: 2048
>>>>>Begin Processed Spectral Data<<<<<
178.53	0.000
178.91	-20.000
179.29	-200.000
179.67	400.000
180.04	0.000
180.42	-80.000
180.80	-100.000
181.18	750.000
181.56	-200.000
181.94	200.000
182.31	100.000
182.69	42.857
183.07	0.000
183.45	175.000
183.83	160.000
184.20	133.333
184.58	500.000
184.96	300.000
185.34	-566.667
185.72	-14.286
186.09	-100.000
186.47	-400.000
186.85	20.000
187.23	175.000
187.61	-142.857
187.98	-100.000
188.36	100.000
188.74	25.000
189.12	11.111
189.49	-10.000
189.87	50.000
190.25	166.667
190.63	200.000
191.00	100.000
191.38	-366.667
191.76	400.000
192.14	42.857
192.51	-60.000
192.89	20.000
193.27	-180.000
193.65	-466.667
194.02	-16.667
194.40	300.000
194.78	-50.000
195.15	-42.857
195.53	266.667
195.91	120.000
196.29	-200.000
196.66	-333.333
197.04	-228.571
197.42	-60.000
197.79	-12.500
198.17	25.000
198.55	-200.000
198.92	-88.889
199.30	450.000
199.68	-150.000
200.05	-200.000
200.43	-5.556
200.81	-25.000
201.18	333.333
201.56	-350.000
201.94	-700.000
202.31	33.333
202.69	133.333
203.07	16.667
203.44	-75.000
203.82	0.000
204.19	125.000
204.57	-466.667
204.95	190.909
205.32	-0.000
205.70	375.000
206.08	-800.000
206.45	0.000
206.83	1700.000
207.20	-233.333
207.58	-23.077
207.96	100.000
208.33	866.667
208.71	666.667
209.08	550.000
209.46	44.444
209.84	533.333
210.21	-66.667
210.59	150.000
210.96	122.222
211.34	-150.000
211.71	450.000
212.09	20.000
212.46	-137.500
212.84	-150.000
213.22	142.857
213.59	-112.500
213.97	0.000
214.34	-300.000
214.72	-700.000
215.09	100.000
215.47	13.333
215.84	37.500
216.22	-1300.000
216.59	500.000
216.97	-41.667
217.34	-33.333
217.72	44.444
218.09	225.000
218.47	-63.158
218.84	-137.500
219.22	57.143
219.59	-90.000
219.97	-10.000
220.34	283.333
220.72	63.636
221.09	-650.000
221.47	0.000
221.84	200.000
222.22	-150.000
222.59	-350.000
222.97	0.000
223.34	60.000
223.72	300.000
224.09	-250.000
224.46	138.462
224.84	-73.333
225.21	50.000
225.59	-225.000
225.96	70.000
226.34	100.000
226.71	140.000
227.08	-46.154
227.46	-114.286
227.83	-16.667
228.21	-500.000
228.58	183.333
228.95	5.263
229.33	25.000
229.70	-100.000
230.08	-44.444
230.45	66.667
230.82	-1100.000
231.20	-19.048
231.57	-80.000
231.95	-300.000
232.32	55.556
232.69	-50.000
233.07	25.000
233.44	-87.500
233.81	54.839
234.19	-100.000
234.56	-5.556
234.93	-100.000
235.31	29.630
235.68	-11.111
236.05	-23.077
236.43	-42.105
236.80	27.273
237.17	-35.714
237.55	-25.000
237.92	13.953
238.29	3.226
238.67	10.714
239.04	28.571
239.41	7.843
239.79	-4.000
240.16	-5.000
240.53	-8.621
240.91	8.219
241.28	11.268
241.65	14.062
242.02	0.000
242.40	14.667
242.77	7.368
243.14	14.118
243.51	18.280
243.89	16.190
244.26	23.148
244.63	14.286
245.00	3.571
245.38	4.202
245.75	11.864
246.12	21.875
246.49	12.800
246.87	14.754
247.24	6.338
247.61	16.556
247.98	21.348
248.36	11.950
248.73	15.909
249.10	17.222
249.47	17.708
249.84	15.228
250.22	20.312
250.59	11.236
250.96	16.364
251.33	21.698
251.70	17.890
252.08	20.779
252.45	13.878
252.82	14.768
253.19	20.233
253.56	18.824
253.94	13.415
254.31	20.863
254.68	17.014
255.05	19.536
255.42	17.455
255.79	20.530
256.16	16.667
256.54	19.091
256.91	22.436
257.28	24.351
257.65	15.738
258.02	20.420
258.39	19.940
258.76	21.713
259.14	16.176
259.51	23.099
259.88	21.902
260.25	16.477
260.62	19.663
260.99	16.713
261.36	19.828
261.73	20.800
262.10	20.981
262.47	20.937
262.85	19.537
263.22	15.323
263.59	21.448
263.96	18.277
264.33	16.173
264.70	19.656
265.07	18.227
265.44	19.438
265.81	18.795
266.18	19.438
266.55	18.571
266.92	21.652
267.29	19.778
267.66	18.409
268.03	18.925
268.40	16.705
268.77	20.267
269.14	18.908
269.51	18.326
269.88	19.872
270.25	18.565
270.62	18.908
270.99	18.316
271.36	18.102
271.73	18.125
272.10	18.880
272.47	17.200
272.84	18.471
273.21	18.789
273.58	16.327
273.95	20.717
274.32	19.342
274.69	18.591
275.06	19.700
275.43	21.800
275.80	18.547
276.17	18.182
276.54	20.532
276.91	20.345
277.28	19.342
277.65	20.038
278.02	19.318
278.39	20.327
278.76	18.622
279.13	21.646
279.50	21.119
279.87	18.868
280.23	19.854
280.60	16.078
280.97	18.981
281.34	17.288
281.71	16.874
282.08	16.995
282.45	19.400
282.82	19.024
283.19	18.350
283.56	19.966
283.92	18.641
284.29	19.459
284.66	16.991
285.03	16.123
285.40	18.667
285.77	18.062
286.14	17.274
286.51	15.595
286.87	17.504
287.24	16.827
287.61	18.519
287.98	19.562
288.35	16.589
288.72	18.502
289.08	16.667
289.45	15.445
289.82	16.925
290.19	16.970
290.56	16.932
290.93	16.691
291.29	16.596
291.66	18.118
292.03	18.221
292.40	17.122
292.77	16.618
293.13	15.272
293.50	15.978
293.87	15.673
294.24	16.011
294.60	15.984
294.97	14.958
295.34	13.288
295.71	15.257
296.08	14.344
296.44	14.229
296.81	14.877
297.18	15.395
297.55	14.950
297.91	14.340
298.28	15.217
298.65	15.265
299.02	15.660
299.38	14.923
299.75	14.543
300.12	14.508
300.48	13.498
300.85	13.692
301.22	13.942
301.59	13.625
301.95	15.000
302.32	13.244
302.69	13.436
303.05	13.695
303.42	14.372
303.79	14.045
304.15	14.156
304.52	13.743
304.89	14.318
305.25	14.335
305.62	12.955
305.99	12.878
306.35	13.199
306.72	12.854
307.09	13.058
307.45	12.945
307.82	14.194
308.19	13.861
308.55	13.291
308.92	12.818
309.29	12.971
309.65	14.035
310.02	13.627
310.38	13.646
310.75	13.730
311.12	14.649
311.48	14.800
311.85	13.374
312.22	13.843
312.58	13.797
312.95	14.168
313.31	14.651
313.68	14.796
314.05	14.598
314.41	14.440
314.78	13.266
315.14	13.614
315.51	14.399
315.87	14.941
316.24	14.837
316.61	14.854
316.97	14.412
317.34	13.876
317.70	14.286
318.07	13.983
318.43	15.217
318.80	14.845
319.16	14.539
319.53	15.377
319.89	15.625
320.26	16.224
320.62	15.504
320.99	16.735
321.35	16.107
321.72	16.667
322.08	18.515
322.45	17.751
322.81	18.522
323.18	17.162
323.54	18.389
323.91	16.793
324.27	17.936
324.64	17.151
325.00	18.744
325.37	19.155
325.73	17.883
326.10	19.177
326.46	18.948
326.83	20.141
327.19	20.000
327.56	21.309
327.92	19.965
328.29	19.534
328.65	20.998
329.01	20.826
329.38	20.018
329.74	22.098
330.11	19.851
330.47	20.764
330.84	20.865
331.20	20.610
331.56	19.623
331.93	21.043
332.29	19.704
332.66	22.242
333.02	21.077
333.38	21.967
333.75	22.415
334.11	21.067
334.48	22.182
334.84	20.188
335.20	21.128
335.57	21.708
335.93	20.930
336.29	22.943
336.66	21.676
337.02	22.393
337.38	23.113
337.75	23.091
338.11	22.060
338.47	23.027
338.84	23.112
339.20	23.190
339.56	21.994
339.93	22.072
340.29	22.575
340.65	23.196
341.02	21.966
341.38	22.595
341.74	21.975
342.11	22.193
342.47	22.115
342.83	22.116
343.20	23.519
343.56	22.552
343.92	23.447
344.28	20.840
344.65	22.603
345.01	23.171
345.37	21.966
345.73	20.844
346.10	22.299
346.46	20.449
346.82	21.665
347.19	22.372
347.55	22.364
347.91	21.130
348.27	22.915
348.63	22.818
349.00	23.289
349.36	23.413
349.72	22.496
350.08	22.913
350.45	21.644
350.81	23.121
351.17	22.405
351.53	22.303
351.89	22.625
352.26	21.789
352.62	22.649
352.98	23.264
353.34	22.139
353.70	21.728
354.07	22.900
354.43	21.703
354.79	23.197
355.15	22.437
355.51	22.575
355.87	23.147
356.24	22.958
356.60	21.953
356.96	22.354
357.32	22.305
357.68	22.991
358.04	22.690
358.40	23.159
358.77	22.570
359.13	24.257
359.49	22.320
359.85	23.741
360.21	22.443
360.57	22.568
360.93	23.595
361.29	23.131
361.66	21.924
362.02	24.019
362.38	22.533
362.74	23.136
363.10	22.398
363.46	23.251
363.82	23.047
364.18	23.013
364.54	21.679
364.90	22.889
365.26	23.100
365.62	23.240
365.98	23.613
366.35	23.147
366.71	22.629
367.07	23.173
367.43	22.527
367.79	23.183
368.15	22.535
368.51	23.071
368.87	23.642
369.23	23.316
369.59	23.676
369.95	23.323
370.31	23.333
370.67	23.158
371.03	23.529
371.39	23.792
371.75	22.883
372.11	23.111
372.47	22.272
372.83	23.959
373.19	23.494
373.55	23.503
373.91	24.242
374.27	24.650
374.63	23.417
374.99	22.840
375.35	22.859
375.71	23.673
376.07	23.675
376.42	23.997
376.78	23.345
377.14	23.464
377.50	23.803
377.86	24.164
378.22	22.589
378.58	24.474
378.94	23.838
379.30	23.552
379.66	24.264
380.02	23.586
380.38	23.092
380.74	24.922
381.09	23.825
381.45	23.175
381.81	23.597
382.17	24.300
382.53	24.260
382.89	23.477
383.25	23.970
383.61	23.713
383.97	24.496
384.32	24.323
384.68	24.521
385.04	24.443
385.40	23.514
385.76	22.834
386.12	25.083
386.48	23.744
386.83	24.029
387.19	24.393
387.55	23.381
387.91	23.489
388.27	23.480
388.62	24.482
388.98	23.919
389.34	24.008
389.70	23.269
390.06	23.894
390.42	22.853
390.77	24.413
391.13	24.138
391.49	24.124
391.85	24.218
392.20	23.696
392.56	22.397
392.92	23.748
393.28	23.818
393.64	23.559
393.99	22.662
394.35	25.049
394.71	23.113
395.07	24.934
395.42	22.159
395.78	23.522
396.14	23.451
396.50	23.286
396.85	23.397
397.21	23.221
397.57	23.239
397.92	23.791
398.28	23.261
398.64	22.857
399.00	22.983
399.35	23.329
399.71	22.575
400.07	22.977
400.42	23.910
400.78	22.841
401.14	22.538
401.49	22.361
401.85	22.667
402.21	22.462
402.57	21.764
402.92	23.174
403.28	22.952
403.63	22.308
403.99	22.259
404.35	23.057
404.70	22.546
405.06	23.125
405.42	23.097
405.77	21.522
406.13	21.744
406.49	21.577
406.84	23.101
407.20	22.924
407.55	22.044
407.91	21.189
408.27	22.340
408.62	21.672
408.98	22.458
409.34	22.279
409.69	20.936
410.05	20.984
410.40	20.681
410.76	22.167
411.11	21.396
411.47	21.429
411.83	21.314
412.18	22.120
412.54	21.669
412.89	21.244
413.25	20.940
413.60	21.365
413.96	21.359
414.31	20.714
414.67	21.269
415.03	21.715
415.38	20.822
415.74	21.289
416.09	21.778
416.45	21.019
416.80	20.167
417.16	21.932
417.51	21.721
417.87	21.614
418.22	20.455
418.58	20.180
418.93	20.438
419.29	20.556
419.64	21.154
420.00	21.676
420.35	21.155
420.71	21.191
421.06	20.701
421.42	21.079
421.77	21.011
422.12	21.264
422.48	20.788
422.83	21.094
423.19	21.176
423.54	20.586
423.90	20.396
424.25	21.088
424.61	20.710
424.96	20.639
425.31	20.109
425.67	20.303
426.02	20.745
426.38	20.270
426.73	21.246
427.09	19.632
427.44	20.494
427.79	21.040
428.15	19.975
428.50	20.226
428.85	20.269
429.21	21.458
429.56	20.000
429.92	20.660
430.27	19.893
430.62	20.552
430.98	19.721
431.33	20.189
431.68	20.077
432.04	21.116
432.39	19.964
432.74	20.177
433.10	20.133
433.45	20.519
433.80	20.119
434.16	20.023
434.51	20.569
434.86	20.423
435.22	19.790
435.57	21.042
435.92	18.700
436.28	19.489
436.63	18.962
436.98	20.062
437.34	20.537
437.69	19.691
438.04	19.892
438.39	19.648
438.75	19.446
439.10	20.774
439.45	20.090
439.81	20.508
440.16	18.862
440.51	20.012
440.86	19.697
441.22	19.416
441.57	19.145
441.92	18.885
442.27	19.600
442.63	19.865
442.98	20.538
443.33	19.859
443.68	20.022
444.03	19.124
444.39	19.469
444.74	20.034
445.09	20.130
445.44	19.184
445.79	19.633
446.15	19.767
446.50	19.433
446.85	19.472
447.20	19.530
447.55	19.546
447.91	18.636
448.26	20.237
448.61	19.637
448.96	20.166
449.31	19.289
449.66	18.644
450.02	18.994
450.37	19.441
450.72	19.808
451.07	18.919
451.42	19.170
451.77	17.528
452.12	18.860
452.47	18.902
452.83	18.867
453.18	19.109
453.53	20.118
453.88	19.145
454.23	19.105
454.58	20.104
454.93	18.801
455.28	18.737
455.63	19.168
455.98	19.226
456.34	18.084
456.69	19.093
457.04	18.766
457.39	19.600
457.74	19.343
458.09	18.233
458.44	19.436
458.79	18.316
459.14	19.439
459.49	19.108
459.84	18.371
460.19	19.512
460.54	18.434
460.89	18.118
461.24	19.221
461.59	18.675
461.94	18.540
462.29	18.797
462.64	18.106
462.99	18.419
463.34	18.681
463.69	18.450
464.04	18.089
464.39	18.714
464.74	18.884
465.09	18.842
465.44	18.476
465.79	18.231
466.14	18.317
466.49	18.858
466.84	17.998
467.19	18.843
467.54	18.767
467.89	18.158
468.24	18.245
468.59	17.801
468.94	18.359
469.29	18.754
469.64	19.475
469.99	18.313
470.34	16.902
470.68	18.000
471.03	17.956
471.38	18.399
471.73	18.532
472.08	18.434
472.43	17.773
472.78	17.912
473.13	17.965
473.48	18.949
473.83	18.692
474.17	17.211
474.52	18.754
474.87	18.056
475.22	18.742
475.57	18.449
475.92	18.022
476.27	18.083
476.61	18.026
476.96	17.724
477.31	17.637
477.66	17.664
478.01	17.010
478.36	18.338
478.70	18.986
479.05	18.108
479.40	17.689
479.75	17.723
480.10	17.370
480.45	18.534
480.79	17.281
481.14	17.501
481.49	17.789
481.84	18.384
482.19	17.561
482.53	18.627
482.88	17.590
483.23	17.688
483.58	17.376
483.92	17.387
484.27	17.522
484.62	17.680
484.97	17.794
485.31	17.401
485.66	17.485
486.01	17.168
486.36	17.581
486.70	17.365
487.05	17.461
487.40	17.011
487.75	16.891
488.09	16.792
488.44	17.291
488.79	17.317
489.13	16.916
489.48	17.535
489.83	17.614
490.17	17.300
490.52	17.925
490.87	17.854
491.22	16.963
491.56	17.292
491.91	17.118
492.26	17.695
492.60	17.551
492.95	17.402
493.30	18.348
493.64	16.836
493.99	17.556
494.34	18.652
494.68	16.601
495.03	16.734
495.37	16.574
495.72	17.880
496.07	17.495
496.41	17.243
496.76	17.049
497.11	17.528
497.45	18.282
497.80	18.069
498.14	18.163
498.49	17.512
498.84	16.824
499.18	16.658
499.53	17.653
499.87	17.204
500.22	16.987
500.56	17.635
500.91	17.724
501.26	17.795
501.60	17.839
501.95	17.400
502.29	17.650
502.64	16.725
502.98	16.810
503.33	16.825
503.67	17.968
504.02	17.263
504.36	16.795
504.71	16.968
505.06	17.515
505.40	17.480
505.75	17.694
506.09	17.226
506.44	17.382
506.78	17.398
507.13	17.264
507.47	17.784
507.82	16.964
508.16	17.149
508.51	18.326
508.85	17.363
509.19	17.224
509.54	18.017
509.88	17.664
510.23	17.079
510.57	16.979
510.92	17.914
511.26	16.772
511.61	18.208
511.95	16.657
512.30	17.681
512.64	17.478
512.98	17.602
513.33	17.057
513.67	17.545
514.02	17.788
514.36	17.853
514.70	18.701
515.05	18.354
515.39	18.068
515.74	18.296
516.08	17.263
516.42	18.645
516.77	17.019
517.11	18.226
517.46	17.552
517.80	18.188
518.14	19.418
518.49	18.305
518.83	17.964
519.17	18.766
519.52	18.738
519.86	18.619
520.20	17.580
520.55	18.864
520.89	18.691
521.23	18.370
521.58	17.989
521.92	18.291
522.26	17.938
522.61	17.679
522.95	18.493
523.29	17.746
523.64	16.893
523.98	17.809
524.32	18.384
524.66	18.763
525.01	18.694
525.35	17.168
525.69	18.100
526.04	18.887
526.38	18.026
526.72	18.611
527.06	18.565
527.41	16.726
527.75	17.660
528.09	17.751
528.43	17.647
528.78	17.959
529.12	18.082
529.46	17.940
529.80	17.018
530.15	17.929
530.49	18.968
530.83	18.366
531.17	18.291
531.51	17.987
531.86	18.908
532.20	17.316
532.54	17.986
532.88	16.800
533.22	18.678
533.57	18.483
533.91	17.894
534.25	18.669
534.59	17.882
534.93	18.267
535.27	18.316
535.62	17.421
535.96	17.585
536.30	17.745
536.64	18.383
536.98	18.363
537.32	18.006
537.66	17.889
538.01	17.820
538.35	17.455
538.69	17.197
539.03	18.313
539.37	17.803
539.71	17.754
540.05	17.583
540.39	18.591
540.73	17.436
541.07	16.838
541.42	17.890
541.76	17.914
542.10	17.934
542.44	17.630
542.78	16.862
543.12	16.895
543.46	18.033
543.80	18.799
544.14	18.710
544.48	17.965
544.82	18.240
545.16	18.188
545.50	17.394
545.84	18.288
546.18	18.202
546.52	18.755
546.86	18.286
547.20	18.788
547.54	17.134
547.88	18.590
548.22	17.089
548.56	17.900
548.90	17.474
549.24	17.398
549.58	18.778
549.92	17.519
550.26	18.069
550.60	18.874
550.94	17.540
551.28	17.724
551.62	19.001
551.96	17.013
552.30	18.527
552.64	18.482
552.98	17.608
553.32	18.182
553.66	17.375
554.00	18.456
554.34	17.656
554.68	19.777
555.02	16.905
555.36	17.474
555.69	18.447
556.03	17.960
556.37	17.104
556.71	17.421
557.05	17.266
557.39	17.671
557.73	18.003
558.07	19.171
558.41	16.201
558.75	17.925
559.08	17.277
559.42	18.227
559.76	17.102
560.10	18.500
560.44	17.894
560.78	17.355
561.12	17.806
561.45	16.667
561.79	16.226
562.13	16.901
562.47	16.820
562.81	17.058
563.15	17.414
563.48	16.554
563.82	16.376
564.16	16.618
564.50	17.479
564.84	18.001
565.17	17.382
565.51	16.819
565.85	17.465
566.19	16.841
566.52	17.133
566.86	17.281
567.20	16.833
567.54	16.720
567.88	17.294
568.21	16.589
568.55	17.148
568.89	17.198
569.23	16.968
569.56	16.736
569.90	16.874
570.24	17.179
570.57	16.140
570.91	16.703
571.25	16.977
571.59	17.049
571.92	16.496
572.26	16.446
572.60	16.774
572.93	16.176
573.27	16.223
573.61	16.125
573.95	15.785
574.28	15.641
574.62	15.545
574.96	15.880
575.29	15.539
575.63	15.559
575.97	15.888
576.30	15.587
576.64	15.794
576.98	16.271
577.31	15.875
577.65	16.295
577.98	15.645
578.32	16.263
578.66	15.700
578.99	15.763
579.33	15.623
579.67	15.858
580.00	15.343
580.34	15.862
580.67	16.251
581.01	15.492
581.35	15.911
581.68	15.947
582.02	15.928
582.35	16.100
582.69	15.949
583.02	15.818
583.36	15.481
583.70	15.717
584.03	15.609
584.37	16.700
584.70	16.113
585.04	15.559
585.37	16.049
585.71	15.685
586.04	16.054
586.38	16.344
586.72	15.896
587.05	16.415
587.39	16.021
587.72	15.838
588.06	15.812
588.39	16.272
588.73	15.771
589.06	15.783
589.40	16.051
589.73	15.969
590.07	15.796
590.40	17.003
590.73	16.826
591.07	15.714
591.40	16.309
591.74	15.858
592.07	16.953
592.41	16.823
592.74	16.532
593.08	16.379
593.41	15.735
593.75	16.380
594.08	16.625
594.41	16.315
594.75	15.779
595.08	16.089
595.42	15.959
595.75	15.947
596.09	15.933
596.42	16.195
596.75	16.773
597.09	15.532
597.42	16.002
597.75	16.792
598.09	16.292
598.42	16.327
598.76	16.530
599.09	16.134
599.42	15.460
599.76	15.771
600.09	16.568
600.42	16.055
600.76	16.205
601.09	16.118
601.42	16.023
601.76	16.031
602.09	16.632
602.42	16.109
602.76	15.445
603.09	15.361
603.42	15.886
603.76	16.282
604.09	16.583
604.42	16.187
604.76	16.157
605.09	16.580
605.42	16.635
605.75	15.578
606.09	16.711
606.42	16.404
606.75	16.385
607.09	16.231
607.42	16.292
607.75	15.840
608.08	16.137
608.42	15.470
608.75	16.258
609.08	15.346
609.41	16.641
609.75	16.272
610.08	15.452
610.41	16.285
610.74	16.532
611.07	16.235
611.41	15.953
611.74	16.649
612.07	16.295
612.40	16.713
612.73	16.319
613.07	16.089
613.40	16.274
613.73	16.037
614.06	16.569
614.39	16.579
614.72	15.880
615.06	15.786
615.39	15.993
615.72	16.293
616.05	16.232
616.38	16.548
616.71	16.791
617.05	16.080
617.38	15.871
617.71	15.611
618.04	16.097
618.37	16.481
618.70	17.391
619.03	16.389
619.36	16.863
619.69	14.930
620.03	16.781
620.36	17.611
620.69	15.743
621.02	16.390
621.35	16.170
621.68	15.932
622.01	17.112
622.34	16.583
622.67	16.273
623.00	16.953
623.33	17.480
623.66	17.689
623.99	15.869
624.32	16.918
624.65	16.016
624.99	15.703
625.32	16.035
625.65	16.573
625.98	18.250
626.31	16.104
626.64	17.748
626.97	18.382
627.30	17.037
627.63	17.395
627.96	15.642
628.29	17.591
628.62	16.701
628.95	17.529
629.28	16.426
629.61	16.510
629.94	17.427
630.26	17.050
630.59	18.743
630.92	17.492
631.25	16.201
631.58	16.860
631.91	16.629
632.24	18.935
632.57	19.620
632.90	16.974
633.23	18.065
633.56	16.478
633.89	15.963
634.22	16.795
634.55	16.294
634.88	17.269
635.20	17.260
635.53	18.436
635.86	17.799
636.19	15.825
636.52	17.251
636.85	15.645
637.18	17.098
637.51	17.344
637.83	17.598
638.16	17.639
638.49	16.571
638.82	16.596
639.15	20.429
639.48	16.448
639.81	16.393
640.13	17.611
640.46	16.535
640.79	16.899
641.12	17.364
641.45	17.885
641.77	16.879
642.10	18.404
642.43	18.182
642.76	17.384
643.09	16.436
643.41	18.638
643.74	17.535
644.07	15.697
644.40	17.329
644.73	17.127
645.05	17.557
645.38	19.231
645.71	18.893
646.04	17.844
646.36	17.045
646.69	20.309
647.02	20.703
647.35	20.000
647.67	18.437
648.00	20.583
648.33	18.882
648.66	18.553
648.98	17.966
649.31	16.695
649.64	17.212
649.96	15.541
650.29	15.752
650.62	18.553
650.94	19.778
651.27	19.268
651.60	18.547
651.92	17.748
652.25	14.532
652.58	16.697
652.90	16.192
653.23	17.550
653.56	17.535
653.88	16.058
654.21	16.068
654.54	17.073
654.86	17.986
655.19	16.290
655.52	17.706
655.84	15.390
656.17	15.131
656.49	20.672
656.82	24.074
657.15	19.443
657.47	14.660
657.80	10.535
658.13	8.561
658.45	14.461
658.78	14.239
659.10	14.166
659.43	14.464
659.75	13.894
660.08	14.417
660.41	14.215
660.73	15.789
661.06	15.273
661.38	19.355
661.71	19.256
662.03	19.444
662.36	16.706
662.68	15.827
663.01	20.913
663.33	18.868
663.66	16.986
663.98	17.604
664.31	15.854
664.63	16.972
664.96	21.615
665.28	18.676
665.61	18.224
665.93	18.664
666.26	18.543
666.58	17.890
666.91	19.204
667.23	17.734
667.56	17.778
667.88	20.050
668.21	14.467
668.53	20.051
668.86	15.561
669.18	14.975
669.50	18.252
669.83	16.500
670.15	14.500
670.48	17.544
670.80	18.274
671.13	17.831
671.45	15.306
671.77	18.116
672.10	17.582
672.42	15.936
672.75	15.922
673.07	20.187
673.39	17.121
673.72	17.975
674.04	17.234
674.37	17.090
674.69	16.589
675.01	15.349
675.34	13.725
675.66	15.714
675.98	14.899
676.31	17.884
676.63	13.402
676.95	14.388
677.28	16.337
677.60	19.298
677.92	16.792
678.25	15.545
678.57	17.633
678.89	14.908
679.22	16.055
679.54	16.481
679.86	14.989
680.18	15.690
680.51	16.222
680.83	16.458
681.15	17.647
681.48	17.021
681.80	14.130
682.12	17.987
682.44	17.026
682.77	17.500
683.09	15.196
683.41	16.792
683.73	16.834
684.06	15.228
684.38	14.868
684.70	17.090
685.02	15.152
685.34	12.762
685.67	13.636
685.99	16.766
686.31	17.724
686.63	16.311
686.96	16.870
687.28	19.713
687.60	15.811
687.92	14.557
688.24	16.000
688.56	15.385
688.89	17.808
689.21	15.349
689.53	16.368
689.85	16.962
690.17	12.990
690.49	18.118
690.82	16.462
691.14	16.710
691.46	18.000
691.78	16.746
692.10	14.679
692.42	15.826
692.74	16.588
693.06	13.976
693.39	16.010
693.71	15.581
694.03	14.976
694.35	16.584
694.67	18.066
694.99	16.981
695.31	13.881
695.63	14.865
695.95	16.854
696.27	16.714
696.59	14.540
696.91	17.379
697.23	14.327
697.56	17.876
697.88	14.052
698.20	14.528
698.52	15.385
698.84	15.038
699.16	14.776
699.48	20.419
699.80	15.385
700.12	14.601
700.44	15.339
700.76	15.773
701.08	16.190
701.40	16.118
701.72	18.000
702.04	18.027
702.36	18.033
702.68	19.463
703.00	18.612
703.32	13.473
703.64	15.142
703.96	13.608
704.28	12.324
704.60	17.466
704.91	17.434
705.23	16.842
705.55	14.498
705.87	16.187
706.19	14.343
706.51	15.625
706.83	11.355
707.15	15.932
707.47	11.976
707.79	18.052
708.11	17.196
708.43	15.467
708.74	15.847
709.06	15.031
709.38	16.320
709.70	17.532
710.02	17.133
710.34	13.830
710.66	17.978
710.98	15.035
711.29	21.993
711.61	10.638
711.93	17.978
712.25	18.868
712.57	17.969
712.89	14.286
713.20	13.306
713.52	10.976
713.84	13.139
714.16	18.243
714.48	15.358
714.80	13.468
715.11	17.182
715.43	14.334
715.75	12.281
716.07	14.182
716.39	18.089
716.70	13.600
717.02	10.484
717.34	21.212
717.66	16.364
717.97	12.500
718.29	19.556
718.61	7.658
718.93	10.924
719.24	16.318
719.56	18.750
719.88	13.725
720.20	12.821
720.51	15.351
720.83	13.389
721.15	17.959
721.46	12.658
721.78	12.554
722.10	14.341
722.42	17.391
722.73	11.765
723.05	17.512
723.37	13.122
723.68	20.853
724.00	16.667
724.32	11.682
724.63	10.860
724.95	12.785
725.27	16.432
725.58	14.612
725.90	8.559
726.22	13.537
726.53	12.295
726.85	15.556
727.16	16.599
727.48	24.194
727.80	14.155
728.11	15.111
728.43	13.992
728.74	12.719
729.06	12.227
729.38	18.217
729.69	11.600
730.01	18.410
730.32	19.124
730.64	16.538
730.96	6.178
731.27	12.355
731.59	13.468
731.90	13.816
732.22	15.947
732.53	10.526
732.85	11.972
733.16	17.949
733.48	15.299
733.80	16.727
734.11	15.248
734.43	11.552
734.74	14.019
735.06	15.434
735.37	11.821
735.69	13.732
736.00	11.481
736.32	15.734
736.63	16.667
736.95	15.953
737.26	11.594
737.58	14.234
737.89	12.830
738.21	16.412
738.52	20.902
738.83	17.949
739.15	18.182
739.46	10.811
739.78	15.058
740.09	13.889
740.41	15.152
740.72	12.749
741.04	20.158
741.35	15.695
741.66	12.903
741.98	11.224
742.29	16.580
742.61	6.936
742.92	12.745
743.23	18.905
743.55	14.508
743.86	22.222
744.18	14.000
744.49	11.667
744.80	15.054
745.12	24.103
745.43	13.904
745.74	9.091
746.06	18.391
746.37	13.333
746.68	16.216
747.00	2.210
747.31	12.565
747.62	21.053
747.94	15.566
748.25	22.167
748.56	19.697
748.88	14.208
749.19	16.580
749.50	8.824
749.82	12.500
750.13	19.417
750.44	14.592
750.75	14.800
751.07	11.297
751.38	14.062
751.69	15.873
752.01	15.966
752.32	15.289
752.63	14.847
752.94	16.000
753.26	12.329
753.57	11.848
753.88	7.907
754.19	11.894
754.51	12.552
754.82	16.250
755.13	8.850
755.44	15.584
755.75	15.663
756.07	16.738
756.38	19.665
756.69	18.113
757.00	18.440
757.31	17.301
757.63	15.033
757.94	12.121
758.25	15.476
758.56	15.405
758.87	12.798
759.18	20.872
759.50	13.879
759.81	16.988
760.12	14.591
760.43	15.947
760.74	15.868
761.05	15.385
761.36	19.585
761.67	15.805
761.99	17.391
762.30	13.818
762.61	19.919
762.92	16.000
763.23	20.000
763.54	11.168
763.85	16.290
764.16	7.826
764.47	19.565
764.78	15.726
765.10	11.811
765.41	17.391
765.72	16.722
766.03	17.057
766.34	15.909
766.65	20.312
766.96	13.333
767.27	18.994
767.58	20.755
767.89	17.532
768.20	13.514
768.51	9.770
768.82	6.875
769.13	17.593
769.44	12.736
769.75	12.745
770.06	13.592
770.37	19.681
770.68	15.897
770.99	13.198
771.30	13.402
771.61	8.072
771.92	19.340
772.23	12.019
772.54	19.412
772.85	8.904
773.16	10.323
773.47	17.197
773.78	17.964
774.09	15.132
774.39	8.088
774.70	20.301
775.01	16.923
775.32	11.111
775.63	18.110
775.94	5.660
776.25	13.333
776.56	16.364
776.87	16.239
777.18	13.000
777.48	6.731
777.79	11.111
778.10	3.774
778.41	17.647
778.72	15.094
779.03	8.772
779.34	5.042
779.65	9.155
779.95	15.827
780.26	10.484
780.57	10.870
780.88	12.844
781.19	19.444
781.50	13.934
781.80	10.949
782.11	15.385
782.42	12.414
782.73	12.587
783.04	11.200
783.34	14.400
783.65	20.325
783.96	13.934
784.27	11.765
784.57	9.346
784.88	8.929
785.19	22.680
785.50	4.211
785.81	18.000
786.11	13.861
786.42	-18.824
786.73	9.375
787.04	0.000
787.34	23.148
787.65	18.868
787.96	12.371
788.26	2.970
788.57	17.391
788.88	1.835
789.19	14.876
789.49	15.652
789.80	8.621
790.11	1.220
790.41	24.719
790.72	9.302
791.03	11.628
791.33	-1.299
791.64	23.171
791.95	18.293
792.25	-10.843
792.56	7.407
792.87	15.493
793.17	10.843
793.48	3.529
793.79	10.000
794.09	6.667
794.40	7.609
794.70	10.435
795.01	2.752
795.32	14.173
795.62	4.902
795.93	10.784
796.23	4.040
796.54	6.977
796.85	4.348
797.15	7.813
797.46	-6.780
797.76	6.557
798.07	13.158
798.37	3.226
798.68	6.250
798.99	9.231
799.29	15.152
799.60	2.899
799.90	7.143
800.21	12.281
800.51	10.345
800.82	11.321
801.12	0.000
801.43	8.065
801.73	8.065
802.04	14.000
802.34	13.208
802.65	0.000
802.95	12.727
803.26	15.094
803.56	14.754
803.87	-2.000
804.17	3.704
804.48	0.000
804.78	-30.612
805.09	-2.128
805.39	25.424
805.70	-6.250
806.00	-5.357
806.30	0.000
806.61	32.308
806.91	-4.615
807.22	-1.316
807.52	-1.429
807.83	-1.724
808.13	16.456
808.43	-1.639
808.74	11.475
809.04	25.676
809.35	16.667
809.65	5.357
809.95	32.203
810.26	2.041
810.56	30.189
810.86	5.882
811.17	24.324
811.47	-51.852
811.77	7.843
812.08	-2.273
812.38	-8.333
812.69	2.564
812.99	7.143
813.29	6.522
813.59	31.429
813.90	2.381
814.20	-5.455
814.50	-6.122
814.81	0.000
815.11	-2.083
815.41	24.390
815.72	-7.692
816.02	2.128
816.32	-3.125
816.62	12.121
816.93	-45.455
817.23	8.108
817.53	0.000
817.84	15.000
818.14	-38.235
818.44	-6.250
818.74	-47.619
819.04	-8.571
819.35	-14.286
819.65	11.364
819.95	10.256
820.25	-38.889
820.56	-37.931
820.86	-14.286
821.16	-52.174
821.46	14.286
821.76	0.000
822.07	13.043
822.37	-20.408
822.67	-23.256
822.97	-47.826
823.27	-7.692
823.57	7.407
823.88	3.571
824.18	-2.564
824.48	10.714
824.78	-6.061
825.08	-13.333
825.38	22.500
825.69	-66.667
825.99	3.704
826.29	33.333
826.59	-37.037
826.89	-14.815
827.19	-14.286
827.49	-27.273
827.79	-18.182
828.09	-40.909
828.39	-39.130
828.70	-22.222
829.00	10.714
829.30	14.286
829.60	22.581
829.90	-26.923
830.20	5.128
830.50	-36.364
830.80	-38.095
831.10	-66.667
831.40	-107.143
831.70	0.000
832.00	11.765
832.30	17.391
832.60	-8.333
832.90	-72.727
833.20	-33.333
833.50	15.625
833.80	0.000
834.10	56.000
834.40	-29.167
834.70	-59.091
835.00	-7.692
835.30	5.000
835.60	20.000
835.90	25.000
836.20	28.571
836.50	0.000
836.80	-55.556
837.10	0.000
837.40	-140.000
837.70	26.087
838.00	7.143
838.30	800.000
838.60	32.000
838.90	-160.000
839.19	-66.667
839.49	-650.000
839.79	-35.294
840.09	-133.333
840.39	53.571
840.69	-11.111
840.99	-41.667
841.29	-13.793
841.59	-86.667
841.88	63.636
842.18	-283.333
842.48	-43.750
842.78	30.769
843.08	-23.529
843.38	-5.000
843.68	-53.846
843.97	5.882
844.27	-20.000
844.57	4.167
844.87	18.182
845.17	-42.105
845.47	0.000
845.76	5.556
846.06	-23.810
846.36	0.000
846.66	-111.111
846.96	-20.000
847.25	0.000
847.55	-37.500
847.85	-53.333
848.15	75.000
848.44	-15.789
848.74	0.000
849.04	73.684
849.34	-266.667
849.63	50.000
849.93	29.412
850.23	-63.636
850.53	-333.333
850.82	-80.000
851.12	-77.778
851.42	-171.429
851.71	-200.000
852.01	21.429
852.31	-33.333
852.61	30.769
852.90	-220.000
853.20	-88.889
853.50	11.111
853.79	-10.000
854.09	-55.000
854.39	-52.632
854.68	-60.000
854.98	-75.000
855.28	27.778
855.57	-57.143
855.87	-73.684
856.17	-12.500
856.46	0.000
856.76	-40.000
857.05	-56.250
857.35	-37.500
857.65	-5.556
857.94	25.000
858.24	4.348
858.53	-140.000
858.83	-66.667
859.13	-81.818
859.42	-120.000
859.72	166.667
860.01	7.692
860.31	-80.000
860.60	-87.500
860.90	-150.000
861.20	-250.000
861.49	-200.000
861.79	300.000
862.08	48.387
862.38	26.316
862.67	-38.462
862.97	-100.000
863.26	-66.667
863.56	0.000
863.85	-216.667
864.15	-21.429
864.44	25.000
864.74	-25.000
865.03	-133.333
865.33	-266.667
865.62	-600.000
865.92	-400.000
866.21	-233.333
866.51	-18.182
866.80	-266.667
867.10	-128.571
867.39	-44.444
867.69	-83.333
867.98	180.000
868.27	-225.000
868.57	600.000
868.86	0.000
869.16	-46.154
869.45	700.000
869.75	-200.000
870.04	-141.667
870.33	17.647
870.63	-42.857
870.92	65.217
871.22	25.000
871.51	400.000
871.80	31.250
872.10	-266.667
>>>>>End Processed Spectral Data<<<<<
