SpectraSuite Data File
++++++++++++++++++++++++++++++++++++
Date: Wed May 13 19:56:48 PDT 2015
User: schluterlab
Dark Spectrum Present: Yes
Reference Spectrum Present: Yes
Number of Sampled Component Spectra: 1
Spectrometers: USB2E3373
Integration Time (usec): 3000 (USB2E3373)
Spectra Averaged: 3 (USB2E3373)
Boxcar Smoothing: 0 (USB2E3373)
Correct for Electrical Dark: No (USB2E3373)
Strobe/Lamp Enabled: No (USB2E3373)
Correct for Detector Non-linearity: No (USB2E3373)
Correct for Stray Light: No (USB2E3373)
Number of Pixels in Processed Spectrum: 2048
>>>>>Begin Processed Spectral Data<<<<<
178.53	0.000
178.91	-1125.000
179.29	-1300.000
179.67	-227.778
180.04	-1475.000
180.42	2550.000
180.80	1020.000
181.18	-1100.000
181.56	728.571
181.94	0.000
182.31	-685.714
182.69	1800.000
183.07	-450.000
183.45	-533.333
183.83	518.182
184.20	-500.000
184.58	2200.000
184.96	5600.000
185.34	-780.000
185.72	-587.500
186.09	-2800.000
186.47	2550.000
186.85	2200.000
187.23	4700.000
187.61	-1733.333
187.98	1400.000
188.36	581.818
188.74	518.182
189.12	-880.000
189.49	530.000
189.87	-4800.000
190.25	-1375.000
190.63	407.143
191.00	461.538
191.38	883.333
191.76	-1025.000
192.14	1325.000
192.51	675.000
192.89	883.333
193.27	487.500
193.65	-1175.000
194.02	540.000
194.40	960.000
194.78	510.000
195.15	466.667
195.53	660.000
195.91	-2150.000
196.29	350.000
196.66	289.474
197.04	-360.000
197.42	0.000
197.79	550.000
198.17	-4900.000
198.55	657.143
198.92	600.000
199.30	900.000
199.68	0.000
200.05	327.778
200.43	785.714
200.81	4300.000
201.18	1766.667
201.56	-1533.333
201.94	566.667
202.31	722.222
202.69	433.333
203.07	470.000
203.44	0.000
203.82	1350.000
204.19	800.000
204.57	414.286
204.95	737.500
205.32	1833.333
205.70	481.818
206.08	371.429
206.45	2750.000
206.83	387.500
207.20	783.333
207.58	760.000
207.96	305.556
208.33	600.000
208.71	-700.000
209.08	857.143
209.46	622.222
209.84	472.727
210.21	-1333.333
210.59	1300.000
210.96	-537.500
211.34	2350.000
211.71	610.000
212.09	450.000
212.46	0.000
212.84	1600.000
213.22	1325.000
213.59	-6000.000
213.97	966.667
214.34	814.286
214.72	600.000
215.09	1120.000
215.47	-2450.000
215.84	-2550.000
216.22	1833.333
216.59	335.714
216.97	1300.000
217.34	354.545
217.72	-666.667
218.09	0.000
218.47	-4400.000
218.84	711.111
219.22	742.857
219.59	1266.667
219.97	-714.286
220.34	940.000
220.72	-1633.333
221.09	442.857
221.47	1275.000
221.84	-950.000
222.22	0.000
222.59	1450.000
222.97	-2300.000
223.34	1200.000
223.72	430.769
224.09	780.000
224.46	2250.000
224.84	-4200.000
225.21	-1000.000
225.59	-4700.000
225.96	550.000
226.34	315.000
226.71	2750.000
227.08	662.500
227.46	560.000
227.83	-1000.000
228.21	-2250.000
228.58	655.556
228.95	-1950.000
229.33	-2300.000
229.70	1866.667
230.08	857.143
230.45	-720.000
230.82	375.000
231.20	833.333
231.57	685.714
231.95	458.333
232.32	254.545
232.69	381.818
233.07	657.143
233.44	346.154
233.81	-1633.333
234.19	263.158
234.56	483.333
234.93	383.333
235.31	454.545
235.68	307.692
236.05	378.571
236.43	181.818
236.80	252.632
237.17	4000.000
237.55	209.524
237.92	189.286
238.29	271.429
238.67	151.613
239.04	200.000
239.41	130.556
239.79	86.957
240.16	135.714
240.53	104.545
240.91	78.431
241.28	80.000
241.65	98.000
242.02	81.159
242.40	70.968
242.77	75.000
243.14	62.366
243.51	66.292
243.89	58.824
244.26	47.778
244.63	58.065
245.00	53.191
245.38	49.505
245.75	40.187
246.12	38.532
246.49	40.146
246.87	49.600
247.24	37.692
247.61	31.429
247.98	35.294
248.36	31.081
248.73	28.662
249.10	33.758
249.47	29.379
249.84	32.086
250.22	31.016
250.59	26.627
250.96	24.747
251.33	27.014
251.70	23.762
252.08	19.048
252.45	18.834
252.82	20.870
253.19	28.936
253.56	23.529
253.94	21.162
254.31	21.875
254.68	18.462
255.05	19.557
255.42	19.512
255.79	18.750
256.16	20.578
256.54	17.668
256.91	21.352
257.28	15.827
257.65	17.822
258.02	16.770
258.39	14.826
258.76	17.057
259.14	17.560
259.51	15.805
259.88	14.907
260.25	13.293
260.62	15.318
260.99	13.354
261.36	15.315
261.73	12.034
262.10	13.663
262.47	14.366
262.85	13.649
263.22	9.117
263.59	14.530
263.96	12.912
264.33	14.099
264.70	13.684
265.07	15.857
265.44	11.111
265.81	12.652
266.18	12.060
266.55	14.390
266.92	10.565
267.29	15.278
267.66	10.550
268.03	14.773
268.40	12.850
268.77	12.172
269.14	13.514
269.51	13.093
269.88	12.354
270.25	12.415
270.62	13.258
270.99	12.473
271.36	12.661
271.73	10.981
272.10	10.870
272.47	13.118
272.84	13.420
273.21	12.998
273.58	10.917
273.95	11.321
274.32	9.917
274.69	11.991
275.06	9.646
275.43	11.064
275.80	11.022
276.17	11.405
276.54	11.019
276.91	9.684
277.28	11.328
277.65	13.153
278.02	10.352
278.39	11.328
278.76	10.182
279.13	11.321
279.50	10.615
279.87	9.363
280.23	10.978
280.60	9.091
280.97	11.091
281.34	10.442
281.71	11.636
282.08	10.173
282.45	10.545
282.82	9.591
283.19	7.665
283.56	9.298
283.92	8.799
284.29	8.818
284.66	9.074
285.03	7.776
285.40	8.803
285.77	9.764
286.14	7.945
286.51	10.500
286.87	9.060
287.24	10.423
287.61	7.544
287.98	8.604
288.35	9.509
288.72	9.034
289.08	9.390
289.45	6.755
289.82	9.268
290.19	7.378
290.56	9.954
290.93	7.251
291.29	7.055
291.66	7.227
292.03	12.064
292.40	9.398
292.77	8.284
293.13	7.463
293.50	7.726
293.87	8.000
294.24	7.407
294.60	5.677
294.97	7.413
295.34	9.168
295.71	8.239
296.08	7.835
296.44	6.602
296.81	7.266
297.18	7.724
297.55	5.673
297.91	6.464
298.28	7.764
298.65	8.747
299.02	6.588
299.38	7.039
299.75	5.121
300.12	6.003
300.48	7.250
300.85	6.412
301.22	7.643
301.59	4.419
301.95	5.919
302.32	7.445
302.69	7.288
303.05	6.909
303.42	5.062
303.79	5.776
304.15	4.895
304.52	5.214
304.89	6.620
305.25	6.265
305.62	7.814
305.99	5.903
306.35	6.152
306.72	5.157
307.09	6.659
307.45	6.194
307.82	4.129
308.19	5.298
308.55	6.149
308.92	5.478
309.29	5.597
309.65	5.408
310.02	5.708
310.38	5.591
310.75	5.491
311.12	5.834
311.48	5.120
311.85	6.813
312.22	5.411
312.58	4.678
312.95	5.808
313.31	5.340
313.68	6.133
314.05	7.890
314.41	6.231
314.78	4.632
315.14	5.561
315.51	5.252
315.87	6.436
316.24	4.866
316.61	4.678
316.97	5.773
317.34	3.816
317.70	5.067
318.07	5.679
318.43	5.186
318.80	5.248
319.16	4.708
319.53	4.972
319.89	5.429
320.26	5.200
320.62	5.159
320.99	6.061
321.35	5.758
321.72	5.031
322.08	5.528
322.45	5.871
322.81	6.395
323.18	5.395
323.54	5.566
323.91	5.000
324.27	4.493
324.64	4.287
325.00	4.689
325.37	5.187
325.73	6.284
326.10	4.501
326.46	4.480
326.83	5.436
327.19	4.868
327.56	3.484
327.92	4.724
328.29	5.324
328.65	5.249
329.01	4.693
329.38	4.440
329.74	4.155
330.11	4.901
330.47	5.051
330.84	5.882
331.20	4.554
331.56	5.872
331.93	3.889
332.29	5.146
332.66	5.575
333.02	4.296
333.38	5.149
333.75	5.971
334.11	5.427
334.48	5.146
334.84	4.687
335.20	4.364
335.57	3.898
335.93	4.196
336.29	4.396
336.66	5.140
337.02	4.796
337.38	5.370
337.75	3.832
338.11	4.297
338.47	4.696
338.84	4.950
339.20	4.037
339.56	5.201
339.93	4.455
340.29	4.801
340.65	4.724
341.02	4.974
341.38	4.893
341.74	3.947
342.11	4.629
342.47	4.405
342.83	3.853
343.20	5.455
343.56	5.392
343.92	3.684
344.28	4.847
344.65	5.331
345.01	3.788
345.37	3.945
345.73	4.569
346.10	4.348
346.46	4.661
346.82	4.613
347.19	4.177
347.55	4.105
347.91	4.369
348.27	4.519
348.63	4.515
349.00	3.883
349.36	5.255
349.72	6.095
350.08	3.971
350.45	4.638
350.81	4.224
351.17	4.781
351.53	4.177
351.89	4.043
352.26	4.736
352.62	4.571
352.98	4.376
353.34	4.437
353.70	3.601
354.07	4.435
354.43	4.444
354.79	4.666
355.15	4.389
355.51	5.036
355.87	4.408
356.24	4.560
356.60	4.090
356.96	4.264
357.32	3.679
357.68	4.016
358.04	3.484
358.40	4.592
358.77	4.773
359.13	3.236
359.49	3.765
359.85	3.810
360.21	3.110
360.57	4.047
360.93	4.462
361.29	4.006
361.66	3.560
362.02	4.478
362.38	4.411
362.74	4.464
363.10	3.183
363.46	3.962
363.82	3.628
364.18	4.332
364.54	4.755
364.90	4.391
365.26	3.456
365.62	4.383
365.98	3.068
366.35	3.080
366.71	3.543
367.07	3.860
367.43	4.209
367.79	4.568
368.15	4.382
368.51	3.416
368.87	4.140
369.23	3.292
369.59	3.765
369.95	4.044
370.31	4.558
370.67	3.623
371.03	4.270
371.39	3.426
371.75	3.529
372.11	3.556
372.47	4.106
372.83	3.746
373.19	3.324
373.55	4.139
373.91	4.271
374.27	4.536
374.63	3.491
374.99	4.308
375.35	3.210
375.71	3.427
376.07	4.321
376.42	3.920
376.78	3.777
377.14	3.460
377.50	4.040
377.86	2.726
378.22	3.161
378.58	2.757
378.94	3.268
379.30	2.735
379.66	4.251
380.02	3.378
380.38	2.672
380.74	3.842
381.09	2.995
381.45	3.749
381.81	4.238
382.17	3.822
382.53	3.145
382.89	3.580
383.25	2.939
383.61	3.408
383.97	4.003
384.32	3.306
384.68	2.788
385.04	3.073
385.40	3.034
385.76	3.071
386.12	3.303
386.48	3.902
386.83	3.592
387.19	3.463
387.55	3.649
387.91	3.325
388.27	3.495
388.62	3.934
388.98	3.010
389.34	4.130
389.70	3.801
390.06	3.739
390.42	3.372
390.77	4.071
391.13	3.127
391.49	3.363
391.85	3.183
392.20	2.587
392.56	2.588
392.92	3.061
393.28	2.071
393.64	3.058
393.99	3.849
394.35	3.598
394.71	3.388
395.07	2.928
395.42	3.090
395.78	3.053
396.14	4.035
396.50	3.446
396.85	3.560
397.21	3.453
397.57	3.348
397.92	3.185
398.28	2.410
398.64	3.166
399.00	3.581
399.35	2.933
399.71	2.951
400.07	3.844
400.42	4.049
400.78	3.136
401.14	3.415
401.49	3.224
401.85	2.904
402.21	2.814
402.57	2.468
402.92	3.342
403.28	3.186
403.63	2.785
403.99	2.739
404.35	3.758
404.70	2.938
405.06	4.077
405.42	3.618
405.77	2.057
406.13	2.822
406.49	3.726
406.84	3.249
407.20	2.423
407.55	2.999
407.91	3.267
408.27	2.425
408.62	3.251
408.98	3.125
409.34	3.383
409.69	3.548
410.05	3.346
410.40	3.670
410.76	3.166
411.11	3.800
411.47	3.834
411.83	3.421
412.18	2.907
412.54	3.362
412.89	4.096
413.25	2.952
413.60	3.027
413.96	3.279
414.31	3.038
414.67	3.485
415.03	3.179
415.38	3.479
415.74	3.344
416.09	3.658
416.45	3.748
416.80	2.710
417.16	2.949
417.51	3.384
417.87	2.762
418.22	3.596
418.58	3.744
418.93	2.764
419.29	3.883
419.64	3.338
420.00	3.720
420.35	3.768
420.71	3.885
421.06	3.103
421.42	3.684
421.77	3.924
422.12	2.583
422.48	2.698
422.83	3.494
423.19	3.204
423.54	2.960
423.90	3.768
424.25	3.406
424.61	3.214
424.96	2.507
425.31	3.156
425.67	2.640
426.02	3.429
426.38	3.907
426.73	3.218
427.09	3.222
427.44	2.875
427.79	2.933
428.15	3.452
428.50	3.569
428.85	3.695
429.21	2.485
429.56	2.644
429.92	2.365
430.27	2.979
430.62	2.253
430.98	3.425
431.33	2.887
431.68	2.880
432.04	3.355
432.39	2.856
432.74	3.112
433.10	3.339
433.45	3.149
433.80	2.384
434.16	3.419
434.51	3.211
434.86	3.307
435.22	2.724
435.57	2.675
435.92	2.458
436.28	3.084
436.63	4.305
436.98	3.091
437.34	3.280
437.69	2.917
438.04	2.811
438.39	3.224
438.75	3.021
439.10	3.073
439.45	3.483
439.81	3.384
440.16	2.823
440.51	3.222
440.86	3.069
441.22	2.503
441.57	3.132
441.92	3.071
442.27	2.583
442.63	2.844
442.98	3.775
443.33	2.826
443.68	2.736
444.03	2.635
444.39	2.483
444.74	2.597
445.09	3.019
445.44	2.734
445.79	2.771
446.15	3.441
446.50	3.123
446.85	2.878
447.20	3.111
447.55	2.959
447.91	3.199
448.26	2.727
448.61	2.940
448.96	3.987
449.31	3.375
449.66	3.264
450.02	2.730
450.37	2.608
450.72	2.594
451.07	2.986
451.42	2.614
451.77	3.817
452.12	3.811
452.47	3.172
452.83	2.797
453.18	3.178
453.53	3.154
453.88	2.894
454.23	3.108
454.58	3.695
454.93	3.369
455.28	2.494
455.63	3.155
455.98	3.750
456.34	3.392
456.69	3.319
457.04	3.344
457.39	3.390
457.74	2.786
458.09	2.933
458.44	2.623
458.79	2.711
459.14	2.935
459.49	3.736
459.84	2.548
460.19	2.534
460.54	3.125
460.89	3.182
461.24	3.643
461.59	4.184
461.94	3.083
462.29	3.383
462.64	2.808
462.99	3.643
463.34	3.933
463.69	3.315
464.04	3.362
464.39	3.188
464.74	3.149
465.09	3.317
465.44	2.382
465.79	2.740
466.14	2.682
466.49	3.170
466.84	3.269
467.19	2.957
467.54	3.562
467.89	2.881
468.24	3.432
468.59	3.480
468.94	3.787
469.29	3.406
469.64	4.485
469.99	3.518
470.34	2.576
470.68	2.874
471.03	3.333
471.38	3.614
471.73	3.398
472.08	4.079
472.43	3.329
472.78	3.621
473.13	3.787
473.48	3.184
473.83	3.293
474.17	2.676
474.52	3.164
474.87	3.561
475.22	3.424
475.57	3.117
475.92	3.399
476.27	3.269
476.61	3.089
476.96	3.134
477.31	2.826
477.66	3.173
478.01	3.032
478.36	2.803
478.70	2.233
479.05	3.248
479.40	2.815
479.75	2.644
480.10	2.435
480.45	2.523
480.79	2.102
481.14	2.691
481.49	2.753
481.84	2.149
482.19	2.226
482.53	2.890
482.88	3.071
483.23	2.477
483.58	2.866
483.92	2.343
484.27	2.222
484.62	2.371
484.97	2.207
485.31	2.021
485.66	1.450
486.01	1.124
486.36	1.015
486.70	1.061
487.05	1.376
487.40	1.532
487.75	1.698
488.09	1.729
488.44	1.835
488.79	2.061
489.13	2.521
489.48	2.610
489.83	1.985
490.17	2.850
490.52	2.834
490.87	2.714
491.22	2.592
491.56	2.551
491.91	2.234
492.26	2.159
492.60	2.903
492.95	2.526
493.30	2.850
493.64	2.846
493.99	2.832
494.34	2.498
494.68	2.473
495.03	2.444
495.37	2.420
495.72	1.949
496.07	2.923
496.41	2.478
496.76	2.375
497.11	2.386
497.45	2.562
497.80	2.831
498.14	2.754
498.49	2.537
498.84	2.637
499.18	2.095
499.53	2.327
499.87	2.610
500.22	2.685
500.56	2.913
500.91	2.163
501.26	2.845
501.60	2.800
501.95	2.429
502.29	2.812
502.64	2.514
502.98	2.712
503.33	2.057
503.67	2.645
504.02	2.572
504.36	3.088
504.71	2.296
505.06	2.940
505.40	2.333
505.75	2.411
506.09	2.187
506.44	2.368
506.78	2.776
507.13	2.322
507.47	3.333
507.82	2.482
508.16	2.584
508.51	2.435
508.85	2.731
509.19	2.602
509.54	2.194
509.88	2.679
510.23	2.879
510.57	2.941
510.92	3.314
511.26	2.878
511.61	3.008
511.95	2.401
512.30	2.863
512.64	2.633
512.98	2.840
513.33	3.105
513.67	2.508
514.02	2.219
514.36	3.113
514.70	3.210
515.05	1.952
515.39	2.860
515.74	2.534
516.08	3.242
516.42	3.385
516.77	3.735
517.11	2.220
517.46	3.442
517.80	2.671
518.14	2.664
518.49	2.800
518.83	2.955
519.17	3.349
519.52	2.999
519.86	2.966
520.20	3.642
520.55	3.770
520.89	3.893
521.23	3.438
521.58	2.821
521.92	3.307
522.26	2.990
522.61	2.928
522.95	2.517
523.29	3.043
523.64	3.110
523.98	3.142
524.32	3.197
524.66	3.428
525.01	3.799
525.35	2.788
525.69	3.387
526.04	3.614
526.38	3.783
526.72	2.945
527.06	3.139
527.41	2.847
527.75	2.765
528.09	3.532
528.43	3.824
528.78	3.135
529.12	2.970
529.46	3.368
529.80	3.960
530.15	3.302
530.49	2.831
530.83	3.101
531.17	4.439
531.51	4.215
531.86	3.355
532.20	3.325
532.54	3.908
532.88	3.723
533.22	3.310
533.57	3.827
533.91	3.492
534.25	3.281
534.59	3.661
534.93	3.688
535.27	3.018
535.62	3.907
535.96	2.511
536.30	2.861
536.64	3.542
536.98	3.650
537.32	3.292
537.66	3.733
538.01	4.082
538.35	3.814
538.69	4.020
539.03	3.119
539.37	2.684
539.71	2.398
540.05	3.595
540.39	3.455
540.73	3.687
541.07	4.478
541.42	3.196
541.76	4.387
542.10	4.398
542.44	3.974
542.78	5.138
543.12	3.967
543.46	5.311
543.80	4.945
544.14	4.044
544.48	5.143
544.82	4.554
545.16	4.489
545.50	4.692
545.84	5.175
546.18	5.455
546.52	5.162
546.86	4.261
547.20	4.720
547.54	4.208
547.88	4.401
548.22	4.421
548.56	4.403
548.90	3.713
549.24	3.434
549.58	4.434
549.92	3.846
550.26	3.977
550.60	4.288
550.94	3.873
551.28	2.780
551.62	3.666
551.96	4.211
552.30	4.573
552.64	4.124
552.98	3.932
553.32	4.585
553.66	4.158
554.00	4.049
554.34	4.486
554.68	4.506
555.02	4.372
555.36	4.384
555.69	4.263
556.03	3.567
556.37	2.865
556.71	3.274
557.05	3.782
557.39	4.129
557.73	3.387
558.07	3.916
558.41	3.907
558.75	4.041
559.08	4.474
559.42	3.250
559.76	4.044
560.10	3.783
560.44	3.215
560.78	3.194
561.12	3.496
561.45	3.716
561.79	3.362
562.13	3.555
562.47	3.415
562.81	3.347
563.15	3.946
563.48	3.515
563.82	2.609
564.16	3.466
564.50	2.865
564.84	3.603
565.17	2.574
565.51	3.706
565.85	3.490
566.19	3.256
566.52	3.737
566.86	2.471
567.20	2.771
567.54	2.968
567.88	2.444
568.21	2.963
568.55	3.084
568.89	2.772
569.23	2.406
569.56	2.389
569.90	2.189
570.24	2.081
570.57	2.074
570.91	1.487
571.25	1.884
571.59	1.797
571.92	1.584
572.26	1.646
572.60	1.742
572.93	1.619
573.27	1.982
573.61	1.368
573.95	1.576
574.28	1.307
574.62	1.118
574.96	1.458
575.29	1.237
575.63	1.575
575.97	1.536
576.30	1.885
576.64	1.390
576.98	1.604
577.31	1.294
577.65	1.151
577.98	1.267
578.32	1.271
578.66	1.300
578.99	1.598
579.33	1.380
579.67	1.411
580.00	1.510
580.34	1.448
580.67	1.702
581.01	1.687
581.35	1.105
581.68	1.395
582.02	0.892
582.35	1.103
582.69	1.156
583.02	1.214
583.36	1.499
583.70	1.648
584.03	1.620
584.37	1.765
584.70	1.463
585.04	1.468
585.37	1.608
585.71	1.621
586.04	1.595
586.38	1.698
586.72	1.988
587.05	1.874
587.39	1.266
587.72	1.804
588.06	1.441
588.39	1.866
588.73	1.584
589.06	2.026
589.40	2.054
589.73	1.866
590.07	2.135
590.40	2.009
590.73	2.420
591.07	2.808
591.40	2.278
591.74	2.944
592.07	2.749
592.41	2.646
592.74	2.172
593.08	2.398
593.41	2.056
593.75	1.780
594.08	1.710
594.41	2.439
594.75	1.701
595.08	1.861
595.42	1.926
595.75	1.709
596.09	2.178
596.42	2.829
596.75	2.828
597.09	3.030
597.42	2.192
597.75	2.070
598.09	2.217
598.42	2.320
598.76	2.189
599.09	2.014
599.42	2.329
599.76	2.160
600.09	1.858
600.42	2.082
600.76	2.500
601.09	1.821
601.42	2.549
601.76	2.239
602.09	2.372
602.42	2.309
602.76	2.499
603.09	1.849
603.42	2.148
603.76	1.982
604.09	1.629
604.42	2.283
604.76	2.910
605.09	2.097
605.42	2.565
605.75	2.111
606.09	1.911
606.42	2.207
606.75	2.406
607.09	2.595
607.42	2.139
607.75	2.068
608.08	2.388
608.42	3.451
608.75	2.344
609.08	2.544
609.41	2.761
609.75	2.573
610.08	2.922
610.41	2.235
610.74	2.507
611.07	3.211
611.41	4.122
611.74	3.972
612.07	3.520
612.40	3.620
612.73	3.789
613.07	3.394
613.40	3.791
613.73	3.041
614.06	3.280
614.39	3.933
614.72	3.684
615.06	2.941
615.39	3.025
615.72	3.476
616.05	3.190
616.38	2.890
616.71	3.029
617.05	3.946
617.38	2.886
617.71	2.583
618.04	3.305
618.37	3.016
618.70	4.045
619.03	4.145
619.36	3.598
619.69	3.732
620.03	4.464
620.36	4.078
620.69	4.589
621.02	4.572
621.35	3.681
621.68	4.206
622.01	3.947
622.34	4.085
622.67	3.878
623.00	3.302
623.33	3.860
623.66	4.074
623.99	3.682
624.32	3.424
624.65	3.249
624.99	3.683
625.32	3.114
625.65	3.757
625.98	4.074
626.31	5.054
626.64	4.735
626.97	4.406
627.30	3.824
627.63	5.086
627.96	4.794
628.29	5.162
628.62	5.581
628.95	6.604
629.28	5.292
629.61	5.775
629.94	5.333
630.26	5.529
630.59	5.815
630.92	4.885
631.25	4.640
631.58	4.805
631.91	5.071
632.24	4.747
632.57	6.401
632.90	5.263
633.23	4.810
633.56	7.119
633.89	7.928
634.22	6.243
634.55	6.982
634.88	5.509
635.20	5.974
635.53	7.108
635.86	4.208
636.19	5.412
636.52	5.882
636.85	6.300
637.18	6.106
637.51	6.028
637.83	4.069
638.16	6.522
638.49	5.919
638.82	6.574
639.15	6.500
639.48	6.733
639.81	7.239
640.13	6.380
640.46	6.040
640.79	8.587
641.12	6.602
641.45	6.285
641.77	6.480
642.10	6.725
642.43	6.006
642.76	7.121
643.09	7.209
643.41	6.980
643.74	8.488
644.07	7.622
644.40	9.202
644.73	9.921
645.05	8.875
645.38	8.057
645.71	7.568
646.04	9.136
646.36	8.848
646.69	8.361
647.02	6.973
647.35	8.247
647.67	6.726
648.00	8.618
648.33	7.426
648.66	8.182
648.98	9.145
649.31	6.278
649.64	8.221
649.96	7.601
650.29	8.373
650.62	6.796
650.94	10.049
651.27	10.811
651.60	8.319
651.92	8.626
652.25	6.678
652.58	8.100
652.90	9.479
653.23	8.166
653.56	7.874
653.88	9.033
654.21	9.795
654.54	8.251
654.86	8.879
655.19	7.027
655.52	2.630
655.84	0.774
656.17	0.645
656.49	0.772
656.82	0.730
657.15	0.814
657.47	0.619
657.80	0.653
658.13	0.711
658.45	1.102
658.78	1.098
659.10	1.691
659.43	1.634
659.75	2.456
660.08	3.418
660.41	4.935
660.73	6.989
661.06	6.529
661.38	8.182
661.71	10.769
662.03	9.862
662.36	9.344
662.68	11.647
663.01	9.899
663.33	11.890
663.66	9.454
663.98	11.015
664.31	8.613
664.63	11.336
664.96	8.853
665.28	10.861
665.61	9.747
665.93	10.865
666.26	11.156
666.58	9.833
666.91	8.457
667.23	11.236
667.56	9.719
667.88	9.829
668.21	13.433
668.53	9.544
668.86	11.039
669.18	12.580
669.50	10.652
669.83	11.765
670.15	11.556
670.48	11.765
670.80	11.422
671.13	11.253
671.45	9.362
671.77	11.813
672.10	10.906
672.42	7.951
672.75	9.287
673.07	7.570
673.39	5.967
673.72	7.227
674.04	8.431
674.37	9.903
674.69	9.202
675.01	8.996
675.34	10.883
675.66	13.684
675.98	11.202
676.31	8.613
676.63	12.102
676.95	10.273
677.28	8.178
677.60	10.769
677.92	12.869
678.25	10.062
678.57	10.159
678.89	10.621
679.22	9.430
679.54	11.832
679.86	9.541
680.18	8.587
680.51	9.752
680.83	8.541
681.15	10.566
681.48	11.342
681.80	9.091
682.12	7.663
682.44	8.897
682.77	10.591
683.09	13.090
683.41	9.091
683.73	12.362
684.06	9.917
684.38	9.589
684.70	11.240
685.02	11.820
685.34	8.974
685.67	7.168
685.99	8.763
686.31	6.997
686.63	8.304
686.96	9.107
687.28	8.845
687.60	8.877
687.92	8.958
688.24	8.175
688.56	9.237
688.89	11.826
689.21	10.699
689.53	11.065
689.85	11.308
690.17	9.110
690.49	12.951
690.82	8.879
691.14	9.598
691.46	10.759
691.78	9.438
692.10	10.744
692.42	11.776
692.74	11.411
693.06	10.851
693.39	10.678
693.71	9.389
694.03	9.684
694.35	10.173
694.67	13.501
694.99	12.683
695.31	10.784
695.63	11.483
695.95	12.714
696.27	13.959
696.59	10.622
696.91	12.176
697.23	8.920
697.56	11.940
697.88	9.407
698.20	11.042
698.52	9.892
698.84	10.913
699.16	8.986
699.48	10.689
699.80	12.077
700.12	13.247
700.44	14.324
700.76	14.641
701.08	11.782
701.40	12.291
701.72	15.452
702.04	18.750
702.36	11.331
702.68	11.615
703.00	11.911
703.32	11.702
703.64	13.137
703.96	11.421
704.28	15.407
704.60	15.836
704.91	13.353
705.23	16.716
705.55	15.947
705.87	17.276
706.19	18.021
706.51	14.953
706.83	17.879
707.15	14.286
707.47	10.606
707.79	13.268
708.11	13.699
708.43	10.714
708.74	10.714
709.06	14.026
709.38	14.961
709.70	14.535
710.02	17.804
710.34	10.909
710.66	16.716
710.98	17.898
711.29	18.605
711.61	15.044
711.93	12.179
712.25	17.363
712.57	17.647
712.89	15.571
713.20	17.325
713.52	17.105
713.84	17.405
714.16	15.549
714.48	14.368
714.80	17.933
715.11	14.121
715.43	13.947
715.75	15.362
716.07	16.294
716.39	14.420
716.70	17.276
717.02	17.986
717.34	19.435
717.66	16.791
717.97	20.717
718.29	15.185
718.61	18.978
718.93	18.382
719.24	14.879
719.56	16.949
719.88	18.983
720.20	19.257
720.51	19.861
720.83	16.357
721.15	15.299
721.46	14.894
721.78	21.505
722.10	17.736
722.42	17.669
722.73	20.225
723.05	16.803
723.37	18.219
723.68	24.324
724.00	15.854
724.32	17.339
724.63	20.732
724.95	18.828
725.27	23.077
725.58	19.922
725.90	20.803
726.22	19.623
726.53	19.792
726.85	19.454
727.16	17.794
727.48	13.121
727.80	17.803
728.11	18.478
728.43	21.538
728.74	13.978
729.06	17.153
729.38	21.691
729.69	18.505
730.01	14.334
730.32	17.708
730.64	16.722
730.96	17.162
731.27	19.205
731.59	15.596
731.90	14.286
732.22	15.528
732.53	14.241
732.85	16.026
733.16	19.293
733.48	14.950
733.80	14.610
734.11	20.382
734.43	16.272
734.74	14.571
735.06	12.321
735.37	18.497
735.69	14.968
736.00	19.281
736.32	16.822
736.63	16.294
736.95	18.211
737.26	9.864
737.58	14.194
737.89	15.719
738.21	17.747
738.52	18.929
738.83	18.113
739.15	17.692
739.46	15.693
739.78	19.097
740.09	18.462
740.41	18.710
740.72	13.240
741.04	18.148
741.35	18.750
741.66	30.667
741.98	22.642
742.29	25.359
742.61	29.310
742.92	18.552
743.23	18.803
743.55	20.800
743.86	19.298
744.18	27.434
744.49	21.531
744.80	24.883
745.12	25.909
745.43	18.502
745.74	27.027
746.06	24.771
746.37	23.767
746.68	20.362
747.00	25.926
747.31	20.000
747.62	19.027
747.94	18.943
748.25	20.000
748.56	25.551
748.88	17.822
749.19	28.500
749.50	23.256
749.82	21.951
750.13	16.735
750.44	18.248
750.75	17.193
751.07	20.900
751.38	21.603
751.69	17.329
752.01	19.925
752.32	16.968
752.63	19.858
752.94	19.262
753.26	21.200
753.57	17.886
753.88	23.047
754.19	20.714
754.51	20.486
754.82	12.274
755.13	20.000
755.44	18.797
755.75	18.613
756.07	17.021
756.38	14.599
756.69	16.443
757.00	13.772
757.31	16.320
757.63	15.789
757.94	16.354
758.25	13.725
758.56	11.852
758.87	14.785
759.18	15.455
759.50	15.361
759.81	12.461
760.12	12.187
760.43	15.759
760.74	14.402
761.05	13.277
761.36	12.299
761.67	13.068
761.99	15.839
762.30	17.014
762.61	22.519
762.92	20.312
763.23	17.647
763.54	23.200
763.85	16.797
764.16	21.154
764.47	20.152
764.78	15.901
765.10	12.342
765.41	16.224
765.72	14.970
766.03	17.868
766.34	16.667
766.65	22.128
766.96	20.513
767.27	28.426
767.58	30.729
767.89	30.000
768.20	22.989
768.51	23.350
768.82	27.064
769.13	18.699
769.44	21.862
769.75	24.034
770.06	14.220
770.37	24.887
770.68	29.167
770.99	22.667
771.30	18.443
771.61	21.973
771.92	18.852
772.23	26.050
772.54	21.538
772.85	23.560
773.16	25.000
773.47	29.348
773.78	32.487
774.09	25.595
774.39	33.918
774.70	25.926
775.01	35.507
775.32	33.333
775.63	38.158
775.94	30.216
776.25	40.157
776.56	42.537
776.87	34.426
777.18	35.938
777.48	35.115
777.79	40.152
778.10	32.593
778.41	47.321
778.72	37.956
779.03	32.886
779.34	32.215
779.65	22.297
779.95	32.515
780.26	35.948
780.57	31.724
780.88	42.187
781.19	36.842
781.50	44.595
781.80	30.818
782.11	33.333
782.42	22.785
782.73	28.834
783.04	37.162
783.34	39.437
783.65	38.356
783.96	36.567
784.27	34.965
784.57	25.899
784.88	37.963
785.19	45.238
785.50	48.113
785.81	48.507
786.11	42.623
786.42	42.636
786.73	41.593
787.04	45.283
787.34	45.536
787.65	46.000
787.96	47.748
788.26	35.537
788.57	44.915
788.88	43.802
789.19	41.667
789.49	43.182
789.80	35.115
790.11	54.286
790.41	52.475
790.72	53.012
791.03	56.522
791.33	68.605
791.64	47.423
791.95	60.396
792.25	66.667
792.56	66.234
792.87	76.923
793.17	64.557
793.48	57.471
793.79	54.023
794.09	57.955
794.40	47.059
794.70	42.647
795.01	37.778
795.32	36.691
795.62	42.520
795.93	46.552
796.23	52.212
796.54	57.647
796.85	56.757
797.15	77.465
797.46	54.545
797.76	84.337
798.07	63.291
798.37	61.538
798.68	60.606
798.99	57.746
799.29	74.026
799.60	69.318
799.90	78.082
800.21	71.642
800.51	81.034
800.82	98.246
801.12	72.131
801.43	78.788
801.73	71.622
802.04	84.127
802.34	71.605
802.65	67.188
802.95	94.915
803.26	90.625
803.56	64.286
803.87	61.538
804.17	73.529
804.48	101.852
804.78	89.655
805.09	79.412
805.39	86.538
805.70	73.214
806.00	95.082
806.30	83.333
806.61	69.512
806.91	60.759
807.22	64.474
807.52	50.746
807.83	71.831
808.13	67.188
808.43	83.333
808.74	61.842
809.04	69.565
809.35	79.104
809.65	81.579
809.95	88.710
810.26	96.610
810.56	96.825
810.86	109.091
811.17	76.190
811.47	88.333
811.77	94.444
812.08	114.545
812.38	114.000
812.69	144.444
812.99	131.818
813.29	104.082
813.59	85.714
813.90	89.796
814.20	110.909
814.50	69.231
814.81	94.118
815.11	108.163
815.41	91.803
815.72	147.619
816.02	123.636
816.32	140.476
816.62	105.000
816.93	109.756
817.23	126.190
817.53	111.364
817.84	139.394
818.14	121.739
818.44	104.444
818.74	147.059
819.04	117.500
819.35	137.143
819.65	167.647
819.95	142.857
820.25	195.000
820.56	143.590
820.86	113.636
821.16	132.558
821.46	143.590
821.76	110.000
822.07	137.143
822.37	140.000
822.67	151.515
822.97	94.118
823.27	153.571
823.57	148.649
823.88	160.000
824.18	176.667
824.48	128.571
824.78	200.000
825.08	166.667
825.38	148.649
825.69	136.585
825.99	212.500
826.29	120.690
826.59	126.316
826.89	121.053
827.19	123.529
827.49	154.839
827.79	145.455
828.09	131.818
828.39	121.277
828.70	120.408
829.00	133.333
829.30	154.839
829.60	140.000
829.90	260.000
830.20	182.143
830.50	156.522
830.80	204.348
831.10	173.333
831.40	170.000
831.70	173.913
832.00	173.077
832.30	229.630
832.60	300.000
832.90	190.000
833.20	378.571
833.50	200.000
833.80	182.759
834.10	153.125
834.40	219.231
834.70	244.444
835.00	314.286
835.30	142.857
835.60	323.077
835.90	182.759
836.20	335.714
836.50	189.655
836.80	184.000
837.10	183.333
837.40	247.619
837.70	235.294
838.00	185.185
838.30	252.381
838.60	271.429
838.90	200.000
839.19	225.000
839.49	307.143
839.79	305.000
840.09	215.000
840.39	261.905
840.69	252.174
840.99	294.444
841.29	400.000
841.59	341.667
841.88	337.500
842.18	172.414
842.48	247.619
842.78	173.333
843.08	221.739
843.38	187.500
843.68	716.667
843.97	180.769
844.27	179.310
844.57	266.667
844.87	350.000
845.17	218.519
845.47	1200.000
845.76	422.222
846.06	294.118
846.36	600.000
846.66	464.286
846.96	306.250
847.25	409.091
847.55	372.727
847.85	291.304
848.15	490.000
848.44	300.000
848.74	238.889
849.04	305.882
849.34	530.000
849.63	257.895
849.93	436.364
850.23	980.000
850.53	435.714
850.82	2700.000
851.12	-3900.000
851.42	4200.000
851.71	260.000
852.01	-1566.667
852.31	229.167
852.61	1500.000
852.90	242.857
853.20	224.000
853.50	305.882
853.79	261.905
854.09	212.500
854.39	331.250
854.68	151.351
854.98	167.742
855.28	173.333
855.57	255.172
855.87	185.185
856.17	210.526
856.46	253.333
856.76	305.882
857.05	189.655
857.35	204.167
857.65	353.333
857.94	234.783
858.24	253.846
858.53	270.000
858.83	209.091
859.13	353.333
859.42	0.000
859.72	477.778
860.01	445.455
860.31	259.091
860.60	257.895
860.90	221.739
861.20	511.111
861.49	391.667
861.79	-4400.000
862.08	637.500
862.38	304.762
862.67	246.154
862.97	305.882
863.26	455.556
863.56	266.667
863.85	400.000
864.15	562.500
864.44	353.333
864.74	766.667
865.03	737.500
865.33	289.474
865.62	445.455
865.92	438.462
866.21	366.667
866.51	0.000
866.80	390.909
867.10	1080.000
867.39	384.615
867.69	463.636
867.98	268.421
868.27	481.818
868.57	300.000
868.86	-4700.000
869.16	337.500
869.45	2150.000
869.75	-3400.000
870.04	375.000
870.33	671.429
870.63	950.000
870.92	2800.000
871.22	742.857
871.51	323.529
871.80	285.714
872.10	350.000
>>>>>End Processed Spectral Data<<<<<
