SpectraSuite Data File
++++++++++++++++++++++++++++++++++++
Date: Wed May 13 19:40:24 PDT 2015
User: schluterlab
Dark Spectrum Present: Yes
Reference Spectrum Present: Yes
Number of Sampled Component Spectra: 1
Spectrometers: USB2E3373
Integration Time (usec): 3000 (USB2E3373)
Spectra Averaged: 3 (USB2E3373)
Boxcar Smoothing: 0 (USB2E3373)
Correct for Electrical Dark: No (USB2E3373)
Strobe/Lamp Enabled: No (USB2E3373)
Correct for Detector Non-linearity: No (USB2E3373)
Correct for Stray Light: No (USB2E3373)
Number of Pixels in Processed Spectrum: 2048
>>>>>Begin Processed Spectral Data<<<<<
178.53	0.000
178.91	-1325.000
179.29	-1450.000
179.67	-200.000
180.04	-1525.000
180.42	2500.000
180.80	1200.000
181.18	-1150.000
181.56	771.429
181.94	0.000
182.31	-628.571
182.69	1733.333
183.07	-637.500
183.45	-566.667
183.83	590.909
184.20	-430.000
184.58	2500.000
184.96	5400.000
185.34	-880.000
185.72	-550.000
186.09	-2350.000
186.47	2700.000
186.85	2300.000
187.23	5700.000
187.61	-1800.000
187.98	1525.000
188.36	490.909
188.74	536.364
189.12	-980.000
189.49	640.000
189.87	-5500.000
190.25	-1250.000
190.63	457.143
191.00	453.846
191.38	1066.667
191.76	-1250.000
192.14	1550.000
192.51	725.000
192.89	1100.000
193.27	562.500
193.65	-1275.000
194.02	570.000
194.40	1040.000
194.78	550.000
195.15	525.000
195.53	570.000
195.91	-2450.000
196.29	368.750
196.66	321.053
197.04	-340.000
197.42	0.000
197.79	640.000
198.17	-4900.000
198.55	771.429
198.92	787.500
199.30	880.000
199.68	0.000
200.05	388.889
200.43	885.714
200.81	5500.000
201.18	1800.000
201.56	-1633.333
201.94	500.000
202.31	677.778
202.69	475.000
203.07	540.000
203.44	0.000
203.82	1350.000
204.19	814.286
204.57	442.857
204.95	600.000
205.32	1566.667
205.70	572.727
206.08	350.000
206.45	2750.000
206.83	418.750
207.20	900.000
207.58	900.000
207.96	366.667
208.33	700.000
208.71	-883.333
209.08	785.714
209.46	555.556
209.84	545.455
210.21	-1333.333
210.59	1475.000
210.96	-537.500
211.34	2950.000
211.71	570.000
212.09	800.000
212.46	0.000
212.84	1900.000
213.22	1300.000
213.59	-5200.000
213.97	783.333
214.34	700.000
214.72	663.636
215.09	1040.000
215.47	-2400.000
215.84	-2600.000
216.22	1800.000
216.59	407.143
216.97	1225.000
217.34	445.455
217.72	-900.000
218.09	0.000
218.47	-5100.000
218.84	611.111
219.22	957.143
219.59	1766.667
219.97	-628.571
220.34	1000.000
220.72	-1900.000
221.09	378.571
221.47	1625.000
221.84	-916.667
222.22	0.000
222.59	1500.000
222.97	-2850.000
223.34	1320.000
223.72	469.231
224.09	1260.000
224.46	2050.000
224.84	-6100.000
225.21	-820.000
225.59	-5200.000
225.96	600.000
226.34	315.000
226.71	3000.000
227.08	737.500
227.46	560.000
227.83	-1150.000
228.21	-2550.000
228.58	800.000
228.95	-2350.000
229.33	-2500.000
229.70	1966.667
230.08	857.143
230.45	-960.000
230.82	450.000
231.20	916.667
231.57	800.000
231.95	525.000
232.32	209.091
232.69	445.455
233.07	642.857
233.44	384.615
233.81	-1866.667
234.19	289.474
234.56	541.667
234.93	516.667
235.31	581.818
235.68	361.538
236.05	321.429
236.43	181.818
236.80	310.526
237.17	4900.000
237.55	352.381
237.92	246.429
238.29	276.190
238.67	203.226
239.04	231.034
239.41	163.889
239.79	154.348
240.16	200.000
240.53	165.909
240.91	127.451
241.28	136.000
241.65	142.000
242.02	114.493
242.40	117.742
242.77	111.667
243.14	93.548
243.51	98.876
243.89	107.059
244.26	91.111
244.63	100.000
245.00	82.979
245.38	73.267
245.75	74.766
246.12	68.807
246.49	74.453
246.87	84.000
247.24	76.923
247.61	70.000
247.98	66.667
248.36	67.568
248.73	57.325
249.10	65.605
249.47	66.102
249.84	61.497
250.22	61.497
250.59	69.822
250.96	64.141
251.33	56.872
251.70	57.426
252.08	54.762
252.45	56.951
252.82	55.217
253.19	57.021
253.56	50.588
253.94	55.187
254.31	55.859
254.68	49.615
255.05	54.244
255.42	54.878
255.79	52.206
256.16	51.264
256.54	54.064
256.91	47.687
257.28	47.482
257.65	51.815
258.02	49.379
258.39	46.057
258.76	47.826
259.14	48.810
259.51	46.201
259.88	46.584
260.25	47.734
260.62	46.243
260.99	46.273
261.36	51.652
261.73	47.851
262.10	45.930
262.47	48.732
262.85	47.354
263.22	41.595
263.59	46.154
263.96	43.407
264.33	45.692
264.70	43.947
265.07	44.501
265.44	47.727
265.81	40.146
266.18	49.749
266.55	44.390
266.92	44.472
267.29	44.213
267.66	43.578
268.03	43.409
268.40	44.626
268.77	41.527
269.14	43.468
269.51	43.567
269.88	44.755
270.25	41.761
270.62	44.045
270.99	40.215
271.36	42.918
271.73	44.626
272.10	38.478
272.47	44.946
272.84	42.208
273.21	42.767
273.58	40.175
273.95	39.203
274.32	41.116
274.69	42.827
275.06	37.205
275.43	42.128
275.80	42.084
276.17	39.919
276.54	39.917
276.91	40.316
277.28	39.453
277.65	40.426
278.02	39.130
278.39	42.188
278.76	39.273
279.13	39.245
279.50	39.292
279.87	40.438
280.23	38.124
280.60	39.652
280.97	39.556
281.34	39.115
281.71	39.818
282.08	40.883
282.45	37.818
282.82	38.366
283.19	36.542
283.56	37.018
283.92	38.409
284.29	37.390
284.66	40.290
285.03	36.709
285.40	38.380
285.77	36.869
286.14	37.306
286.51	37.000
286.87	37.607
287.24	37.948
287.61	34.671
287.98	34.740
288.35	33.439
288.72	35.202
289.08	36.307
289.45	35.420
289.82	36.260
290.19	32.496
290.56	35.069
290.93	32.931
291.29	34.049
291.66	32.153
292.03	35.756
292.40	32.599
292.77	33.284
293.13	31.194
293.50	32.653
293.87	33.185
294.24	30.667
294.60	30.568
294.97	31.395
295.34	32.017
295.71	32.386
296.08	30.342
296.44	30.124
296.81	29.590
297.18	32.385
297.55	28.232
297.91	30.475
298.28	32.262
298.65	30.287
299.02	29.908
299.38	32.138
299.75	26.146
300.12	29.374
300.48	29.000
300.85	28.113
301.22	29.682
301.59	28.030
301.95	29.345
302.32	27.856
302.69	27.121
303.05	27.879
303.42	28.272
303.79	27.293
304.15	27.389
304.52	26.651
304.89	27.875
305.25	26.682
305.62	27.746
305.99	27.745
306.35	26.622
306.72	28.251
307.09	27.858
307.45	28.153
307.82	26.786
308.19	25.717
308.55	27.400
308.92	27.820
309.29	26.505
309.65	26.829
310.02	27.378
310.38	28.602
310.75	26.716
311.12	26.203
311.48	26.750
311.85	27.778
312.22	27.888
312.58	27.131
312.95	27.772
313.31	25.243
313.68	27.339
314.05	27.811
314.41	26.935
314.78	27.694
315.14	26.912
315.51	28.115
315.87	26.733
316.24	27.210
316.61	27.583
316.97	27.202
317.34	27.886
317.70	27.916
318.07	28.200
318.43	30.235
318.80	28.210
319.16	27.966
319.53	27.298
319.89	28.857
320.26	29.000
320.62	28.472
320.99	29.697
321.35	29.899
321.72	30.390
322.08	31.194
322.45	31.940
322.81	30.426
323.18	31.599
323.54	31.076
323.91	30.660
324.27	31.740
324.64	31.873
325.00	30.929
325.37	33.394
325.73	33.932
326.10	32.921
326.46	31.810
326.83	34.081
327.19	33.305
327.56	33.537
327.92	34.296
328.29	34.871
328.65	33.517
329.01	34.928
329.38	33.395
329.74	33.887
330.11	35.721
330.47	34.986
330.84	34.559
331.20	34.517
331.56	34.495
331.93	34.722
332.29	34.250
332.66	35.133
333.02	34.369
333.38	34.146
333.75	34.848
334.11	34.431
334.48	34.694
334.84	34.743
335.20	36.000
335.57	34.542
335.93	32.679
336.29	35.073
336.66	35.257
337.02	33.394
337.38	36.204
337.75	34.225
338.11	35.452
338.47	34.807
338.84	34.647
339.20	34.495
339.56	36.496
339.93	34.818
340.29	34.511
340.65	34.581
341.02	35.428
341.38	35.320
341.74	34.386
342.11	35.895
342.47	35.947
342.83	34.675
343.20	35.671
343.56	33.361
343.92	35.263
344.28	34.524
344.65	35.942
345.01	34.764
345.37	34.477
345.73	34.010
346.10	35.124
346.46	33.814
346.82	34.432
347.19	34.169
347.55	33.333
347.91	35.761
348.27	34.593
348.63	35.117
349.00	34.547
349.36	34.647
349.72	34.403
350.08	33.712
350.45	35.069
350.81	34.525
351.17	34.279
351.53	35.135
351.89	33.498
352.26	33.623
352.62	34.723
352.98	34.765
353.34	35.168
353.70	33.797
354.07	34.435
354.43	34.048
354.79	34.513
355.15	34.318
355.51	35.811
355.87	35.265
356.24	35.016
356.60	34.002
356.96	35.559
357.32	35.159
357.68	35.906
358.04	35.075
358.40	35.075
358.77	34.977
359.13	33.938
359.49	34.196
359.85	33.571
360.21	34.530
360.57	34.864
360.93	36.154
361.29	34.543
361.66	35.526
362.02	34.851
362.38	35.665
362.74	34.301
363.10	34.789
363.46	34.996
363.82	35.223
364.18	35.463
364.54	36.256
364.90	34.844
365.26	34.191
365.62	35.354
365.98	35.793
366.35	35.172
366.71	36.515
367.07	35.033
367.43	36.575
367.79	36.617
368.15	35.776
368.51	35.174
368.87	36.188
369.23	36.723
369.59	35.337
369.95	35.662
370.31	35.969
370.67	35.580
371.03	37.079
371.39	36.953
371.75	36.838
372.11	35.562
372.47	37.243
372.83	37.176
373.19	36.561
373.55	36.511
373.91	38.881
374.27	36.082
374.63	36.291
374.99	36.441
375.35	36.288
375.71	36.737
376.07	37.311
376.42	36.795
376.78	37.575
377.14	35.685
377.50	37.947
377.86	36.569
378.22	37.421
378.58	35.965
378.94	36.644
379.30	36.196
379.66	37.246
380.02	36.486
380.38	36.612
380.74	37.215
381.09	36.919
381.45	37.185
381.81	38.329
382.17	38.280
382.53	37.170
382.89	38.333
383.25	36.648
383.61	38.290
383.97	37.961
384.32	37.243
384.68	38.414
385.04	37.923
385.40	38.204
385.76	38.206
386.12	38.277
386.48	38.829
386.83	39.064
387.19	38.899
387.55	38.466
387.91	38.331
388.27	36.481
388.62	37.492
388.98	37.838
389.34	38.298
389.70	38.013
390.06	38.023
390.42	38.651
390.77	38.677
391.13	39.438
391.49	38.579
391.85	38.447
392.20	37.855
392.56	38.510
392.92	38.846
393.28	38.225
393.64	38.729
393.99	37.874
394.35	38.524
394.71	38.018
395.07	37.944
395.42	39.679
395.78	38.804
396.14	37.927
396.50	39.975
396.85	39.415
397.21	38.718
397.57	38.810
397.92	38.822
398.28	37.948
398.64	38.172
399.00	38.444
399.35	39.030
399.71	38.600
400.07	38.498
400.42	37.975
400.78	38.661
401.14	38.476
401.49	38.806
401.85	37.447
402.21	36.647
402.57	38.125
402.92	38.777
403.28	38.476
403.63	38.428
403.99	38.408
404.35	38.667
404.70	38.309
405.06	37.915
405.42	37.804
405.77	38.343
406.13	38.600
406.49	39.622
406.84	38.630
407.20	37.766
407.55	38.992
407.91	38.200
408.27	39.056
408.62	37.207
408.98	38.174
409.34	37.515
409.69	38.839
410.05	37.794
410.40	38.043
410.76	37.993
411.11	37.756
411.47	38.275
411.83	38.974
412.18	38.343
412.54	39.477
412.89	38.072
413.25	38.194
413.60	38.110
413.96	37.644
414.31	38.761
414.67	39.354
415.03	38.543
415.38	38.338
415.74	38.842
416.09	40.692
416.45	37.885
416.80	40.185
417.16	40.214
417.51	39.814
417.87	38.150
418.22	39.306
418.58	38.993
418.93	38.391
419.29	39.529
419.64	39.861
420.00	38.963
420.35	38.841
420.71	38.972
421.06	39.200
421.42	38.655
421.77	38.565
422.12	38.349
422.48	37.777
422.83	40.303
423.19	38.398
423.54	39.118
423.90	38.957
424.25	39.028
424.61	38.452
424.96	39.359
425.31	38.704
425.67	38.764
426.02	38.057
426.38	39.744
426.73	39.321
427.09	38.967
427.44	39.678
427.79	39.045
428.15	39.762
428.50	39.029
428.85	39.869
429.21	39.702
429.56	38.569
429.92	38.551
430.27	38.977
430.62	39.017
430.98	39.024
431.33	39.278
431.68	39.267
432.04	37.806
432.39	39.749
432.74	39.198
433.10	40.407
433.45	40.000
433.80	39.967
434.16	39.156
434.51	39.000
434.86	39.624
435.22	39.689
435.57	39.271
435.92	39.321
436.28	39.976
436.63	40.287
436.98	39.725
437.34	40.787
437.69	40.840
438.04	40.135
438.39	39.224
438.75	40.500
439.10	39.553
439.45	40.260
439.81	40.242
440.16	39.864
440.51	39.953
440.86	40.533
441.22	38.821
441.57	39.703
441.92	39.969
442.27	40.366
442.63	39.705
442.98	40.394
443.33	39.783
443.68	39.959
444.03	39.434
444.39	39.873
444.74	40.909
445.09	40.539
445.44	40.623
445.79	39.634
446.15	39.651
446.50	40.172
446.85	39.928
447.20	39.878
447.55	40.424
447.91	40.099
448.26	40.345
448.61	39.910
448.96	40.144
449.31	40.720
449.66	40.405
450.02	40.223
450.37	39.286
450.72	39.425
451.07	39.183
451.42	40.608
451.77	39.988
452.12	39.145
452.47	38.868
452.83	40.443
453.18	39.487
453.53	39.641
453.88	39.929
454.23	39.570
454.58	39.855
454.93	41.513
455.28	39.900
455.63	40.413
455.98	40.536
456.34	38.819
456.69	40.326
457.04	40.062
457.39	38.632
457.74	40.046
458.09	40.196
458.44	40.080
458.79	37.907
459.14	39.898
459.49	39.580
459.84	39.003
460.19	39.128
460.54	38.715
460.89	39.440
461.24	39.951
461.59	40.325
461.94	39.273
462.29	39.525
462.64	38.673
462.99	38.647
463.34	39.667
463.69	39.962
464.04	39.478
464.39	39.188
464.74	38.087
465.09	38.842
465.44	38.338
465.79	38.479
466.14	39.190
466.49	38.932
466.84	39.346
467.19	39.288
467.54	39.000
467.89	38.475
468.24	38.976
468.59	39.133
468.94	39.035
469.29	38.882
469.64	39.759
469.99	39.851
470.34	39.366
470.68	40.086
471.03	39.048
471.38	40.028
471.73	37.708
472.08	40.526
472.43	38.631
472.78	38.512
473.13	38.703
473.48	39.326
473.83	39.207
474.17	39.079
474.52	39.578
474.87	39.755
475.22	39.292
475.57	37.937
475.92	38.874
476.27	38.050
476.61	37.728
476.96	37.548
477.31	36.787
477.66	37.965
478.01	37.637
478.36	38.604
478.70	37.799
479.05	37.167
479.40	38.332
479.75	37.722
480.10	36.829
480.45	37.982
480.79	37.506
481.14	36.986
481.49	37.779
481.84	37.631
482.19	37.210
482.53	37.844
482.88	37.413
483.23	37.383
483.58	37.216
483.92	37.629
484.27	36.035
484.62	36.853
484.97	36.500
485.31	37.466
485.66	35.497
486.01	34.672
486.36	34.112
486.70	33.840
487.05	34.551
487.40	35.215
487.75	35.460
488.09	36.215
488.44	36.324
488.79	37.324
489.13	37.357
489.48	37.235
489.83	35.909
490.17	36.475
490.52	36.182
490.87	36.273
491.22	35.698
491.56	36.492
491.91	35.877
492.26	36.013
492.60	35.806
492.95	36.249
493.30	36.355
493.64	35.604
493.99	35.794
494.34	35.569
494.68	36.584
495.03	36.419
495.37	35.319
495.72	36.696
496.07	36.427
496.41	34.558
496.76	35.884
497.11	36.110
497.45	35.724
497.80	35.940
498.14	35.072
498.49	35.512
498.84	35.475
499.18	35.619
499.53	35.613
499.87	35.834
500.22	35.233
500.56	36.408
500.91	35.673
501.26	35.941
501.60	36.497
501.95	35.060
502.29	36.036
502.64	35.568
502.98	34.642
503.33	35.009
503.67	35.452
504.02	35.828
504.36	34.956
504.71	35.271
505.06	35.181
505.40	35.732
505.75	34.908
506.09	35.569
506.44	35.964
506.78	35.314
507.13	35.740
507.47	35.455
507.82	35.410
508.16	35.005
508.51	36.631
508.85	35.402
509.19	35.969
509.54	35.663
509.88	35.343
510.23	36.093
510.57	36.429
510.92	35.526
511.26	35.612
511.61	36.463
511.95	35.386
512.30	35.578
512.64	36.002
512.98	36.817
513.33	36.135
513.67	34.792
514.02	36.526
514.36	36.592
514.70	36.303
515.05	35.917
515.39	35.782
515.74	35.473
516.08	36.333
516.42	36.681
516.77	36.399
517.11	36.016
517.46	36.174
517.80	36.527
518.14	35.321
518.49	36.931
518.83	37.102
519.17	35.855
519.52	36.389
519.86	36.167
520.20	37.399
520.55	37.163
520.89	36.436
521.23	36.912
521.58	36.855
521.92	36.742
522.26	36.120
522.61	37.259
522.95	37.201
523.29	36.762
523.64	36.098
523.98	36.969
524.32	36.791
524.66	35.598
525.01	36.213
525.35	36.183
525.69	35.468
526.04	36.199
526.38	36.974
526.72	36.196
527.06	35.907
527.41	35.272
527.75	36.977
528.09	36.802
528.43	36.966
528.78	36.816
529.12	35.333
529.46	37.906
529.80	37.376
530.15	37.570
530.49	35.200
530.83	35.886
531.17	37.859
531.51	37.743
531.86	36.452
532.20	37.419
532.54	36.579
532.88	36.842
533.22	35.915
533.57	36.543
533.91	36.303
534.25	35.237
534.59	36.974
534.93	35.931
535.27	36.814
535.62	36.813
535.96	36.284
536.30	35.728
536.64	36.317
536.98	37.027
537.32	35.616
537.66	36.800
538.01	36.274
538.35	36.781
538.69	36.311
539.03	34.568
539.37	34.377
539.71	33.701
540.05	35.425
540.39	36.478
540.73	35.834
541.07	36.794
541.42	36.595
541.76	36.710
542.10	35.899
542.44	36.093
542.78	36.561
543.12	34.933
543.46	36.131
543.80	36.239
544.14	33.825
544.48	35.619
544.82	35.151
545.16	35.719
545.50	34.704
545.84	36.626
546.18	36.431
546.52	35.444
546.86	35.052
547.20	36.076
547.54	34.803
547.88	35.140
548.22	35.990
548.56	35.409
548.90	34.379
549.24	35.892
549.58	35.948
549.92	36.126
550.26	35.156
550.60	34.855
550.94	35.070
551.28	34.967
551.62	35.370
551.96	35.228
552.30	35.904
552.64	35.700
552.98	35.119
553.32	34.997
553.66	35.242
554.00	35.072
554.34	34.092
554.68	36.409
555.02	35.261
555.36	34.377
555.69	34.168
556.03	34.455
556.37	34.652
556.71	33.424
557.05	33.894
557.39	34.430
557.73	34.510
558.07	35.170
558.41	34.153
558.75	34.313
559.08	34.825
559.42	35.299
559.76	35.956
560.10	34.047
560.44	34.312
560.78	33.599
561.12	34.828
561.45	33.572
561.79	33.949
562.13	33.937
562.47	33.948
562.81	33.543
563.15	33.712
563.48	33.422
563.82	34.768
564.16	32.701
564.50	34.766
564.84	33.186
565.17	33.848
565.51	33.930
565.85	32.931
566.19	33.375
566.52	33.376
566.86	33.394
567.20	32.960
567.54	33.676
567.88	32.754
568.21	33.122
568.55	31.749
568.89	31.761
569.23	31.551
569.56	32.267
569.90	31.245
570.24	31.432
570.57	31.214
570.91	29.347
571.25	30.235
571.59	30.368
571.92	30.501
572.26	29.983
572.60	30.450
572.93	30.075
573.27	30.405
573.61	29.816
573.95	30.181
574.28	30.201
574.62	29.300
574.96	29.343
575.29	29.680
575.63	29.726
575.97	29.888
576.30	29.474
576.64	29.568
576.98	29.193
577.31	29.344
577.65	29.316
577.98	29.292
578.32	28.634
578.66	29.078
578.99	29.057
579.33	29.218
579.67	29.190
580.00	29.609
580.34	29.544
580.67	29.189
581.01	29.773
581.35	28.922
581.68	29.291
582.02	28.302
582.35	28.662
582.69	29.107
583.02	28.751
583.36	29.490
583.70	29.845
584.03	29.911
584.37	29.802
584.70	29.859
585.04	29.599
585.37	29.404
585.71	29.370
586.04	29.403
586.38	29.493
586.72	29.854
587.05	29.557
587.39	29.077
587.72	29.451
588.06	29.109
588.39	29.630
588.73	29.627
589.06	30.103
589.40	30.303
589.73	29.989
590.07	30.534
590.40	29.375
590.73	30.367
591.07	31.217
591.40	30.198
591.74	30.952
592.07	29.625
592.41	30.054
592.74	29.363
593.08	29.014
593.41	28.757
593.75	28.607
594.08	29.366
594.41	29.905
594.75	29.168
595.08	28.454
595.42	29.842
595.75	29.523
596.09	30.529
596.42	30.177
596.75	30.266
597.09	30.303
597.42	29.216
597.75	29.409
598.09	29.609
598.42	29.811
598.76	29.266
599.09	28.810
599.42	28.530
599.76	28.990
600.09	28.889
600.42	28.598
600.76	28.286
601.09	28.488
601.42	29.376
601.76	29.677
602.09	29.368
602.42	29.737
602.76	29.424
603.09	28.678
603.42	29.481
603.76	28.620
604.09	28.693
604.42	29.393
604.76	29.776
605.09	30.188
605.42	28.687
605.75	29.056
606.09	28.589
606.42	28.688
606.75	29.200
607.09	28.673
607.42	28.669
607.75	28.819
608.08	28.658
608.42	28.552
608.75	28.449
609.08	28.261
609.41	28.653
609.75	29.490
610.08	29.076
610.41	28.399
610.74	28.666
611.07	29.496
611.41	29.588
611.74	29.864
612.07	29.244
612.40	29.643
612.73	29.211
613.07	29.849
613.40	29.753
613.73	29.261
614.06	29.892
614.39	28.369
614.72	29.000
615.06	28.887
615.39	29.034
615.72	28.528
616.05	28.708
616.38	29.516
616.71	29.988
617.05	30.565
617.38	29.224
617.71	30.150
618.04	30.709
618.37	28.977
618.70	30.989
619.03	30.921
619.36	30.075
619.69	30.915
620.03	30.288
620.36	31.484
620.69	30.068
621.02	31.416
621.35	29.522
621.68	29.673
622.01	30.186
622.34	30.333
622.67	29.506
623.00	29.787
623.33	29.378
623.66	30.879
623.99	29.750
624.32	30.813
624.65	29.520
624.99	27.975
625.32	28.892
625.65	30.278
625.98	30.976
626.31	30.793
626.64	30.612
626.97	30.424
627.30	29.177
627.63	30.599
627.96	30.782
628.29	30.971
628.62	30.284
628.95	32.358
629.28	31.478
629.61	31.531
629.94	32.190
630.26	30.696
630.59	31.459
630.92	31.513
631.25	30.898
631.58	30.030
631.91	31.034
632.24	30.380
632.57	32.004
632.90	33.114
633.23	32.550
633.56	32.655
633.89	32.729
634.22	32.577
634.55	32.781
634.88	30.778
635.20	31.900
635.53	33.614
635.86	32.054
636.19	32.235
636.52	30.796
636.85	32.188
637.18	30.184
637.51	32.388
637.83	30.086
638.16	31.714
638.49	32.494
638.82	33.881
639.15	31.125
639.48	32.419
639.81	32.842
640.13	32.552
640.46	32.886
640.79	33.025
641.12	31.087
641.45	34.218
641.77	34.168
642.10	34.064
642.43	32.132
642.76	32.663
643.09	33.896
643.41	34.294
643.74	35.802
644.07	34.756
644.40	36.963
644.73	35.433
645.05	36.450
645.38	33.807
645.71	34.783
646.04	35.216
646.36	36.895
646.69	35.284
647.02	34.014
647.35	33.849
647.67	32.035
648.00	34.634
648.33	35.974
648.66	31.818
648.98	33.283
649.31	33.184
649.64	33.034
649.96	33.532
650.29	33.491
650.62	32.686
650.94	35.494
651.27	34.797
651.60	32.612
651.92	34.026
652.25	31.270
652.58	33.801
652.90	33.491
653.23	31.433
653.56	33.386
653.88	34.073
654.21	35.229
654.54	34.323
654.86	34.891
655.19	31.892
655.52	22.773
655.84	20.671
656.17	27.163
656.49	36.623
656.82	37.778
657.15	29.300
657.47	21.920
657.80	16.923
658.13	17.612
658.45	26.843
658.78	27.147
659.10	28.356
659.43	29.544
659.75	30.594
660.08	31.772
660.41	35.568
660.73	36.213
661.06	34.076
661.38	37.273
661.71	35.000
662.03	35.503
662.36	31.610
662.68	34.940
663.01	35.556
663.33	34.820
663.66	35.294
663.98	36.501
664.31	34.034
664.63	33.806
664.96	35.412
665.28	35.451
665.61	34.503
665.93	33.803
666.26	34.888
666.58	35.565
666.91	37.209
667.23	36.629
667.56	33.909
667.88	36.325
668.21	36.247
668.53	34.273
668.86	32.684
669.18	35.608
669.50	37.174
669.83	38.562
670.15	36.222
670.48	34.641
670.80	36.638
671.13	37.792
671.45	36.383
671.77	35.031
672.10	34.750
672.42	34.276
672.75	32.172
673.07	33.803
673.39	33.092
673.72	33.594
674.04	31.765
674.37	33.981
674.69	32.720
675.01	33.473
675.34	38.193
675.66	38.105
675.98	35.845
676.31	35.714
676.63	35.032
676.95	35.010
677.28	37.150
677.60	35.385
677.92	38.397
678.25	34.497
678.57	35.458
678.89	35.471
679.22	33.595
679.54	34.542
679.86	34.128
680.18	33.453
680.51	33.865
680.83	32.918
681.15	33.019
681.48	37.429
681.80	33.849
682.12	31.992
682.44	32.689
682.77	34.623
683.09	39.056
683.41	37.694
683.73	37.528
684.06	39.463
684.38	33.464
684.70	32.752
685.02	36.023
685.34	32.601
685.67	31.469
685.99	32.131
686.31	31.911
686.63	31.802
686.96	31.071
687.28	32.310
687.60	32.065
687.92	34.186
688.24	33.840
688.56	34.137
688.89	37.137
689.21	37.118
689.53	36.326
689.85	36.807
690.17	34.161
690.49	32.484
690.82	35.981
691.14	32.812
691.46	34.177
691.78	33.333
692.10	37.603
692.42	33.533
692.74	33.402
693.06	33.617
693.39	36.961
693.71	33.188
694.03	39.158
694.35	34.416
694.67	36.384
694.99	35.122
695.31	34.804
695.63	35.407
695.95	36.430
696.27	34.518
696.59	35.233
696.91	35.751
697.23	32.864
697.56	35.608
697.88	30.470
698.20	35.417
698.52	36.129
698.84	34.744
699.16	34.793
699.48	35.629
699.80	34.300
700.12	45.714
700.44	36.340
700.76	40.608
701.08	41.667
701.40	36.592
701.72	40.525
702.04	42.330
702.36	34.561
702.68	36.261
703.00	36.565
703.32	35.106
703.64	36.997
703.96	38.440
704.28	34.593
704.60	36.950
704.91	40.356
705.23	39.003
705.55	39.867
705.87	47.841
706.19	40.283
706.51	38.629
706.83	38.788
707.15	39.496
707.47	35.354
707.79	35.872
708.11	37.443
708.43	35.238
708.74	33.929
709.06	35.065
709.38	36.745
709.70	36.628
710.02	36.499
710.34	36.970
710.66	37.313
710.98	38.352
711.29	37.500
711.61	40.708
711.93	39.423
712.25	41.158
712.57	40.809
712.89	42.907
713.20	38.602
713.52	45.066
713.84	36.709
714.16	39.024
714.48	36.782
714.80	44.985
715.11	37.176
715.43	37.982
715.75	38.261
716.07	39.617
716.39	41.693
716.70	42.525
717.02	42.086
717.34	41.343
717.66	44.030
717.97	44.223
718.29	41.111
718.61	44.891
718.93	43.750
719.24	37.024
719.56	36.949
719.88	38.305
720.20	42.230
720.51	41.812
720.83	41.636
721.15	38.060
721.46	43.262
721.78	47.312
722.10	43.396
722.42	45.113
722.73	43.446
723.05	43.852
723.37	39.676
723.68	40.541
724.00	45.122
724.32	40.726
724.63	42.683
724.95	42.678
725.27	39.676
725.58	43.750
725.90	42.336
726.22	43.774
726.53	42.361
726.85	39.932
727.16	39.146
727.48	40.780
727.80	36.364
728.11	40.942
728.43	38.462
728.74	41.935
729.06	43.431
729.38	43.750
729.69	40.569
730.01	38.225
730.32	35.417
730.64	40.134
730.96	35.974
731.27	39.404
731.59	39.450
731.90	35.277
732.22	33.851
732.53	36.842
732.85	40.385
733.16	34.405
733.48	39.867
733.80	36.688
734.11	41.083
734.43	39.349
734.74	34.857
735.06	37.249
735.37	40.751
735.69	36.624
736.00	41.176
736.32	38.318
736.63	37.700
736.95	41.853
737.26	36.395
737.58	36.452
737.89	39.465
738.21	39.590
738.52	40.714
738.83	40.377
739.15	42.308
739.46	44.891
739.78	39.236
740.09	40.000
740.41	39.677
740.72	35.889
741.04	44.444
741.35	44.583
741.66	48.889
741.98	41.509
742.29	50.718
742.61	48.276
742.92	44.796
743.23	47.436
743.55	42.800
743.86	45.175
744.18	47.345
744.49	53.110
744.80	50.235
745.12	47.727
745.43	47.577
745.74	50.000
746.06	45.872
746.37	39.910
746.68	44.344
747.00	47.685
747.31	51.905
747.62	42.920
747.94	48.458
748.25	37.447
748.56	51.542
748.88	43.069
749.19	47.500
749.50	42.791
749.82	41.463
750.13	41.224
750.44	40.146
750.75	42.807
751.07	42.122
751.38	44.599
751.69	40.794
752.01	44.361
752.32	40.794
752.63	40.426
752.94	43.033
753.26	46.800
753.57	40.650
753.88	41.016
754.19	42.143
754.51	42.014
754.82	35.379
755.13	39.623
755.44	43.233
755.75	40.146
756.07	40.071
756.38	41.606
756.69	42.617
757.00	37.126
757.31	38.872
757.63	34.795
757.94	34.316
758.25	35.784
758.56	30.864
758.87	33.602
759.18	36.061
759.50	36.677
759.81	34.891
760.12	34.687
760.43	38.682
760.74	32.337
761.05	34.746
761.36	35.027
761.67	40.909
761.99	38.820
762.30	38.889
762.61	39.695
762.92	44.922
763.23	40.756
763.54	40.400
763.85	34.766
764.16	43.846
764.47	41.065
764.78	39.576
765.10	32.911
765.41	36.283
765.72	38.623
766.03	36.050
766.34	38.000
766.65	48.085
766.96	42.735
767.27	50.254
767.58	50.000
767.89	58.421
768.20	51.149
768.51	45.178
768.82	49.083
769.13	40.244
769.44	39.676
769.75	41.631
770.06	43.119
770.37	44.344
770.68	47.685
770.99	44.889
771.30	37.295
771.61	50.224
771.92	45.082
772.23	44.538
772.54	50.256
772.85	49.738
773.16	50.000
773.47	46.196
773.78	49.239
774.09	47.619
774.39	52.047
774.70	49.383
775.01	57.246
775.32	64.706
775.63	55.263
775.94	53.957
776.25	62.205
776.56	61.194
776.87	64.754
777.18	57.812
777.48	64.122
777.79	59.848
778.10	51.852
778.41	65.179
778.72	54.745
779.03	55.034
779.34	56.376
779.65	52.027
779.95	55.215
780.26	52.941
780.57	56.552
780.88	68.750
781.19	58.647
781.50	60.811
781.80	55.975
782.11	51.412
782.42	50.000
782.73	51.534
783.04	61.486
783.34	55.634
783.65	68.493
783.96	60.448
784.27	52.448
784.57	51.799
784.88	59.259
785.19	60.317
785.50	63.208
785.81	70.896
786.11	68.033
786.42	58.915
786.73	63.717
787.04	64.151
787.34	71.429
787.65	79.000
787.96	63.964
788.26	63.636
788.57	68.644
788.88	71.074
789.19	58.333
789.49	65.909
789.80	64.885
790.11	72.381
790.41	78.218
790.72	86.747
791.03	88.043
791.33	81.395
791.64	67.010
791.95	73.267
792.25	85.556
792.56	90.909
792.87	105.128
793.17	87.342
793.48	79.310
793.79	85.057
794.09	70.455
794.40	68.908
794.70	63.235
795.01	57.037
795.32	51.799
795.62	55.906
795.93	65.517
796.23	71.681
796.54	75.294
796.85	89.189
797.15	112.676
797.46	101.515
797.76	90.361
798.07	89.873
798.37	89.231
798.68	98.485
798.99	84.507
799.29	92.208
799.60	78.409
799.90	97.260
800.21	107.463
800.51	96.552
800.82	115.789
801.12	109.836
801.43	106.061
801.73	81.081
802.04	123.810
802.34	96.296
802.65	109.375
802.95	115.254
803.26	117.188
803.56	80.000
803.87	95.385
804.17	107.353
804.48	114.815
804.78	106.897
805.09	108.824
805.39	117.308
805.70	112.500
806.00	129.508
806.30	100.000
806.61	95.122
806.91	69.620
807.22	88.158
807.52	82.090
807.83	94.366
808.13	107.812
808.43	108.333
808.74	93.421
809.04	91.304
809.35	122.388
809.65	90.789
809.95	109.677
810.26	96.610
810.56	117.460
810.86	150.000
811.17	150.000
811.47	113.333
811.77	100.000
812.08	132.727
812.38	116.000
812.69	147.222
812.99	154.545
813.29	134.694
813.59	126.190
813.90	144.898
814.20	114.545
814.50	84.615
814.81	116.176
815.11	118.367
815.41	101.639
815.72	138.095
816.02	123.636
816.32	147.619
816.62	122.500
816.93	124.390
817.23	150.000
817.53	138.636
817.84	175.758
818.14	143.478
818.44	133.333
818.74	188.235
819.04	162.500
819.35	157.143
819.65	197.059
819.95	196.429
820.25	215.000
820.56	194.872
820.86	143.182
821.16	148.837
821.46	169.231
821.76	140.000
822.07	154.286
822.37	147.500
822.67	163.636
822.97	127.451
823.27	242.857
823.57	186.486
823.88	182.500
824.18	206.667
824.48	154.762
824.78	212.000
825.08	216.667
825.38	154.054
825.69	143.902
825.99	233.333
826.29	206.897
826.59	181.579
826.89	165.789
827.19	188.235
827.49	174.194
827.79	150.000
828.09	143.182
828.39	151.064
828.70	132.653
829.00	162.963
829.30	170.968
829.60	162.500
829.90	353.333
830.20	207.143
830.50	234.783
830.80	247.826
831.10	206.667
831.40	183.333
831.70	230.435
832.00	246.154
832.30	200.000
832.60	318.750
832.90	233.333
833.20	471.429
833.50	222.581
833.80	217.241
834.10	231.250
834.40	226.923
834.70	322.222
835.00	295.238
835.30	162.857
835.60	453.846
835.90	203.448
836.20	407.143
836.50	213.793
836.80	196.000
837.10	205.556
837.40	295.238
837.70	288.235
838.00	240.741
838.30	257.143
838.60	338.095
838.90	253.846
839.19	270.000
839.49	400.000
839.79	325.000
840.09	245.000
840.39	290.476
840.69	260.870
840.99	266.667
841.29	370.000
841.59	433.333
841.88	406.250
842.18	189.655
842.48	290.476
842.78	213.333
843.08	243.478
843.38	200.000
843.68	816.667
843.97	234.615
844.27	220.690
844.57	309.524
844.87	375.000
845.17	251.852
845.47	1800.000
845.76	455.556
846.06	311.765
846.36	612.500
846.66	414.286
846.96	318.750
847.25	418.182
847.55	554.545
847.85	256.522
848.15	530.000
848.44	378.571
848.74	277.778
849.04	352.941
849.34	580.000
849.63	284.211
849.93	590.909
850.23	1080.000
850.53	414.286
850.82	2400.000
851.12	-4000.000
851.42	4900.000
851.71	300.000
852.01	-1433.333
852.31	254.167
852.61	1433.333
852.90	380.952
853.20	216.000
853.50	329.412
853.79	333.333
854.09	250.000
854.39	350.000
854.68	159.459
854.98	200.000
855.28	200.000
855.57	213.793
855.87	218.519
856.17	252.632
856.46	266.667
856.76	317.647
857.05	234.483
857.35	241.667
857.65	420.000
857.94	217.391
858.24	257.692
858.53	305.000
858.83	268.182
859.13	360.000
859.42	0.000
859.72	611.111
860.01	454.545
860.31	254.545
860.60	268.421
860.90	286.957
861.20	633.333
861.49	500.000
861.79	-4600.000
862.08	612.500
862.38	319.048
862.67	369.231
862.97	370.588
863.26	588.889
863.56	261.111
863.85	425.000
864.15	662.500
864.44	433.333
864.74	783.333
865.03	612.500
865.33	263.158
865.62	436.364
865.92	384.615
866.21	350.000
866.51	0.000
866.80	418.182
867.10	1040.000
867.39	384.615
867.69	536.364
867.98	305.263
868.27	490.909
868.57	321.053
868.86	-5200.000
869.16	312.500
869.45	1900.000
869.75	-4400.000
870.04	516.667
870.33	771.429
870.63	1425.000
870.92	2400.000
871.22	714.286
871.51	341.176
871.80	219.048
872.10	421.429
>>>>>End Processed Spectral Data<<<<<
