SpectraSuite Data File
++++++++++++++++++++++++++++++++++++
Date: Wed May 13 19:49:39 PDT 2015
User: schluterlab
Dark Spectrum Present: Yes
Reference Spectrum Present: Yes
Number of Sampled Component Spectra: 1
Spectrometers: USB2E3373
Integration Time (usec): 3000 (USB2E3373)
Spectra Averaged: 3 (USB2E3373)
Boxcar Smoothing: 0 (USB2E3373)
Correct for Electrical Dark: No (USB2E3373)
Strobe/Lamp Enabled: No (USB2E3373)
Correct for Detector Non-linearity: No (USB2E3373)
Correct for Stray Light: No (USB2E3373)
Number of Pixels in Processed Spectrum: 2048
>>>>>Begin Processed Spectral Data<<<<<
178.53	0.000
178.91	-1600.000
179.29	-1425.000
179.67	-261.111
180.04	-1450.000
180.42	2950.000
180.80	880.000
181.18	-1200.000
181.56	700.000
181.94	0.000
182.31	-714.286
182.69	1666.667
183.07	-612.500
183.45	-611.111
183.83	490.909
184.20	-470.000
184.58	2650.000
184.96	5400.000
185.34	-780.000
185.72	-650.000
186.09	-2350.000
186.47	2550.000
186.85	2600.000
187.23	4700.000
187.61	-1966.667
187.98	1550.000
188.36	590.909
188.74	490.909
189.12	-1000.000
189.49	600.000
189.87	-4100.000
190.25	-1275.000
190.63	485.714
191.00	453.846
191.38	750.000
191.76	-1350.000
192.14	1350.000
192.51	662.500
192.89	1033.333
193.27	600.000
193.65	-1350.000
194.02	540.000
194.40	1080.000
194.78	660.000
195.15	491.667
195.53	700.000
195.91	-2750.000
196.29	356.250
196.66	378.947
197.04	-500.000
197.42	0.000
197.79	640.000
198.17	-5300.000
198.55	714.286
198.92	762.500
199.30	1000.000
199.68	0.000
200.05	305.556
200.43	900.000
200.81	4100.000
201.18	1966.667
201.56	-1666.667
201.94	511.111
202.31	622.222
202.69	416.667
203.07	490.000
203.44	0.000
203.82	1175.000
204.19	671.429
204.57	421.429
204.95	775.000
205.32	1566.667
205.70	554.545
206.08	457.143
206.45	3050.000
206.83	368.750
207.20	950.000
207.58	880.000
207.96	277.778
208.33	762.500
208.71	-950.000
209.08	857.143
209.46	588.889
209.84	472.727
210.21	-1700.000
210.59	1500.000
210.96	-550.000
211.34	3050.000
211.71	670.000
212.09	700.000
212.46	0.000
212.84	1766.667
213.22	1325.000
213.59	-4100.000
213.97	900.000
214.34	814.286
214.72	600.000
215.09	800.000
215.47	-2400.000
215.84	-2800.000
216.22	1733.333
216.59	428.571
216.97	1150.000
217.34	554.545
217.72	-716.667
218.09	0.000
218.47	-5800.000
218.84	588.889
219.22	914.286
219.59	1966.667
219.97	-657.143
220.34	1060.000
220.72	-1800.000
221.09	442.857
221.47	1425.000
221.84	-983.333
222.22	0.000
222.59	1325.000
222.97	-2850.000
223.34	1280.000
223.72	430.769
224.09	1040.000
224.46	2500.000
224.84	-5000.000
225.21	-960.000
225.59	-5800.000
225.96	520.000
226.34	310.000
226.71	2800.000
227.08	700.000
227.46	600.000
227.83	-1325.000
228.21	-2300.000
228.58	600.000
228.95	-3000.000
229.33	-2400.000
229.70	1833.333
230.08	842.857
230.45	-740.000
230.82	466.667
231.20	800.000
231.57	814.286
231.95	475.000
232.32	254.545
232.69	418.182
233.07	828.571
233.44	415.385
233.81	-2033.333
234.19	347.368
234.56	566.667
234.93	425.000
235.31	490.909
235.68	400.000
236.05	400.000
236.43	178.788
236.80	257.895
237.17	4500.000
237.55	280.952
237.92	239.286
238.29	290.476
238.67	180.645
239.04	213.793
239.41	163.889
239.79	130.435
240.16	154.762
240.53	168.182
240.91	111.765
241.28	108.000
241.65	126.000
242.02	95.652
242.40	93.548
242.77	128.333
243.14	81.720
243.51	93.258
243.89	82.353
244.26	77.778
244.63	70.968
245.00	64.894
245.38	58.416
245.75	73.832
246.12	60.550
246.49	68.613
246.87	69.600
247.24	66.154
247.61	58.571
247.98	49.020
248.36	53.378
248.73	47.134
249.10	49.682
249.47	54.802
249.84	49.733
250.22	45.455
250.59	50.888
250.96	52.525
251.33	47.393
251.70	49.505
252.08	43.810
252.45	43.049
252.82	38.261
253.19	42.979
253.56	41.961
253.94	46.473
254.31	46.094
254.68	41.923
255.05	41.697
255.42	37.805
255.79	41.544
256.16	43.321
256.54	38.163
256.91	40.569
257.28	37.050
257.65	37.294
258.02	36.646
258.39	35.962
258.76	39.465
259.14	36.905
259.51	35.258
259.88	36.957
260.25	36.858
260.62	34.971
260.99	40.373
261.36	37.538
261.73	35.530
262.10	35.174
262.47	39.155
262.85	33.426
263.22	30.484
263.59	40.171
263.96	35.440
264.33	35.509
264.70	36.053
265.07	33.504
265.44	32.071
265.81	29.927
266.18	35.176
266.55	32.439
266.92	35.627
267.29	34.491
267.66	34.404
268.03	34.545
268.40	31.776
268.77	30.310
269.14	31.081
269.51	30.926
269.88	31.469
270.25	30.926
270.62	31.685
270.99	34.409
271.36	32.833
271.73	32.477
272.10	29.348
272.47	34.194
272.84	31.818
273.21	32.704
273.58	31.878
273.95	29.350
274.32	30.579
274.69	31.478
275.06	29.331
275.43	31.702
275.80	29.659
276.17	28.921
276.54	30.561
276.91	30.237
277.28	29.883
277.65	31.915
278.02	28.778
278.39	31.836
278.76	28.182
279.13	30.566
279.50	29.981
279.87	28.088
280.23	29.741
280.60	29.207
280.97	26.802
281.34	29.204
281.71	28.727
282.08	29.175
282.45	29.273
282.82	27.176
283.19	26.560
283.56	29.123
283.92	27.073
284.29	29.630
284.66	28.494
285.03	27.125
285.40	27.817
285.77	27.778
286.14	26.425
286.51	27.000
286.87	26.325
287.24	29.642
287.61	26.485
287.98	29.058
288.35	26.624
288.72	27.726
289.08	25.665
289.45	24.053
289.82	26.992
290.19	23.705
290.56	24.655
290.93	24.622
291.29	23.773
291.66	25.221
292.03	27.616
292.40	25.110
292.77	24.704
293.13	24.478
293.50	24.490
293.87	23.704
294.24	23.556
294.60	22.999
294.97	23.692
295.34	23.977
295.71	23.153
296.08	22.650
296.44	21.320
296.81	22.061
297.18	23.577
297.55	20.053
297.91	20.976
298.28	23.293
298.65	21.410
299.02	21.476
299.38	23.373
299.75	20.889
300.12	19.413
300.48	21.000
300.85	19.975
301.22	20.510
301.59	21.212
301.95	20.529
302.32	21.438
302.69	22.103
303.05	20.848
303.42	19.630
303.79	18.800
304.15	20.280
304.52	18.656
304.89	20.325
305.25	18.213
305.62	18.800
305.99	20.071
306.35	20.470
306.72	19.395
307.09	19.201
307.45	19.932
307.82	18.638
308.19	18.433
308.55	20.173
308.92	19.441
309.29	18.796
309.65	18.028
310.02	20.296
310.38	19.892
310.75	19.641
311.12	18.936
311.48	19.854
311.85	19.916
312.22	18.418
312.58	20.166
312.95	19.113
313.31	18.738
313.68	19.647
314.05	20.809
314.41	20.402
314.78	19.335
315.14	20.159
315.51	20.597
315.87	18.713
316.24	19.067
316.61	20.955
316.97	19.472
317.34	19.178
317.70	21.415
318.07	21.752
318.43	20.548
318.80	22.118
319.16	21.375
319.53	19.794
319.89	21.905
320.26	23.400
320.62	22.718
320.99	23.838
321.35	23.030
321.72	23.614
322.08	24.778
322.45	25.672
322.81	26.550
323.18	27.649
323.54	26.531
323.91	28.396
324.27	27.916
324.64	28.798
325.00	28.674
325.37	30.300
325.73	30.700
326.10	32.833
326.46	32.437
326.83	32.614
327.19	32.707
327.56	33.275
327.92	34.383
328.29	36.291
328.65	35.820
329.01	36.913
329.38	36.725
329.74	37.304
330.11	38.454
330.47	37.833
330.84	39.063
331.20	37.887
331.56	40.183
331.93	39.167
332.29	38.864
332.66	39.912
333.02	39.945
333.38	40.831
333.75	40.374
334.11	42.705
334.48	40.728
334.84	40.809
335.20	42.727
335.57	42.248
335.93	41.429
336.29	41.850
336.66	42.290
337.02	43.167
337.38	42.963
337.75	43.316
338.11	43.599
338.47	44.475
338.84	43.630
339.20	43.394
339.56	44.982
339.93	43.182
340.29	44.293
340.65	44.385
341.02	44.415
341.38	44.573
341.74	43.772
342.11	45.153
342.47	44.053
342.83	43.750
343.20	45.714
343.56	43.218
343.92	45.263
344.28	46.088
344.65	45.830
345.01	44.276
345.37	44.340
345.73	45.008
346.10	45.865
346.46	45.763
346.82	44.316
347.19	44.027
347.55	45.074
347.91	46.521
348.27	44.864
348.63	46.154
349.00	44.579
349.36	44.171
349.72	45.068
350.08	45.300
350.45	45.321
350.81	45.248
351.17	45.057
351.53	46.110
351.89	44.802
352.26	46.251
352.62	46.672
352.98	46.921
353.34	47.247
353.70	45.745
354.07	47.742
354.43	45.000
354.79	46.420
355.15	46.369
355.51	47.482
355.87	48.898
356.24	47.801
356.60	46.832
356.96	47.627
357.32	47.261
357.68	48.110
358.04	47.743
358.40	48.377
358.77	47.496
359.13	47.751
359.49	46.745
359.85	48.095
360.21	48.086
360.57	48.794
360.93	49.077
361.29	49.131
361.66	47.523
362.02	48.060
362.38	48.821
362.74	48.512
363.10	48.409
363.46	49.817
363.82	49.433
364.18	49.486
364.54	50.000
364.90	50.354
365.26	50.074
365.62	50.475
365.98	49.379
366.35	48.997
366.71	50.976
367.07	49.599
367.43	52.032
367.79	53.034
368.15	52.083
368.51	50.727
368.87	51.963
369.23	51.792
369.59	52.353
369.95	52.574
370.31	52.920
370.67	52.101
371.03	53.858
371.39	52.988
371.75	54.044
372.11	52.845
372.47	54.252
372.83	54.971
373.19	53.829
373.55	53.806
373.91	56.186
374.27	52.234
374.63	55.127
374.99	55.155
375.35	54.501
375.71	55.449
376.07	55.693
376.42	57.497
376.78	55.931
377.14	56.242
377.50	57.616
377.86	56.715
378.22	57.649
378.58	57.018
378.94	57.700
379.30	56.997
379.66	58.503
380.02	57.740
380.38	58.652
380.74	59.184
381.09	58.068
381.45	60.234
381.81	60.381
382.17	60.255
382.53	60.189
382.89	60.000
383.25	60.976
383.61	62.392
383.97	61.476
384.32	61.260
384.68	62.144
385.04	60.971
385.40	61.176
385.76	61.978
386.12	62.565
386.48	62.555
386.83	64.208
387.19	64.688
387.55	64.007
387.91	64.268
388.27	64.316
388.62	64.843
388.98	64.619
389.34	66.583
389.70	64.746
390.06	66.286
390.42	65.953
390.77	65.712
391.13	68.220
391.49	66.942
391.85	67.409
392.20	66.751
392.56	68.308
392.92	67.863
393.28	67.811
393.64	67.086
393.99	68.540
394.35	69.851
394.71	69.448
395.07	69.346
395.42	69.468
395.78	70.102
396.14	70.205
396.50	70.802
396.85	71.265
397.21	69.729
397.57	70.800
397.92	72.236
398.28	71.581
398.64	71.744
399.00	72.971
399.35	73.378
399.71	72.338
400.07	73.448
400.42	73.742
400.78	74.125
401.14	74.634
401.49	76.478
401.85	74.652
402.21	74.431
402.57	76.064
402.92	76.923
403.28	76.202
403.63	77.475
403.99	78.217
404.35	76.667
404.70	76.918
405.06	77.228
405.42	77.667
405.77	77.943
406.13	77.370
406.49	78.238
406.84	77.200
407.20	78.605
407.55	80.281
407.91	82.000
408.27	81.110
408.62	79.711
408.98	80.331
409.34	80.873
409.69	81.742
410.05	81.660
410.40	81.957
410.76	81.123
411.11	81.363
411.47	79.489
411.83	82.651
412.18	82.313
412.54	83.188
412.89	82.470
413.25	82.822
413.60	84.620
413.96	82.757
414.31	84.022
414.67	85.615
415.03	85.232
415.38	84.472
415.74	84.502
416.09	87.329
416.45	87.282
416.80	84.865
417.16	86.595
417.51	87.525
417.87	86.769
418.22	87.571
418.58	85.862
418.93	86.794
419.29	86.505
419.64	88.980
420.00	88.049
420.35	87.246
420.71	89.181
421.06	87.888
421.42	88.596
421.77	88.957
422.12	88.321
422.48	87.804
422.83	90.856
423.19	88.066
423.54	91.236
423.90	89.971
424.25	90.396
424.61	90.952
424.96	91.720
425.31	89.756
425.67	88.933
426.02	90.629
426.38	94.200
426.73	91.164
427.09	91.489
427.44	93.387
427.79	93.387
428.15	92.500
428.50	91.984
428.85	93.206
429.21	93.760
429.56	93.313
429.92	91.948
430.27	92.453
430.62	92.883
430.98	92.735
431.33	92.062
431.68	94.450
432.04	92.492
432.39	95.717
432.74	96.529
433.10	95.982
433.45	96.268
433.80	95.288
434.16	94.498
434.51	92.895
434.86	94.698
435.22	97.276
435.57	97.082
435.92	95.787
436.28	97.924
436.63	95.806
436.98	95.707
437.34	98.092
437.69	97.433
438.04	98.201
438.39	97.075
438.75	97.618
439.10	98.994
439.45	98.347
439.81	99.094
440.16	96.781
440.51	97.715
440.86	98.089
441.22	98.443
441.57	98.726
441.92	98.311
442.27	97.524
442.63	97.420
442.98	98.817
443.33	96.087
443.68	98.296
444.03	99.463
444.39	98.004
444.74	97.781
445.09	98.868
445.44	98.742
445.79	98.516
446.15	96.718
446.50	98.546
446.85	99.178
447.20	98.164
447.55	99.665
447.91	98.511
448.26	98.887
448.61	99.265
448.96	100.720
449.31	100.281
449.66	98.762
450.02	99.164
450.37	99.036
450.72	101.805
451.07	99.756
451.42	98.784
451.77	99.883
452.12	99.249
452.47	98.881
452.83	101.166
453.18	100.244
453.53	99.505
453.88	100.650
454.23	99.821
454.58	99.818
454.93	101.907
455.28	99.065
455.63	101.699
455.98	103.512
456.34	101.696
456.69	101.190
457.04	100.681
457.39	99.825
457.74	99.942
458.09	98.677
458.44	99.658
458.79	97.939
459.14	99.605
459.49	99.475
459.84	97.784
460.19	99.529
460.54	97.627
460.89	99.177
461.24	100.243
461.59	100.058
461.94	99.014
462.29	101.246
462.64	97.639
462.99	100.520
463.34	99.467
463.69	99.625
464.04	98.145
464.39	97.101
464.74	97.267
465.09	98.010
465.44	97.008
465.79	96.924
466.14	95.895
466.49	96.329
466.84	98.015
467.19	98.008
467.54	99.312
467.89	97.179
468.24	97.789
468.59	97.131
468.94	98.167
469.29	99.229
469.64	100.201
469.99	100.947
470.34	100.396
470.68	100.934
471.03	98.639
471.38	101.737
471.73	100.133
472.08	100.132
472.43	99.812
472.78	98.025
473.13	98.845
473.48	98.564
473.83	98.780
474.17	96.391
474.52	99.380
474.87	98.190
475.22	96.866
475.57	97.098
475.92	98.566
476.27	97.182
476.61	98.069
476.96	97.856
477.31	97.802
477.66	98.906
478.01	95.452
478.36	98.043
478.70	97.923
479.05	98.988
479.40	97.236
479.75	98.221
480.10	96.769
480.45	95.764
480.79	96.082
481.14	97.505
481.49	97.674
481.84	96.525
482.19	95.502
482.53	94.587
482.88	96.231
483.23	97.196
483.58	96.133
483.92	96.813
484.27	93.987
484.62	95.690
484.97	94.758
485.31	95.034
485.66	89.479
486.01	86.054
486.36	83.548
486.70	84.462
487.05	86.378
487.40	90.245
487.75	91.676
488.09	93.995
488.44	95.364
488.79	97.649
489.13	96.562
489.48	97.512
489.83	95.166
490.17	96.756
490.52	94.508
490.87	94.844
491.22	95.362
491.56	94.123
491.91	93.718
492.26	93.845
492.60	93.825
492.95	93.078
493.30	93.645
493.64	94.914
493.99	94.011
494.34	95.005
494.68	94.368
495.03	94.737
495.37	92.601
495.72	95.273
496.07	94.014
496.41	92.124
496.76	92.304
497.11	92.571
497.45	92.641
497.80	93.282
498.14	93.430
498.49	95.707
498.84	94.056
499.18	93.714
499.53	93.970
499.87	93.709
500.22	91.898
500.56	96.165
500.91	94.327
501.26	93.789
501.60	94.210
501.95	90.697
502.29	92.877
502.64	94.041
502.98	91.912
503.33	90.905
503.67	91.740
504.02	90.365
504.36	90.360
504.71	92.574
505.06	92.386
505.40	91.833
505.75	91.369
506.09	91.885
506.44	93.537
506.78	92.255
507.13	94.902
507.47	92.576
507.82	92.401
508.16	93.769
508.51	93.861
508.85	91.807
509.19	92.959
509.54	92.755
509.88	92.324
510.23	93.728
510.57	94.427
510.92	93.889
511.26	91.161
511.61	92.739
511.95	92.797
512.30	92.683
512.64	92.262
512.98	92.926
513.33	93.255
513.67	92.743
514.02	92.045
514.36	93.555
514.70	93.304
515.05	92.248
515.39	95.177
515.74	94.313
516.08	94.410
516.42	93.674
516.77	93.924
517.11	94.173
517.46	93.736
517.80	95.412
518.14	94.673
518.49	94.632
518.83	93.466
519.17	92.032
519.52	94.341
519.86	94.124
520.20	94.277
520.55	94.195
520.89	95.316
521.23	94.753
521.58	93.697
521.92	95.101
522.26	93.838
522.61	95.950
522.95	94.966
523.29	94.400
523.64	94.573
523.98	96.057
524.32	94.029
524.66	93.806
525.01	95.159
525.35	94.300
525.69	94.828
526.04	95.514
526.38	93.350
526.72	93.006
527.06	95.543
527.41	91.337
527.75	97.106
528.09	96.339
528.43	94.264
528.78	92.624
529.12	91.818
529.46	94.121
529.80	95.111
530.15	93.520
530.49	92.246
530.83	94.557
531.17	96.606
531.51	96.952
531.86	95.355
532.20	93.677
532.54	93.722
532.88	92.940
533.22	93.129
533.57	91.667
533.91	91.331
534.25	93.317
534.59	91.946
534.93	92.088
535.27	92.215
535.62	92.674
535.96	93.597
536.30	93.071
536.64	92.724
536.98	93.298
537.32	93.614
537.66	94.200
538.01	94.602
538.35	92.954
538.69	93.108
539.03	90.773
539.37	93.291
539.71	91.380
540.05	91.569
540.39	92.558
540.73	89.974
541.07	93.186
541.42	93.738
541.76	90.645
542.10	92.173
542.44	92.914
542.78	92.161
543.12	89.955
543.46	90.951
543.80	91.997
544.14	89.666
544.48	90.984
544.82	90.186
545.16	90.631
545.50	90.103
545.84	91.196
546.18	92.391
546.52	93.668
546.86	92.234
547.20	90.964
547.54	90.247
547.88	90.434
548.22	88.543
548.56	89.245
548.90	89.309
549.24	89.562
549.58	92.701
549.92	90.728
550.26	91.193
550.60	90.526
550.94	91.268
551.28	90.563
551.62	92.667
551.96	90.175
552.30	89.215
552.64	91.413
552.98	90.983
553.32	90.020
553.66	89.162
554.00	90.254
554.34	87.785
554.68	92.775
555.02	89.915
555.36	90.118
555.69	88.701
556.03	88.896
556.37	90.655
556.71	90.109
557.05	89.286
557.39	89.503
557.73	88.779
558.07	91.443
558.41	90.376
558.75	89.273
559.08	89.485
559.42	92.819
559.76	90.221
560.10	88.722
560.44	89.308
560.78	87.492
561.12	86.148
561.45	85.724
561.79	85.959
562.13	88.867
562.47	88.934
562.81	89.331
563.15	86.488
563.48	87.069
563.82	87.345
564.16	86.527
564.50	88.216
564.84	85.272
565.17	87.645
565.51	86.262
565.85	85.914
566.19	85.410
566.52	87.080
566.86	84.629
567.20	84.788
567.54	84.361
567.88	81.206
568.21	83.704
568.55	82.356
568.89	82.198
569.23	78.832
569.56	77.935
569.90	77.321
570.24	77.897
570.57	76.131
570.91	74.240
571.25	73.780
571.59	75.081
571.92	75.288
572.26	74.148
572.60	76.697
572.93	75.772
573.27	74.800
573.61	74.707
573.95	73.385
574.28	73.392
574.62	72.741
574.96	72.162
575.29	72.308
575.63	72.713
575.97	73.028
576.30	74.084
576.64	72.833
576.98	72.460
577.31	72.551
577.65	71.531
577.98	71.331
578.32	70.334
578.66	71.258
578.99	71.262
579.33	72.259
579.67	71.953
580.00	72.740
580.34	73.327
580.67	72.323
581.01	70.924
581.35	70.014
581.68	70.281
582.02	68.777
582.35	69.783
582.69	70.305
583.02	70.705
583.36	72.723
583.70	73.526
584.03	73.406
584.37	73.702
584.70	74.478
585.04	72.138
585.37	72.530
585.71	71.429
586.04	71.249
586.38	72.858
586.72	72.328
587.05	71.095
587.39	71.055
587.72	71.451
588.06	71.958
588.39	72.044
588.73	72.866
589.06	74.634
589.40	74.579
589.73	74.798
590.07	73.843
590.40	74.205
590.73	76.034
591.07	77.208
591.40	76.044
591.74	76.234
592.07	75.044
592.41	75.238
592.74	73.483
593.08	71.486
593.41	71.686
593.75	70.206
594.08	71.203
594.41	71.545
594.75	73.641
595.08	72.083
595.42	72.890
595.75	72.899
596.09	73.338
596.42	73.713
596.75	75.644
597.09	75.022
597.42	72.344
597.75	74.817
598.09	73.478
598.42	73.411
598.76	73.571
599.09	70.315
599.42	70.342
599.76	71.303
600.09	69.253
600.42	70.124
600.76	70.000
601.09	70.091
601.42	71.575
601.76	72.258
602.09	72.016
602.42	71.975
602.76	72.793
603.09	72.148
603.42	71.925
603.76	71.761
604.09	71.850
604.42	72.075
604.76	72.881
605.09	72.564
605.42	70.928
605.75	72.061
606.09	70.923
606.42	72.374
606.75	71.547
607.09	71.787
607.42	71.416
607.75	70.886
608.08	71.298
608.42	72.613
608.75	72.137
609.08	72.202
609.41	72.822
609.75	71.748
610.08	73.233
610.41	71.229
610.74	72.327
611.07	73.320
611.41	73.405
611.74	73.906
612.07	74.275
612.40	73.767
612.73	72.263
613.07	74.300
613.40	73.723
613.73	73.676
614.06	73.495
614.39	71.736
614.72	72.684
615.06	72.269
615.39	71.975
615.72	71.319
616.05	70.494
616.38	72.874
616.71	73.990
617.05	74.323
617.38	74.624
617.71	73.934
618.04	74.639
618.37	73.743
618.70	74.922
619.03	74.408
619.36	75.628
619.69	76.197
620.03	75.687
620.36	74.933
620.69	76.575
621.02	77.581
621.35	79.561
621.68	77.882
622.01	77.477
622.34	77.458
622.67	77.719
623.00	76.009
623.33	75.268
623.66	76.769
623.99	75.920
624.32	74.465
624.65	75.424
624.99	75.283
625.32	75.091
625.65	75.282
625.98	79.554
626.31	75.117
626.64	77.878
626.97	79.717
627.30	77.556
627.63	78.425
627.96	80.067
628.29	79.878
628.62	80.146
628.95	80.566
629.28	79.653
629.61	78.918
629.94	80.286
630.26	80.172
630.59	80.362
630.92	79.885
631.25	79.763
631.58	78.779
631.91	80.629
632.24	79.641
632.57	79.958
632.90	83.004
633.23	84.452
633.56	82.260
633.89	85.164
634.22	82.406
634.55	86.509
634.88	82.395
635.20	84.349
635.53	84.217
635.86	84.158
636.19	82.706
636.52	82.584
636.85	81.787
637.18	80.069
637.51	84.043
637.83	84.340
638.16	85.166
638.49	82.872
638.82	85.209
639.15	83.375
639.48	82.419
639.81	86.595
640.13	82.812
640.46	84.564
640.79	83.752
641.12	84.044
641.45	85.615
641.77	89.396
642.10	85.673
642.43	86.336
642.76	92.724
643.09	90.644
643.41	86.039
643.74	87.654
644.07	88.720
644.40	86.503
644.73	88.661
645.05	90.016
645.38	86.256
645.71	86.634
646.04	88.870
646.36	91.486
646.69	88.462
647.02	88.265
647.35	89.175
647.67	87.965
648.00	85.041
648.33	86.469
648.66	82.879
648.98	83.808
649.31	82.212
649.64	84.454
649.96	81.371
650.29	84.834
650.62	83.172
650.94	85.251
651.27	87.669
651.60	85.025
651.92	84.984
652.25	84.202
652.58	81.776
652.90	82.938
653.23	80.431
653.56	81.260
653.88	85.737
654.21	85.150
654.54	84.488
654.86	82.087
655.19	78.108
655.52	54.871
655.84	47.840
656.17	60.966
656.49	82.469
656.82	86.386
657.15	67.537
657.47	51.163
657.80	40.300
658.13	42.768
658.45	64.837
658.78	66.835
659.10	70.877
659.43	75.187
659.75	78.785
660.08	84.873
660.41	91.434
660.73	91.360
661.06	89.809
661.38	91.636
661.71	90.192
662.03	87.377
662.36	84.493
662.68	88.755
663.01	88.485
663.33	91.932
663.66	86.345
663.98	89.633
664.31	88.866
664.63	82.996
664.96	81.690
665.28	88.525
665.61	83.821
665.93	86.318
666.26	83.773
666.58	88.703
666.91	87.949
667.23	94.831
667.56	87.905
667.88	84.829
668.21	87.846
668.53	86.768
668.86	83.766
669.18	84.009
669.50	88.043
669.83	87.364
670.15	88.000
670.48	87.364
670.80	87.931
671.13	89.597
671.45	85.957
671.77	86.151
672.10	78.928
672.42	79.682
672.75	76.617
673.07	75.880
673.39	80.651
673.72	83.008
674.04	84.510
674.37	82.136
674.69	84.867
675.01	82.008
675.34	83.573
675.66	85.474
675.98	83.096
676.31	85.714
676.63	86.837
676.95	84.906
677.28	87.850
677.60	85.714
677.92	84.388
678.25	81.109
678.57	80.677
678.89	82.365
679.22	79.764
679.54	79.962
679.86	78.165
680.18	77.102
680.51	75.709
680.83	75.979
681.15	80.755
681.48	77.127
681.80	77.950
682.12	79.693
682.44	76.402
682.77	85.132
683.09	86.481
683.41	85.144
683.73	84.547
684.06	82.025
684.38	78.474
684.70	80.039
685.02	75.610
685.34	77.656
685.67	74.650
685.99	72.509
686.31	75.939
686.63	72.438
686.96	78.214
687.28	74.368
687.60	75.906
687.92	74.223
688.24	77.757
688.56	79.719
688.89	80.913
689.21	81.441
689.53	77.035
689.85	83.592
690.17	75.983
690.49	80.467
690.82	82.243
691.14	73.437
691.46	76.160
691.78	75.100
692.10	76.653
692.42	75.250
692.74	75.726
693.06	75.957
693.39	77.413
693.71	76.419
694.03	76.000
694.35	75.541
694.67	81.465
694.99	85.122
695.31	80.147
695.63	79.426
695.95	80.685
696.27	82.234
696.59	81.347
696.91	79.016
697.23	75.117
697.56	73.348
697.88	72.597
698.20	74.167
698.52	76.129
698.84	78.174
699.16	75.576
699.48	79.572
699.80	79.227
700.12	84.416
700.44	81.432
700.76	82.873
701.08	83.908
701.40	84.078
701.72	84.257
702.04	84.375
702.36	78.754
702.68	81.020
703.00	80.886
703.32	78.723
703.64	78.284
703.96	79.944
704.28	84.012
704.60	80.352
704.91	80.712
705.23	80.352
705.55	90.365
705.87	85.382
706.19	90.106
706.51	84.735
706.83	81.212
707.15	77.871
707.47	74.747
707.79	74.693
708.11	70.548
708.43	73.095
708.74	77.551
709.06	73.247
709.38	76.640
709.70	80.233
710.02	80.712
710.34	83.333
710.66	82.388
710.98	78.977
711.29	76.163
711.61	80.531
711.93	83.333
712.25	83.280
712.57	87.868
712.89	86.851
713.20	77.204
713.52	79.934
713.84	76.266
714.16	75.000
714.48	74.425
714.80	79.939
715.11	78.098
715.43	77.745
715.75	76.812
716.07	80.511
716.39	79.937
716.70	83.721
717.02	83.094
717.34	78.092
717.66	85.448
717.97	88.446
718.29	80.000
718.61	83.942
718.93	81.618
719.24	75.779
719.56	74.237
719.88	85.763
720.20	77.365
720.51	81.533
720.83	84.758
721.15	80.597
721.46	78.014
721.78	83.871
722.10	86.415
722.42	82.331
722.73	79.775
723.05	86.885
723.37	83.806
723.68	82.239
724.00	83.740
724.32	83.065
724.63	84.553
724.95	82.427
725.27	79.352
725.58	79.688
725.90	82.117
726.22	80.000
726.53	77.778
726.85	73.038
727.16	79.004
727.48	76.596
727.80	80.303
728.11	74.275
728.43	78.462
728.74	74.910
729.06	80.657
729.38	78.676
729.69	79.715
730.01	74.744
730.32	72.917
730.64	74.582
730.96	69.307
731.27	75.828
731.59	72.783
731.90	69.971
732.22	71.118
732.53	72.136
732.85	72.115
733.16	70.418
733.48	73.422
733.80	75.325
734.11	70.064
734.43	71.893
734.74	68.000
735.06	67.335
735.37	72.254
735.69	70.701
736.00	75.817
736.32	69.782
736.63	74.121
736.95	71.885
737.26	70.068
737.58	68.065
737.89	66.555
738.21	72.014
738.52	76.786
738.83	75.472
739.15	70.385
739.46	73.358
739.78	71.528
740.09	70.769
740.41	69.032
740.72	70.732
741.04	71.111
741.35	78.333
741.66	84.444
741.98	82.547
742.29	79.426
742.61	80.603
742.92	80.090
743.23	79.060
743.55	74.800
743.86	83.772
744.18	83.628
744.49	82.297
744.80	80.751
745.12	83.182
745.43	81.498
745.74	78.378
746.06	76.147
746.37	75.785
746.68	75.566
747.00	87.500
747.31	88.571
747.62	72.566
747.94	78.855
748.25	74.043
748.56	77.974
748.88	83.168
749.19	84.500
749.50	83.721
749.82	73.171
750.13	75.102
750.44	71.533
750.75	71.930
751.07	71.061
751.38	72.125
751.69	72.563
752.01	71.429
752.32	69.675
752.63	73.050
752.94	75.410
753.26	73.200
753.57	70.325
753.88	76.172
754.19	73.214
754.51	70.139
754.82	63.538
755.13	70.943
755.44	74.060
755.75	68.978
756.07	70.922
756.38	68.613
756.69	72.819
757.00	61.078
757.31	64.095
757.63	64.327
757.94	61.394
758.25	58.578
758.56	58.765
758.87	60.215
759.18	64.545
759.50	64.577
759.81	66.355
760.12	60.312
760.43	61.891
760.74	60.326
761.05	65.537
761.36	59.626
761.67	64.773
761.99	61.801
762.30	67.014
762.61	75.954
762.92	71.484
763.23	75.210
763.54	71.200
763.85	67.187
764.16	69.231
764.47	69.202
764.78	64.311
765.10	61.076
765.41	65.487
765.72	64.671
766.03	61.755
766.34	64.000
766.65	74.043
766.96	68.803
767.27	82.741
767.58	78.646
767.89	78.947
768.20	81.034
768.51	73.604
768.82	76.147
769.13	66.667
769.44	70.850
769.75	72.532
770.06	71.101
770.37	67.421
770.68	72.222
770.99	68.444
771.30	71.311
771.61	73.991
771.92	65.984
772.23	76.471
772.54	76.923
772.85	79.058
773.16	78.723
773.47	73.913
773.78	76.142
774.09	82.738
774.39	83.041
774.70	82.099
775.01	100.000
775.32	90.196
775.63	89.474
775.94	84.892
776.25	89.764
776.56	88.060
776.87	103.279
777.18	84.375
777.48	93.130
777.79	90.152
778.10	94.074
778.41	100.893
778.72	82.482
779.03	80.537
779.34	77.181
779.65	87.162
779.95	80.982
780.26	86.928
780.57	86.897
780.88	96.875
781.19	80.451
781.50	93.919
781.80	76.101
782.11	74.576
782.42	72.785
782.73	77.301
783.04	80.405
783.34	93.662
783.65	95.205
783.96	100.746
784.27	84.615
784.57	84.173
784.88	86.111
785.19	94.444
785.50	107.547
785.81	84.328
786.11	94.262
786.42	93.023
786.73	89.381
787.04	96.226
787.34	97.321
787.65	103.000
787.96	99.099
788.26	90.909
788.57	100.847
788.88	94.215
789.19	88.194
789.49	91.667
789.80	94.656
790.11	111.429
790.41	103.960
790.72	106.024
791.03	111.957
791.33	106.977
791.64	100.000
791.95	101.980
792.25	104.444
792.56	116.883
792.87	144.872
793.17	124.051
793.48	118.391
793.79	114.943
794.09	113.636
794.40	92.437
794.70	90.441
795.01	75.556
795.32	75.540
795.62	81.102
795.93	100.000
796.23	86.726
796.54	100.000
796.85	116.216
797.15	136.620
797.46	128.788
797.76	109.639
798.07	108.861
798.37	129.231
798.68	124.242
798.99	118.310
799.29	115.584
799.60	110.227
799.90	127.397
800.21	125.373
800.51	137.931
800.82	159.649
801.12	121.311
801.43	128.788
801.73	101.351
802.04	147.619
802.34	114.815
802.65	142.187
802.95	144.068
803.26	135.938
803.56	112.857
803.87	130.769
804.17	119.118
804.48	148.148
804.78	117.241
805.09	136.765
805.39	150.000
805.70	146.429
806.00	139.344
806.30	109.091
806.61	104.878
806.91	103.797
807.22	114.474
807.52	107.463
807.83	128.169
808.13	120.313
808.43	135.000
808.74	117.105
809.04	121.739
809.35	117.910
809.65	109.211
809.95	140.323
810.26	132.203
810.56	125.397
810.86	161.364
811.17	195.238
811.47	138.333
811.77	144.444
812.08	156.364
812.38	170.000
812.69	205.556
812.99	186.364
813.29	157.143
813.59	145.238
813.90	165.306
814.20	143.636
814.50	126.154
814.81	130.882
815.11	165.306
815.41	132.787
815.72	178.571
816.02	163.636
816.32	176.190
816.62	160.000
816.93	173.171
817.23	164.286
817.53	163.636
817.84	221.212
818.14	173.913
818.44	175.556
818.74	205.882
819.04	185.000
819.35	202.857
819.65	197.059
819.95	235.714
820.25	280.000
820.56	200.000
820.86	163.636
821.16	193.023
821.46	171.795
821.76	156.000
822.07	208.571
822.37	190.000
822.67	206.061
822.97	129.412
823.27	217.857
823.57	208.108
823.88	190.000
824.18	236.667
824.48	204.762
824.78	244.000
825.08	237.500
825.38	194.595
825.69	141.463
825.99	295.833
826.29	217.241
826.59	200.000
826.89	163.158
827.19	197.059
827.49	203.226
827.79	152.273
828.09	177.273
828.39	125.532
828.70	151.020
829.00	214.815
829.30	232.258
829.60	172.500
829.90	433.333
830.20	235.714
830.50	213.043
830.80	230.435
831.10	250.000
831.40	190.000
831.70	213.043
832.00	238.462
832.30	248.148
832.60	368.750
832.90	246.667
833.20	500.000
833.50	232.258
833.80	203.448
834.10	228.125
834.40	230.769
834.70	333.333
835.00	347.619
835.30	180.000
835.60	407.692
835.90	241.379
836.20	507.143
836.50	224.138
836.80	220.000
837.10	194.444
837.40	314.286
837.70	370.588
838.00	255.556
838.30	266.667
838.60	323.810
838.90	257.692
839.19	305.000
839.49	521.429
839.79	325.000
840.09	285.000
840.39	242.857
840.69	295.652
840.99	338.889
841.29	490.000
841.59	416.667
841.88	343.750
842.18	206.897
842.48	314.286
842.78	216.667
843.08	269.565
843.38	159.375
843.68	883.333
843.97	242.308
844.27	196.552
844.57	333.333
844.87	375.000
845.17	244.444
845.47	1766.667
845.76	455.556
846.06	341.176
846.36	625.000
846.66	414.286
846.96	287.500
847.25	481.818
847.55	490.909
847.85	243.478
848.15	510.000
848.44	435.714
848.74	266.667
849.04	352.941
849.34	590.000
849.63	289.474
849.93	536.364
850.23	960.000
850.53	471.429
850.82	2450.000
851.12	-4400.000
851.42	6500.000
851.71	285.000
852.01	-1333.333
852.31	258.333
852.61	1800.000
852.90	280.952
853.20	248.000
853.50	329.412
853.79	280.952
854.09	225.000
854.39	437.500
854.68	186.486
854.98	203.226
855.28	203.333
855.57	241.379
855.87	200.000
856.17	289.474
856.46	233.333
856.76	317.647
857.05	224.138
857.35	250.000
857.65	380.000
857.94	273.913
858.24	246.154
858.53	320.000
858.83	272.727
859.13	340.000
859.42	0.000
859.72	555.556
860.01	481.818
860.31	313.636
860.60	321.053
860.90	247.826
861.20	722.222
861.49	466.667
861.79	-5500.000
862.08	812.500
862.38	271.429
862.67	438.462
862.97	352.941
863.26	566.667
863.56	288.889
863.85	416.667
864.15	750.000
864.44	366.667
864.74	866.667
865.03	750.000
865.33	305.263
865.62	445.455
865.92	446.154
866.21	416.667
866.51	0.000
866.80	454.545
867.10	1220.000
867.39	461.538
867.69	509.091
867.98	300.000
868.27	563.636
868.57	368.421
868.86	-4400.000
869.16	350.000
869.45	2500.000
869.75	-4200.000
870.04	458.333
870.33	742.857
870.63	1075.000
870.92	2800.000
871.22	814.286
871.51	376.471
871.80	238.095
872.10	392.857
>>>>>End Processed Spectral Data<<<<<
