SpectraSuite Data File
++++++++++++++++++++++++++++++++++++
Date: Wed May 13 19:38:50 PDT 2015
User: schluterlab
Dark Spectrum Present: Yes
Reference Spectrum Present: Yes
Number of Sampled Component Spectra: 1
Spectrometers: USB2E3373
Integration Time (usec): 3000 (USB2E3373)
Spectra Averaged: 3 (USB2E3373)
Boxcar Smoothing: 0 (USB2E3373)
Correct for Electrical Dark: No (USB2E3373)
Strobe/Lamp Enabled: No (USB2E3373)
Correct for Detector Non-linearity: No (USB2E3373)
Correct for Stray Light: No (USB2E3373)
Number of Pixels in Processed Spectrum: 2048
>>>>>Begin Processed Spectral Data<<<<<
178.53	0.000
178.91	-1550.000
179.29	-1475.000
179.67	-233.333
180.04	-1225.000
180.42	3200.000
180.80	1160.000
181.18	-1175.000
181.56	671.429
181.94	0.000
182.31	-642.857
182.69	1966.667
183.07	-650.000
183.45	-611.111
183.83	618.182
184.20	-420.000
184.58	2800.000
184.96	6000.000
185.34	-840.000
185.72	-650.000
186.09	-2400.000
186.47	2700.000
186.85	3000.000
187.23	5100.000
187.61	-2000.000
187.98	1450.000
188.36	627.273
188.74	581.818
189.12	-920.000
189.49	690.000
189.87	-6300.000
190.25	-1350.000
190.63	442.857
191.00	461.538
191.38	1016.667
191.76	-1450.000
192.14	1425.000
192.51	800.000
192.89	900.000
193.27	687.500
193.65	-1200.000
194.02	530.000
194.40	900.000
194.78	640.000
195.15	525.000
195.53	620.000
195.91	-2200.000
196.29	387.500
196.66	378.947
197.04	-390.000
197.42	0.000
197.79	640.000
198.17	-4900.000
198.55	728.571
198.92	637.500
199.30	1120.000
199.68	0.000
200.05	366.667
200.43	814.286
200.81	5200.000
201.18	1633.333
201.56	-1666.667
201.94	600.000
202.31	644.444
202.69	375.000
203.07	550.000
203.44	0.000
203.82	1375.000
204.19	885.714
204.57	450.000
204.95	662.500
205.32	1600.000
205.70	536.364
206.08	428.571
206.45	2700.000
206.83	406.250
207.20	1016.667
207.58	920.000
207.96	361.111
208.33	700.000
208.71	-850.000
209.08	800.000
209.46	677.778
209.84	490.909
210.21	-1433.333
210.59	1275.000
210.96	-562.500
211.34	2700.000
211.71	620.000
212.09	816.667
212.46	0.000
212.84	2066.667
213.22	1375.000
213.59	-5500.000
213.97	883.333
214.34	957.143
214.72	590.909
215.09	1140.000
215.47	-2750.000
215.84	-2400.000
216.22	1733.333
216.59	364.286
216.97	1325.000
217.34	500.000
217.72	-833.333
218.09	0.000
218.47	-4600.000
218.84	733.333
219.22	885.714
219.59	1600.000
219.97	-828.571
220.34	1060.000
220.72	-1800.000
221.09	414.286
221.47	1400.000
221.84	-1166.667
222.22	0.000
222.59	1575.000
222.97	-2450.000
223.34	1260.000
223.72	438.462
224.09	1300.000
224.46	2450.000
224.84	-5600.000
225.21	-1020.000
225.59	-4400.000
225.96	660.000
226.34	290.000
226.71	2700.000
227.08	775.000
227.46	590.000
227.83	-1350.000
228.21	-2450.000
228.58	677.778
228.95	-3200.000
229.33	-2250.000
229.70	1800.000
230.08	714.286
230.45	-760.000
230.82	475.000
231.20	916.667
231.57	671.429
231.95	533.333
232.32	259.091
232.69	409.091
233.07	771.429
233.44	307.692
233.81	-1800.000
234.19	373.684
234.56	416.667
234.93	408.333
235.31	436.364
235.68	307.692
236.05	385.714
236.43	190.909
236.80	284.211
237.17	4700.000
237.55	233.333
237.92	171.429
238.29	228.571
238.67	177.419
239.04	186.207
239.41	150.000
239.79	95.652
240.16	119.048
240.53	127.273
240.91	88.235
241.28	118.000
241.65	70.000
242.02	78.261
242.40	80.645
242.77	95.000
243.14	72.043
243.51	69.663
243.89	68.235
244.26	58.889
244.63	52.688
245.00	51.064
245.38	47.525
245.75	41.121
246.12	45.872
246.49	48.905
246.87	56.000
247.24	40.769
247.61	40.714
247.98	39.869
248.36	37.838
248.73	31.847
249.10	39.490
249.47	41.808
249.84	34.759
250.22	27.807
250.59	31.953
250.96	31.818
251.33	33.175
251.70	36.634
252.08	29.524
252.45	25.561
252.82	23.043
253.19	29.787
253.56	23.137
253.94	26.141
254.31	22.266
254.68	23.846
255.05	26.568
255.42	22.764
255.79	25.368
256.16	27.437
256.54	17.314
256.91	26.335
257.28	20.863
257.65	20.462
258.02	23.913
258.39	19.874
258.76	18.060
259.14	19.345
259.51	20.669
259.88	17.702
260.25	20.846
260.62	17.052
260.99	16.460
261.36	18.018
261.73	16.332
262.10	17.442
262.47	14.648
262.85	18.384
263.22	13.105
263.59	18.803
263.96	16.209
264.33	18.016
264.70	16.579
265.07	15.345
265.44	15.657
265.81	13.625
266.18	17.839
266.55	15.122
266.92	12.776
267.29	15.741
267.66	14.450
268.03	15.000
268.40	14.252
268.77	15.036
269.14	15.541
269.51	15.350
269.88	14.685
270.25	12.867
270.62	14.607
270.99	18.065
271.36	13.519
271.73	14.486
272.10	13.696
272.47	15.914
272.84	14.286
273.21	13.417
273.58	12.009
273.95	9.853
274.32	13.430
274.69	11.777
275.06	12.402
275.43	13.617
275.80	13.427
276.17	12.831
276.54	13.306
276.91	13.241
277.28	12.109
277.65	15.087
278.02	11.180
278.39	15.234
278.76	12.000
279.13	11.509
279.50	13.780
279.87	13.347
280.23	11.776
280.60	13.540
280.97	10.536
281.34	13.628
281.71	14.182
282.08	13.244
282.45	12.364
282.82	12.256
283.19	9.804
283.56	12.982
283.92	12.352
284.29	10.582
284.66	13.430
285.03	10.127
285.40	11.268
285.77	11.616
286.14	10.708
286.51	12.000
286.87	10.256
287.24	10.423
287.61	13.483
287.98	11.526
288.35	10.935
288.72	10.436
289.08	10.955
289.45	11.697
289.82	12.358
290.19	8.791
290.56	10.260
290.93	9.063
291.29	8.896
291.66	9.735
292.03	12.209
292.40	11.894
292.77	10.059
293.13	9.701
293.50	10.787
293.87	10.519
294.24	10.074
294.60	8.734
294.97	9.448
295.34	11.001
295.71	10.511
296.08	9.259
296.44	10.316
296.81	9.379
297.18	10.027
297.55	7.388
297.91	8.971
298.28	10.710
298.65	10.183
299.02	10.408
299.38	9.827
299.75	8.086
300.12	9.323
300.48	9.375
300.85	9.371
301.22	8.025
301.59	8.460
301.95	10.202
302.32	10.526
302.69	8.602
303.05	9.091
303.42	8.395
303.79	8.834
304.15	7.925
304.52	7.300
304.89	7.549
305.25	7.541
305.62	9.626
305.99	8.501
306.35	9.172
306.72	8.744
307.09	8.657
307.45	9.685
307.82	7.254
308.19	9.382
308.55	10.032
308.92	8.271
309.29	8.237
309.65	8.271
310.02	9.091
310.38	8.065
310.75	8.342
311.12	8.700
311.48	8.986
311.85	8.910
312.22	8.845
312.58	8.108
312.95	9.081
313.31	7.961
313.68	8.628
314.05	10.552
314.41	9.447
314.78	8.157
315.14	9.235
315.51	9.063
315.87	9.208
316.24	8.838
316.61	7.797
316.97	8.219
317.34	6.751
317.70	9.465
318.07	8.758
318.43	8.415
318.80	9.185
319.16	8.475
319.53	8.912
319.89	9.143
320.26	9.200
320.62	9.425
320.99	9.091
321.35	8.788
321.72	9.138
322.08	8.983
322.45	9.353
322.81	9.787
323.18	9.827
323.54	9.276
323.91	9.057
324.27	9.560
324.64	8.854
325.00	8.566
325.37	9.554
325.73	9.874
326.10	8.738
326.46	8.333
326.83	9.664
327.19	9.308
327.56	8.711
327.92	9.886
328.29	10.027
328.65	9.392
329.01	8.935
329.38	9.436
329.74	8.403
330.11	8.483
330.47	8.724
330.84	10.478
331.20	9.836
331.56	9.817
331.93	8.241
332.29	9.139
332.66	9.558
333.02	9.049
333.38	9.666
333.75	9.804
334.11	9.431
334.48	8.429
334.84	9.007
335.20	8.545
335.57	8.250
335.93	7.946
336.29	9.066
336.66	8.656
337.02	7.511
337.38	9.352
337.75	8.734
338.11	8.684
338.47	8.287
338.84	8.708
339.20	7.615
339.56	8.485
339.93	7.909
340.29	8.514
340.65	8.111
341.02	8.290
341.38	9.698
341.74	8.070
342.11	8.734
342.47	8.987
342.83	8.647
343.20	8.831
343.56	8.003
343.92	7.544
344.28	7.568
344.65	9.200
345.01	7.744
345.37	7.547
345.73	9.645
346.10	9.463
346.46	7.458
346.82	8.567
347.19	7.937
347.55	8.456
347.91	8.900
348.27	8.792
348.63	8.361
349.00	7.929
349.36	8.785
349.72	8.661
350.08	8.590
350.45	8.299
350.81	8.042
351.17	8.590
351.53	7.289
351.89	6.848
352.26	8.998
352.62	8.180
352.98	8.590
353.34	7.888
353.70	6.628
354.07	8.065
354.43	7.540
354.79	8.045
355.15	8.540
355.51	9.193
355.87	8.245
356.24	8.143
356.60	7.298
356.96	7.482
357.32	7.522
357.68	8.819
358.04	8.076
358.40	8.472
358.77	8.294
359.13	7.103
359.49	7.451
359.85	7.063
360.21	7.177
360.57	8.794
360.93	8.538
361.29	8.239
361.66	6.579
362.02	8.284
362.38	7.300
362.74	7.589
363.10	7.032
363.46	7.410
363.82	7.559
364.18	8.223
364.54	8.172
364.90	8.074
365.26	7.868
365.62	9.058
365.98	6.647
366.35	7.020
366.71	7.592
367.07	6.992
367.43	7.983
367.79	8.637
368.15	8.405
368.51	6.904
368.87	8.637
369.23	6.730
369.59	8.038
369.95	7.279
370.31	7.692
370.67	7.029
371.03	7.266
371.39	8.236
371.75	7.426
372.11	6.828
372.47	7.551
372.83	8.429
373.19	7.298
373.55	7.687
373.91	8.100
374.27	7.010
374.63	6.764
374.99	8.192
375.35	6.978
375.71	7.197
376.07	8.025
376.42	7.290
376.78	7.488
377.14	7.531
377.50	8.146
377.86	6.848
378.22	7.522
378.58	6.704
378.94	6.725
379.30	7.188
379.66	7.297
380.02	7.371
380.38	6.740
380.74	7.143
381.09	6.907
381.45	7.376
381.81	7.187
382.17	7.580
382.53	6.226
382.89	7.160
383.25	6.817
383.61	7.435
383.97	7.317
384.32	8.235
384.68	7.001
385.04	7.560
385.40	7.059
385.76	7.064
386.12	7.578
386.48	7.363
386.83	7.826
387.19	7.669
387.55	7.854
387.91	7.497
388.27	6.622
388.62	7.683
388.98	6.818
389.34	7.947
389.70	7.480
390.06	7.478
390.42	7.004
390.77	7.888
391.13	7.594
391.49	7.741
391.85	6.875
392.20	6.372
392.56	6.944
392.92	6.710
393.28	5.917
393.64	6.775
393.99	7.269
394.35	6.452
394.71	7.152
395.07	6.417
395.42	7.664
395.78	7.634
396.14	7.200
396.50	7.707
396.85	7.819
397.21	6.905
397.57	7.192
397.92	6.851
398.28	6.670
398.64	7.109
399.00	6.715
399.35	6.091
399.71	6.655
400.07	7.392
400.42	7.178
400.78	7.479
401.14	6.098
401.49	7.045
401.85	6.836
402.21	6.766
402.57	6.107
402.92	7.440
403.28	6.808
403.63	6.993
403.99	6.433
404.35	6.970
404.70	6.295
405.06	7.222
405.42	6.613
405.77	6.229
406.13	6.716
406.49	7.392
406.84	7.147
407.20	6.797
407.55	7.403
407.91	7.333
408.27	6.828
408.62	6.984
408.98	6.740
409.34	7.011
409.69	6.903
410.05	7.249
410.40	6.972
410.76	6.870
411.11	7.358
411.47	7.093
411.83	6.720
412.18	6.741
412.54	6.787
412.89	7.108
413.25	6.730
413.60	6.485
413.96	7.347
414.31	6.987
414.67	7.161
415.03	6.954
415.38	7.281
415.74	6.559
416.09	7.773
416.45	6.760
416.80	6.477
417.16	7.105
417.51	6.768
417.87	7.322
418.22	6.877
418.58	7.295
418.93	7.187
419.29	7.129
419.64	7.683
420.00	7.317
420.35	7.246
420.71	6.934
421.06	6.683
421.42	7.368
421.77	7.287
422.12	6.345
422.48	5.990
422.83	6.698
423.19	7.514
423.54	6.616
423.90	6.783
424.25	7.147
424.61	6.786
424.96	6.472
425.31	7.198
425.67	7.135
426.02	7.143
426.38	6.838
426.73	6.905
427.09	6.809
427.44	6.555
427.79	6.268
428.15	7.024
428.50	6.905
428.85	7.330
429.21	6.626
429.56	6.376
429.92	6.442
430.27	6.256
430.62	6.298
430.98	6.746
431.33	6.701
431.68	6.963
432.04	7.561
432.39	6.967
432.74	7.002
433.10	6.904
433.45	6.706
433.80	5.765
434.16	6.784
434.51	6.789
434.86	7.184
435.22	6.782
435.57	5.957
435.92	6.202
436.28	6.465
436.63	7.285
436.98	6.525
437.34	7.096
437.69	7.118
438.04	6.970
438.39	6.627
438.75	7.031
439.10	7.542
439.45	7.025
439.81	6.344
440.16	6.324
440.51	6.913
440.86	7.006
441.22	6.730
441.57	6.582
441.92	6.807
442.27	6.674
442.63	6.635
442.98	6.873
443.33	6.902
443.68	6.608
444.03	6.296
444.39	5.842
444.74	6.494
445.09	7.385
445.44	7.654
445.79	7.472
446.15	6.882
446.50	6.731
446.85	6.783
447.20	6.068
447.55	6.421
447.91	6.895
448.26	7.123
448.61	6.670
448.96	7.420
449.31	7.312
449.66	6.472
450.02	6.462
450.37	7.200
450.72	6.486
451.07	6.947
451.42	6.565
451.77	7.868
452.12	6.524
452.47	7.400
452.83	6.993
453.18	7.029
453.53	7.730
453.88	6.911
454.23	7.292
454.58	7.511
454.93	7.629
455.28	6.608
455.63	7.282
455.98	7.619
456.34	6.721
456.69	7.264
457.04	7.183
457.39	7.189
457.74	6.849
458.09	7.188
458.44	6.899
458.79	6.562
459.14	7.111
459.49	7.356
459.84	6.593
460.19	6.953
460.54	7.118
460.89	6.528
461.24	7.286
461.59	8.251
461.94	6.905
462.29	7.359
462.64	7.786
462.99	6.962
463.34	8.267
463.69	7.380
464.04	7.072
464.39	7.304
464.74	6.952
465.09	7.358
465.44	7.036
465.79	6.264
466.14	6.842
466.49	7.175
466.84	6.947
467.19	7.846
467.54	7.500
467.89	7.323
468.24	7.155
468.59	7.692
468.94	6.597
469.29	7.069
469.64	8.166
469.99	7.240
470.34	7.133
470.68	7.328
471.03	7.551
471.38	7.366
471.73	7.195
472.08	7.829
472.43	7.286
472.78	6.978
473.13	7.959
473.48	8.302
473.83	7.683
474.17	7.281
474.52	7.196
474.87	7.239
475.22	6.790
475.57	7.469
475.92	6.851
476.27	6.652
476.61	6.895
476.96	7.037
477.31	6.803
477.66	7.330
478.01	7.214
478.36	7.351
478.70	6.127
479.05	6.816
479.40	7.062
479.75	6.762
480.10	6.909
480.45	7.092
480.79	6.355
481.14	6.947
481.49	7.167
481.84	6.813
482.19	6.497
482.53	6.927
482.88	6.794
483.23	6.963
483.58	7.143
483.92	6.607
484.27	5.882
484.62	6.293
484.97	5.834
485.31	6.370
485.66	5.261
486.01	4.716
486.36	4.496
486.70	4.795
487.05	4.804
487.40	5.516
487.75	5.285
488.09	5.823
488.44	5.504
488.79	6.004
489.13	6.303
489.48	6.117
489.83	5.956
490.17	6.708
490.52	6.687
490.87	6.603
491.22	6.594
491.56	6.059
491.91	6.375
492.26	6.155
492.60	6.406
492.95	5.940
493.30	6.589
493.64	6.300
493.99	6.685
494.34	6.337
494.68	6.822
495.03	6.767
495.37	7.073
495.72	6.579
496.07	6.729
496.41	5.619
496.76	6.420
497.11	6.709
497.45	6.102
497.80	6.526
498.14	5.942
498.49	6.244
498.84	6.951
499.18	6.762
499.53	6.505
499.87	6.477
500.22	6.877
500.56	6.893
500.91	6.827
501.26	6.306
501.60	6.597
501.95	6.829
502.29	6.982
502.64	6.657
502.98	6.779
503.33	6.490
503.67	6.589
504.02	6.922
504.36	6.551
504.71	6.546
505.06	6.940
505.40	6.368
505.75	6.413
506.09	6.463
506.44	6.857
506.78	7.404
507.13	6.663
507.47	7.374
507.82	7.700
508.16	7.042
508.51	7.610
508.85	6.753
509.19	6.990
509.54	6.633
509.88	7.367
510.23	7.095
510.57	7.895
510.92	7.198
511.26	7.194
511.61	7.469
511.95	6.837
512.30	7.476
512.64	7.362
512.98	7.771
513.33	8.030
513.67	7.364
514.02	6.872
514.36	7.810
514.70	7.360
515.05	7.195
515.39	7.684
515.74	7.658
516.08	7.993
516.42	8.158
516.77	8.082
517.11	7.936
517.46	7.675
517.80	8.130
518.14	7.296
518.49	7.701
518.83	8.125
519.17	7.621
519.52	7.583
519.86	8.214
520.20	8.382
520.55	8.259
520.89	8.516
521.23	8.203
521.58	8.103
521.92	8.267
522.26	8.176
522.61	7.726
522.95	7.858
523.29	8.156
523.64	8.415
523.98	8.071
524.32	8.384
524.66	8.358
525.01	8.333
525.35	9.046
525.69	8.251
526.04	8.287
526.38	7.993
526.72	8.773
527.06	9.040
527.41	6.745
527.75	8.553
528.09	9.377
528.43	9.433
528.78	8.974
529.12	8.182
529.46	8.941
529.80	8.478
530.15	9.408
530.49	8.308
530.83	8.987
531.17	9.661
531.51	9.468
531.86	8.968
532.20	9.778
532.54	9.801
532.88	9.307
533.22	8.370
533.57	8.519
533.91	8.609
534.25	8.688
534.59	9.152
534.93	8.804
535.27	8.871
535.62	8.608
535.96	9.040
536.30	8.709
536.64	8.950
536.98	8.361
537.32	8.690
537.66	8.533
538.01	9.480
538.35	8.920
538.69	9.317
539.03	8.317
539.37	8.562
539.71	8.166
540.05	8.954
540.39	8.571
540.73	8.473
541.07	9.345
541.42	9.459
541.76	9.871
542.10	9.314
542.44	8.477
542.78	9.816
543.12	8.765
543.46	9.246
543.80	8.848
544.14	8.280
544.48	8.825
544.82	8.724
545.16	9.369
545.50	8.162
545.84	9.476
546.18	8.754
546.52	8.809
546.86	9.072
547.20	9.238
547.54	9.619
547.88	9.503
548.22	8.717
548.56	8.994
548.90	8.835
549.24	8.013
549.58	9.141
549.92	8.997
550.26	9.588
550.60	9.682
550.94	8.732
551.28	8.266
551.62	9.633
551.96	9.544
552.30	9.829
552.64	9.804
552.98	9.153
553.32	9.575
553.66	9.611
554.00	8.991
554.34	8.420
554.68	9.871
555.02	9.873
555.36	7.933
555.69	9.066
556.03	9.421
556.37	9.141
556.71	7.981
557.05	8.613
557.39	9.377
557.73	9.245
558.07	9.282
558.41	8.900
558.75	9.846
559.08	9.247
559.42	9.448
559.76	10.221
560.10	9.279
560.44	8.945
560.78	8.849
561.12	8.377
561.45	9.518
561.79	8.438
562.13	9.054
562.47	9.016
562.81	8.717
563.15	9.498
563.48	9.416
563.82	8.219
564.16	9.026
564.50	8.268
564.84	8.976
565.17	8.752
565.51	9.457
565.85	9.201
566.19	8.453
566.52	8.993
566.86	8.318
567.20	8.785
567.54	8.562
567.88	7.930
568.21	8.677
568.55	8.038
568.89	7.588
569.23	7.709
569.56	7.045
569.90	7.321
570.24	6.925
570.57	6.936
570.91	6.464
571.25	6.578
571.59	6.863
571.92	6.624
572.26	6.615
572.60	7.057
572.93	6.687
573.27	7.276
573.61	6.924
573.95	6.253
574.28	6.281
574.62	6.365
574.96	6.141
575.29	6.280
575.63	6.504
575.97	6.274
576.30	6.506
576.64	6.444
576.98	6.320
577.31	6.100
577.65	6.189
577.98	6.011
578.32	5.699
578.66	6.289
578.99	6.094
579.33	6.294
579.67	6.130
580.00	6.377
580.34	6.289
580.67	6.074
581.01	6.116
581.35	5.666
581.68	5.933
582.02	5.965
582.35	5.732
582.69	6.083
583.02	6.173
583.36	6.525
583.70	6.469
584.03	6.766
584.37	7.062
584.70	6.270
585.04	6.654
585.37	6.244
585.71	6.203
586.04	6.403
586.38	6.583
586.72	6.766
587.05	6.466
587.39	6.174
587.72	6.545
588.06	6.057
588.39	6.694
588.73	6.483
589.06	6.606
589.40	6.869
589.73	6.864
590.07	7.153
590.40	6.357
590.73	7.572
591.07	7.896
591.40	7.971
591.74	7.835
592.07	7.461
592.41	7.854
592.74	7.191
593.08	7.062
593.41	6.643
593.75	6.433
594.08	6.906
594.41	7.246
594.75	6.654
595.08	7.337
595.42	7.075
595.75	7.087
596.09	7.360
596.42	7.780
596.75	7.176
597.09	8.052
597.42	6.830
597.75	7.503
598.09	7.739
598.42	7.216
598.76	7.134
599.09	6.537
599.42	6.732
599.76	6.991
600.09	6.849
600.42	6.392
600.76	6.893
601.09	6.922
601.42	7.154
601.76	6.945
602.09	7.075
602.42	7.484
602.76	7.819
603.09	7.238
603.42	6.872
603.76	6.822
604.09	6.747
604.42	7.093
604.76	7.465
605.09	7.689
605.42	7.525
605.75	7.285
606.09	6.710
606.42	6.825
606.75	7.258
607.09	7.242
607.42	7.274
607.75	7.553
608.08	7.338
608.42	7.799
608.75	7.214
609.08	7.401
609.41	7.282
609.75	7.766
610.08	7.729
610.41	7.030
610.74	7.474
611.07	7.263
611.41	8.047
611.74	8.396
612.07	8.126
612.40	8.447
612.73	8.000
613.07	8.244
613.40	8.268
613.73	6.922
614.06	7.688
614.39	7.866
614.72	7.737
615.06	8.036
615.39	7.484
615.72	7.669
616.05	7.656
616.38	8.560
616.71	8.076
617.05	7.833
617.38	8.659
617.71	7.628
618.04	8.233
618.37	8.043
618.70	8.774
619.03	8.816
619.36	8.418
619.69	8.028
620.03	9.478
620.36	8.222
620.69	9.384
621.02	9.513
621.35	8.849
621.68	8.333
622.01	8.978
622.34	9.153
622.67	8.669
623.00	8.217
623.33	8.935
623.66	8.578
623.99	8.247
624.32	8.345
624.65	7.839
624.99	8.428
625.32	7.676
625.65	8.340
625.98	8.916
626.31	10.031
626.64	8.898
626.97	9.476
627.30	8.645
627.63	10.008
627.96	9.336
628.29	10.149
628.62	10.430
628.95	10.849
629.28	9.307
629.61	11.732
629.94	10.476
630.26	9.724
630.59	9.819
630.92	10.249
631.25	10.168
631.58	9.409
631.91	10.041
632.24	9.072
632.57	10.703
632.90	10.526
633.23	10.962
633.56	11.186
633.89	10.759
634.22	11.351
634.55	11.716
634.88	11.617
635.20	12.067
635.53	11.446
635.86	12.500
636.19	9.294
636.52	10.842
636.85	11.798
637.18	10.253
637.51	12.648
637.83	10.727
638.16	10.997
638.49	11.209
638.82	12.769
639.15	12.500
639.48	13.342
639.81	12.601
640.13	11.458
640.46	11.275
640.79	12.153
641.12	12.105
641.45	10.754
641.77	11.635
642.10	13.743
642.43	12.462
642.76	12.384
643.09	14.724
643.41	13.505
643.74	14.506
644.07	10.671
644.40	14.724
644.73	14.016
645.05	15.214
645.38	13.744
645.71	14.332
646.04	13.953
646.36	16.361
646.69	14.381
647.02	13.946
647.35	13.574
647.67	14.336
648.00	15.610
648.33	13.861
648.66	11.364
648.98	13.043
649.31	12.556
649.64	11.659
649.96	13.264
650.29	11.848
650.62	14.563
650.94	15.397
651.27	15.203
651.60	12.646
651.92	13.898
652.25	11.889
652.58	12.928
652.90	13.902
653.23	12.173
653.56	13.386
653.88	14.105
654.21	13.586
654.54	13.531
654.86	11.526
655.19	11.351
655.52	5.798
655.84	4.165
656.17	4.882
656.49	6.780
656.82	7.079
657.15	5.682
657.47	4.472
657.80	3.631
658.13	3.708
658.45	5.794
658.78	5.842
659.10	6.765
659.43	7.114
659.75	8.397
660.08	8.861
660.41	11.453
660.73	12.961
661.06	13.057
661.38	16.364
661.71	15.192
662.03	17.751
662.36	15.109
662.68	14.859
663.01	16.364
663.33	15.711
663.66	13.655
663.98	14.255
664.31	16.176
664.63	15.385
664.96	13.280
665.28	14.959
665.61	13.840
665.93	13.682
666.26	15.619
666.58	16.527
666.91	14.588
667.23	16.854
667.56	13.175
667.88	17.949
668.21	16.205
668.53	13.449
668.86	16.883
669.18	17.697
669.50	16.304
669.83	19.172
670.15	16.444
670.48	15.033
670.80	16.595
671.13	15.287
671.45	14.043
671.77	16.497
672.10	15.712
672.42	13.958
672.75	12.438
673.07	12.676
673.39	12.658
673.72	11.719
674.04	15.098
674.37	13.592
674.69	13.292
675.01	15.063
675.34	16.427
675.66	19.579
675.98	16.497
676.31	17.857
676.63	18.259
676.95	16.143
677.28	15.421
677.60	13.846
677.92	19.831
678.25	16.838
678.57	13.745
678.89	15.832
679.22	14.931
679.54	14.504
679.86	14.495
680.18	13.238
680.51	16.312
680.83	14.947
681.15	15.094
681.48	16.446
681.80	13.733
682.12	16.092
682.44	13.346
682.77	15.275
683.09	16.309
683.41	15.965
683.73	16.998
684.06	16.529
684.38	15.656
684.70	16.667
685.02	14.447
685.34	15.018
685.67	12.238
685.99	12.887
686.31	13.140
686.63	12.721
686.96	14.107
687.28	14.079
687.60	14.493
687.92	14.625
688.24	14.068
688.56	14.859
688.89	14.938
689.21	17.249
689.53	18.163
689.85	15.743
690.17	14.286
690.49	19.108
690.82	17.757
691.14	17.187
691.46	13.502
691.78	16.466
692.10	17.149
692.42	15.170
692.74	15.975
693.06	15.745
693.39	15.606
693.71	15.939
694.03	16.211
694.35	14.719
694.67	16.247
694.99	17.317
695.31	17.892
695.63	14.833
695.95	17.848
696.27	13.706
696.59	17.358
696.91	19.171
697.23	15.023
697.56	18.550
697.88	15.133
698.20	16.250
698.52	15.914
698.84	14.922
699.16	14.055
699.48	17.815
699.80	17.874
700.12	20.519
700.44	19.894
700.76	18.508
701.08	18.678
701.40	17.318
701.72	19.534
702.04	22.727
702.36	16.147
702.68	20.680
703.00	19.391
703.32	17.021
703.64	17.694
703.96	20.334
704.28	20.058
704.60	19.355
704.91	22.849
705.23	18.768
705.55	20.266
705.87	24.585
706.19	20.495
706.51	23.676
706.83	19.091
707.15	21.569
707.47	17.172
707.79	17.445
708.11	17.352
708.43	18.095
708.74	15.051
709.06	18.182
709.38	18.373
709.70	22.674
710.02	20.178
710.34	16.970
710.66	18.209
710.98	22.443
711.29	20.058
711.61	19.764
711.93	20.192
712.25	21.222
712.57	18.382
712.89	22.837
713.20	21.277
713.52	23.026
713.84	21.835
714.16	21.646
714.48	19.828
714.80	23.404
715.11	18.444
715.43	21.662
715.75	17.971
716.07	21.086
716.39	21.630
716.70	22.591
717.02	21.223
717.34	26.148
717.66	25.746
717.97	28.685
718.29	26.296
718.61	22.628
718.93	26.103
719.24	24.567
719.56	21.017
719.88	21.356
720.20	26.014
720.51	21.254
720.83	21.933
721.15	24.254
721.46	20.567
721.78	22.939
722.10	21.509
722.42	24.060
722.73	23.221
723.05	23.361
723.37	23.482
723.68	23.938
724.00	23.171
724.32	21.371
724.63	26.423
724.95	23.013
725.27	25.506
725.58	27.344
725.90	26.277
726.22	26.038
726.53	26.736
726.85	24.232
727.16	22.064
727.48	21.277
727.80	19.697
728.11	22.826
728.43	23.077
728.74	25.090
729.06	30.292
729.38	23.897
729.69	29.537
730.01	22.526
730.32	20.139
730.64	19.064
730.96	19.142
731.27	24.834
731.59	22.018
731.90	18.367
732.22	22.050
732.53	20.124
732.85	21.154
733.16	18.006
733.48	24.585
733.80	22.403
734.11	24.204
734.43	19.231
734.74	20.571
735.06	19.198
735.37	23.699
735.69	20.064
736.00	24.183
736.32	22.430
736.63	19.169
736.95	21.086
737.26	14.286
737.58	17.742
737.89	21.739
738.21	20.819
738.52	20.000
738.83	23.396
739.15	27.308
739.46	26.277
739.78	21.181
740.09	23.692
740.41	18.710
740.72	18.815
741.04	21.481
741.35	25.417
741.66	31.556
741.98	21.226
742.29	32.057
742.61	32.759
742.92	28.507
743.23	29.060
743.55	28.000
743.86	29.386
744.18	27.434
744.49	35.885
744.80	30.986
745.12	29.091
745.43	25.551
745.74	28.829
746.06	30.734
746.37	26.009
746.68	27.149
747.00	32.407
747.31	31.429
747.62	23.451
747.94	25.110
748.25	24.681
748.56	32.159
748.88	29.208
749.19	32.500
749.50	27.907
749.82	21.545
750.13	23.673
750.44	22.993
750.75	23.860
751.07	28.617
751.38	24.042
751.69	25.993
752.01	24.812
752.32	23.105
752.63	19.504
752.94	25.820
753.26	30.800
753.57	26.829
753.88	24.609
754.19	25.000
754.51	23.611
754.82	19.134
755.13	24.528
755.44	25.564
755.75	22.993
756.07	21.277
756.38	22.993
756.69	24.161
757.00	22.455
757.31	20.475
757.63	19.006
757.94	17.158
758.25	19.608
758.56	16.790
758.87	14.785
759.18	22.424
759.50	20.690
759.81	21.184
760.12	18.437
760.43	20.917
760.74	18.478
761.05	22.316
761.36	20.321
761.67	21.023
761.99	22.981
762.30	25.000
762.61	24.427
762.92	19.531
763.23	23.529
763.54	30.000
763.85	20.703
764.16	30.769
764.47	25.095
764.78	19.788
765.10	19.620
765.41	22.419
765.72	20.659
766.03	23.511
766.34	23.333
766.65	23.830
766.96	25.641
767.27	29.949
767.58	34.375
767.89	33.684
768.20	30.460
768.51	29.949
768.82	28.440
769.13	23.171
769.44	25.911
769.75	24.893
770.06	18.807
770.37	28.507
770.68	28.241
770.99	25.778
771.30	22.951
771.61	27.803
771.92	30.328
772.23	31.513
772.54	32.821
772.85	36.126
773.16	33.511
773.47	39.130
773.78	30.964
774.09	35.714
774.39	36.842
774.70	42.593
775.01	39.855
775.32	43.137
775.63	44.079
775.94	42.446
776.25	40.945
776.56	44.030
776.87	54.918
777.18	42.969
777.48	50.382
777.79	43.182
778.10	42.963
778.41	46.429
778.72	40.876
779.03	36.242
779.34	42.282
779.65	34.459
779.95	32.515
780.26	41.830
780.57	42.759
780.88	53.125
781.19	45.113
781.50	47.297
781.80	35.849
782.11	35.593
782.42	33.544
782.73	39.877
783.04	45.270
783.34	42.254
783.65	48.630
783.96	43.284
784.27	39.860
784.57	36.691
784.88	40.741
785.19	53.968
785.50	49.057
785.81	55.224
786.11	52.459
786.42	48.062
786.73	50.442
787.04	52.830
787.34	61.607
787.65	58.000
787.96	42.342
788.26	43.802
788.57	50.000
788.88	51.240
789.19	49.306
789.49	49.242
789.80	53.435
790.11	58.095
790.41	56.436
790.72	59.036
791.03	73.913
791.33	56.977
791.64	58.763
791.95	63.366
792.25	64.444
792.56	72.727
792.87	91.026
793.17	74.684
793.48	77.011
793.79	58.621
794.09	70.455
794.40	61.345
794.70	51.471
795.01	46.667
795.32	41.727
795.62	49.606
795.93	57.759
796.23	45.133
796.54	57.647
796.85	63.514
797.15	76.056
797.46	68.182
797.76	68.675
798.07	67.089
798.37	60.000
798.68	74.242
798.99	67.606
799.29	87.013
799.60	70.455
799.90	93.151
800.21	88.060
800.51	98.276
800.82	94.737
801.12	88.525
801.43	92.424
801.73	71.622
802.04	87.302
802.34	71.605
802.65	84.375
802.95	94.915
803.26	93.750
803.56	78.571
803.87	80.000
804.17	77.941
804.48	109.259
804.78	65.517
805.09	85.294
805.39	100.000
805.70	98.214
806.00	77.049
806.30	83.333
806.61	70.732
806.91	82.278
807.22	68.421
807.52	80.597
807.83	77.465
808.13	90.625
808.43	75.000
808.74	75.000
809.04	84.058
809.35	88.060
809.65	85.526
809.95	111.290
810.26	96.610
810.56	111.111
810.86	115.909
811.17	138.095
811.47	105.000
811.77	94.444
812.08	116.364
812.38	130.000
812.69	141.667
812.99	147.727
813.29	124.490
813.59	121.429
813.90	118.367
814.20	96.364
814.50	75.385
814.81	97.059
815.11	110.204
815.41	98.361
815.72	142.857
816.02	114.545
816.32	140.476
816.62	100.000
816.93	121.951
817.23	133.333
817.53	140.909
817.84	175.758
818.14	132.609
818.44	140.000
818.74	164.706
819.04	147.500
819.35	162.857
819.65	202.941
819.95	171.429
820.25	215.000
820.56	146.154
820.86	143.182
821.16	137.209
821.46	141.026
821.76	140.000
822.07	142.857
822.37	152.500
822.67	160.606
822.97	107.843
823.27	203.571
823.57	129.730
823.88	170.000
824.18	200.000
824.48	157.143
824.78	212.000
825.08	191.667
825.38	151.351
825.69	141.463
825.99	208.333
826.29	162.069
826.59	134.211
826.89	147.368
827.19	164.706
827.49	170.968
827.79	145.455
828.09	95.455
828.39	117.021
828.70	124.490
829.00	177.778
829.30	154.839
829.60	150.000
829.90	340.000
830.20	146.429
830.50	160.870
830.80	204.348
831.10	203.333
831.40	206.667
831.70	208.696
832.00	238.462
832.30	225.926
832.60	325.000
832.90	180.000
833.20	357.143
833.50	190.323
833.80	210.345
834.10	181.250
834.40	226.923
834.70	277.778
835.00	300.000
835.30	160.000
835.60	346.154
835.90	168.966
836.20	292.857
836.50	210.345
836.80	240.000
837.10	169.444
837.40	247.619
837.70	282.353
838.00	207.407
838.30	219.048
838.60	323.810
838.90	269.231
839.19	250.000
839.49	392.857
839.79	320.000
840.09	235.000
840.39	219.048
840.69	256.522
840.99	244.444
841.29	430.000
841.59	283.333
841.88	325.000
842.18	165.517
842.48	295.238
842.78	186.667
843.08	304.348
843.38	168.750
843.68	933.333
843.97	215.385
844.27	206.897
844.57	319.048
844.87	375.000
845.17	200.000
845.47	1433.333
845.76	400.000
846.06	305.882
846.36	462.500
846.66	435.714
846.96	281.250
847.25	372.727
847.55	436.364
847.85	221.739
848.15	600.000
848.44	400.000
848.74	272.222
849.04	305.882
849.34	540.000
849.63	284.211
849.93	463.636
850.23	1060.000
850.53	435.714
850.82	2650.000
851.12	-5100.000
851.42	4100.000
851.71	315.000
852.01	-1366.667
852.31	241.667
852.61	1700.000
852.90	266.667
853.20	184.000
853.50	311.765
853.79	228.571
854.09	191.667
854.39	331.250
854.68	159.459
854.98	180.645
855.28	196.667
855.57	210.345
855.87	211.111
856.17	178.947
856.46	220.000
856.76	276.471
857.05	189.655
857.35	245.833
857.65	393.333
857.94	269.565
858.24	261.538
858.53	305.000
858.83	304.545
859.13	386.667
859.42	0.000
859.72	577.778
860.01	509.091
860.31	236.364
860.60	342.105
860.90	243.478
861.20	488.889
861.49	516.667
861.79	-4900.000
862.08	787.500
862.38	285.714
862.67	446.154
862.97	305.882
863.26	555.556
863.56	294.444
863.85	433.333
864.15	687.500
864.44	400.000
864.74	950.000
865.03	700.000
865.33	300.000
865.62	436.364
865.92	484.615
866.21	358.333
866.51	0.000
866.80	518.182
867.10	1120.000
867.39	438.462
867.69	445.455
867.98	268.421
868.27	490.909
868.57	321.053
868.86	-4800.000
869.16	318.750
869.45	2350.000
869.75	-4600.000
870.04	366.667
870.33	714.286
870.63	1200.000
870.92	2400.000
871.22	842.857
871.51	400.000
871.80	233.333
872.10	414.286
>>>>>End Processed Spectral Data<<<<<
