SpectraSuite Data File
++++++++++++++++++++++++++++++++++++
Date: Wed May 13 19:40:09 PDT 2015
User: schluterlab
Dark Spectrum Present: Yes
Reference Spectrum Present: Yes
Number of Sampled Component Spectra: 1
Spectrometers: USB2E3373
Integration Time (usec): 3000 (USB2E3373)
Spectra Averaged: 3 (USB2E3373)
Boxcar Smoothing: 0 (USB2E3373)
Correct for Electrical Dark: No (USB2E3373)
Strobe/Lamp Enabled: No (USB2E3373)
Correct for Detector Non-linearity: No (USB2E3373)
Correct for Stray Light: No (USB2E3373)
Number of Pixels in Processed Spectrum: 2048
>>>>>Begin Processed Spectral Data<<<<<
178.53	0.000
178.91	-1450.000
179.29	-1400.000
179.67	-322.222
180.04	-1725.000
180.42	2850.000
180.80	1240.000
181.18	-1100.000
181.56	828.571
181.94	0.000
182.31	-742.857
182.69	1900.000
183.07	-625.000
183.45	-577.778
183.83	545.455
184.20	-450.000
184.58	2250.000
184.96	5800.000
185.34	-1060.000
185.72	-500.000
186.09	-2350.000
186.47	2950.000
186.85	2450.000
187.23	5300.000
187.61	-1700.000
187.98	1450.000
188.36	609.091
188.74	500.000
189.12	-840.000
189.49	600.000
189.87	-4100.000
190.25	-1125.000
190.63	392.857
191.00	423.077
191.38	1000.000
191.76	-1125.000
192.14	1525.000
192.51	687.500
192.89	1100.000
193.27	675.000
193.65	-1200.000
194.02	600.000
194.40	940.000
194.78	580.000
195.15	533.333
195.53	660.000
195.91	-1950.000
196.29	356.250
196.66	352.632
197.04	-470.000
197.42	0.000
197.79	590.000
198.17	-4400.000
198.55	700.000
198.92	687.500
199.30	1100.000
199.68	0.000
200.05	322.222
200.43	700.000
200.81	3600.000
201.18	1866.667
201.56	-1666.667
201.94	633.333
202.31	700.000
202.69	458.333
203.07	560.000
203.44	0.000
203.82	1225.000
204.19	828.571
204.57	464.286
204.95	587.500
205.32	1533.333
205.70	472.727
206.08	442.857
206.45	2850.000
206.83	475.000
207.20	900.000
207.58	720.000
207.96	305.556
208.33	812.500
208.71	-900.000
209.08	757.143
209.46	588.889
209.84	518.182
210.21	-1800.000
210.59	1525.000
210.96	-562.500
211.34	2750.000
211.71	620.000
212.09	1033.333
212.46	0.000
212.84	1500.000
213.22	1525.000
213.59	-3700.000
213.97	950.000
214.34	942.857
214.72	645.455
215.09	1000.000
215.47	-2700.000
215.84	-2650.000
216.22	1600.000
216.59	500.000
216.97	1425.000
217.34	518.182
217.72	-766.667
218.09	0.000
218.47	-5000.000
218.84	633.333
219.22	857.143
219.59	1566.667
219.97	-700.000
220.34	980.000
220.72	-1866.667
221.09	407.143
221.47	1450.000
221.84	-883.333
222.22	0.000
222.59	1525.000
222.97	-3150.000
223.34	1120.000
223.72	369.231
224.09	1060.000
224.46	2650.000
224.84	-4700.000
225.21	-1100.000
225.59	-5500.000
225.96	710.000
226.34	300.000
226.71	2950.000
227.08	750.000
227.46	670.000
227.83	-1175.000
228.21	-2400.000
228.58	633.333
228.95	-2400.000
229.33	-2000.000
229.70	1966.667
230.08	657.143
230.45	-1060.000
230.82	375.000
231.20	933.333
231.57	542.857
231.95	450.000
232.32	259.091
232.69	436.364
233.07	757.143
233.44	384.615
233.81	-1600.000
234.19	294.737
234.56	475.000
234.93	358.333
235.31	354.545
235.68	353.846
236.05	357.143
236.43	166.667
236.80	315.789
237.17	4600.000
237.55	233.333
237.92	192.857
238.29	209.524
238.67	145.161
239.04	193.103
239.41	144.444
239.79	113.043
240.16	121.429
240.53	136.364
240.91	90.196
241.28	78.000
241.65	86.000
242.02	81.159
242.40	83.871
242.77	75.000
243.14	72.043
243.51	65.169
243.89	63.529
244.26	51.111
244.63	55.914
245.00	53.191
245.38	58.416
245.75	40.187
246.12	46.789
246.49	43.066
246.87	52.000
247.24	49.231
247.61	40.000
247.98	45.098
248.36	31.757
248.73	35.032
249.10	39.490
249.47	29.944
249.84	33.690
250.22	32.620
250.59	28.994
250.96	32.828
251.33	35.071
251.70	30.693
252.08	29.048
252.45	30.045
252.82	23.913
253.19	25.106
253.56	26.667
253.94	24.481
254.31	25.391
254.68	26.538
255.05	21.402
255.42	21.138
255.79	20.221
256.16	27.437
256.54	24.028
256.91	22.776
257.28	18.705
257.65	17.822
258.02	19.255
258.39	17.035
258.76	20.736
259.14	19.643
259.51	17.021
259.88	17.391
260.25	19.335
260.62	17.919
260.99	18.634
261.36	18.018
261.73	16.332
262.10	15.407
262.47	19.155
262.85	15.042
263.22	17.094
263.59	16.239
263.96	15.934
264.33	20.104
264.70	16.053
265.07	18.159
265.44	17.172
265.81	14.355
266.18	15.327
266.55	15.854
266.92	15.971
267.29	16.898
267.66	14.679
268.03	17.045
268.40	13.551
268.77	15.513
269.14	13.739
269.51	16.027
269.88	14.219
270.25	16.253
270.62	13.708
270.99	16.559
271.36	17.597
271.73	15.421
272.10	15.217
272.47	13.978
272.84	16.017
273.21	15.723
273.58	12.009
273.95	12.998
274.32	12.603
274.69	13.919
275.06	13.976
275.43	13.617
275.80	13.427
276.17	10.998
276.54	14.761
276.91	12.846
277.28	13.086
277.65	12.959
278.02	12.836
278.39	14.453
278.76	12.727
279.13	13.019
279.50	13.966
279.87	13.147
280.23	15.170
280.60	11.412
280.97	13.124
281.34	11.681
281.71	13.273
282.08	13.052
282.45	11.455
282.82	13.144
283.19	11.052
283.56	12.105
283.92	12.352
284.29	10.758
284.66	10.889
285.03	11.031
285.40	10.387
285.77	10.943
286.14	10.535
286.51	11.500
286.87	11.282
287.24	11.238
287.61	10.594
287.98	12.013
288.35	10.301
288.72	9.346
289.08	13.302
289.45	10.049
289.82	10.569
290.19	8.163
290.56	11.485
290.93	10.574
291.29	10.123
291.66	9.735
292.03	13.081
292.40	11.747
292.77	9.615
293.13	9.403
293.50	9.913
293.87	10.074
294.24	7.556
294.60	7.715
294.97	10.029
295.34	11.283
295.71	10.511
296.08	9.259
296.44	9.078
296.81	9.115
297.18	10.434
297.55	6.201
297.91	7.520
298.28	9.906
298.65	9.661
299.02	9.486
299.38	8.367
299.75	6.604
300.12	8.940
300.48	8.500
300.85	9.371
301.22	8.662
301.59	8.081
301.95	8.942
302.32	7.959
302.69	9.080
303.05	8.242
303.42	7.531
303.79	7.701
304.15	6.760
304.52	7.300
304.89	6.969
305.25	8.469
305.62	8.720
305.99	7.910
306.35	8.277
306.72	7.960
307.09	6.770
307.45	8.896
307.82	6.473
308.19	7.174
308.55	7.767
308.92	7.519
309.29	6.864
309.65	6.151
310.02	7.928
310.38	6.989
310.75	6.758
311.12	8.393
311.48	7.524
311.85	7.442
312.22	8.221
312.58	7.484
312.95	7.920
313.31	6.505
313.68	7.380
314.05	8.580
314.41	7.035
314.78	7.251
315.14	6.951
315.51	7.415
315.87	7.921
316.24	7.448
316.61	6.920
316.97	6.849
317.34	6.164
317.70	8.222
318.07	7.026
318.43	7.143
318.80	6.935
319.16	7.250
319.53	6.942
319.89	8.190
320.26	7.300
320.62	6.647
320.99	7.374
321.35	7.980
321.72	7.495
322.08	7.206
322.45	8.856
322.81	7.946
323.18	7.900
323.54	8.813
323.91	6.981
324.27	8.126
324.64	6.897
325.00	7.304
325.37	7.552
325.73	8.348
326.10	7.590
326.46	7.706
326.83	7.938
327.19	8.113
327.56	7.578
327.92	7.787
328.29	8.429
328.65	8.748
329.01	7.491
329.38	7.031
329.74	8.126
330.11	8.860
330.47	9.366
330.84	10.202
331.20	7.923
331.56	8.349
331.93	8.519
332.29	8.962
332.66	8.230
333.02	7.861
333.38	8.853
333.75	8.378
334.11	8.363
334.48	8.252
334.84	8.915
335.20	8.636
335.57	9.157
335.93	6.696
336.29	7.967
336.66	8.747
337.02	8.145
337.38	8.333
337.75	8.467
338.11	8.415
338.47	7.274
338.84	8.341
339.20	7.064
339.56	8.394
339.93	7.000
340.29	7.337
340.65	7.219
341.02	7.853
341.38	8.007
341.74	8.772
342.11	7.860
342.47	8.106
342.83	7.962
343.20	8.312
343.56	8.340
343.92	6.930
344.28	8.333
344.65	7.567
345.01	6.818
345.37	6.861
345.73	7.783
346.10	7.587
346.46	7.797
346.82	8.649
347.19	6.683
347.55	7.471
347.91	8.333
348.27	8.299
348.63	8.278
349.00	7.443
349.36	6.897
349.72	7.779
350.08	7.293
350.45	8.137
350.81	7.230
351.17	7.942
351.53	7.289
351.89	6.353
352.26	7.340
352.62	8.340
352.98	7.536
353.34	7.231
353.70	6.219
354.07	8.145
354.43	7.857
354.79	7.080
355.15	7.342
355.51	8.153
355.87	8.735
356.24	7.492
356.60	6.816
356.96	7.562
357.32	7.768
357.68	7.402
358.04	7.601
358.40	7.997
358.77	7.590
359.13	6.314
359.49	6.824
359.85	5.397
360.21	6.220
360.57	7.237
360.93	6.692
361.29	6.727
361.66	5.805
362.02	7.164
362.38	7.681
362.74	6.696
363.10	6.218
363.46	6.530
363.82	6.576
364.18	6.975
364.54	7.207
364.90	7.932
365.26	6.176
365.62	7.012
365.98	7.012
366.35	6.017
366.71	6.291
367.07	6.482
367.43	6.096
367.79	7.281
368.15	7.974
368.51	6.250
368.87	6.852
369.23	6.437
369.59	6.372
369.95	7.206
370.31	6.980
370.67	6.522
371.03	6.816
371.39	5.904
371.75	6.176
372.11	6.899
372.47	7.111
372.83	7.061
373.19	6.720
373.55	7.465
373.91	6.922
374.27	6.392
374.63	6.109
374.99	7.203
375.35	5.862
375.71	6.374
376.07	6.859
376.42	6.052
376.78	6.561
377.14	5.834
377.50	6.623
377.86	5.785
378.22	6.637
378.58	5.827
378.94	5.908
379.30	6.043
379.66	6.345
380.02	6.143
380.38	6.072
380.74	6.122
381.09	6.112
381.45	6.638
381.81	6.265
382.17	6.051
382.53	5.912
382.89	6.852
383.25	5.691
383.61	5.948
383.97	6.066
384.32	5.989
384.68	5.638
385.04	5.900
385.40	5.697
385.76	6.020
386.12	4.922
386.48	6.042
386.83	6.479
387.19	6.555
387.55	6.184
387.91	5.744
388.27	5.518
388.62	7.068
388.98	5.037
389.34	6.320
389.70	6.499
390.06	6.591
390.42	5.772
390.77	6.234
391.13	6.573
391.49	6.409
391.85	5.411
392.20	4.921
392.56	6.818
392.92	5.592
393.28	4.615
393.64	5.935
393.99	5.925
394.35	5.831
394.71	6.274
395.07	5.670
395.42	5.501
395.78	6.489
396.14	6.269
396.50	7.331
396.85	6.357
397.21	4.994
397.57	6.448
397.92	5.950
398.28	5.157
398.64	5.675
399.00	5.820
399.35	5.640
399.71	5.671
400.07	6.150
400.42	5.706
400.78	6.514
401.14	5.244
401.49	5.373
401.85	6.231
402.21	4.431
402.57	5.614
402.92	5.927
403.28	6.808
403.63	5.507
403.99	4.841
404.35	5.758
404.70	5.635
405.06	5.067
405.42	5.427
405.77	4.743
406.13	5.474
406.49	6.328
406.84	5.552
407.20	4.965
407.55	5.424
407.91	6.267
408.27	5.424
408.62	5.900
408.98	5.821
409.34	5.781
409.69	6.000
410.05	5.638
410.40	5.749
410.76	4.839
411.11	6.273
411.47	5.559
411.83	6.597
412.18	5.195
412.54	5.168
412.89	6.084
413.25	6.080
413.60	5.312
413.96	5.647
414.31	5.407
414.67	5.767
415.03	5.099
415.38	5.863
415.74	6.045
416.09	5.683
416.45	5.154
416.80	5.816
417.16	6.166
417.51	6.238
417.87	6.101
418.22	6.120
418.58	5.746
418.93	6.020
419.29	6.429
419.64	6.108
420.00	5.671
420.35	6.145
420.71	5.977
421.06	5.788
421.42	5.673
421.77	5.774
422.12	4.885
422.48	4.857
422.83	5.475
423.19	6.519
423.54	5.630
423.90	6.203
424.25	6.142
424.61	5.952
424.96	5.714
425.31	5.925
425.67	5.449
426.02	5.543
426.38	5.433
426.73	4.857
427.09	5.714
427.44	5.348
427.79	5.980
428.15	5.833
428.50	5.676
428.85	6.257
429.21	5.577
429.56	5.443
429.92	5.536
430.27	5.114
430.62	5.581
430.98	5.241
431.33	5.412
431.68	5.707
432.04	5.485
432.39	5.254
432.74	5.506
433.10	5.886
433.45	5.481
433.80	5.211
434.16	5.342
434.51	5.474
434.86	6.157
435.22	5.003
435.57	5.593
435.92	5.734
436.28	6.228
436.63	6.291
436.98	5.724
437.34	5.903
437.69	6.009
438.04	5.734
438.39	5.970
438.75	6.915
439.10	5.475
439.45	5.490
439.81	5.196
440.16	5.534
440.51	6.151
440.86	5.790
441.22	5.339
441.57	5.892
441.92	5.425
442.27	5.651
442.63	5.319
442.98	6.197
443.33	5.707
443.68	5.421
444.03	5.564
444.39	4.869
444.74	5.844
445.09	5.714
445.44	6.288
445.79	5.740
446.15	6.247
446.50	5.385
446.85	5.087
447.20	5.303
447.55	6.142
447.91	5.902
448.26	5.454
448.61	5.370
448.96	5.759
449.31	5.681
449.66	6.246
450.02	5.571
450.37	5.385
450.72	5.809
451.07	5.972
451.42	4.924
451.77	5.637
452.12	5.889
452.47	6.654
452.83	5.594
453.18	5.990
453.53	5.937
453.88	5.729
454.23	6.455
454.58	6.784
454.93	6.612
455.28	5.860
455.63	6.371
455.98	7.083
456.34	6.030
456.69	5.636
457.04	6.254
457.39	5.494
457.74	5.920
458.09	6.038
458.44	5.929
458.79	5.260
459.14	6.659
459.49	6.188
459.84	6.039
460.19	6.659
460.54	6.366
460.89	5.979
461.24	6.193
461.59	7.263
461.94	5.549
462.29	6.766
462.64	6.637
462.99	5.205
463.34	6.600
463.69	6.316
464.04	6.899
464.39	6.435
464.74	6.417
465.09	5.790
465.44	6.094
465.79	4.642
466.14	5.692
466.49	5.617
466.84	5.954
467.19	6.276
467.54	5.875
467.89	6.062
468.24	6.225
468.59	7.143
468.94	6.048
469.29	6.105
469.64	7.028
469.99	6.563
470.34	5.812
470.68	7.040
471.03	6.190
471.38	6.741
471.73	7.262
472.08	7.368
472.43	5.967
472.78	5.925
473.13	7.189
473.48	7.179
473.83	6.463
474.17	6.161
474.52	6.203
474.87	6.538
475.22	6.268
475.57	6.179
475.92	5.470
476.27	6.088
476.61	6.453
476.96	5.498
477.31	5.704
477.66	6.018
478.01	5.802
478.36	6.134
478.70	5.504
479.05	6.550
479.40	5.937
479.75	5.796
480.10	5.517
480.45	5.854
480.79	4.826
481.14	5.675
481.49	5.695
481.84	5.441
482.19	5.861
482.53	5.459
482.88	6.003
483.23	5.654
483.58	5.778
483.92	5.389
484.27	4.837
484.62	5.129
484.97	4.888
485.31	4.966
485.66	4.081
486.01	3.611
486.36	3.642
486.70	3.697
487.05	3.947
487.40	4.111
487.75	4.463
488.09	4.368
488.44	4.603
488.79	5.280
489.13	5.462
489.48	5.098
489.83	5.222
490.17	5.042
490.52	5.403
490.87	5.066
491.22	5.639
491.56	4.647
491.91	5.584
492.26	4.961
492.60	5.714
492.95	4.911
493.30	5.374
493.64	4.806
493.99	5.571
494.34	5.597
494.68	5.861
495.03	5.310
495.37	5.956
495.72	5.604
496.07	6.218
496.41	5.000
496.76	5.277
497.11	5.583
497.45	5.636
497.80	5.854
498.14	5.652
498.49	5.415
498.84	5.705
499.18	5.619
499.53	5.461
499.87	5.778
500.22	5.511
500.56	5.291
500.91	4.952
501.26	5.737
501.60	5.695
501.95	5.270
502.29	5.530
502.64	5.168
502.98	5.189
503.33	5.302
503.67	5.476
504.02	5.566
504.36	6.130
504.71	5.667
505.06	5.880
505.40	5.056
505.75	4.822
506.09	5.588
506.44	5.525
506.78	5.553
507.13	5.805
507.47	5.758
507.82	5.876
508.16	6.079
508.51	6.038
508.85	5.362
509.19	5.408
509.54	5.765
509.88	5.925
510.23	5.604
510.57	6.244
510.92	6.163
511.26	6.166
511.61	5.654
511.95	5.480
512.30	5.461
512.64	5.696
512.98	5.949
513.33	6.585
513.67	5.656
514.02	5.736
514.36	6.062
514.70	5.977
515.05	5.633
515.39	6.225
515.74	5.631
516.08	6.428
516.42	6.604
516.77	6.633
517.11	6.104
517.46	6.208
517.80	5.981
518.14	5.790
518.49	6.359
518.83	6.534
519.17	6.409
519.52	6.055
519.86	5.990
520.20	6.532
520.55	6.882
520.89	6.083
521.23	7.539
521.58	6.783
521.92	6.001
522.26	5.247
522.61	6.604
522.95	6.446
523.29	6.330
523.64	6.585
523.98	6.161
524.32	6.273
524.66	6.374
525.01	6.434
525.35	6.258
525.69	6.342
526.04	6.168
526.38	7.138
526.72	6.258
527.06	6.340
527.41	5.755
527.75	6.045
528.09	6.680
528.43	6.756
528.78	6.208
529.12	6.545
529.46	6.430
529.80	6.869
530.15	7.103
530.49	7.077
530.83	6.646
531.17	7.115
531.51	7.652
531.86	6.516
532.20	7.366
532.54	7.047
532.88	7.060
533.22	7.183
533.57	6.358
533.91	6.442
534.25	6.622
534.59	6.650
534.93	6.663
535.27	6.940
535.62	6.838
535.96	7.031
536.30	6.039
536.64	6.697
536.98	6.569
537.32	6.649
537.66	6.533
538.01	6.781
538.35	6.723
538.69	7.530
539.03	6.433
539.37	5.751
539.71	5.120
540.05	6.078
540.39	6.179
540.73	6.921
541.07	6.684
541.42	6.980
541.76	7.484
542.10	7.503
542.44	5.762
542.78	7.246
543.12	6.334
543.46	6.689
543.80	6.962
544.14	6.547
544.48	7.175
544.82	6.799
545.16	6.571
545.50	6.362
545.84	6.452
546.18	6.801
546.52	6.607
546.86	6.323
547.20	7.687
547.54	6.880
547.88	6.888
548.22	7.285
548.56	6.855
548.90	6.658
549.24	6.330
549.58	7.299
549.92	7.280
550.26	7.244
550.60	7.123
550.94	6.690
551.28	6.218
551.62	7.189
551.96	7.088
552.30	6.826
552.64	7.640
552.98	7.051
553.32	7.620
553.66	7.566
554.00	7.756
554.34	7.039
554.68	7.725
555.02	7.475
555.36	7.446
555.69	6.495
556.03	6.729
556.37	7.572
556.71	6.753
557.05	6.933
557.39	6.928
557.73	6.704
558.07	6.599
558.41	6.295
558.75	7.127
559.08	7.159
559.42	7.256
559.76	7.868
560.10	7.566
560.44	6.988
560.78	6.454
561.12	6.596
561.45	7.236
561.79	6.131
562.13	7.176
562.47	6.557
562.81	6.276
563.15	6.020
563.48	6.764
563.82	5.936
564.16	6.279
564.50	6.315
564.84	6.195
565.17	6.692
565.51	6.581
565.85	6.726
566.19	6.450
566.52	6.523
566.86	6.088
567.20	6.486
567.54	5.765
567.88	5.866
568.21	5.979
568.55	5.207
568.89	5.739
569.23	5.258
569.56	5.587
569.90	5.472
570.24	4.593
570.57	4.658
570.91	4.590
571.25	4.972
571.59	4.772
571.92	4.551
572.26	4.506
572.60	4.595
572.93	4.498
573.27	5.206
573.61	4.383
573.95	4.858
574.28	4.422
574.62	4.325
574.96	3.990
575.29	4.268
575.63	4.446
575.97	4.556
576.30	4.620
576.64	4.271
576.98	4.254
577.31	4.090
577.65	4.256
577.98	4.021
578.32	4.051
578.66	4.319
578.99	4.086
579.33	3.849
579.67	4.087
580.00	4.316
580.34	4.794
580.67	4.254
581.01	4.452
581.35	4.029
581.68	4.092
582.02	3.848
582.35	3.888
582.69	4.074
583.02	4.101
583.36	4.427
583.70	4.720
584.03	4.336
584.37	5.033
584.70	4.493
585.04	4.525
585.37	4.660
585.71	4.676
586.04	4.639
586.38	4.493
586.72	4.695
587.05	4.673
587.39	4.090
587.72	4.690
588.06	4.402
588.39	5.048
588.73	4.752
589.06	4.955
589.40	5.084
589.73	4.857
590.07	5.089
590.40	4.604
590.73	5.386
591.07	5.983
591.40	5.356
591.74	6.104
592.07	5.541
592.41	5.457
592.74	5.281
593.08	5.296
593.41	5.410
593.75	4.747
594.08	4.727
594.41	5.691
594.75	5.250
595.08	5.261
595.42	5.429
595.75	5.199
596.09	5.069
596.42	5.658
596.75	5.952
597.09	6.147
597.42	5.691
597.75	5.735
598.09	5.304
598.42	5.713
598.76	5.026
599.09	5.321
599.42	4.694
599.76	5.234
600.09	5.282
600.42	5.113
600.76	5.214
601.09	5.100
601.42	5.479
601.76	5.389
602.09	5.217
602.42	5.533
602.76	5.925
603.09	5.507
603.42	5.506
603.76	5.030
604.09	5.235
604.42	5.340
604.76	6.326
605.09	5.505
605.42	5.643
605.75	5.422
606.09	5.327
606.42	5.313
606.75	5.392
607.09	6.195
607.42	4.792
607.75	5.232
608.08	5.818
608.42	6.006
608.75	5.861
609.08	5.643
609.41	5.664
609.75	5.908
610.08	6.221
610.41	5.214
610.74	5.582
611.07	6.225
611.41	5.692
611.74	6.938
612.07	5.849
612.40	5.876
612.73	5.842
613.07	6.789
613.40	6.214
613.73	5.454
614.06	6.183
614.39	6.240
614.72	6.368
615.06	6.565
615.39	5.786
615.72	5.879
616.05	5.423
616.38	5.781
616.71	6.354
617.05	6.890
617.38	5.592
617.71	5.886
618.04	7.151
618.37	6.742
618.70	7.032
619.03	7.171
619.36	6.993
619.69	5.986
620.03	7.555
620.36	7.487
620.69	7.808
621.02	7.670
621.35	7.204
621.68	7.321
622.01	7.740
622.34	7.413
622.67	7.757
623.00	7.557
623.33	7.005
623.66	7.076
623.99	7.511
624.32	6.277
624.65	7.274
624.99	5.949
625.32	6.517
625.65	6.311
625.98	7.533
626.31	8.398
626.64	7.184
626.97	7.232
627.30	7.315
627.63	8.696
627.96	8.074
628.29	7.962
628.62	9.515
628.95	9.717
629.28	8.668
629.61	9.349
629.94	8.000
630.26	7.817
630.59	9.247
630.92	7.567
631.25	7.502
631.58	9.109
631.91	8.316
632.24	8.650
632.57	8.814
632.90	8.553
633.23	9.508
633.56	9.831
633.89	8.947
634.22	8.740
634.55	9.941
634.88	8.743
635.20	11.231
635.53	9.880
635.86	9.035
636.19	9.059
636.52	8.304
636.85	9.049
637.18	9.447
637.51	11.584
637.83	7.768
638.16	8.184
638.49	10.453
638.82	12.010
639.15	10.500
639.48	10.973
639.81	10.456
640.13	11.589
640.46	9.664
640.79	10.964
641.12	10.041
641.45	10.335
641.77	8.984
642.10	10.965
642.43	9.760
642.76	10.836
643.09	11.196
643.41	10.470
643.74	12.500
644.07	10.518
644.40	11.043
644.73	13.228
645.05	11.727
645.38	10.742
645.71	12.721
646.04	13.123
646.36	12.521
646.69	12.040
647.02	10.884
647.35	10.137
647.67	13.097
648.00	13.496
648.33	11.716
648.66	11.667
648.98	11.394
649.31	9.865
649.64	10.015
649.96	12.221
650.29	10.427
650.62	10.194
650.94	12.966
651.27	12.331
651.60	11.980
651.92	12.460
652.25	10.912
652.58	10.592
652.90	11.848
653.23	12.327
653.56	11.654
653.88	11.410
654.21	13.902
654.54	11.056
654.86	12.617
655.19	8.378
655.52	5.320
655.84	3.172
656.17	3.464
656.49	4.658
656.82	5.008
657.15	4.071
657.47	3.131
657.80	2.621
658.13	2.684
658.45	4.312
658.78	4.503
659.10	4.863
659.43	5.820
659.75	6.253
660.08	6.835
660.41	8.566
660.73	11.055
661.06	11.146
661.38	14.000
661.71	14.423
662.03	14.596
662.36	11.928
662.68	15.462
663.01	14.343
663.33	13.163
663.66	14.706
663.98	13.607
664.31	13.866
664.63	14.575
664.96	11.469
665.28	13.730
665.61	12.476
665.93	13.883
666.26	12.982
666.58	13.180
666.91	18.605
667.23	16.404
667.56	14.687
667.88	16.239
668.21	16.418
668.53	14.751
668.86	12.554
669.18	16.205
669.50	13.043
669.83	17.647
670.15	14.667
670.48	14.597
670.80	12.716
671.13	14.225
671.45	13.404
671.77	14.460
672.10	15.157
672.42	14.488
672.75	11.443
673.07	9.683
673.39	13.020
673.72	11.523
674.04	12.157
674.37	13.010
674.69	12.474
675.01	12.971
675.34	16.427
675.66	17.053
675.98	14.053
676.31	15.336
676.63	14.437
676.95	14.885
677.28	13.084
677.60	14.945
677.92	14.979
678.25	12.526
678.57	14.741
678.89	12.625
679.22	11.788
679.54	13.168
679.86	13.945
680.18	10.912
680.51	13.121
680.83	13.701
681.15	13.208
681.48	14.745
681.80	12.766
682.12	12.452
682.44	10.832
682.77	12.424
683.09	15.021
683.41	14.191
683.73	15.011
684.06	14.669
684.38	14.677
684.70	12.209
685.02	13.133
685.34	13.004
685.67	12.063
685.99	10.653
686.31	12.287
686.63	10.777
686.96	11.964
687.28	12.274
687.60	12.500
687.92	14.077
688.24	15.779
688.56	12.249
688.89	14.730
689.21	16.812
689.53	14.614
689.85	15.965
690.17	13.251
690.49	17.197
690.82	14.953
691.14	13.170
691.46	14.979
691.78	14.257
692.10	14.050
692.42	14.371
692.74	13.071
693.06	15.957
693.39	16.632
693.71	13.974
694.03	14.316
694.35	12.338
694.67	17.620
694.99	16.341
695.31	14.461
695.63	14.593
695.95	14.914
696.27	13.452
696.59	17.358
696.91	15.285
697.23	13.146
697.56	14.925
697.88	11.656
698.20	13.750
698.52	15.269
698.84	14.699
699.16	11.521
699.48	15.202
699.80	14.734
700.12	18.701
700.44	17.507
700.76	14.917
701.08	18.678
701.40	16.201
701.72	18.950
702.04	21.023
702.36	15.581
702.68	16.431
703.00	18.006
703.32	18.351
703.64	17.426
703.96	16.713
704.28	18.023
704.60	19.648
704.91	17.507
705.23	17.009
705.55	21.927
705.87	25.249
706.19	21.555
706.51	20.872
706.83	19.091
707.15	19.048
707.47	17.424
707.79	15.725
708.11	15.297
708.43	16.905
708.74	15.306
709.06	18.182
709.38	18.110
709.70	19.767
710.02	18.991
710.34	17.273
710.66	20.597
710.98	20.170
711.29	20.349
711.61	23.304
711.93	21.795
712.25	20.900
712.57	15.809
712.89	19.377
713.20	20.669
713.52	23.355
713.84	17.405
714.16	19.817
714.48	15.805
714.80	22.492
715.11	17.003
715.43	19.288
715.75	17.101
716.07	18.211
716.39	18.495
716.70	24.585
717.02	19.065
717.34	24.028
717.66	26.119
717.97	23.506
718.29	23.333
718.61	21.168
718.93	22.059
719.24	22.491
719.56	21.695
719.88	18.644
720.20	23.649
720.51	22.300
720.83	23.420
721.15	17.910
721.46	20.567
721.78	26.165
722.10	22.264
722.42	22.180
722.73	24.719
723.05	25.410
723.37	22.267
723.68	22.780
724.00	22.764
724.32	25.000
724.63	23.171
724.95	22.176
725.27	22.672
725.58	18.750
725.90	22.263
726.22	24.906
726.53	17.014
726.85	23.208
727.16	23.488
727.48	22.695
727.80	22.348
728.11	23.913
728.43	18.462
728.74	22.581
729.06	24.088
729.38	25.000
729.69	23.488
730.01	18.771
730.32	20.139
730.64	21.070
730.96	20.132
731.27	20.530
731.59	20.183
731.90	20.700
732.22	18.634
732.53	18.885
732.85	17.308
733.16	17.685
733.48	20.266
733.80	20.130
734.11	24.204
734.43	17.751
734.74	18.857
735.06	16.905
735.37	20.520
735.69	20.064
736.00	20.261
736.32	22.118
736.63	15.974
736.95	18.530
737.26	14.966
737.58	15.806
737.89	22.074
738.21	18.430
738.52	21.429
738.83	20.377
739.15	21.538
739.46	25.182
739.78	20.833
740.09	23.692
740.41	21.290
740.72	17.770
741.04	24.815
741.35	24.167
741.66	28.889
741.98	20.283
742.29	24.402
742.61	33.190
742.92	25.792
743.23	26.068
743.55	25.200
743.86	24.561
744.18	30.088
744.49	29.187
744.80	27.700
745.12	31.364
745.43	29.075
745.74	30.180
746.06	27.064
746.37	27.354
746.68	21.719
747.00	32.407
747.31	30.952
747.62	21.681
747.94	25.551
748.25	20.426
748.56	29.515
748.88	24.257
749.19	32.000
749.50	26.512
749.82	22.764
750.13	26.122
750.44	20.438
750.75	21.754
751.07	23.473
751.38	20.906
751.69	23.105
752.01	24.812
752.32	20.939
752.63	22.695
752.94	21.311
753.26	30.800
753.57	21.951
753.88	25.781
754.19	20.357
754.51	23.958
754.82	19.856
755.13	26.415
755.44	24.060
755.75	21.898
756.07	23.404
756.38	19.708
756.69	20.805
757.00	18.263
757.31	18.101
757.63	17.836
757.94	16.890
758.25	18.873
758.56	13.333
758.87	18.011
759.18	17.576
759.50	19.436
759.81	18.692
760.12	14.687
760.43	16.332
760.74	18.750
761.05	19.774
761.36	17.380
761.67	19.034
761.99	17.391
762.30	23.958
762.61	22.519
762.92	24.609
763.23	23.529
763.54	26.000
763.85	19.141
764.16	27.308
764.47	23.574
764.78	20.141
765.10	18.671
765.41	17.404
765.72	19.760
766.03	19.436
766.34	20.000
766.65	27.660
766.96	24.359
767.27	29.442
767.58	25.000
767.89	34.211
768.20	32.184
768.51	28.934
768.82	24.771
769.13	23.984
769.44	22.672
769.75	26.180
770.06	16.972
770.37	31.674
770.68	29.167
770.99	25.333
771.30	22.951
771.61	24.215
771.92	23.770
772.23	29.412
772.54	26.667
772.85	29.843
773.16	34.574
773.47	36.413
773.78	39.594
774.09	32.738
774.39	40.936
774.70	36.420
775.01	39.130
775.32	47.712
775.63	34.868
775.94	38.849
776.25	50.394
776.56	47.015
776.87	43.443
777.18	44.531
777.48	49.618
777.79	45.455
778.10	51.852
778.41	56.250
778.72	40.146
779.03	35.570
779.34	32.215
779.65	39.189
779.95	36.810
780.26	39.216
780.57	45.517
780.88	46.094
781.19	39.098
781.50	43.243
781.80	35.220
782.11	35.028
782.42	32.911
782.73	34.356
783.04	45.270
783.34	38.732
783.65	49.315
783.96	49.254
784.27	32.867
784.57	34.532
784.88	40.741
785.19	57.143
785.50	53.774
785.81	51.493
786.11	46.721
786.42	50.388
786.73	49.558
787.04	57.547
787.34	44.643
787.65	44.000
787.96	44.144
788.26	42.149
788.57	49.153
788.88	48.760
789.19	43.056
789.49	51.515
789.80	44.275
790.11	51.429
790.41	64.356
790.72	51.807
791.03	56.522
791.33	59.302
791.64	57.732
791.95	64.356
792.25	64.444
792.56	71.429
792.87	71.795
793.17	74.684
793.48	64.368
793.79	62.069
794.09	63.636
794.40	54.622
794.70	47.059
795.01	40.000
795.32	46.763
795.62	44.882
795.93	49.138
796.23	55.752
796.54	50.588
796.85	62.162
797.15	100.000
797.46	86.364
797.76	84.337
798.07	68.354
798.37	73.846
798.68	74.242
798.99	64.789
799.29	63.636
799.60	57.955
799.90	72.603
800.21	76.119
800.51	84.483
800.82	89.474
801.12	95.082
801.43	81.818
801.73	74.324
802.04	93.651
802.34	79.012
802.65	90.625
802.95	100.000
803.26	89.063
803.56	84.286
803.87	81.538
804.17	82.353
804.48	107.407
804.78	75.862
805.09	83.824
805.39	101.923
805.70	105.357
806.00	96.721
806.30	90.909
806.61	71.951
806.91	64.557
807.22	63.158
807.52	70.149
807.83	95.775
808.13	85.938
808.43	90.000
808.74	73.684
809.04	98.551
809.35	92.537
809.65	69.737
809.95	98.387
810.26	101.695
810.56	103.175
810.86	118.182
811.17	135.714
811.47	95.000
811.77	109.259
812.08	96.364
812.38	118.000
812.69	144.444
812.99	134.091
813.29	114.286
813.59	97.619
813.90	97.959
814.20	103.636
814.50	84.615
814.81	85.294
815.11	110.204
815.41	77.049
815.72	138.095
816.02	107.273
816.32	116.667
816.62	130.000
816.93	126.829
817.23	147.619
817.53	127.273
817.84	169.697
818.14	154.348
818.44	100.000
818.74	155.882
819.04	132.500
819.35	151.429
819.65	150.000
819.95	185.714
820.25	215.000
820.56	161.538
820.86	145.455
821.16	144.186
821.46	146.154
821.76	104.000
822.07	160.000
822.37	132.500
822.67	172.727
822.97	105.882
823.27	185.714
823.57	156.757
823.88	150.000
824.18	156.667
824.48	164.286
824.78	220.000
825.08	220.833
825.38	124.324
825.69	141.463
825.99	208.333
826.29	148.276
826.59	165.789
826.89	118.421
827.19	167.647
827.49	193.548
827.79	125.000
828.09	136.364
828.39	123.404
828.70	106.122
829.00	170.370
829.30	158.065
829.60	137.500
829.90	353.333
830.20	157.143
830.50	173.913
830.80	204.348
831.10	170.000
831.40	163.333
831.70	217.391
832.00	234.615
832.30	196.296
832.60	343.750
832.90	213.333
833.20	400.000
833.50	219.355
833.80	182.759
834.10	225.000
834.40	203.846
834.70	277.778
835.00	280.952
835.30	174.286
835.60	330.769
835.90	172.414
836.20	328.571
836.50	200.000
836.80	208.000
837.10	166.667
837.40	271.429
837.70	370.588
838.00	207.407
838.30	252.381
838.60	290.476
838.90	219.231
839.19	280.000
839.49	421.429
839.79	310.000
840.09	310.000
840.39	252.381
840.69	278.261
840.99	311.111
841.29	490.000
841.59	341.667
841.88	325.000
842.18	200.000
842.48	285.714
842.78	180.000
843.08	265.217
843.38	187.500
843.68	850.000
843.97	238.462
844.27	210.345
844.57	276.190
844.87	343.750
845.17	214.815
845.47	1566.667
845.76	555.556
846.06	305.882
846.36	512.500
846.66	407.143
846.96	350.000
847.25	427.273
847.55	445.455
847.85	243.478
848.15	520.000
848.44	364.286
848.74	266.667
849.04	352.941
849.34	530.000
849.63	226.316
849.93	500.000
850.23	840.000
850.53	428.571
850.82	2500.000
851.12	-5000.000
851.42	4600.000
851.71	260.000
852.01	-1533.333
852.31	200.000
852.61	1566.667
852.90	276.190
853.20	224.000
853.50	288.235
853.79	280.952
854.09	237.500
854.39	300.000
854.68	143.243
854.98	203.226
855.28	160.000
855.57	206.897
855.87	211.111
856.17	268.421
856.46	220.000
856.76	323.529
857.05	165.517
857.35	208.333
857.65	306.667
857.94	213.043
858.24	273.077
858.53	260.000
858.83	240.909
859.13	413.333
859.42	0.000
859.72	522.222
860.01	454.545
860.31	277.273
860.60	294.737
860.90	221.739
861.20	533.333
861.49	441.667
861.79	-4900.000
862.08	612.500
862.38	295.238
862.67	307.692
862.97	317.647
863.26	444.444
863.56	300.000
863.85	366.667
864.15	700.000
864.44	380.000
864.74	800.000
865.03	650.000
865.33	315.789
865.62	418.182
865.92	507.692
866.21	375.000
866.51	0.000
866.80	445.455
867.10	1060.000
867.39	469.231
867.69	554.545
867.98	294.737
868.27	536.364
868.57	342.105
868.86	-3900.000
869.16	425.000
869.45	3150.000
869.75	-4600.000
870.04	383.333
870.33	914.286
870.63	1100.000
870.92	2600.000
871.22	785.714
871.51	370.588
871.80	233.333
872.10	342.857
>>>>>End Processed Spectral Data<<<<<
