SpectraSuite Data File
++++++++++++++++++++++++++++++++++++
Date: Wed May 13 19:51:02 PDT 2015
User: schluterlab
Dark Spectrum Present: Yes
Reference Spectrum Present: Yes
Number of Sampled Component Spectra: 1
Spectrometers: USB2E3373
Integration Time (usec): 3000 (USB2E3373)
Spectra Averaged: 3 (USB2E3373)
Boxcar Smoothing: 0 (USB2E3373)
Correct for Electrical Dark: No (USB2E3373)
Strobe/Lamp Enabled: No (USB2E3373)
Correct for Detector Non-linearity: No (USB2E3373)
Correct for Stray Light: No (USB2E3373)
Number of Pixels in Processed Spectrum: 2048
>>>>>Begin Processed Spectral Data<<<<<
178.53	0.000
178.91	-1275.000
179.29	-1375.000
179.67	-261.111
180.04	-1275.000
180.42	2750.000
180.80	1040.000
181.18	-1225.000
181.56	757.143
181.94	0.000
182.31	-771.429
182.69	2066.667
183.07	-600.000
183.45	-588.889
183.83	445.455
184.20	-430.000
184.58	2500.000
184.96	5200.000
185.34	-980.000
185.72	-625.000
186.09	-2250.000
186.47	3050.000
186.85	2400.000
187.23	4900.000
187.61	-1633.333
187.98	1600.000
188.36	672.727
188.74	509.091
189.12	-1060.000
189.49	550.000
189.87	-5100.000
190.25	-1375.000
190.63	457.143
191.00	530.769
191.38	1033.333
191.76	-1275.000
192.14	1600.000
192.51	750.000
192.89	1050.000
193.27	537.500
193.65	-1250.000
194.02	640.000
194.40	1000.000
194.78	570.000
195.15	600.000
195.53	650.000
195.91	-2600.000
196.29	400.000
196.66	315.789
197.04	-390.000
197.42	0.000
197.79	660.000
198.17	-5800.000
198.55	814.286
198.92	800.000
199.30	860.000
199.68	0.000
200.05	344.444
200.43	842.857
200.81	5100.000
201.18	1533.333
201.56	-1600.000
201.94	633.333
202.31	622.222
202.69	483.333
203.07	580.000
203.44	0.000
203.82	1225.000
204.19	900.000
204.57	414.286
204.95	725.000
205.32	1800.000
205.70	500.000
206.08	414.286
206.45	2550.000
206.83	368.750
207.20	966.667
207.58	800.000
207.96	327.778
208.33	775.000
208.71	-966.667
209.08	928.571
209.46	600.000
209.84	545.455
210.21	-1833.333
210.59	1550.000
210.96	-475.000
211.34	2800.000
211.71	650.000
212.09	983.333
212.46	0.000
212.84	1833.333
213.22	1550.000
213.59	-4700.000
213.97	900.000
214.34	885.714
214.72	754.545
215.09	900.000
215.47	-2550.000
215.84	-2500.000
216.22	1866.667
216.59	500.000
216.97	1325.000
217.34	481.818
217.72	-750.000
218.09	0.000
218.47	-4600.000
218.84	633.333
219.22	785.714
219.59	1866.667
219.97	-728.571
220.34	1100.000
220.72	-1800.000
221.09	421.429
221.47	1475.000
221.84	-1000.000
222.22	0.000
222.59	1575.000
222.97	-3450.000
223.34	1280.000
223.72	415.385
224.09	1140.000
224.46	2400.000
224.84	-5400.000
225.21	-960.000
225.59	-4700.000
225.96	630.000
226.34	345.000
226.71	3300.000
227.08	687.500
227.46	590.000
227.83	-1125.000
228.21	-2900.000
228.58	644.444
228.95	-2800.000
229.33	-2950.000
229.70	1933.333
230.08	700.000
230.45	-1040.000
230.82	408.333
231.20	966.667
231.57	714.286
231.95	533.333
232.32	286.364
232.69	400.000
233.07	800.000
233.44	423.077
233.81	-1700.000
234.19	326.316
234.56	508.333
234.93	441.667
235.31	490.909
235.68	384.615
236.05	407.143
236.43	209.091
236.80	336.842
237.17	5600.000
237.55	309.524
237.92	228.571
238.29	266.667
238.67	187.097
239.04	203.448
239.41	188.889
239.79	108.696
240.16	150.000
240.53	136.364
240.91	125.490
241.28	122.000
241.65	134.000
242.02	107.246
242.40	111.290
242.77	106.667
243.14	77.419
243.51	91.011
243.89	91.765
244.26	80.000
244.63	83.871
245.00	79.787
245.38	75.248
245.75	69.159
246.12	66.055
246.49	72.993
246.87	77.600
247.24	77.692
247.61	65.000
247.98	64.052
248.36	52.703
248.73	56.688
249.10	61.783
249.47	59.887
249.84	54.545
250.22	48.128
250.59	59.172
250.96	51.515
251.33	49.289
251.70	53.960
252.08	54.762
252.45	48.430
252.82	45.652
253.19	48.085
253.56	45.098
253.94	48.963
254.31	45.703
254.68	49.615
255.05	46.494
255.42	47.154
255.79	44.853
256.16	42.960
256.54	41.696
256.91	44.840
257.28	40.647
257.65	42.574
258.02	41.615
258.39	36.278
258.76	40.468
259.14	38.988
259.51	39.818
259.88	39.441
260.25	44.411
260.62	41.040
260.99	36.646
261.36	41.141
261.73	39.542
262.10	38.663
262.47	40.563
262.85	38.997
263.22	35.043
263.59	44.160
263.96	36.264
264.33	38.903
264.70	35.789
265.07	36.061
265.44	34.343
265.81	36.010
266.18	38.945
266.55	35.122
266.92	37.101
267.29	36.806
267.66	35.780
268.03	36.364
268.40	36.682
268.77	35.800
269.14	34.459
269.51	38.149
269.88	36.364
270.25	37.472
270.62	35.056
270.99	37.849
271.36	37.339
271.73	36.682
272.10	34.130
272.47	34.624
272.84	33.550
273.21	35.639
273.58	32.533
273.95	33.124
274.32	33.471
274.69	35.332
275.06	34.252
275.43	35.319
275.80	32.265
276.17	35.031
276.54	35.135
276.91	34.585
277.28	33.789
277.65	33.075
278.02	32.298
278.39	33.984
278.76	33.273
279.13	31.698
279.50	32.588
279.87	31.474
280.23	32.934
280.60	33.269
280.97	32.163
281.34	33.097
281.71	34.364
282.08	32.821
282.45	31.091
282.82	31.439
283.19	29.590
283.56	32.456
283.92	31.810
284.29	30.688
284.66	31.760
285.03	28.933
285.40	29.754
285.77	29.966
286.14	28.325
286.51	31.000
286.87	31.111
287.24	30.782
287.61	30.979
287.98	29.221
288.35	26.783
288.72	30.997
289.08	32.081
289.45	28.995
289.82	28.618
290.19	27.943
290.56	27.412
290.93	26.888
291.29	29.448
291.66	28.171
292.03	29.506
292.40	29.222
292.77	27.367
293.13	27.612
293.50	28.134
293.87	29.037
294.24	26.370
294.60	27.511
294.97	28.198
295.34	26.234
295.71	26.847
296.08	25.214
296.44	25.722
296.81	24.835
297.18	27.507
297.55	23.879
297.91	25.462
298.28	26.774
298.65	26.240
299.02	26.877
299.38	26.560
299.75	22.237
300.12	24.010
300.48	25.875
300.85	25.894
301.22	26.115
301.59	25.126
301.95	25.819
302.32	26.059
302.69	25.448
303.05	24.727
303.42	25.062
303.79	23.330
304.15	23.776
304.52	23.870
304.89	25.319
305.25	24.130
305.62	24.236
305.99	26.328
306.35	24.497
306.72	24.664
307.09	26.637
307.45	24.550
307.82	23.884
308.19	24.393
308.55	25.674
308.92	25.779
309.29	24.287
309.65	24.390
310.02	25.581
310.38	26.237
310.75	24.604
311.12	25.793
311.48	26.437
311.85	27.568
312.22	26.847
312.58	26.299
312.95	27.561
313.31	26.311
313.68	28.170
314.05	28.994
314.41	28.744
314.78	30.312
315.14	28.699
315.51	31.308
315.87	30.990
316.24	30.387
316.61	31.189
316.97	32.290
317.34	31.605
317.70	33.461
318.07	33.879
318.43	33.855
318.80	34.864
319.16	35.499
319.53	35.178
319.89	34.571
320.26	38.500
320.62	38.095
320.99	39.192
321.35	40.808
321.72	41.889
322.08	42.251
322.45	44.179
322.81	43.702
323.18	45.472
323.54	46.104
323.91	46.698
324.27	49.044
324.64	50.233
325.00	51.939
325.37	53.867
325.73	55.296
326.10	56.399
326.46	58.154
326.83	61.001
327.19	61.401
327.56	64.199
327.92	65.529
328.29	65.306
328.65	68.324
329.01	67.329
329.38	72.618
329.74	72.114
330.11	72.196
330.47	73.003
330.84	73.529
331.20	72.860
331.56	74.404
331.93	78.519
332.29	76.930
332.66	77.522
333.02	77.879
333.38	79.042
333.75	79.768
334.11	80.338
334.48	80.124
334.84	81.801
335.20	83.000
335.57	82.865
335.93	80.982
336.29	83.791
336.66	83.679
337.02	81.357
337.38	84.815
337.75	82.175
338.11	84.960
338.47	86.832
338.84	85.701
339.20	86.422
339.56	88.777
339.93	86.273
340.29	87.319
340.65	86.988
341.02	87.086
341.38	89.235
341.74	87.895
342.11	90.218
342.47	88.987
342.83	88.955
343.20	90.303
343.56	88.880
343.92	88.860
344.28	89.541
344.65	91.574
345.01	88.973
345.37	89.451
345.73	90.440
346.10	91.049
346.46	93.136
346.82	92.504
347.19	91.395
347.55	92.036
347.91	92.638
348.27	94.002
348.63	93.060
349.00	90.291
349.36	93.432
349.72	94.226
350.08	91.653
350.45	94.548
350.81	94.801
351.17	93.679
351.53	94.758
351.89	93.317
352.26	93.370
352.62	95.269
352.98	94.165
353.34	94.823
353.70	95.990
354.07	94.597
354.43	93.730
354.79	93.966
355.15	96.409
355.51	98.481
355.87	97.796
356.24	96.987
356.60	97.514
356.96	100.483
357.32	98.528
357.68	98.346
358.04	97.625
358.40	98.733
358.77	98.044
359.13	97.553
359.49	99.373
359.85	100.238
360.21	101.196
360.57	100.545
360.93	102.692
361.29	99.395
361.66	98.762
362.02	101.269
362.38	101.673
362.74	99.330
363.10	99.926
363.46	99.633
363.82	101.285
364.18	101.395
364.54	101.709
364.90	101.133
365.26	100.441
365.62	102.776
365.98	102.995
366.35	102.436
366.71	100.795
367.07	103.642
367.43	104.064
367.79	103.283
368.15	104.526
368.51	103.997
368.87	101.356
369.23	103.658
369.59	104.055
369.95	103.456
370.31	102.920
370.67	102.029
371.03	106.292
371.39	104.883
371.75	105.956
372.11	103.414
372.47	105.938
372.83	106.124
373.19	104.769
373.55	106.061
373.91	107.143
374.27	103.574
374.63	106.982
374.99	105.014
375.35	105.862
375.71	105.209
376.07	106.653
376.42	105.846
376.78	105.765
377.14	105.156
377.50	106.755
377.86	104.521
378.22	106.131
378.58	104.323
378.94	105.971
379.30	107.125
379.66	108.693
380.02	105.774
380.38	105.222
380.74	107.683
381.09	106.968
381.45	108.113
381.81	106.327
382.17	107.771
382.53	107.044
382.89	106.481
383.25	107.255
383.61	109.789
383.97	107.442
384.32	106.114
384.68	106.382
385.04	107.314
385.40	106.130
385.76	105.528
386.12	108.420
386.48	107.363
386.83	109.108
387.19	107.483
387.55	107.050
387.91	107.074
388.27	106.438
388.62	105.716
388.98	106.450
389.34	108.323
389.70	107.051
390.06	108.175
390.42	107.717
390.77	106.425
391.13	108.296
391.49	106.980
391.85	107.193
392.20	108.139
392.56	108.270
392.92	107.240
393.28	106.213
393.64	106.715
393.99	105.315
394.35	105.273
394.71	104.831
395.07	103.801
395.42	107.417
395.78	106.997
396.14	105.897
396.50	106.830
396.85	105.912
397.21	105.179
397.57	105.084
397.92	105.409
398.28	103.531
398.64	104.361
399.00	104.197
399.35	105.302
399.71	105.382
400.07	103.548
400.42	104.233
400.78	104.885
401.14	104.756
401.49	106.090
401.85	105.747
402.21	102.814
402.57	105.120
402.92	105.612
403.28	105.372
403.63	104.394
403.99	104.777
404.35	104.121
404.70	103.597
405.06	102.912
405.42	104.055
405.77	102.914
406.13	101.524
406.49	103.430
406.84	102.776
407.20	102.541
407.55	103.574
407.91	104.600
408.27	103.893
408.62	101.144
408.98	102.696
409.34	103.383
409.69	101.355
410.05	102.230
410.40	102.508
410.76	101.553
411.11	101.689
411.47	103.067
411.83	102.871
412.18	100.062
412.54	101.121
412.89	100.060
413.25	101.181
413.60	101.791
413.96	99.089
414.31	100.425
414.67	100.317
415.03	102.119
415.38	98.969
415.74	101.801
416.09	102.613
416.45	101.473
416.80	102.578
417.16	102.212
417.51	100.863
417.87	100.385
418.22	101.325
418.58	100.065
418.93	101.290
419.29	101.528
419.64	100.945
420.00	100.854
420.35	99.826
420.71	101.195
421.06	99.940
421.42	99.357
421.77	99.832
422.12	99.551
422.48	98.813
422.83	101.747
423.19	98.674
423.54	101.741
423.90	100.754
424.25	99.777
424.61	100.476
424.96	100.700
425.31	99.612
425.67	98.596
426.02	98.800
426.38	101.832
426.73	101.053
427.09	101.702
427.44	100.805
427.79	101.725
428.15	101.131
428.50	101.346
428.85	99.464
429.21	100.663
429.56	101.452
429.92	98.943
430.27	100.050
430.62	98.618
430.98	99.896
431.33	98.041
431.68	99.529
432.04	97.710
432.39	101.142
432.74	101.137
433.10	102.434
433.45	101.691
433.80	100.721
434.16	99.786
434.51	99.474
434.86	99.715
435.22	102.057
435.57	101.398
435.92	101.346
436.28	101.779
436.63	100.055
436.98	100.343
437.34	101.193
437.69	101.750
438.04	101.180
438.39	99.642
438.75	101.220
439.10	100.950
439.45	98.642
439.81	100.483
440.16	98.871
440.51	100.469
440.86	101.216
441.22	100.667
441.57	101.062
441.92	100.409
442.27	100.592
442.63	99.789
442.98	100.789
443.33	98.913
443.68	100.465
444.03	99.707
444.39	99.026
444.74	100.703
445.09	100.970
445.44	99.016
445.79	98.516
446.15	97.035
446.50	99.838
446.85	100.051
447.20	96.889
447.55	99.609
447.91	97.628
448.26	98.108
448.61	98.869
448.96	98.560
449.31	99.606
449.66	98.481
450.02	98.273
450.37	98.129
450.72	100.113
451.07	98.111
451.42	97.143
451.77	98.884
452.12	98.037
452.47	98.197
452.83	99.301
453.18	97.127
453.53	97.217
453.88	98.405
454.23	98.625
454.58	97.638
454.93	99.428
455.28	97.756
455.63	99.636
455.98	100.417
456.34	97.739
456.69	98.998
457.04	99.257
457.39	96.844
457.74	95.763
458.09	96.492
458.44	97.719
458.79	96.150
459.14	97.517
459.49	95.855
459.84	96.454
460.19	96.936
460.54	94.271
460.89	95.283
461.24	96.843
461.59	97.211
461.94	95.253
462.29	97.329
462.64	93.937
462.99	94.535
463.34	95.733
463.69	96.748
464.04	94.377
464.39	93.681
464.74	94.236
465.09	94.150
465.44	93.019
465.79	93.400
466.14	92.611
466.49	91.880
466.84	94.162
467.19	92.698
467.54	93.562
467.89	94.118
468.24	93.543
468.59	93.956
468.94	92.608
469.29	94.537
469.64	94.110
469.99	94.181
470.34	95.112
470.68	95.690
471.03	93.197
471.38	96.247
471.73	92.605
472.08	94.145
472.43	94.033
472.78	94.009
473.13	92.362
473.48	93.695
473.83	91.829
474.17	92.782
474.52	93.362
474.87	91.127
475.22	91.352
475.57	91.080
475.92	92.087
476.27	89.459
476.61	92.168
476.96	90.764
477.31	89.325
477.66	91.193
478.01	89.388
478.36	92.173
478.70	90.291
479.05	91.001
479.40	90.788
479.75	91.612
480.10	88.121
480.45	88.006
480.79	89.298
481.14	89.384
481.49	89.226
481.84	89.803
482.19	88.732
482.53	87.523
482.88	89.111
483.23	88.972
483.58	88.035
483.92	88.144
484.27	87.320
484.62	88.190
484.97	86.086
485.31	87.397
485.66	84.980
486.01	82.056
486.36	78.585
486.70	77.947
487.05	79.567
487.40	81.027
487.75	81.900
488.09	82.863
488.44	82.588
488.79	85.027
489.13	86.822
489.48	85.604
489.83	86.319
490.17	87.286
490.52	85.474
490.87	86.703
491.22	85.857
491.56	84.738
491.91	85.295
492.26	84.382
492.60	85.484
492.95	84.284
493.30	84.533
493.64	85.348
493.99	83.565
494.34	84.459
494.68	83.974
495.03	85.479
495.37	83.574
495.72	85.526
496.07	83.759
496.41	81.593
496.76	83.465
497.11	82.395
497.45	83.139
497.80	82.486
498.14	82.657
498.49	85.268
498.84	83.413
499.18	81.905
499.53	83.666
499.87	83.551
500.22	82.148
500.56	83.689
500.91	82.260
501.26	81.935
501.60	82.629
501.95	80.660
502.29	83.927
502.64	83.007
502.98	81.300
503.33	80.256
503.67	81.067
504.02	80.964
504.36	78.708
504.71	81.387
505.06	80.482
505.40	80.797
505.75	80.135
506.09	81.001
506.44	80.266
506.78	79.737
507.13	81.020
507.47	81.263
507.82	80.699
508.16	81.003
508.51	81.380
508.85	79.891
509.19	80.306
509.54	79.388
509.88	79.186
510.23	80.103
510.57	81.682
510.92	80.269
511.26	79.496
511.61	79.979
511.95	78.914
512.30	80.170
512.64	79.366
512.98	79.368
513.33	79.764
513.67	78.655
514.02	79.329
514.36	81.649
514.70	79.967
515.05	79.699
515.39	80.314
515.74	79.223
516.08	80.324
516.42	79.356
516.77	80.992
517.11	78.524
517.46	79.910
517.80	81.010
518.14	78.576
518.49	79.230
518.83	78.693
519.17	79.330
519.52	79.287
519.86	79.578
520.20	79.422
520.55	79.832
520.89	80.779
521.23	79.795
521.58	78.571
521.92	79.302
522.26	78.585
522.61	79.377
522.95	79.497
523.29	78.028
523.64	79.024
523.98	80.900
524.32	76.840
524.66	79.435
525.01	79.044
525.35	77.385
525.69	78.325
526.04	78.567
526.38	77.486
526.72	76.871
527.06	78.908
527.41	75.248
527.75	78.135
528.09	78.934
528.43	77.119
528.78	76.644
529.12	75.333
529.46	77.404
529.80	76.423
530.15	76.947
530.49	74.769
530.83	76.392
531.17	75.326
531.51	77.886
531.86	76.774
532.20	76.532
532.54	76.874
532.88	76.893
533.22	74.953
533.57	73.086
533.91	74.112
534.25	72.904
534.59	74.253
534.93	73.290
535.27	73.808
535.62	74.725
535.96	75.204
536.30	73.172
536.64	73.342
536.98	74.652
537.32	74.259
537.66	74.800
538.01	73.667
538.35	73.432
538.69	74.665
539.03	74.659
539.37	72.204
539.71	71.808
540.05	74.183
540.39	73.887
540.73	72.768
541.07	72.615
541.42	73.973
541.76	73.548
542.10	73.868
542.44	72.649
542.78	73.913
543.12	72.169
543.46	72.328
543.80	73.129
544.14	71.630
544.48	72.000
544.82	71.841
545.16	72.934
545.50	71.530
545.84	71.707
546.18	73.064
546.52	73.021
546.86	72.165
547.20	73.095
547.54	71.075
547.88	70.536
548.22	70.237
548.56	71.509
548.90	69.462
549.24	70.236
549.58	71.896
549.92	70.948
550.26	73.224
550.60	69.917
550.94	71.268
551.28	72.787
551.62	72.178
551.96	70.596
552.30	71.877
552.64	71.602
552.98	70.915
553.32	70.802
553.66	70.620
554.00	70.556
554.34	70.462
554.68	71.102
555.02	71.368
555.36	69.241
555.69	68.471
556.03	70.659
556.37	69.577
556.71	68.759
557.05	69.958
557.39	69.909
557.73	70.360
558.07	70.848
558.41	69.609
558.75	70.022
559.08	70.992
559.42	71.882
559.76	70.294
560.10	68.451
560.44	69.741
560.78	68.862
561.12	68.997
561.45	68.905
561.79	67.568
562.13	68.478
562.47	68.648
562.81	69.247
563.15	68.027
563.48	68.170
563.82	68.493
564.16	68.084
564.50	67.448
564.84	66.435
565.17	67.053
565.51	67.987
565.85	66.688
566.19	65.999
566.52	67.764
566.86	65.401
567.20	66.509
567.54	65.411
567.88	64.530
568.21	63.069
568.55	62.639
568.89	63.716
569.23	61.275
569.56	60.445
569.90	59.396
570.24	59.921
570.57	58.756
570.91	58.436
571.25	57.412
571.59	56.937
571.92	57.546
572.26	57.423
572.60	57.598
572.93	56.882
573.27	57.557
573.61	57.203
573.95	57.235
574.28	55.804
574.62	55.394
574.96	55.197
575.29	55.407
575.63	55.666
575.97	55.923
576.30	55.417
576.64	55.901
576.98	54.983
577.31	55.384
577.65	54.571
577.98	54.061
578.32	53.693
578.66	53.732
578.99	54.645
579.33	54.466
579.67	54.415
580.00	54.136
580.34	54.556
580.67	54.502
581.01	55.003
581.35	53.590
581.68	53.506
582.02	52.930
582.35	53.201
582.69	53.421
583.02	53.296
583.36	54.024
583.70	54.520
584.03	54.937
584.37	54.914
584.70	54.572
585.04	53.596
585.37	54.217
585.71	53.877
586.04	53.733
586.38	54.493
586.72	55.040
587.05	54.061
587.39	53.351
587.72	53.543
588.06	53.869
588.39	54.184
588.73	53.945
589.06	54.721
589.40	55.219
589.73	56.424
590.07	55.943
590.40	55.608
590.73	56.792
591.07	57.550
591.40	56.474
591.74	57.619
592.07	56.326
592.41	56.387
592.74	55.618
593.08	54.830
593.41	54.445
593.75	52.717
594.08	54.341
594.41	54.295
594.75	54.824
595.08	54.295
595.42	55.026
595.75	54.630
596.09	55.351
596.42	55.285
596.75	55.846
597.09	55.801
597.42	55.228
597.75	55.412
598.09	55.261
598.42	54.725
598.76	55.371
599.09	54.504
599.42	53.639
599.76	54.722
600.09	53.297
600.42	53.141
600.76	52.857
601.09	53.443
601.42	53.234
601.76	53.738
602.09	54.545
602.42	54.339
602.76	54.212
603.09	54.917
603.42	53.260
603.76	53.887
604.09	54.052
604.42	53.934
604.76	54.998
605.09	54.784
605.42	54.895
605.75	53.642
606.09	54.331
606.42	54.025
606.75	53.754
607.09	53.035
607.42	53.915
607.75	52.869
608.08	53.322
608.42	54.729
608.75	53.968
609.08	53.423
609.41	54.069
609.75	54.407
610.08	54.571
610.41	53.911
610.74	54.541
611.07	54.694
611.41	54.612
611.74	54.952
612.07	55.745
612.40	56.086
612.73	54.632
613.07	55.873
613.40	55.029
613.73	53.068
614.06	55.538
614.39	54.483
614.72	54.000
615.06	54.622
615.39	55.679
615.72	54.499
616.05	53.961
616.38	55.364
616.71	56.770
617.05	56.949
617.38	56.584
617.71	55.495
618.04	56.430
618.37	55.648
618.70	56.254
619.03	57.566
619.36	57.570
619.69	57.606
620.03	57.761
620.36	57.620
620.69	58.425
621.02	58.038
621.35	58.966
621.68	57.632
622.01	58.127
622.34	58.245
622.67	57.719
623.00	56.713
623.33	55.683
623.66	58.470
623.99	58.100
624.32	57.133
624.65	57.062
624.99	56.870
625.32	57.567
625.65	58.452
625.98	59.262
626.31	58.087
626.64	59.102
626.97	60.017
627.30	59.019
627.63	58.244
627.96	60.723
628.29	61.067
628.62	60.933
628.95	61.132
629.28	61.953
629.61	60.312
629.94	61.619
630.26	62.059
630.59	61.773
630.92	61.782
631.25	60.415
631.58	61.562
631.91	61.663
632.24	63.080
632.57	61.070
632.90	63.377
633.23	62.864
633.56	63.503
633.89	63.986
634.22	62.997
634.55	66.391
634.88	64.790
635.20	65.472
635.53	65.060
635.86	65.594
636.19	63.294
636.52	62.053
636.85	63.230
637.18	60.714
637.51	65.012
637.83	61.529
638.16	65.345
638.49	66.121
638.82	65.487
639.15	64.750
639.48	65.337
639.81	67.426
640.13	66.406
640.46	65.638
640.79	66.843
641.12	64.374
641.45	64.944
641.77	68.189
642.10	68.860
642.43	65.766
642.76	68.576
643.09	70.552
643.41	67.678
643.74	68.364
644.07	67.073
644.40	67.331
644.73	68.661
645.05	69.889
645.38	68.088
645.71	69.887
646.04	70.432
646.36	69.449
646.69	70.067
647.02	70.408
647.35	69.931
647.67	70.088
648.00	67.317
648.33	68.812
648.66	64.242
648.98	64.318
649.31	65.770
649.64	67.564
649.96	63.934
650.29	66.035
650.62	67.314
650.94	69.206
651.27	68.581
651.60	69.384
651.92	65.974
652.25	65.961
652.58	63.396
652.90	65.087
653.23	63.482
653.56	65.984
653.88	66.878
654.21	64.929
654.54	68.317
654.86	66.511
655.19	62.027
655.52	43.096
655.84	38.130
656.17	48.442
656.49	65.023
656.82	65.549
657.15	49.186
657.47	36.787
657.80	28.416
658.13	29.468
658.45	43.560
658.78	43.927
659.10	44.926
659.43	47.481
659.75	50.335
660.08	55.253
660.41	60.987
660.73	64.422
661.06	64.809
661.38	69.636
661.71	70.192
662.03	70.611
662.36	68.390
662.68	69.076
663.01	69.293
663.33	67.516
663.66	72.059
663.98	71.274
664.31	68.697
664.63	69.028
664.96	68.410
665.28	69.672
665.61	64.522
665.93	68.410
666.26	69.980
666.58	69.456
666.91	72.939
667.23	70.562
667.56	69.762
667.88	71.368
668.21	72.068
668.53	70.716
668.86	71.212
669.18	70.362
669.50	69.783
669.83	74.292
670.15	69.556
670.48	69.717
670.80	68.534
671.13	68.153
671.45	70.213
671.77	71.079
672.10	67.098
672.42	64.311
672.75	60.862
673.07	63.908
673.39	64.919
673.72	66.016
674.04	66.471
674.37	66.796
674.69	66.053
675.01	67.364
675.34	69.199
675.66	69.684
675.98	68.432
676.31	65.546
676.63	69.851
676.95	67.505
677.28	70.327
677.60	68.352
677.92	68.143
678.25	66.530
678.57	68.526
678.89	67.535
679.22	64.244
679.54	64.695
679.86	64.587
680.18	62.254
680.51	60.461
680.83	62.100
681.15	63.208
681.48	65.028
681.80	61.315
682.12	63.602
682.44	60.735
682.77	65.377
683.09	69.742
683.41	69.401
683.73	66.667
684.06	66.116
684.38	63.014
684.70	63.760
685.02	62.477
685.34	61.722
685.67	58.741
685.99	57.904
686.31	60.239
686.63	60.424
686.96	60.000
687.28	58.845
687.60	60.145
687.92	61.426
688.24	61.217
688.56	63.052
688.89	66.390
689.21	66.812
689.53	62.839
689.85	65.632
690.17	60.870
690.49	63.270
690.82	70.093
691.14	63.839
691.46	61.603
691.78	61.847
692.10	65.909
692.42	62.275
692.74	62.448
693.06	64.255
693.39	64.887
693.71	63.755
694.03	64.632
694.35	63.420
694.67	65.217
694.99	68.049
695.31	63.480
695.63	66.268
695.95	64.548
696.27	64.721
696.59	68.394
696.91	67.617
697.23	62.207
697.56	63.326
697.88	57.464
698.20	62.292
698.52	63.656
698.84	62.584
699.16	60.599
699.48	65.083
699.80	64.251
700.12	67.532
700.44	67.639
700.76	70.718
701.08	68.966
701.40	66.760
701.72	72.886
702.04	72.727
702.36	66.856
702.68	68.839
703.00	64.266
703.32	64.894
703.64	66.488
703.96	67.967
704.28	68.023
704.60	71.554
704.91	68.546
705.23	66.862
705.55	71.096
705.87	76.412
706.19	77.739
706.51	68.847
706.83	69.394
707.15	68.347
707.47	62.121
707.79	64.865
708.11	59.361
708.43	60.476
708.74	66.327
709.06	67.273
709.38	65.092
709.70	68.314
710.02	69.733
710.34	65.152
710.66	69.851
710.98	63.636
711.29	65.116
711.61	68.142
711.93	67.949
712.25	74.277
712.57	75.368
712.89	75.433
713.20	65.653
713.52	71.711
713.84	69.937
714.16	64.939
714.48	65.230
714.80	70.213
715.11	63.401
715.43	65.282
715.75	64.638
716.07	68.371
716.39	68.966
716.70	67.774
717.02	70.144
717.34	72.085
717.66	74.254
717.97	76.892
718.29	70.000
718.61	67.153
718.93	74.632
719.24	72.664
719.56	67.458
719.88	68.136
720.20	72.297
720.51	68.293
720.83	76.580
721.15	72.015
721.46	68.794
721.78	71.326
722.10	73.962
722.42	74.060
722.73	73.783
723.05	75.410
723.37	74.494
723.68	67.181
724.00	72.358
724.32	76.613
724.63	71.545
724.95	74.059
725.27	72.874
725.58	78.906
725.90	69.708
726.22	72.830
726.53	66.319
726.85	71.331
727.16	66.548
727.48	69.858
727.80	71.212
728.11	62.319
728.43	72.308
728.74	68.817
729.06	69.708
729.38	71.691
729.69	73.665
730.01	64.846
730.32	63.889
730.64	68.227
730.96	61.716
731.27	63.907
731.59	64.526
731.90	62.391
732.22	63.354
732.53	58.514
732.85	65.705
733.16	65.916
733.48	63.787
733.80	61.688
734.11	66.242
734.43	67.456
734.74	57.143
735.06	59.312
735.37	63.295
735.69	63.376
736.00	65.033
736.32	66.355
736.63	61.661
736.95	66.454
737.26	61.224
737.58	63.871
737.89	66.555
738.21	64.505
738.52	64.643
738.83	67.170
739.15	69.231
739.46	71.168
739.78	67.361
740.09	60.615
740.41	62.903
740.72	63.066
741.04	64.815
741.35	69.167
741.66	76.889
741.98	70.283
742.29	80.383
742.61	75.431
742.92	72.398
743.23	64.530
743.55	72.000
743.86	69.737
744.18	73.009
744.49	77.033
744.80	80.751
745.12	74.091
745.43	68.722
745.74	73.423
746.06	71.560
746.37	75.336
746.68	76.471
747.00	73.148
747.31	75.238
747.62	77.434
747.94	71.366
748.25	67.234
748.56	77.533
748.88	71.782
749.19	77.500
749.50	75.814
749.82	67.073
750.13	66.939
750.44	65.693
750.75	67.018
751.07	67.524
751.38	68.990
751.69	64.621
752.01	66.541
752.32	64.260
752.63	65.603
752.94	67.623
753.26	76.800
753.57	62.602
753.88	70.312
754.19	66.071
754.51	64.931
754.82	61.733
755.13	68.679
755.44	67.293
755.75	66.788
756.07	64.539
756.38	63.139
756.69	65.772
757.00	55.988
757.31	57.864
757.63	60.819
757.94	57.373
758.25	50.245
758.56	52.593
758.87	52.419
759.18	60.000
759.50	57.680
759.81	59.813
760.12	56.250
760.43	58.166
760.74	54.348
761.05	56.780
761.36	55.882
761.67	58.807
761.99	57.764
762.30	60.069
762.61	60.305
762.92	64.062
763.23	64.706
763.54	71.200
763.85	64.062
764.16	68.846
764.47	61.977
764.78	59.717
765.10	53.481
765.41	56.932
765.72	57.186
766.03	60.188
766.34	57.000
766.65	62.979
766.96	67.521
767.27	72.081
767.58	75.521
767.89	78.421
768.20	79.885
768.51	70.558
768.82	64.679
769.13	62.602
769.44	64.777
769.75	65.665
770.06	66.514
770.37	70.588
770.68	68.056
770.99	65.333
771.30	58.607
771.61	70.852
771.92	63.934
772.23	66.807
772.54	74.872
772.85	73.822
773.16	72.872
773.47	80.978
773.78	72.589
774.09	77.381
774.39	78.363
774.70	79.630
775.01	89.855
775.32	88.889
775.63	80.263
775.94	88.489
776.25	94.488
776.56	88.060
776.87	86.885
777.18	88.281
777.48	93.893
777.79	88.636
778.10	85.185
778.41	96.429
778.72	84.672
779.03	81.879
779.34	81.208
779.65	74.324
779.95	72.393
780.26	83.660
780.57	86.897
780.88	96.875
781.19	86.466
781.50	80.405
781.80	75.472
782.11	68.927
782.42	73.418
782.73	71.166
783.04	81.757
783.34	78.873
783.65	85.616
783.96	94.776
784.27	76.923
784.57	84.173
784.88	89.815
785.19	89.683
785.50	96.226
785.81	85.821
786.11	90.984
786.42	93.023
786.73	84.071
787.04	91.509
787.34	90.179
787.65	101.000
787.96	96.396
788.26	88.430
788.57	89.831
788.88	93.388
789.19	82.639
789.49	93.939
789.80	83.969
790.11	103.810
790.41	95.050
790.72	108.434
791.03	107.609
791.33	111.628
791.64	97.938
791.95	104.950
792.25	104.444
792.56	122.078
792.87	132.051
793.17	134.177
793.48	111.494
793.79	90.805
794.09	117.045
794.40	88.235
794.70	85.294
795.01	82.222
795.32	85.612
795.62	77.165
795.93	87.931
796.23	89.381
796.54	101.176
796.85	108.108
797.15	138.028
797.46	110.606
797.76	113.253
798.07	126.582
798.37	127.692
798.68	110.606
798.99	114.085
799.29	110.390
799.60	103.409
799.90	124.658
800.21	128.358
800.51	136.207
800.82	154.386
801.12	124.590
801.43	128.788
801.73	117.568
802.04	123.810
802.34	108.642
802.65	140.625
802.95	133.898
803.26	140.625
803.56	127.143
803.87	112.308
804.17	114.706
804.48	146.296
804.78	132.759
805.09	133.824
805.39	146.154
805.70	135.714
806.00	147.541
806.30	119.697
806.61	109.756
806.91	100.000
807.22	103.947
807.52	111.940
807.83	119.718
808.13	128.125
808.43	118.333
808.74	100.000
809.04	124.638
809.35	123.881
809.65	101.316
809.95	133.871
810.26	128.814
810.56	136.508
810.86	170.455
811.17	173.810
811.47	118.333
811.77	148.148
812.08	150.909
812.38	166.000
812.69	194.444
812.99	177.273
813.29	155.102
813.59	150.000
813.90	157.143
814.20	143.636
814.50	113.846
814.81	141.176
815.11	167.347
815.41	119.672
815.72	178.571
816.02	167.273
816.32	180.952
816.62	160.000
816.93	165.854
817.23	173.810
817.53	161.364
817.84	227.273
818.14	182.609
818.44	155.556
818.74	226.471
819.04	177.500
819.35	214.286
819.65	202.941
819.95	257.143
820.25	285.000
820.56	194.872
820.86	161.364
821.16	165.116
821.46	156.410
821.76	158.000
822.07	188.571
822.37	175.000
822.67	196.970
822.97	158.824
823.27	271.429
823.57	178.378
823.88	192.500
824.18	243.333
824.48	185.714
824.78	240.000
825.08	237.500
825.38	178.378
825.69	158.537
825.99	258.333
826.29	213.793
826.59	171.053
826.89	171.053
827.19	214.706
827.49	216.129
827.79	159.091
828.09	175.000
828.39	165.957
828.70	167.347
829.00	233.333
829.30	203.226
829.60	177.500
829.90	386.667
830.20	225.000
830.50	282.609
830.80	269.565
831.10	240.000
831.40	240.000
831.70	239.130
832.00	280.769
832.30	222.222
832.60	400.000
832.90	256.667
833.20	528.571
833.50	219.355
833.80	172.414
834.10	212.500
834.40	265.385
834.70	355.556
835.00	376.190
835.30	202.857
835.60	438.462
835.90	244.828
836.20	378.571
836.50	213.793
836.80	232.000
837.10	194.444
837.40	285.714
837.70	352.941
838.00	237.037
838.30	271.429
838.60	319.048
838.90	253.846
839.19	325.000
839.49	464.286
839.79	320.000
840.09	295.000
840.39	333.333
840.69	291.304
840.99	372.222
841.29	600.000
841.59	425.000
841.88	456.250
842.18	237.931
842.48	285.714
842.78	223.333
843.08	269.565
843.38	181.250
843.68	983.333
843.97	246.154
844.27	268.966
844.57	328.571
844.87	337.500
845.17	233.333
845.47	1366.667
845.76	544.444
846.06	376.471
846.36	600.000
846.66	414.286
846.96	356.250
847.25	609.091
847.55	400.000
847.85	321.739
848.15	570.000
848.44	407.143
848.74	261.111
849.04	394.118
849.34	620.000
849.63	342.105
849.93	518.182
850.23	1100.000
850.53	507.143
850.82	2400.000
851.12	-5800.000
851.42	5100.000
851.71	270.000
852.01	-1366.667
852.31	283.333
852.61	1900.000
852.90	238.095
853.20	252.000
853.50	376.471
853.79	342.857
854.09	233.333
854.39	450.000
854.68	164.865
854.98	190.323
855.28	213.333
855.57	217.241
855.87	244.444
856.17	284.211
856.46	320.000
856.76	305.882
857.05	231.034
857.35	270.833
857.65	373.333
857.94	247.826
858.24	296.154
858.53	280.000
858.83	295.455
859.13	400.000
859.42	0.000
859.72	666.667
860.01	545.455
860.31	263.636
860.60	336.842
860.90	282.609
861.20	700.000
861.49	558.333
861.79	-4500.000
862.08	700.000
862.38	333.333
862.67	438.462
862.97	417.647
863.26	566.667
863.56	305.556
863.85	466.667
864.15	662.500
864.44	406.667
864.74	1050.000
865.03	800.000
865.33	315.789
865.62	609.091
865.92	492.308
866.21	425.000
866.51	0.000
866.80	481.818
867.10	1080.000
867.39	453.846
867.69	500.000
867.98	342.105
868.27	527.273
868.57	321.053
868.86	-5000.000
869.16	362.500
869.45	2350.000
869.75	-4600.000
870.04	408.333
870.33	685.714
870.63	1275.000
870.92	2650.000
871.22	828.571
871.51	335.294
871.80	261.905
872.10	428.571
>>>>>End Processed Spectral Data<<<<<
