SpectraSuite Data File
++++++++++++++++++++++++++++++++++++
Date: Wed May 13 19:51:09 PDT 2015
User: schluterlab
Dark Spectrum Present: Yes
Reference Spectrum Present: Yes
Number of Sampled Component Spectra: 1
Spectrometers: USB2E3373
Integration Time (usec): 3000 (USB2E3373)
Spectra Averaged: 3 (USB2E3373)
Boxcar Smoothing: 0 (USB2E3373)
Correct for Electrical Dark: No (USB2E3373)
Strobe/Lamp Enabled: No (USB2E3373)
Correct for Detector Non-linearity: No (USB2E3373)
Correct for Stray Light: No (USB2E3373)
Number of Pixels in Processed Spectrum: 2048
>>>>>Begin Processed Spectral Data<<<<<
178.53	0.000
178.91	-1300.000
179.29	-1425.000
179.67	-250.000
180.04	-1425.000
180.42	2550.000
180.80	1200.000
181.18	-1175.000
181.56	700.000
181.94	0.000
182.31	-800.000
182.69	2033.333
183.07	-587.500
183.45	-622.222
183.83	500.000
184.20	-410.000
184.58	2450.000
184.96	5600.000
185.34	-860.000
185.72	-712.500
186.09	-2200.000
186.47	2800.000
186.85	2450.000
187.23	5200.000
187.61	-1600.000
187.98	1250.000
188.36	572.727
188.74	545.455
189.12	-940.000
189.49	650.000
189.87	-4200.000
190.25	-1250.000
190.63	457.143
191.00	476.923
191.38	916.667
191.76	-1250.000
192.14	1475.000
192.51	612.500
192.89	950.000
193.27	612.500
193.65	-1000.000
194.02	480.000
194.40	860.000
194.78	530.000
195.15	500.000
195.53	620.000
195.91	-2550.000
196.29	356.250
196.66	310.526
197.04	-380.000
197.42	0.000
197.79	680.000
198.17	-6100.000
198.55	700.000
198.92	787.500
199.30	940.000
199.68	0.000
200.05	377.778
200.43	771.429
200.81	4800.000
201.18	1833.333
201.56	-1733.333
201.94	588.889
202.31	711.111
202.69	458.333
203.07	580.000
203.44	0.000
203.82	1250.000
204.19	842.857
204.57	450.000
204.95	637.500
205.32	1533.333
205.70	463.636
206.08	392.857
206.45	2950.000
206.83	375.000
207.20	1250.000
207.58	740.000
207.96	388.889
208.33	812.500
208.71	-866.667
209.08	828.571
209.46	544.444
209.84	536.364
210.21	-1433.333
210.59	1300.000
210.96	-562.500
211.34	2600.000
211.71	680.000
212.09	866.667
212.46	0.000
212.84	2000.000
213.22	1550.000
213.59	-4800.000
213.97	983.333
214.34	728.571
214.72	618.182
215.09	1120.000
215.47	-2000.000
215.84	-2800.000
216.22	1766.667
216.59	435.714
216.97	1250.000
217.34	454.545
217.72	-783.333
218.09	0.000
218.47	-5200.000
218.84	788.889
219.22	842.857
219.59	1700.000
219.97	-671.429
220.34	1020.000
220.72	-2133.333
221.09	428.571
221.47	1300.000
221.84	-950.000
222.22	0.000
222.59	1300.000
222.97	-2650.000
223.34	1280.000
223.72	461.538
224.09	1140.000
224.46	2200.000
224.84	-4600.000
225.21	-1060.000
225.59	-4800.000
225.96	610.000
226.34	335.000
226.71	2750.000
227.08	637.500
227.46	610.000
227.83	-1200.000
228.21	-2300.000
228.58	611.111
228.95	-2250.000
229.33	-2850.000
229.70	2300.000
230.08	842.857
230.45	-960.000
230.82	441.667
231.20	750.000
231.57	814.286
231.95	533.333
232.32	259.091
232.69	454.545
233.07	785.714
233.44	376.923
233.81	-2000.000
234.19	268.421
234.56	483.333
234.93	358.333
235.31	490.909
235.68	338.462
236.05	300.000
236.43	187.879
236.80	263.158
237.17	4800.000
237.55	247.619
237.92	192.857
238.29	214.286
238.67	164.516
239.04	227.586
239.41	100.000
239.79	136.957
240.16	121.429
240.53	138.636
240.91	105.882
241.28	106.000
241.65	108.000
242.02	107.246
242.40	96.774
242.77	98.333
243.14	76.344
243.51	79.775
243.89	63.529
244.26	64.444
244.63	66.667
245.00	70.213
245.38	52.475
245.75	59.813
246.12	56.881
246.49	58.394
246.87	58.400
247.24	56.154
247.61	48.571
247.98	50.327
248.36	41.892
248.73	44.586
249.10	46.497
249.47	40.678
249.84	40.642
250.22	43.316
250.59	39.645
250.96	43.434
251.33	38.863
251.70	37.624
252.08	35.714
252.45	28.700
252.82	36.522
253.19	38.298
253.56	32.157
253.94	34.855
254.31	35.156
254.68	32.308
255.05	35.424
255.42	35.366
255.79	32.353
256.16	31.769
256.54	31.095
256.91	30.961
257.28	26.619
257.65	27.723
258.02	32.298
258.39	28.707
258.76	30.100
259.14	27.976
259.51	24.924
259.88	24.534
260.25	29.607
260.62	26.590
260.99	26.398
261.36	30.330
261.73	25.501
262.10	25.291
262.47	30.141
262.85	28.134
263.22	24.217
263.59	27.350
263.96	24.725
264.33	25.326
264.70	24.737
265.07	27.877
265.44	24.242
265.81	23.114
266.18	23.116
266.55	24.634
266.92	22.113
267.29	24.769
267.66	25.688
268.03	24.773
268.40	23.832
268.77	22.196
269.14	23.874
269.51	25.959
269.88	21.678
270.25	24.831
270.62	25.393
270.99	26.237
271.36	23.820
271.73	21.262
272.10	21.957
272.47	21.505
272.84	22.727
273.21	20.335
273.58	21.834
273.95	21.803
274.32	22.314
274.69	22.270
275.06	23.819
275.43	24.043
275.80	21.042
276.17	20.570
276.54	24.116
276.91	22.332
277.28	22.656
277.65	22.244
278.02	21.532
278.39	21.680
278.76	21.636
279.13	21.321
279.50	19.181
279.87	20.916
280.23	19.960
280.60	21.663
280.97	19.963
281.34	20.354
281.71	21.273
282.08	22.649
282.45	19.273
282.82	20.071
283.19	18.717
283.56	20.526
283.92	21.320
284.29	20.811
284.66	20.145
285.03	19.711
285.40	17.958
285.77	19.360
286.14	19.516
286.51	20.500
286.87	17.436
287.24	20.358
287.61	19.262
287.98	19.968
288.35	17.591
288.72	18.069
289.08	19.875
289.45	17.628
289.82	18.537
290.19	16.484
290.56	19.755
290.93	16.465
291.29	17.485
291.66	18.584
292.03	20.494
292.40	19.236
292.77	17.160
293.13	16.269
293.50	18.805
293.87	17.926
294.24	16.296
294.60	17.176
294.97	15.988
295.34	18.054
295.71	16.193
296.08	15.385
296.44	16.781
296.81	16.909
297.18	16.802
297.55	14.248
297.91	15.831
298.28	16.332
298.65	16.188
299.02	16.733
299.38	15.405
299.75	12.938
300.12	13.793
300.48	14.375
300.85	14.057
301.22	13.503
301.59	15.909
301.95	14.358
302.32	15.148
302.69	14.337
303.05	14.424
303.42	13.951
303.79	14.496
304.15	13.287
304.52	13.326
304.89	13.821
305.25	13.921
305.62	14.836
305.99	14.286
306.35	13.199
306.72	13.901
307.09	14.428
307.45	13.401
307.82	13.504
308.19	13.135
308.55	14.024
308.92	12.997
309.29	12.883
309.65	13.574
310.02	14.693
310.38	13.656
310.75	14.044
311.12	14.125
311.48	13.584
311.85	13.417
312.22	13.632
312.58	14.345
312.95	14.467
313.31	14.078
313.68	14.137
314.05	15.286
314.41	14.673
314.78	14.199
315.14	14.101
315.51	15.139
315.87	15.842
316.24	14.796
316.61	15.010
316.97	14.481
317.34	14.775
317.70	15.870
318.07	15.303
318.43	15.949
318.80	18.276
319.16	16.196
319.53	16.135
319.89	18.095
320.26	19.000
320.62	19.742
320.99	17.980
321.35	18.889
321.72	20.123
322.08	19.645
322.45	21.393
322.81	20.446
323.18	22.254
323.54	21.521
323.91	21.698
324.27	22.275
324.64	21.808
325.00	21.551
325.37	24.022
325.73	25.135
326.10	23.036
326.46	23.746
326.83	24.676
327.19	24.509
327.56	25.523
327.92	26.597
328.29	26.531
328.65	26.427
329.01	27.888
329.38	26.827
329.74	26.131
330.11	28.369
330.47	27.732
330.84	28.585
331.20	27.778
331.56	28.073
331.93	27.963
332.29	28.039
332.66	29.292
333.02	28.428
333.38	29.178
333.75	28.520
334.11	30.605
334.48	28.571
334.84	29.596
335.20	28.636
335.57	28.015
335.93	28.036
336.29	29.121
336.66	29.757
337.02	28.235
337.38	29.352
337.75	29.055
338.11	28.917
338.47	30.203
338.84	29.606
339.20	29.450
339.56	30.109
339.93	30.091
340.29	30.344
340.65	30.303
341.02	30.454
341.38	30.872
341.74	29.035
342.11	29.432
342.47	29.780
342.83	29.623
343.20	30.996
343.56	29.318
343.92	30.702
344.28	28.997
344.65	31.126
345.01	28.788
345.37	29.417
345.73	30.203
346.10	30.009
346.46	28.814
346.82	29.984
347.19	30.075
347.55	29.310
347.91	31.472
348.27	30.567
348.63	30.351
349.00	30.259
349.36	30.378
349.72	31.195
350.08	29.254
350.45	30.350
350.81	30.138
351.17	30.470
351.53	30.303
351.89	29.538
352.26	31.097
352.62	30.634
352.98	30.308
353.34	30.649
353.70	29.133
354.07	29.597
354.43	29.683
354.79	30.249
355.15	29.928
355.51	31.255
355.87	30.694
356.24	31.433
356.60	30.152
356.96	32.582
357.32	31.725
357.68	31.339
358.04	30.008
358.40	31.987
358.77	30.282
359.13	30.939
359.49	31.922
359.85	31.349
360.21	30.941
360.57	32.607
360.93	32.000
361.29	31.595
361.66	30.495
362.02	30.672
362.38	31.559
362.74	31.473
363.10	31.162
363.46	31.768
363.82	32.124
364.18	32.085
364.54	32.467
364.90	31.303
365.26	31.176
365.62	32.505
365.98	31.191
366.35	30.659
366.71	32.466
367.07	32.848
367.43	33.164
367.79	33.547
368.15	33.405
368.51	31.831
368.87	33.476
369.23	32.772
369.59	33.816
369.95	32.279
370.31	33.761
370.67	32.464
371.03	34.007
371.39	32.143
371.75	33.750
372.11	33.357
372.47	33.431
372.83	34.582
373.19	32.948
373.55	33.999
373.91	35.125
374.27	33.196
374.63	34.618
374.99	34.040
375.35	34.403
375.71	33.927
376.07	35.185
376.42	34.113
376.78	35.189
377.14	35.278
377.50	35.364
377.86	34.043
378.22	35.272
378.58	34.023
378.94	35.324
379.30	35.941
379.66	35.787
380.02	35.811
380.38	35.701
380.74	35.954
381.09	35.697
381.45	36.202
381.81	36.364
382.17	37.197
382.53	37.925
382.89	37.654
383.25	36.898
383.61	37.608
383.97	37.398
384.32	36.806
384.68	36.307
385.04	36.755
385.40	36.842
385.76	38.022
386.12	37.824
386.48	37.885
386.83	39.897
387.19	38.899
387.55	38.590
387.91	37.908
388.27	37.400
388.62	38.722
388.98	37.654
389.34	39.174
389.70	38.075
390.06	38.783
390.42	39.494
390.77	38.168
391.13	39.949
391.49	38.452
391.85	38.256
392.20	38.233
392.56	38.826
392.92	39.435
393.28	37.396
393.64	38.070
393.99	39.279
394.35	39.082
394.71	38.645
395.07	39.190
395.42	40.297
395.78	38.995
396.14	39.168
396.50	40.915
396.85	40.432
397.21	39.519
397.57	38.934
397.92	40.325
398.28	38.565
398.64	39.845
399.00	40.179
399.35	38.579
399.71	39.583
400.07	40.095
400.42	39.571
400.78	40.350
401.14	40.244
401.49	40.657
401.85	39.988
402.21	39.341
402.57	40.222
402.92	40.416
403.28	39.663
403.63	41.708
403.99	39.299
404.35	40.848
404.70	40.408
405.06	39.313
405.42	40.424
405.77	39.771
406.13	40.350
406.49	40.154
406.84	40.284
407.20	41.194
407.55	41.161
407.91	40.867
408.27	40.587
408.62	40.217
408.98	40.012
409.34	39.975
409.69	40.065
410.05	40.582
410.40	39.755
410.76	39.904
411.11	41.134
411.47	40.319
411.83	41.539
412.18	40.754
412.54	40.224
412.89	41.205
413.25	40.909
413.60	40.889
413.96	40.194
414.31	39.793
414.67	39.480
415.03	41.126
415.38	41.946
415.74	39.936
416.09	42.782
416.45	41.566
416.80	41.110
417.16	41.823
417.51	41.407
417.87	40.398
418.22	42.019
418.58	40.801
418.93	40.418
419.29	41.439
419.64	41.499
420.00	41.402
420.35	40.754
420.71	41.243
421.06	40.811
421.42	41.170
421.77	41.480
422.12	40.034
422.48	40.745
422.83	41.584
423.19	41.989
423.54	40.859
423.90	41.043
424.25	41.597
424.61	40.893
424.96	41.574
425.31	41.141
425.67	40.955
426.02	41.314
426.38	42.247
426.73	40.374
427.09	42.188
427.44	40.771
427.79	41.576
428.15	40.595
428.50	42.422
428.85	41.359
429.21	41.248
429.56	41.213
429.92	39.960
430.27	40.814
430.62	40.809
430.98	40.218
431.33	39.948
431.68	40.524
432.04	40.149
432.39	41.291
432.74	41.412
433.10	41.539
433.45	42.332
433.80	41.851
434.16	41.079
434.51	40.579
434.86	41.847
435.22	40.578
435.57	41.702
435.92	41.369
436.28	41.815
436.63	41.336
436.98	40.985
437.34	42.278
437.69	42.299
438.04	41.709
438.39	40.776
438.75	41.604
439.10	41.508
439.45	41.795
439.81	41.329
440.16	41.276
440.51	41.125
440.86	41.865
441.22	40.768
441.57	40.605
441.92	41.658
442.27	41.712
442.63	41.127
442.98	41.577
443.33	40.707
443.68	40.991
444.03	41.044
444.39	41.285
444.74	40.368
445.09	40.485
445.44	40.897
445.79	40.327
446.15	41.556
446.50	40.495
446.85	40.596
447.20	40.948
447.55	41.318
447.91	40.154
448.26	40.512
448.61	41.436
448.96	40.864
449.31	41.620
449.66	40.855
450.02	39.554
450.37	40.590
450.72	41.004
451.07	39.854
451.42	39.331
451.77	40.693
452.12	40.012
452.47	41.231
452.83	40.501
453.18	40.954
453.53	41.435
453.88	40.343
454.23	40.167
454.58	41.308
454.93	41.386
455.28	39.838
455.63	39.988
455.98	41.369
456.34	40.327
456.69	40.639
457.04	40.929
457.39	39.860
457.74	40.163
458.09	40.368
458.44	40.251
458.79	39.154
459.14	39.673
459.49	39.696
459.84	39.834
460.19	39.540
460.54	38.831
460.89	39.495
461.24	39.830
461.59	40.093
461.94	39.211
462.29	39.644
462.64	39.119
462.99	38.647
463.34	40.467
463.69	40.650
464.04	39.594
464.39	38.957
464.74	39.394
465.09	39.264
465.44	38.947
465.79	38.591
466.14	37.384
466.49	38.432
466.84	38.179
467.19	38.745
467.54	39.250
467.89	38.235
468.24	37.638
468.59	38.706
468.94	37.935
469.29	38.625
469.64	38.220
469.99	38.769
470.34	37.583
470.68	39.511
471.03	37.619
471.38	38.638
471.73	37.642
472.08	38.684
472.43	37.814
472.78	37.261
473.13	38.703
473.48	38.452
473.83	37.500
474.17	37.150
474.52	38.648
474.87	37.887
475.22	37.435
475.57	36.110
475.92	36.750
476.27	37.091
476.61	36.349
476.96	36.888
477.31	36.054
477.66	37.418
478.01	35.755
478.36	36.171
478.70	35.981
479.05	36.635
479.40	35.977
479.75	37.062
480.10	35.686
480.45	34.650
480.79	35.643
481.14	35.616
481.49	35.406
481.84	35.711
482.19	35.075
482.53	34.908
482.88	36.063
483.23	35.000
483.58	35.123
483.92	35.661
484.27	34.118
484.62	34.655
484.97	34.765
485.31	34.829
485.66	32.793
486.01	32.056
486.36	31.276
486.70	30.783
487.05	32.115
487.40	32.508
487.75	32.558
488.09	33.697
488.44	33.756
488.79	34.213
489.13	34.607
489.48	34.502
489.83	34.398
490.17	34.722
490.52	33.348
490.87	33.740
491.22	33.697
491.56	32.711
491.91	34.760
492.26	33.073
492.60	32.581
492.95	33.255
493.30	33.364
493.64	32.898
493.99	32.730
494.34	32.979
494.68	32.921
495.03	33.459
495.37	33.085
495.72	32.992
496.07	33.086
496.41	31.726
496.76	32.454
497.11	31.878
497.45	32.371
497.80	32.342
498.14	32.029
498.49	33.610
498.84	32.982
499.18	31.524
499.53	32.811
499.87	32.013
500.22	31.936
500.56	32.767
500.91	31.202
501.26	31.816
501.60	32.273
501.95	31.027
502.29	31.537
502.64	31.471
502.98	30.715
503.33	31.124
503.67	30.719
504.02	30.589
504.36	30.838
504.71	31.216
505.06	30.892
505.40	31.308
505.75	30.280
506.09	30.369
506.44	31.278
506.78	31.271
507.13	31.196
507.47	30.505
507.82	30.851
508.16	30.193
508.51	31.405
508.85	29.841
509.19	30.612
509.54	30.408
509.88	29.882
510.23	30.900
510.57	31.424
510.92	30.088
511.26	30.267
511.61	31.328
511.95	29.280
512.30	29.958
512.64	30.360
512.98	30.761
513.33	30.139
513.67	29.989
514.02	29.437
514.36	30.748
514.70	30.548
515.05	30.061
515.39	30.566
515.74	29.110
516.08	30.296
516.42	30.189
516.77	30.936
517.11	29.800
517.46	31.151
517.80	30.430
518.14	29.010
518.49	30.280
518.83	30.170
519.17	29.561
519.52	29.542
519.86	30.348
520.20	29.942
520.55	30.341
520.89	30.292
521.23	30.157
521.58	29.652
521.92	29.455
522.26	28.188
522.61	29.097
522.95	29.527
523.29	29.763
523.64	29.390
523.98	29.698
524.32	28.709
524.66	29.104
525.01	29.167
525.35	28.686
525.69	28.633
526.04	28.723
526.38	28.371
526.72	28.773
527.06	29.379
527.41	27.970
527.75	28.617
528.09	29.544
528.43	28.235
528.78	28.150
529.12	29.030
529.46	28.475
529.80	28.713
530.15	28.785
530.49	28.000
530.83	27.722
531.17	28.394
531.51	28.729
531.86	28.710
532.20	29.270
532.54	28.187
532.88	28.049
533.22	27.483
533.57	27.778
533.91	27.092
534.25	26.914
534.59	28.127
534.93	27.127
535.27	27.459
535.62	27.473
535.96	27.621
536.30	27.273
536.64	27.366
536.98	28.666
537.32	27.057
537.66	28.200
538.01	27.386
538.35	26.955
538.69	28.143
539.03	26.901
539.37	26.326
539.71	25.924
540.05	27.843
540.39	27.043
540.73	26.197
541.07	27.709
541.42	27.462
541.76	26.452
542.10	26.649
542.44	27.086
542.78	28.195
543.12	26.807
543.46	26.951
543.80	27.261
544.14	26.444
544.48	27.238
544.82	26.491
545.16	26.675
545.50	26.093
545.84	25.874
546.18	26.936
546.52	26.084
546.86	25.911
547.20	26.972
547.54	26.787
547.88	26.531
548.22	26.090
548.56	25.975
548.90	25.352
549.24	25.522
549.58	26.671
549.92	26.580
550.26	27.202
550.60	26.694
550.94	25.845
551.28	25.677
551.62	25.953
551.96	26.246
552.30	27.440
552.64	26.572
552.98	25.831
553.32	25.421
553.66	26.244
554.00	26.287
554.34	25.121
554.68	26.323
555.02	25.740
555.36	25.400
555.69	25.034
556.03	25.639
556.37	25.784
556.71	24.898
557.05	26.541
557.39	25.752
557.73	25.900
558.07	26.323
558.41	25.904
558.75	25.937
559.08	25.727
559.42	26.455
559.76	25.221
560.10	24.982
560.44	25.786
560.78	23.952
561.12	25.198
561.45	25.228
561.79	25.313
562.13	24.145
562.47	24.932
562.81	25.035
563.15	25.753
563.48	25.663
563.82	25.310
564.16	24.330
564.50	23.698
564.84	24.716
565.17	24.324
565.51	24.601
565.85	24.619
566.19	24.108
566.52	25.142
566.86	24.895
567.20	24.823
567.54	23.573
567.88	22.977
568.21	23.810
568.55	23.306
568.89	22.422
569.23	22.371
569.56	22.348
569.90	21.660
570.24	22.067
570.57	21.421
570.91	21.752
571.25	20.939
571.59	21.060
571.92	21.313
572.26	21.115
572.60	21.441
572.93	21.169
573.27	21.266
573.61	21.106
573.95	20.904
574.28	20.905
574.62	20.675
574.96	20.502
575.29	20.514
575.63	20.706
575.97	20.333
576.30	20.791
576.64	20.748
576.98	20.685
577.31	20.287
577.65	20.347
577.98	20.446
578.32	20.373
578.66	20.377
578.99	20.703
579.33	20.019
579.67	20.019
580.00	20.115
580.34	20.408
580.67	20.326
581.01	20.621
581.35	20.229
581.68	19.825
582.02	19.836
582.35	19.873
582.69	20.106
583.02	19.753
583.36	20.175
583.70	20.554
584.03	20.481
584.37	21.370
584.70	20.428
585.04	20.377
585.37	20.270
585.71	19.760
586.04	20.005
586.38	20.402
586.72	20.851
587.05	20.266
587.39	20.317
587.72	20.227
588.06	20.251
588.39	20.219
588.73	20.769
589.06	21.003
589.40	20.909
589.73	21.295
590.07	20.961
590.40	20.058
590.73	21.468
591.07	21.490
591.40	21.552
591.74	22.078
592.07	20.899
592.41	20.587
592.74	20.112
593.08	20.420
593.41	20.437
593.75	20.081
594.08	20.282
594.41	19.901
594.75	20.518
595.08	19.864
595.42	20.210
595.75	19.943
596.09	21.292
596.42	21.022
596.75	20.642
597.09	21.775
597.42	20.194
597.75	20.310
598.09	21.217
598.42	20.833
598.76	20.227
599.09	19.878
599.42	20.051
599.76	20.644
600.09	20.109
600.42	20.015
600.76	20.036
601.09	19.891
601.42	20.396
601.76	19.620
602.09	20.079
602.42	20.900
602.76	20.516
603.09	21.125
603.42	20.734
603.76	20.351
604.09	19.891
604.42	19.853
604.76	20.540
605.09	21.188
605.42	20.436
605.75	20.488
606.09	20.211
606.42	19.861
606.75	19.784
607.09	20.134
607.42	19.683
607.75	19.072
608.08	19.540
608.42	20.753
608.75	20.469
609.08	20.352
609.41	20.324
609.75	20.010
610.08	20.688
610.41	20.065
610.74	20.341
611.07	21.196
611.41	19.823
611.74	20.764
612.07	20.600
612.40	21.301
612.73	20.368
613.07	21.552
613.40	20.958
613.73	19.612
614.06	20.860
614.39	20.241
614.72	19.947
615.06	20.903
615.39	20.170
615.72	20.194
616.05	20.149
616.38	20.789
616.71	21.081
617.05	20.789
617.38	20.926
617.71	20.180
618.04	20.974
618.37	19.929
618.70	21.282
619.03	22.105
619.36	20.842
619.69	22.183
620.03	21.566
620.36	21.457
620.69	23.493
621.02	21.608
621.35	20.282
621.68	21.807
622.01	22.059
622.34	22.163
622.67	22.738
623.00	20.616
623.33	21.515
623.66	21.158
623.99	20.987
624.32	21.041
624.65	21.751
624.99	20.255
625.32	21.434
625.65	21.938
625.98	21.829
626.31	22.473
626.64	22.939
626.97	22.693
627.30	21.114
627.63	22.477
627.96	22.288
628.29	22.485
628.62	22.690
628.95	23.113
629.28	21.898
629.61	22.823
629.94	23.238
630.26	23.260
630.59	23.356
630.92	22.031
631.25	21.718
631.58	22.322
631.91	21.805
632.24	22.785
632.57	22.875
632.90	22.917
633.23	22.371
633.56	25.085
633.89	24.009
634.22	23.723
634.55	24.497
634.88	23.234
635.20	24.970
635.53	24.337
635.86	23.020
636.19	22.824
636.52	23.299
636.85	22.680
637.18	23.387
637.51	23.404
637.83	22.072
638.16	23.657
638.49	23.929
638.82	23.262
639.15	25.375
639.48	24.813
639.81	24.933
640.13	24.870
640.46	23.624
640.79	24.174
641.12	22.971
641.45	23.464
641.77	24.595
642.10	24.708
642.43	23.724
642.76	25.542
643.09	24.233
643.41	25.948
643.74	26.852
644.07	25.000
644.40	25.153
644.73	25.669
645.05	26.624
645.38	25.118
645.71	24.960
646.04	25.415
646.36	27.546
646.69	27.090
647.02	24.150
647.35	27.491
647.67	26.195
648.00	25.528
648.33	25.413
648.66	24.697
648.98	25.937
649.31	22.720
649.64	26.308
649.96	25.037
650.29	23.381
650.62	24.919
650.94	26.418
651.27	26.689
651.60	26.290
651.92	24.121
652.25	24.756
652.58	24.922
652.90	27.014
653.23	23.729
653.56	23.937
653.88	25.832
654.21	26.382
654.54	22.937
654.86	25.545
655.19	22.703
655.52	16.079
655.84	13.952
656.17	17.967
656.49	24.345
656.82	24.784
657.15	18.826
657.47	14.002
657.80	10.713
658.13	11.209
658.45	16.622
658.78	17.241
659.10	17.548
659.43	18.278
659.75	19.518
660.08	22.152
660.41	23.091
660.73	25.159
661.06	25.955
661.38	26.364
661.71	25.769
662.03	27.416
662.36	26.839
662.68	27.510
663.01	27.071
663.33	28.025
663.66	28.782
663.98	25.918
664.31	26.471
664.63	26.518
664.96	26.559
665.28	29.098
665.61	25.731
665.93	26.962
666.26	26.369
666.58	28.243
666.91	28.964
667.23	27.416
667.56	28.078
667.88	26.923
668.21	28.571
668.53	26.247
668.86	25.758
669.18	27.079
669.50	26.522
669.83	29.194
670.15	29.333
670.48	28.540
670.80	26.078
671.13	26.115
671.45	27.234
671.77	29.328
672.10	26.063
672.42	25.972
672.75	24.544
673.07	23.944
673.39	22.966
673.72	26.367
674.04	25.882
674.37	27.184
674.69	24.540
675.01	25.732
675.34	31.006
675.66	27.158
675.98	27.902
676.31	26.050
676.63	26.539
676.95	25.996
677.28	27.804
677.60	26.593
677.92	29.536
678.25	26.694
678.57	26.096
678.89	26.453
679.22	24.361
679.54	24.046
679.86	25.505
680.18	25.045
680.51	25.709
680.83	24.199
681.15	26.792
681.48	26.276
681.80	27.273
682.12	24.904
682.44	24.178
682.77	26.477
683.09	28.541
683.41	29.712
683.73	28.477
684.06	28.512
684.38	25.440
684.70	25.388
685.02	27.392
685.34	23.810
685.67	23.252
685.99	24.227
686.31	23.038
686.63	24.028
686.96	23.214
687.28	24.729
687.60	25.000
687.92	26.143
688.24	24.335
688.56	25.502
688.89	28.216
689.21	27.511
689.53	27.766
689.85	26.164
690.17	22.774
690.49	28.662
690.82	26.636
691.14	23.661
691.46	26.371
691.78	24.699
692.10	26.240
692.42	26.946
692.74	25.311
693.06	24.255
693.39	29.363
693.71	27.511
694.03	25.474
694.35	25.541
694.67	24.485
694.99	29.756
695.31	26.716
695.63	26.316
695.95	26.650
696.27	26.904
696.59	24.870
696.91	31.865
697.23	26.056
697.56	27.079
697.88	21.677
698.20	26.458
698.52	27.527
698.84	26.281
699.16	25.576
699.48	27.078
699.80	26.570
700.12	28.571
700.44	27.586
700.76	29.558
701.08	24.425
701.40	29.050
701.72	27.405
702.04	33.523
702.36	27.195
702.68	28.329
703.00	27.701
703.32	26.596
703.64	25.737
703.96	29.526
704.28	31.977
704.60	32.551
704.91	32.641
705.23	27.859
705.55	29.900
705.87	34.884
706.19	30.389
706.51	32.087
706.83	30.909
707.15	31.933
707.47	30.303
707.79	26.781
708.11	25.571
708.43	25.952
708.74	27.296
709.06	30.130
709.38	27.822
709.70	29.360
710.02	31.751
710.34	26.667
710.66	31.642
710.98	30.114
711.29	30.523
711.61	30.678
711.93	29.808
712.25	30.547
712.57	31.618
712.89	28.720
713.20	27.964
713.52	30.592
713.84	28.481
714.16	27.134
714.48	27.874
714.80	32.827
715.11	28.242
715.43	30.861
715.75	32.174
716.07	29.712
716.39	29.781
716.70	31.894
717.02	33.453
717.34	31.449
717.66	36.194
717.97	36.653
718.29	33.704
718.61	27.737
718.93	36.029
719.24	31.142
719.56	32.881
719.88	30.847
720.20	34.459
720.51	34.843
720.83	32.714
721.15	29.104
721.46	30.496
721.78	30.108
722.10	32.075
722.42	37.594
722.73	33.708
723.05	34.426
723.37	33.603
723.68	38.996
724.00	32.927
724.32	36.290
724.63	34.959
724.95	36.820
725.27	35.223
725.58	34.375
725.90	33.577
726.22	35.472
726.53	35.417
726.85	34.471
727.16	31.317
727.48	34.043
727.80	31.439
728.11	31.522
728.43	30.385
728.74	28.674
729.06	33.942
729.38	35.662
729.69	28.114
730.01	29.010
730.32	29.514
730.64	27.759
730.96	30.033
731.27	36.093
731.59	29.969
731.90	28.863
732.22	27.950
732.53	30.650
732.85	28.526
733.16	28.617
733.48	30.897
733.80	29.221
734.11	31.210
734.43	30.769
734.74	26.857
735.06	25.215
735.37	30.925
735.69	24.841
736.00	29.412
736.32	29.907
736.63	29.073
736.95	32.268
737.26	25.170
737.58	28.387
737.89	29.097
738.21	34.130
738.52	30.357
738.83	32.075
739.15	32.308
739.46	30.657
739.78	32.292
740.09	32.923
740.41	32.581
740.72	29.965
741.04	32.593
741.35	34.583
741.66	38.667
741.98	33.491
742.29	44.498
742.61	41.379
742.92	38.009
743.23	37.607
743.55	36.000
743.86	35.965
744.18	37.168
744.49	42.105
744.80	41.784
745.12	37.727
745.43	38.767
745.74	41.892
746.06	36.697
746.37	33.632
746.68	35.294
747.00	37.500
747.31	35.714
747.62	34.071
747.94	35.242
748.25	30.213
748.56	37.004
748.88	36.139
749.19	41.500
749.50	40.465
749.82	35.772
750.13	31.837
750.44	34.672
750.75	34.386
751.07	35.370
751.38	34.146
751.69	31.408
752.01	30.827
752.32	29.964
752.63	29.787
752.94	31.148
753.26	38.400
753.57	27.642
753.88	32.422
754.19	30.357
754.51	34.028
754.82	30.686
755.13	33.585
755.44	32.707
755.75	30.657
756.07	30.142
756.38	28.102
756.69	32.550
757.00	30.240
757.31	29.080
757.63	25.731
757.94	28.686
758.25	24.020
758.56	25.679
758.87	23.925
759.18	30.606
759.50	28.213
759.81	26.480
760.12	27.500
760.43	27.507
760.74	25.272
761.05	27.119
761.36	27.540
761.67	27.273
761.99	27.019
762.30	29.861
762.61	31.298
762.92	35.937
763.23	34.454
763.54	38.800
763.85	29.687
764.16	38.462
764.47	31.939
764.78	28.622
765.10	25.949
765.41	33.038
765.72	29.940
766.03	30.094
766.34	28.000
766.65	34.468
766.96	37.179
767.27	39.086
767.58	41.146
767.89	47.368
768.20	40.805
768.51	40.102
768.82	40.826
769.13	26.423
769.44	31.579
769.75	33.047
770.06	32.110
770.37	40.724
770.68	41.204
770.99	34.667
771.30	31.967
771.61	39.013
771.92	31.148
772.23	41.597
772.54	38.974
772.85	40.314
773.16	43.085
773.47	41.304
773.78	43.147
774.09	33.333
774.39	45.029
774.70	46.914
775.01	50.725
775.32	48.366
775.63	46.711
775.94	48.201
776.25	49.606
776.56	50.000
776.87	50.000
777.18	54.688
777.48	54.198
777.79	49.242
778.10	45.926
778.41	55.357
778.72	47.445
779.03	47.651
779.34	51.678
779.65	41.892
779.95	52.761
780.26	50.980
780.57	48.276
780.88	52.344
781.19	48.872
781.50	48.649
781.80	42.767
782.11	37.853
782.42	37.342
782.73	42.331
783.04	49.324
783.34	54.225
783.65	57.534
783.96	52.985
784.27	47.552
784.57	44.604
784.88	50.926
785.19	62.698
785.50	58.491
785.81	54.478
786.11	52.459
786.42	60.465
786.73	56.637
787.04	58.491
787.34	58.929
787.65	57.000
787.96	59.459
788.26	47.934
788.57	59.322
788.88	62.810
789.19	52.083
789.49	60.606
789.80	64.885
790.11	64.762
790.41	73.267
790.72	61.446
791.03	66.304
791.33	73.256
791.64	63.918
791.95	71.287
792.25	74.444
792.56	71.429
792.87	96.154
793.17	86.076
793.48	73.563
793.79	78.161
794.09	76.136
794.40	62.185
794.70	64.706
795.01	42.222
795.32	47.482
795.62	48.819
795.93	51.724
796.23	58.407
796.54	68.235
796.85	68.919
797.15	90.141
797.46	95.455
797.76	83.133
798.07	74.684
798.37	72.308
798.68	92.424
798.99	84.507
799.29	75.325
799.60	85.227
799.90	94.521
800.21	101.493
800.51	86.207
800.82	103.509
801.12	98.361
801.43	96.970
801.73	81.081
802.04	103.175
802.34	86.420
802.65	87.500
802.95	94.915
803.26	110.938
803.56	75.714
803.87	81.538
804.17	85.294
804.48	124.074
804.78	106.897
805.09	86.765
805.39	107.692
805.70	98.214
806.00	98.361
806.30	78.788
806.61	81.707
806.91	75.949
807.22	67.105
807.52	76.119
807.83	85.915
808.13	93.750
808.43	93.333
808.74	69.737
809.04	89.855
809.35	98.507
809.65	86.842
809.95	120.968
810.26	98.305
810.56	104.762
810.86	136.364
811.17	130.952
811.47	101.667
811.77	120.370
812.08	109.091
812.38	132.000
812.69	138.889
812.99	152.273
813.29	140.816
813.59	111.905
813.90	132.653
814.20	107.273
814.50	96.923
814.81	105.882
815.11	140.816
815.41	98.361
815.72	140.476
816.02	120.000
816.32	119.048
816.62	142.500
816.93	136.585
817.23	150.000
817.53	129.545
817.84	212.121
818.14	136.957
818.44	126.667
818.74	164.706
819.04	130.000
819.35	162.857
819.65	179.412
819.95	200.000
820.25	270.000
820.56	164.103
820.86	143.182
821.16	153.488
821.46	153.846
821.76	130.000
822.07	151.429
822.37	150.000
822.67	190.909
822.97	105.882
823.27	210.714
823.57	137.838
823.88	175.000
824.18	203.333
824.48	150.000
824.78	196.000
825.08	200.000
825.38	154.054
825.69	148.780
825.99	212.500
826.29	196.552
826.59	171.053
826.89	155.263
827.19	176.471
827.49	187.097
827.79	150.000
828.09	129.545
828.39	138.298
828.70	134.694
829.00	159.259
829.30	154.839
829.60	137.500
829.90	340.000
830.20	185.714
830.50	221.739
830.80	200.000
831.10	223.333
831.40	173.333
831.70	182.609
832.00	261.538
832.30	229.630
832.60	343.750
832.90	210.000
833.20	414.286
833.50	203.226
833.80	168.966
834.10	225.000
834.40	219.231
834.70	244.444
835.00	295.238
835.30	171.429
835.60	376.923
835.90	217.241
836.20	450.000
836.50	182.759
836.80	212.000
837.10	186.111
837.40	223.810
837.70	241.176
838.00	233.333
838.30	290.476
838.60	266.667
838.90	223.077
839.19	320.000
839.49	414.286
839.79	310.000
840.09	285.000
840.39	261.905
840.69	221.739
840.99	244.444
841.29	520.000
841.59	283.333
841.88	325.000
842.18	179.310
842.48	280.952
842.78	170.000
843.08	260.870
843.38	190.625
843.68	916.667
843.97	192.308
844.27	179.310
844.57	266.667
844.87	343.750
845.17	225.926
845.47	1800.000
845.76	488.889
846.06	323.529
846.36	575.000
846.66	442.857
846.96	362.500
847.25	518.182
847.55	400.000
847.85	247.826
848.15	470.000
848.44	364.286
848.74	261.111
849.04	335.294
849.34	540.000
849.63	242.105
849.93	472.727
850.23	1100.000
850.53	400.000
850.82	2200.000
851.12	-3900.000
851.42	4000.000
851.71	280.000
852.01	-1200.000
852.31	258.333
852.61	1633.333
852.90	276.190
853.20	216.000
853.50	317.647
853.79	280.952
854.09	262.500
854.39	337.500
854.68	172.973
854.98	183.871
855.28	190.000
855.57	224.138
855.87	237.037
856.17	242.105
856.46	240.000
856.76	300.000
857.05	220.690
857.35	237.500
857.65	366.667
857.94	286.957
858.24	238.462
858.53	280.000
858.83	272.727
859.13	360.000
859.42	0.000
859.72	622.222
860.01	436.364
860.31	245.455
860.60	257.895
860.90	226.087
861.20	677.778
861.49	533.333
861.79	-5000.000
862.08	737.500
862.38	290.476
862.67	392.308
862.97	335.294
863.26	500.000
863.56	294.444
863.85	375.000
864.15	587.500
864.44	333.333
864.74	933.333
865.03	725.000
865.33	357.895
865.62	400.000
865.92	438.462
866.21	391.667
866.51	0.000
866.80	454.545
867.10	1000.000
867.39	515.385
867.69	418.182
867.98	278.947
868.27	527.273
868.57	315.789
868.86	-4700.000
869.16	356.250
869.45	2450.000
869.75	-4800.000
870.04	450.000
870.33	828.571
870.63	1075.000
870.92	2200.000
871.22	814.286
871.51	323.529
871.80	214.286
872.10	414.286
>>>>>End Processed Spectral Data<<<<<
