SpectraSuite Data File
++++++++++++++++++++++++++++++++++++
Date: Tue May 12 19:53:27 PDT 2015
User: schluterlab
Dark Spectrum Present: Yes
Reference Spectrum Present: Yes
Number of Sampled Component Spectra: 1
Spectrometers: USB2E3373
Integration Time (usec): 3000 (USB2E3373)
Spectra Averaged: 3 (USB2E3373)
Boxcar Smoothing: 0 (USB2E3373)
Correct for Electrical Dark: No (USB2E3373)
Strobe/Lamp Enabled: No (USB2E3373)
Correct for Detector Non-linearity: No (USB2E3373)
Correct for Stray Light: No (USB2E3373)
Number of Pixels in Processed Spectrum: 2048
>>>>>Begin Processed Spectral Data<<<<<
178.53	0.000
178.91	-180.000
179.29	-300.000
179.67	700.000
180.04	0.000
180.42	-580.000
180.80	-533.333
181.18	1200.000
181.56	-600.000
181.94	533.333
182.31	2300.000
182.69	-114.286
183.07	0.000
183.45	233.333
183.83	460.000
184.20	233.333
184.58	950.000
184.96	466.667
185.34	-533.333
185.72	-64.286
186.09	-300.000
186.47	-1900.000
186.85	-260.000
187.23	233.333
187.61	-200.000
187.98	-360.000
188.36	800.000
188.74	-175.000
189.12	-133.333
189.49	-70.000
189.87	550.000
190.25	311.111
190.63	900.000
191.00	440.000
191.38	-633.333
191.76	600.000
192.14	-242.857
192.51	-110.000
192.89	-400.000
193.27	-240.000
193.65	-566.667
194.02	-300.000
194.40	1100.000
194.78	-212.500
195.15	-285.714
195.53	366.667
195.91	480.000
196.29	-675.000
196.66	-466.667
197.04	-328.571
197.42	400.000
197.79	-212.500
198.17	-100.000
198.55	-700.000
198.92	-177.778
199.30	550.000
199.68	-250.000
200.05	-900.000
200.43	-83.333
200.81	-183.333
201.18	516.667
201.56	-950.000
201.94	-1900.000
202.31	-141.667
202.69	-111.111
203.07	-216.667
203.44	-575.000
203.82	0.000
204.19	362.500
204.57	-966.667
204.95	236.364
205.32	480.000
205.70	575.000
206.08	-2400.000
206.45	-300.000
206.83	2100.000
207.20	-233.333
207.58	-115.385
207.96	500.000
208.33	900.000
208.71	400.000
209.08	800.000
209.46	-100.000
209.84	933.333
210.21	-866.667
210.59	700.000
210.96	311.111
211.34	-400.000
211.71	1000.000
212.09	-220.000
212.46	-212.500
212.84	-250.000
213.22	142.857
213.59	-225.000
213.97	0.000
214.34	-550.000
214.72	-2300.000
215.09	1300.000
215.47	-120.000
215.84	-75.000
216.22	-2300.000
216.59	2300.000
216.97	-133.333
217.34	-150.000
217.72	-5.556
218.09	650.000
218.47	-36.842
218.84	-237.500
219.22	-114.286
219.59	-200.000
219.97	-150.000
220.34	350.000
220.72	172.727
221.09	-1050.000
221.47	0.000
221.84	700.000
222.22	-525.000
222.59	-750.000
222.97	-34.783
223.34	200.000
223.72	314.286
224.09	-333.333
224.46	223.077
224.84	-60.000
225.21	-850.000
225.59	-425.000
225.96	45.000
226.34	416.667
226.71	310.000
227.08	-107.692
227.46	-228.571
227.83	-125.000
228.21	-1350.000
228.58	383.333
228.95	-68.421
229.33	-31.250
229.70	-316.667
230.08	-100.000
230.45	-600.000
230.82	-1900.000
231.20	-57.143
231.57	-180.000
231.95	-766.667
232.32	111.111
232.69	-900.000
233.07	-6.250
233.44	-262.500
233.81	-3.226
234.19	-460.000
234.56	-72.222
234.93	-483.333
235.31	-33.333
235.68	-74.074
236.05	-30.769
236.43	-105.263
236.80	-122.727
237.17	-114.286
237.55	-160.000
237.92	-23.256
238.29	-41.935
238.67	-64.286
239.04	-14.286
239.41	-7.843
239.79	-4.000
240.16	-32.500
240.53	0.000
240.91	-5.479
241.28	-22.535
241.65	-9.375
242.02	-19.298
242.40	-24.000
242.77	-8.421
243.14	-10.588
243.51	-5.376
243.89	-17.143
244.26	-6.481
244.63	-13.265
245.00	-8.929
245.38	-3.361
245.75	-7.627
246.12	1.562
246.49	-9.600
246.87	-13.115
247.24	-12.676
247.61	-1.325
247.98	0.562
248.36	-1.258
248.73	-4.545
249.10	-5.000
249.47	-2.083
249.84	3.553
250.22	-4.688
250.59	-5.618
250.96	3.636
251.33	3.774
251.70	3.211
252.08	1.299
252.45	0.408
252.82	-3.797
253.19	1.946
253.56	1.961
253.94	1.220
254.31	1.799
254.68	-2.083
255.05	4.305
255.42	1.091
255.79	9.603
256.16	1.042
256.54	6.061
256.91	3.526
257.28	0.325
257.65	0.656
258.02	1.802
258.39	6.042
258.76	5.199
259.14	-0.882
259.51	4.789
259.88	2.882
260.25	-0.568
260.62	0.000
260.99	3.343
261.36	-0.575
261.73	5.333
262.10	1.090
262.47	0.000
262.85	5.656
263.22	0.000
263.59	4.290
263.96	1.044
264.33	-2.965
264.70	2.211
265.07	2.956
265.44	3.279
265.81	5.301
266.18	0.937
266.55	2.381
266.92	4.464
267.29	3.333
267.66	1.818
268.03	3.011
268.40	0.686
268.77	2.004
269.14	1.681
269.51	2.036
269.88	6.197
270.25	3.586
270.62	4.412
270.99	3.789
271.36	1.987
271.73	3.333
272.10	4.979
272.47	2.400
272.84	1.062
273.21	3.132
273.58	3.673
273.95	3.386
274.32	4.642
274.69	4.892
275.06	5.066
275.43	3.000
275.80	5.736
276.17	3.557
276.54	4.563
276.91	2.879
277.28	3.095
277.65	3.403
278.02	0.568
278.39	5.808
278.76	2.980
279.13	6.261
279.50	5.235
279.87	2.075
280.23	6.011
280.60	3.180
280.97	4.218
281.34	4.407
281.71	2.842
282.08	2.147
282.45	1.411
282.82	5.051
283.19	4.545
283.56	4.437
283.92	4.423
284.29	4.569
284.66	3.540
285.03	1.544
285.40	3.333
285.77	4.762
286.14	3.170
286.51	3.215
286.87	4.862
287.24	2.724
287.61	5.093
287.98	7.512
288.35	4.806
288.72	3.364
289.08	3.459
289.45	4.368
289.82	4.193
290.19	2.424
290.56	4.776
290.93	3.102
291.29	5.106
291.66	5.899
292.03	6.743
292.40	4.173
292.77	1.895
293.13	3.377
293.50	4.132
293.87	3.051
294.24	4.073
294.60	5.055
294.97	4.986
295.34	2.877
295.71	4.577
296.08	3.279
296.44	5.402
296.81	3.105
297.18	4.269
297.55	3.518
297.91	4.822
298.28	2.813
298.65	4.657
299.02	4.809
299.38	2.934
299.75	2.703
300.12	4.796
300.48	5.047
300.85	4.279
301.22	2.644
301.59	3.163
301.95	5.122
302.32	2.795
302.69	3.567
303.05	2.479
303.42	4.589
303.79	2.921
304.15	3.398
304.52	3.799
304.89	2.706
305.25	3.555
305.62	3.977
305.99	3.135
306.35	4.586
306.72	5.556
307.09	2.829
307.45	3.668
307.82	4.162
308.19	3.300
308.55	5.063
308.92	3.496
309.29	4.707
309.65	4.231
310.02	3.983
310.38	4.904
310.75	4.406
311.12	4.171
311.48	5.858
311.85	4.559
312.22	5.475
312.58	5.639
312.95	7.187
313.31	5.998
313.68	5.859
314.05	6.852
314.41	6.680
314.78	6.432
315.14	7.248
315.51	6.852
315.87	8.496
316.24	8.506
316.61	9.515
316.97	8.431
317.34	9.569
317.70	8.870
318.07	9.450
318.43	9.924
318.80	10.109
319.16	9.506
319.53	12.547
319.89	11.837
320.26	12.783
320.62	14.147
320.99	15.408
321.35	14.723
321.72	16.061
322.08	16.832
322.45	14.990
322.81	18.128
323.18	18.888
323.54	19.621
323.91	19.639
324.27	20.251
324.64	20.431
325.00	22.839
325.37	24.910
325.73	23.905
326.10	25.131
326.46	26.836
326.83	27.529
327.19	28.384
327.56	29.531
327.92	28.819
328.29	30.197
328.65	31.638
329.01	32.385
329.38	32.323
329.74	33.798
330.11	33.924
330.47	34.078
330.84	34.211
331.20	35.120
331.56	35.283
331.93	36.962
332.29	37.650
332.66	37.342
333.02	37.047
333.38	38.051
333.75	37.969
334.11	36.618
334.48	38.014
334.84	40.000
335.20	37.780
335.57	40.509
335.93	41.395
336.29	39.122
336.66	40.528
337.02	40.888
337.38	40.755
337.75	42.636
338.11	41.841
338.47	40.669
338.84	40.516
339.20	42.621
339.56	43.057
339.93	41.441
340.29	41.704
340.65	42.283
341.02	42.073
341.38	42.542
341.74	44.306
342.11	42.175
342.47	42.483
342.83	43.192
343.20	42.617
343.56	43.881
343.92	42.607
344.28	43.739
344.65	43.836
345.01	43.815
345.37	43.675
345.73	43.325
346.10	44.166
346.46	42.450
346.82	43.585
347.19	43.902
347.55	43.878
347.91	42.998
348.27	43.724
348.63	44.339
349.00	45.910
349.36	44.353
349.72	44.745
350.08	44.681
350.45	45.240
350.81	44.178
351.17	44.069
351.53	42.834
351.89	45.682
352.26	43.984
352.62	46.443
352.98	45.858
353.34	45.196
353.70	43.868
354.07	45.387
354.43	45.409
354.79	46.393
355.15	44.633
355.51	44.906
355.87	45.712
356.24	47.059
356.60	46.244
356.96	44.471
357.32	47.819
357.68	46.698
358.04	47.164
358.40	48.036
358.77	45.783
359.13	46.667
359.49	46.240
359.85	47.082
360.21	46.312
360.57	47.608
360.93	47.981
361.29	48.131
361.66	47.003
362.02	48.116
362.38	47.786
362.74	47.809
363.10	47.813
363.46	48.382
363.82	49.311
364.18	48.145
364.54	47.023
364.90	48.296
365.26	47.988
365.62	49.508
365.98	49.100
366.35	50.076
366.71	48.469
367.07	48.635
367.43	47.004
367.79	48.619
368.15	48.110
368.51	49.438
368.87	50.147
369.23	49.735
369.59	49.779
369.95	47.541
370.31	49.242
370.67	49.774
371.03	50.464
371.39	49.320
371.75	47.994
372.11	47.481
372.47	49.592
372.83	50.183
373.19	48.870
373.55	49.551
373.91	50.606
374.27	52.539
374.63	50.000
374.99	50.000
375.35	50.145
375.71	50.574
376.07	50.035
376.42	50.622
376.78	51.220
377.14	50.838
377.50	50.684
377.86	50.627
378.22	50.859
378.58	50.855
378.94	52.325
379.30	50.901
379.66	49.424
380.02	51.812
380.38	51.399
380.74	51.025
381.09	51.271
381.45	50.603
381.81	51.977
382.17	50.945
382.53	51.348
382.89	51.315
383.25	51.046
383.61	51.240
383.97	50.877
384.32	51.032
384.68	51.596
385.04	50.223
385.40	50.351
385.76	50.158
386.12	50.825
386.48	50.424
386.83	52.074
387.19	51.341
387.55	51.295
387.91	50.592
388.27	50.672
388.62	51.490
388.98	51.908
389.34	50.683
389.70	50.513
390.06	51.353
390.42	51.927
390.77	52.180
391.13	51.074
391.49	52.426
391.85	51.630
392.20	52.871
392.56	49.771
392.92	50.897
393.28	50.748
393.64	50.538
393.99	51.364
394.35	51.655
394.71	50.993
395.07	50.597
395.42	49.841
395.78	50.336
396.14	50.500
396.50	51.552
396.85	50.562
397.21	48.965
397.57	50.296
397.92	51.272
398.28	50.540
398.64	49.968
399.00	50.725
399.35	50.234
399.71	49.940
400.07	50.093
400.42	49.872
400.78	50.736
401.14	50.126
401.49	50.219
401.85	50.540
402.21	50.698
402.57	49.324
402.92	50.730
403.28	48.895
403.63	50.128
403.99	49.802
404.35	48.981
404.70	49.335
405.06	49.969
405.42	49.057
405.77	48.930
406.13	47.969
406.49	49.211
406.84	48.817
407.20	49.504
407.55	49.833
407.91	47.902
408.27	48.936
408.62	49.003
408.98	49.035
409.34	49.104
409.69	47.759
410.05	48.316
410.40	48.041
410.76	48.817
411.11	47.576
411.47	48.027
411.83	48.422
412.18	48.495
412.54	48.124
412.89	47.085
413.25	47.712
413.60	48.151
413.96	47.638
414.31	47.674
414.67	49.088
415.03	48.479
415.38	49.164
415.74	47.884
416.09	47.967
416.45	47.841
416.80	47.079
417.16	47.391
417.51	48.161
417.87	48.632
418.22	48.463
418.58	48.721
418.93	48.485
419.29	49.322
419.64	50.412
420.00	48.527
420.35	48.525
420.71	49.296
421.06	48.670
421.42	48.243
421.77	50.244
422.12	47.608
422.48	48.886
422.83	49.058
423.19	48.412
423.54	49.053
423.90	49.691
424.25	50.997
424.61	50.903
424.96	49.570
425.31	50.060
425.67	49.879
426.02	49.627
426.38	49.356
426.73	48.972
427.09	50.952
427.44	49.630
427.79	50.309
428.15	48.827
428.50	50.000
428.85	49.968
429.21	51.166
429.56	50.221
429.92	50.568
430.27	49.760
430.62	49.540
430.98	48.845
431.33	50.556
431.68	50.274
432.04	51.956
432.39	49.851
432.74	49.209
433.10	50.334
433.45	51.678
433.80	50.000
434.16	50.000
434.51	50.334
434.86	50.453
435.22	49.709
435.57	51.847
435.92	50.155
436.28	49.875
436.63	50.984
436.98	52.346
437.34	52.783
437.69	51.728
438.04	52.043
438.39	51.044
438.75	50.400
439.10	53.274
439.45	52.824
439.81	51.937
440.16	52.010
440.51	50.867
440.86	52.210
441.22	51.757
441.57	51.111
441.92	51.739
442.27	52.400
442.63	52.088
442.98	53.484
443.33	52.585
443.68	52.690
444.03	53.041
444.39	52.264
444.74	52.261
445.09	54.664
445.44	52.362
445.79	53.236
446.15	53.353
446.50	52.921
446.85	52.640
447.20	53.556
447.55	52.531
447.91	52.616
448.26	53.828
448.61	52.931
448.96	53.814
449.31	53.647
449.66	52.542
450.02	52.959
450.37	52.126
450.72	52.543
451.07	53.659
451.42	53.557
451.77	52.459
452.12	53.008
452.47	54.878
452.83	54.172
453.18	53.883
453.53	54.605
453.88	54.244
454.23	52.780
454.58	55.157
454.93	53.338
455.28	54.650
455.63	53.736
455.98	53.299
456.34	52.646
456.69	53.825
457.04	53.084
457.39	52.934
457.74	54.741
458.09	52.085
458.44	52.606
458.79	53.946
459.14	53.488
459.49	53.758
459.84	53.151
460.19	53.033
460.54	53.093
460.89	53.471
461.24	52.468
461.59	53.565
461.94	52.926
462.29	52.820
462.64	53.969
462.99	55.257
463.34	53.919
463.69	54.458
464.04	54.266
464.39	53.312
464.74	52.174
465.09	53.762
465.44	52.789
465.79	53.369
466.14	51.551
466.49	52.885
466.84	52.273
467.19	52.502
467.54	51.127
467.89	52.319
468.24	52.020
468.59	52.683
468.94	53.060
469.29	52.803
469.64	53.902
469.99	53.713
470.34	53.041
470.68	53.000
471.03	52.920
471.38	53.852
471.73	52.616
472.08	53.238
472.43	53.181
472.78	53.807
473.13	54.246
473.48	53.734
473.83	53.038
474.17	53.235
474.52	52.780
474.87	52.273
475.22	54.193
475.57	52.409
475.92	51.848
476.27	52.803
476.61	52.837
476.96	52.638
477.31	52.397
477.66	52.528
478.01	52.796
478.36	52.436
478.70	53.408
479.05	52.989
479.40	52.349
479.75	53.505
480.10	51.948
480.45	53.089
480.79	52.206
481.14	53.242
481.49	52.648
481.84	53.131
482.19	51.707
482.53	51.961
482.88	52.313
483.23	52.010
483.58	51.881
483.92	52.412
484.27	52.517
484.62	51.815
484.97	50.527
485.31	50.503
485.66	48.817
486.01	46.665
486.36	47.746
486.70	48.570
487.05	50.091
487.40	49.311
487.75	49.356
488.09	49.091
488.44	48.409
488.79	49.732
489.13	50.333
489.48	49.867
489.83	50.254
490.17	51.289
490.52	51.099
490.87	51.682
491.22	50.789
491.56	50.939
491.91	51.104
492.26	53.085
492.60	51.837
492.95	51.848
493.30	52.588
493.64	51.014
493.99	51.951
494.34	51.445
494.68	51.586
495.03	51.775
495.37	51.343
495.72	52.057
496.07	50.507
496.41	50.543
496.76	50.430
497.11	51.649
497.45	51.783
497.80	51.298
498.14	52.904
498.49	52.216
498.84	50.734
499.18	50.182
499.53	50.415
499.87	51.306
500.22	51.221
500.56	51.701
500.91	51.599
501.26	50.604
501.60	50.714
501.95	50.512
502.29	49.564
502.64	50.274
502.98	49.571
503.33	49.126
503.67	49.770
504.02	50.766
504.36	49.307
504.71	50.426
505.06	51.205
505.40	51.635
505.75	50.290
506.09	50.813
506.44	50.429
506.78	49.304
507.13	49.511
507.47	50.803
507.82	50.167
508.16	51.448
508.51	51.204
508.85	51.648
509.19	50.466
509.54	50.878
509.88	50.173
510.23	49.775
510.57	52.300
510.92	50.454
511.26	50.890
511.61	50.457
511.95	49.855
512.30	50.725
512.64	50.616
512.98	51.388
513.33	50.469
513.67	49.162
514.02	51.322
514.36	50.712
514.70	50.577
515.05	50.549
515.39	52.509
515.74	51.880
516.08	50.471
516.42	50.404
516.77	50.870
517.11	50.765
517.46	50.906
517.80	52.904
518.14	50.221
518.49	51.940
518.83	51.816
519.17	51.735
519.52	51.468
519.86	50.348
520.20	50.382
520.55	51.501
520.89	52.497
521.23	51.369
521.58	50.463
521.92	50.801
522.26	51.753
522.61	51.399
522.95	51.575
523.29	51.484
523.64	51.764
523.98	50.403
524.32	53.064
524.66	53.093
525.01	51.959
525.35	50.410
525.69	50.310
526.04	52.220
526.38	50.925
526.72	51.319
527.06	51.828
527.41	49.823
527.75	51.472
528.09	51.202
528.43	50.177
528.78	50.245
529.12	49.452
529.46	48.970
529.80	50.170
530.15	48.923
530.49	50.279
530.83	51.121
531.17	49.929
531.51	49.964
531.86	50.350
532.20	48.196
532.54	50.144
532.88	49.309
533.22	49.353
533.57	47.448
533.91	50.172
534.25	49.627
534.59	49.312
534.93	47.750
535.27	48.889
535.62	47.468
535.96	47.802
536.30	47.460
536.64	48.569
536.98	48.820
537.32	50.223
537.66	48.314
538.01	50.000
538.35	47.855
538.69	46.851
539.03	47.585
539.37	46.590
539.71	47.681
540.05	47.178
540.39	46.841
540.73	48.645
541.07	48.309
541.42	47.113
541.76	47.410
542.10	46.844
542.44	48.555
542.78	46.554
543.12	46.137
543.46	46.423
543.80	45.533
544.14	47.025
544.48	46.737
544.82	46.132
545.16	46.739
545.50	48.326
545.84	47.184
546.18	47.341
546.52	48.194
546.86	46.748
547.20	46.591
547.54	45.186
547.88	45.655
548.22	44.866
548.56	45.948
548.90	46.035
549.24	46.491
549.58	46.945
549.92	45.865
550.26	46.950
550.60	47.264
550.94	46.111
551.28	46.829
551.62	46.192
551.96	46.326
552.30	46.357
552.64	44.778
552.98	46.508
553.32	45.985
553.66	46.055
554.00	46.023
554.34	46.406
554.68	46.810
555.02	45.873
555.36	45.195
555.69	44.427
556.03	44.124
556.37	44.036
556.71	44.570
557.05	44.688
557.39	46.506
557.73	44.104
558.07	45.775
558.41	45.571
558.75	46.639
559.08	47.064
559.42	45.234
559.76	46.841
560.10	45.477
560.44	44.260
560.78	45.755
561.12	44.102
561.45	44.717
561.79	43.392
562.13	44.848
562.47	44.801
562.81	43.973
563.15	44.030
563.48	43.521
563.82	43.886
564.16	43.106
564.50	43.338
564.84	42.807
565.17	42.990
565.51	42.998
565.85	42.817
566.19	44.259
566.52	42.939
566.86	43.033
567.20	42.315
567.54	42.821
567.88	41.080
568.21	41.618
568.55	40.860
568.89	40.934
569.23	40.161
569.56	39.586
569.90	40.343
570.24	38.140
570.57	38.262
570.91	38.064
571.25	38.258
571.59	37.574
571.92	36.496
572.26	36.594
572.60	36.883
572.93	35.953
573.27	35.075
573.61	36.119
573.95	35.050
574.28	35.062
574.62	34.794
574.96	34.654
575.29	34.435
575.63	34.374
575.97	34.733
576.30	35.078
576.64	34.702
576.98	34.302
577.31	34.925
577.65	34.675
577.98	34.257
578.32	34.263
578.66	34.333
578.99	34.645
579.33	34.186
579.67	34.298
580.00	33.853
580.34	34.240
580.67	34.537
581.01	34.421
581.35	33.416
581.68	33.868
582.02	33.409
582.35	33.541
582.69	33.656
583.02	33.513
583.36	33.742
583.70	33.917
584.03	34.196
584.37	34.456
584.70	33.759
585.04	33.405
585.37	33.734
585.71	33.736
586.04	34.024
586.38	33.914
586.72	34.177
587.05	34.487
587.39	34.051
587.72	33.231
588.06	33.838
588.39	33.450
588.73	34.104
589.06	34.926
589.40	35.093
589.73	35.639
590.07	34.804
590.40	34.717
590.73	35.402
591.07	35.455
591.40	35.176
591.74	36.194
592.07	35.626
592.41	35.942
592.74	35.705
593.08	34.560
593.41	33.665
593.75	33.873
594.08	34.036
594.41	35.004
594.75	34.143
595.08	35.099
595.42	34.059
595.75	34.470
596.09	34.908
596.42	34.419
596.75	35.455
597.09	34.422
597.42	34.350
597.75	35.553
598.09	34.551
598.42	35.069
598.76	33.834
599.09	33.866
599.42	33.556
599.76	33.229
600.09	33.966
600.42	33.320
600.76	33.372
601.09	33.961
601.42	33.333
601.76	33.523
602.09	33.599
602.42	33.912
602.76	34.729
603.09	33.551
603.42	33.433
603.76	33.949
604.09	33.542
604.42	34.307
604.76	34.368
605.09	34.152
605.42	34.265
605.75	33.897
606.09	34.711
606.42	33.246
606.75	34.014
607.09	34.515
607.42	33.777
607.75	33.838
608.08	33.255
608.42	33.414
608.75	34.517
609.08	33.014
609.41	34.474
609.75	34.281
610.08	33.643
610.41	33.486
610.74	33.771
611.07	34.109
611.41	33.565
611.74	34.657
612.07	33.594
612.40	33.816
612.73	34.896
613.07	34.880
613.40	33.410
613.73	33.849
614.06	32.670
614.39	33.392
614.72	33.884
615.06	34.271
615.39	33.834
615.72	33.315
616.05	33.217
616.38	34.579
616.71	33.955
617.05	34.548
617.38	34.516
617.71	34.357
618.04	35.217
618.37	34.336
618.70	35.598
619.03	36.258
619.36	35.052
619.69	34.837
620.03	33.944
620.36	34.467
620.69	34.442
621.02	35.392
621.35	35.489
621.68	36.814
622.01	37.166
622.34	35.846
622.67	35.666
623.00	35.545
623.33	35.591
623.66	35.299
623.99	36.124
624.32	34.472
624.65	34.688
624.99	34.531
625.32	35.861
625.65	35.709
625.98	36.583
626.31	34.459
626.64	36.667
626.97	37.592
627.30	36.204
627.63	37.209
627.96	36.872
628.29	36.042
628.62	36.186
628.95	37.698
629.28	37.087
629.61	37.513
629.94	37.448
630.26	36.506
630.59	38.325
630.92	36.670
631.25	37.318
631.58	38.837
631.91	36.105
632.24	37.396
632.57	38.644
632.90	39.483
633.23	39.613
633.56	39.371
633.89	39.974
634.22	38.846
634.55	39.816
634.88	40.562
635.20	40.685
635.53	40.922
635.86	39.946
636.19	39.973
636.52	40.701
636.85	37.158
637.18	37.435
637.51	37.398
637.83	38.827
638.16	38.834
638.49	38.617
638.82	38.678
639.15	37.857
639.48	39.884
639.81	39.493
640.13	40.429
640.46	38.583
640.79	37.984
641.12	41.860
641.45	39.191
641.77	39.331
642.10	39.902
642.43	39.731
642.76	43.011
643.09	40.657
643.41	41.039
643.74	39.062
644.07	39.506
644.40	40.072
644.73	40.331
645.05	40.458
645.38	40.769
645.71	39.504
646.04	42.565
646.36	41.667
646.69	41.779
647.02	40.625
647.35	42.000
647.67	43.487
648.00	42.913
648.33	43.931
648.66	38.961
648.98	38.475
649.31	39.071
649.64	38.898
649.96	34.966
650.29	35.752
650.62	38.776
650.94	41.035
651.27	35.067
651.60	38.815
651.92	37.023
652.25	37.476
652.58	38.779
652.90	34.520
653.23	36.746
653.56	36.285
653.88	37.774
654.21	37.429
654.54	38.462
654.86	39.388
655.19	36.935
655.52	34.298
655.84	27.190
656.17	25.962
656.49	34.925
656.82	39.765
657.15	32.150
657.47	24.110
657.80	17.782
658.13	14.893
658.45	24.693
658.78	24.859
659.10	24.647
659.43	25.294
659.75	25.046
660.08	26.606
660.41	28.036
660.73	30.748
661.06	33.091
661.38	37.097
661.71	37.199
662.03	37.963
662.36	35.800
662.68	39.329
663.01	40.144
663.33	40.566
663.66	39.713
663.98	42.543
664.31	39.512
664.63	37.385
664.96	37.767
665.28	37.589
665.61	37.850
665.93	37.327
666.26	37.086
666.58	38.532
666.91	36.768
667.23	39.409
667.56	38.025
667.88	37.845
668.21	38.832
668.53	41.624
668.86	36.224
669.18	37.056
669.50	41.388
669.83	38.000
670.15	37.250
670.48	37.594
670.80	37.817
671.13	35.663
671.45	36.224
671.77	37.440
672.10	36.923
672.42	33.068
672.75	32.621
673.07	34.019
673.39	35.409
673.72	33.471
674.04	35.745
674.37	35.335
674.69	37.383
675.01	38.140
675.34	37.255
675.66	33.095
675.98	35.606
676.31	35.516
676.63	33.247
676.95	36.930
677.28	33.416
677.60	38.346
677.92	37.093
678.25	34.339
678.57	35.035
678.89	36.009
679.22	34.404
679.54	33.853
679.86	33.405
680.18	33.682
680.51	31.828
680.83	34.167
681.15	35.294
681.48	30.851
681.80	32.174
682.12	33.833
682.44	31.034
682.77	33.864
683.09	37.990
683.41	36.090
683.73	35.176
684.06	36.294
684.38	33.813
684.70	34.642
685.02	32.251
685.34	27.406
685.67	31.423
685.99	33.134
686.31	33.022
686.63	32.427
686.96	31.301
687.28	32.033
687.60	34.292
687.92	27.637
688.24	27.579
688.56	31.429
688.89	32.420
689.21	31.860
689.53	32.225
689.85	34.177
690.17	34.804
690.49	31.294
690.82	30.467
691.14	36.031
691.46	33.000
691.78	29.665
692.10	32.110
692.42	30.963
692.74	33.412
693.06	32.530
693.39	29.064
693.71	33.488
694.03	29.227
694.35	30.446
694.67	33.333
694.99	30.189
695.31	29.178
695.63	31.351
695.95	32.303
696.27	35.977
696.59	29.970
696.91	32.764
697.23	35.244
697.56	31.088
697.88	32.084
698.20	27.845
698.52	29.808
698.84	28.571
699.16	33.509
699.48	33.770
699.80	31.868
700.12	28.926
700.44	27.434
700.76	31.861
701.08	29.524
701.40	35.197
701.72	36.000
702.04	32.653
702.36	34.754
702.68	32.886
703.00	34.385
703.32	22.754
703.64	32.492
703.96	29.747
704.28	28.873
704.60	35.274
704.91	25.987
705.23	31.930
705.55	33.086
705.87	30.576
706.19	29.482
706.51	28.125
706.83	31.502
707.15	32.881
707.47	29.940
707.79	28.653
708.11	30.688
708.43	27.733
708.74	28.142
709.06	29.448
709.38	26.706
709.70	28.247
710.02	31.119
710.34	27.305
710.66	29.588
710.98	27.972
711.29	29.897
711.61	26.950
711.93	32.959
712.25	31.321
712.57	30.078
712.89	32.245
713.20	31.048
713.52	21.951
713.84	32.482
714.16	30.743
714.48	30.717
714.80	26.599
715.11	29.210
715.43	26.962
715.75	27.719
716.07	24.364
716.39	28.669
716.70	31.200
717.02	28.226
717.34	29.437
717.66	28.636
717.97	23.611
718.29	25.333
718.61	29.279
718.93	28.992
719.24	29.289
719.56	24.107
719.88	27.843
720.20	22.650
720.51	29.825
720.83	26.360
721.15	31.020
721.46	28.692
721.78	30.303
722.10	25.581
722.42	26.522
722.73	20.814
723.05	29.032
723.37	27.149
723.68	28.436
724.00	27.778
724.32	28.505
724.63	30.769
724.95	24.201
725.27	30.516
725.58	22.831
725.90	21.171
726.22	24.891
726.53	23.770
726.85	22.593
727.16	27.935
727.48	30.242
727.80	26.941
728.11	28.444
728.43	24.280
728.74	24.561
729.06	21.834
729.38	28.682
729.69	22.400
730.01	21.757
730.32	20.319
730.64	26.923
730.96	21.236
731.27	25.869
731.59	24.916
731.90	22.039
732.22	27.243
732.53	22.456
732.85	19.366
733.16	29.670
733.48	23.134
733.80	25.455
734.11	21.631
734.43	24.910
734.74	22.741
735.06	25.080
735.37	19.808
735.69	20.423
736.00	23.333
736.32	21.678
736.63	22.593
736.95	22.179
737.26	24.638
737.58	22.263
737.89	23.396
738.21	24.046
738.52	23.770
738.83	25.214
739.15	21.818
739.46	17.117
739.78	20.463
740.09	24.603
740.41	21.212
740.72	19.522
741.04	18.972
741.35	24.215
741.66	23.656
741.98	23.469
742.29	24.870
742.61	21.965
742.92	23.039
743.23	31.343
743.55	20.207
743.86	32.850
744.18	21.000
744.49	16.111
744.80	26.344
745.12	27.179
745.43	22.460
745.74	21.390
746.06	28.736
746.37	25.000
746.68	26.486
747.00	16.575
747.31	28.796
747.62	26.842
747.94	26.887
748.25	26.601
748.56	25.253
748.88	29.508
749.19	23.316
749.50	27.647
749.82	29.500
750.13	23.301
750.44	22.318
750.75	24.800
751.07	18.828
751.38	18.750
751.69	21.032
752.01	23.109
752.32	20.248
752.63	23.581
752.94	18.000
753.26	18.265
753.57	18.009
753.88	19.070
754.19	21.145
754.51	15.481
754.82	19.167
755.13	14.159
755.44	24.675
755.75	25.703
756.07	18.455
756.38	22.176
756.69	20.377
757.00	21.277
757.31	22.491
757.63	22.876
757.94	17.879
758.25	18.452
758.56	20.000
758.87	16.369
759.18	25.857
759.50	23.488
759.81	16.988
760.12	24.911
760.43	20.266
760.74	20.659
761.05	20.513
761.36	21.662
761.67	17.325
761.99	24.415
762.30	18.909
762.61	18.293
762.92	18.667
763.23	21.395
763.54	21.320
763.85	16.742
764.16	18.261
764.47	20.435
764.78	18.548
765.10	13.780
765.41	20.067
765.72	18.060
766.03	20.401
766.34	22.727
766.65	21.094
766.96	18.667
767.27	21.229
767.58	25.157
767.89	19.481
768.20	19.595
768.51	15.517
768.82	12.500
769.13	22.222
769.44	17.453
769.75	13.725
770.06	13.107
770.37	18.085
770.68	10.769
770.99	20.812
771.30	19.588
771.61	13.901
771.92	16.981
772.23	17.308
772.54	15.882
772.85	16.438
773.16	16.774
773.47	22.293
773.78	17.365
774.09	17.763
774.39	16.912
774.70	16.541
775.01	14.615
775.32	17.460
775.63	21.260
775.94	18.868
776.25	14.815
776.56	10.000
776.87	15.385
777.18	25.000
777.48	6.731
777.79	21.296
778.10	17.925
778.41	14.706
778.72	23.585
779.03	15.789
779.34	15.966
779.65	11.972
779.95	21.583
780.26	8.871
780.57	15.942
780.88	12.844
781.19	20.370
781.50	12.295
781.80	12.409
782.11	14.744
782.42	13.103
782.73	23.077
783.04	10.400
783.34	12.800
783.65	16.260
783.96	11.475
784.27	10.084
784.57	1.869
784.88	7.143
785.19	12.371
785.50	12.632
785.81	14.000
786.11	8.911
786.42	-9.412
786.73	6.250
787.04	4.082
787.34	14.815
787.65	21.698
787.96	5.155
788.26	9.901
788.57	9.565
788.88	11.927
789.19	9.917
789.49	13.043
789.80	12.069
790.11	-10.976
790.41	14.607
790.72	3.488
791.03	16.279
791.33	-16.883
791.64	12.195
791.95	10.976
792.25	-19.277
792.56	-11.111
792.87	1.408
793.17	14.458
793.48	17.647
793.79	0.000
794.09	-35.000
794.40	7.609
794.70	15.652
795.01	4.587
795.32	21.260
795.62	3.922
795.93	12.745
796.23	15.152
796.54	6.977
796.85	-7.246
797.15	-10.937
797.46	0.000
797.76	0.000
798.07	3.947
798.37	-1.613
798.68	1.563
798.99	3.077
799.29	-1.515
799.60	-1.449
799.90	30.000
800.21	-7.018
800.51	5.172
800.82	-16.981
801.12	-3.922
801.43	-8.065
801.73	6.452
802.04	8.000
802.34	-3.774
802.65	-28.947
802.95	14.545
803.26	18.868
803.56	-9.836
803.87	8.000
804.17	-7.407
804.48	17.308
804.78	-36.735
805.09	10.638
805.39	11.864
805.70	-8.333
806.00	-5.357
806.30	5.085
806.61	9.231
806.91	-16.923
807.22	-7.895
807.52	1.429
807.83	-3.448
808.13	-3.797
808.43	-14.754
808.74	1.639
809.04	4.054
809.35	-16.667
809.65	-21.429
809.95	0.000
810.26	-22.449
810.56	-7.547
810.86	13.725
811.17	2.703
811.47	-18.519
811.77	3.922
812.08	-9.091
812.38	-54.167
812.69	-7.692
812.99	-7.143
813.29	2.174
813.59	-25.714
813.90	-23.810
814.20	-5.455
814.50	-14.286
814.81	-15.686
815.11	-37.500
815.41	-41.463
815.72	-38.462
816.02	-12.766
816.32	-46.875
816.62	-18.182
816.93	-81.818
817.23	8.108
817.53	-14.706
817.84	7.500
818.14	-41.176
818.44	-25.000
818.74	-71.429
819.04	-34.286
819.35	2.857
819.65	6.818
819.95	-17.949
820.25	-66.667
820.56	-79.310
820.86	-25.000
821.16	-95.652
821.46	-26.190
821.76	-1.852
822.07	-30.435
822.37	-30.612
822.67	-53.488
822.97	-60.870
823.27	-34.615
823.57	11.111
823.88	-10.714
824.18	-12.821
824.48	-39.286
824.78	-6.061
825.08	-133.333
825.38	-12.500
825.69	-88.889
825.99	-55.556
826.29	15.556
826.59	-44.444
826.89	-77.778
827.19	-64.286
827.49	-63.636
827.79	-95.455
828.09	-31.818
828.39	-108.696
828.70	-59.259
829.00	-28.571
829.30	-19.048
829.60	-29.032
829.90	-80.769
830.20	-15.385
830.50	-81.818
830.80	-38.095
831.10	-122.222
831.40	-192.857
831.70	-81.481
832.00	-35.294
832.30	-73.913
832.60	-37.500
832.90	-172.727
833.20	-100.000
833.50	6.250
833.80	-38.462
834.10	28.000
834.40	-58.333
834.70	-77.273
835.00	-38.462
835.30	-45.000
835.60	-160.000
835.90	-85.000
836.20	-114.286
836.50	-95.652
836.80	-72.222
837.10	-113.333
837.40	-200.000
837.70	-34.783
838.00	-142.857
838.30	2300.000
838.60	8.000
838.90	-320.000
839.19	-144.444
839.49	-800.000
839.79	-41.176
840.09	-166.667
840.39	3.571
840.69	-66.667
840.99	-108.333
841.29	-13.793
841.59	-120.000
841.88	-145.455
842.18	-333.333
842.48	-50.000
842.78	7.692
843.08	-94.118
843.38	-95.000
843.68	-46.154
843.97	-88.235
844.27	-140.000
844.57	-8.333
844.87	-127.273
845.17	-57.895
845.47	-177.778
845.76	-27.778
846.06	-90.476
846.36	-92.857
846.66	-200.000
846.96	-95.000
847.25	-600.000
847.55	-237.500
847.85	-86.667
848.15	-400.000
848.44	-78.947
848.74	-86.667
849.04	-26.316
849.34	-433.333
849.63	-316.667
849.93	-58.824
850.23	-200.000
850.53	-566.667
850.82	-100.000
851.12	-222.222
851.42	-71.429
851.71	-340.000
852.01	-28.571
852.31	-600.000
852.61	-123.077
852.90	-540.000
853.20	-222.222
853.50	-200.000
853.79	-230.000
854.09	-135.000
854.39	-73.684
854.68	-115.000
854.98	-500.000
855.28	-66.667
855.57	-178.571
855.87	-63.158
856.17	-150.000
856.46	-38.462
856.76	-126.667
857.05	-100.000
857.35	-70.833
857.65	-55.556
857.94	-137.500
858.24	-78.261
858.53	-140.000
858.83	-566.667
859.13	-163.636
859.42	-250.000
859.72	116.667
860.01	-69.231
860.31	-300.000
860.60	-200.000
860.90	-300.000
861.20	-350.000
861.49	-500.000
861.79	200.000
862.08	-6.452
862.38	-110.526
862.67	-30.769
862.97	-230.000
863.26	-158.333
863.56	-65.217
863.85	-450.000
864.15	-135.714
864.44	-75.000
864.74	-133.333
865.03	-144.444
865.33	-733.333
865.62	-2600.000
865.92	-800.000
866.21	-216.667
866.51	-127.273
866.80	-900.000
867.10	-285.714
867.39	-133.333
867.69	-183.333
867.98	400.000
868.27	-575.000
868.57	775.000
868.86	-80.000
869.16	-84.615
869.45	1500.000
869.75	-266.667
870.04	-175.000
870.33	-35.294
870.63	-185.714
870.92	82.609
871.22	-237.500
871.51	640.000
871.80	-125.000
872.10	-533.333
>>>>>End Processed Spectral Data<<<<<
