SpectraSuite Data File
++++++++++++++++++++++++++++++++++++
Date: Tue May 12 19:38:37 PDT 2015
User: schluterlab
Dark Spectrum Present: Yes
Reference Spectrum Present: Yes
Number of Sampled Component Spectra: 1
Spectrometers: USB2E3373
Integration Time (usec): 3000 (USB2E3373)
Spectra Averaged: 3 (USB2E3373)
Boxcar Smoothing: 0 (USB2E3373)
Correct for Electrical Dark: No (USB2E3373)
Strobe/Lamp Enabled: No (USB2E3373)
Correct for Detector Non-linearity: No (USB2E3373)
Correct for Stray Light: No (USB2E3373)
Number of Pixels in Processed Spectrum: 2048
>>>>>Begin Processed Spectral Data<<<<<
178.53	0.000
178.91	0.000
179.29	-33.333
179.67	233.333
180.04	0.000
180.42	-100.000
180.80	-633.333
181.18	600.000
181.56	-50.000
181.94	100.000
182.31	700.000
182.69	-14.286
183.07	0.000
183.45	166.667
183.83	120.000
184.20	133.333
184.58	700.000
184.96	366.667
185.34	-133.333
185.72	-14.286
186.09	-100.000
186.47	-800.000
186.85	-240.000
187.23	166.667
187.61	-157.143
187.98	40.000
188.36	50.000
188.74	-100.000
189.12	-55.556
189.49	-60.000
189.87	250.000
190.25	77.778
190.63	233.333
191.00	420.000
191.38	-133.333
191.76	420.000
192.14	142.857
192.51	20.000
192.89	-60.000
193.27	-260.000
193.65	-233.333
194.02	16.667
194.40	1300.000
194.78	-75.000
195.15	-200.000
195.53	566.667
195.91	-60.000
196.29	-425.000
196.66	0.000
197.04	-142.857
197.42	220.000
197.79	-200.000
198.17	-16.667
198.55	300.000
198.92	-144.444
199.30	350.000
199.68	-50.000
200.05	-950.000
200.43	11.111
200.81	-75.000
201.18	133.333
201.56	-250.000
201.94	-1300.000
202.31	-41.667
202.69	-66.667
203.07	8.333
203.44	-75.000
203.82	0.000
204.19	287.500
204.57	-500.000
204.95	163.636
205.32	120.000
205.70	100.000
206.08	-200.000
206.45	-80.000
206.83	1500.000
207.20	-133.333
207.58	-7.692
207.96	300.000
208.33	833.333
208.71	100.000
209.08	350.000
209.46	44.444
209.84	500.000
210.21	-500.000
210.59	250.000
210.96	200.000
211.34	-150.000
211.71	950.000
212.09	-160.000
212.46	-200.000
212.84	-25.000
213.22	157.143
213.59	-100.000
213.97	0.000
214.34	0.000
214.72	-500.000
215.09	900.000
215.47	46.667
215.84	-12.500
216.22	-1000.000
216.59	100.000
216.97	25.000
217.34	-150.000
217.72	-33.333
218.09	300.000
218.47	-47.368
218.84	-87.500
219.22	-50.000
219.59	-100.000
219.97	-70.000
220.34	100.000
220.72	90.909
221.09	-850.000
221.47	0.000
221.84	150.000
222.22	-25.000
222.59	-300.000
222.97	17.391
223.34	120.000
223.72	128.571
224.09	-50.000
224.46	192.308
224.84	20.000
225.21	-150.000
225.59	-100.000
225.96	0.000
226.34	416.667
226.71	180.000
227.08	0.000
227.46	28.571
227.83	-66.667
228.21	-600.000
228.58	300.000
228.95	-31.579
229.33	18.750
229.70	-150.000
230.08	-100.000
230.45	-466.667
230.82	-1000.000
231.20	14.286
231.57	-240.000
231.95	-300.000
232.32	44.444
232.69	-450.000
233.07	-31.250
233.44	-12.500
233.81	35.484
234.19	-220.000
234.56	-33.333
234.93	-33.333
235.31	22.222
235.68	3.704
236.05	-50.000
236.43	-15.789
236.80	-54.545
237.17	-100.000
237.55	-90.000
237.92	-6.977
238.29	-16.129
238.67	-10.714
239.04	0.000
239.41	0.000
239.79	8.000
240.16	-5.000
240.53	-3.448
240.91	8.219
241.28	-9.859
241.65	20.313
242.02	-8.772
242.40	5.333
242.77	8.421
243.14	12.941
243.51	-5.376
243.89	-0.952
244.26	6.481
244.63	6.122
245.00	2.679
245.38	-7.563
245.75	3.390
246.12	0.000
246.49	6.400
246.87	0.000
247.24	2.113
247.61	4.636
247.98	8.427
248.36	1.887
248.73	5.114
249.10	10.556
249.47	4.688
249.84	3.553
250.22	5.208
250.59	1.124
250.96	7.273
251.33	8.962
251.70	5.046
252.08	8.225
252.45	6.531
252.82	2.954
253.19	7.393
253.56	9.412
253.94	8.537
254.31	7.194
254.68	9.028
255.05	10.265
255.42	8.364
255.79	8.609
256.16	10.417
256.54	10.606
256.91	13.462
257.28	9.091
257.65	6.557
258.02	10.811
258.39	12.387
258.76	9.786
259.14	9.118
259.51	12.394
259.88	11.527
260.25	7.386
260.62	7.584
260.99	7.242
261.36	6.897
261.73	13.600
262.10	9.537
262.47	11.295
262.85	11.054
263.22	8.871
263.59	11.796
263.96	10.183
264.33	4.313
264.70	8.354
265.07	8.621
265.44	11.007
265.81	11.807
266.18	9.368
266.55	10.714
266.92	12.054
267.29	7.333
267.66	8.864
268.03	12.473
268.40	6.407
268.77	8.463
269.14	9.874
269.51	9.050
269.88	7.692
270.25	7.806
270.62	9.454
270.99	7.579
271.36	9.934
271.73	10.417
272.10	8.714
272.47	7.800
272.84	7.643
273.21	6.054
273.58	7.551
273.95	11.753
274.32	9.671
274.69	11.546
275.06	11.257
275.43	7.800
275.80	11.281
276.17	7.708
276.54	10.837
276.91	11.132
277.28	9.478
277.65	7.750
278.02	10.985
278.39	12.341
278.76	9.125
279.13	12.701
279.50	9.386
279.87	9.811
280.23	10.018
280.60	9.187
280.97	10.369
281.34	8.305
281.71	6.394
282.08	8.408
282.45	7.584
282.82	9.091
283.19	8.418
283.56	10.580
283.92	10.111
284.29	12.183
284.66	6.903
285.03	6.346
285.40	11.167
285.77	11.002
286.14	9.826
286.51	8.199
286.87	9.724
287.24	8.173
287.61	7.716
287.98	11.894
288.35	9.302
288.72	8.716
289.08	7.075
289.45	8.112
289.82	7.764
290.19	9.242
290.56	8.973
290.93	8.715
291.29	8.511
291.66	8.427
292.03	9.326
292.40	9.353
292.77	8.163
293.13	8.811
293.50	9.229
293.87	7.628
294.24	9.972
294.60	8.743
294.97	8.864
295.34	6.849
295.71	5.825
296.08	8.333
296.44	8.827
296.81	7.374
297.18	8.409
297.55	7.286
297.91	9.137
298.28	7.673
298.65	7.503
299.02	8.755
299.38	7.526
299.75	7.465
300.12	7.914
300.48	7.864
300.85	6.968
301.22	8.173
301.59	9.246
301.95	8.537
302.32	8.019
302.69	7.729
303.05	7.438
303.42	7.850
303.79	6.180
304.15	8.154
304.52	8.380
304.89	7.215
305.25	7.798
305.62	7.273
305.99	7.503
306.35	7.494
306.72	7.843
307.09	6.202
307.45	7.551
307.82	7.791
308.19	7.811
308.55	8.333
308.92	6.674
309.29	7.531
309.65	8.875
310.02	7.233
310.38	7.889
310.75	7.172
311.12	7.426
311.48	7.811
311.85	6.687
312.22	6.921
312.58	6.042
312.95	9.138
313.31	7.375
313.68	7.150
314.05	8.441
314.41	7.957
314.78	6.633
315.14	8.423
315.51	8.838
315.87	9.570
316.24	8.803
316.61	9.029
316.97	7.843
317.34	9.378
317.70	8.403
318.07	9.257
318.43	9.074
318.80	10.291
319.16	8.481
319.53	8.774
319.89	9.375
320.26	10.619
320.62	10.853
320.99	10.714
321.35	10.079
321.72	11.212
322.08	11.188
322.45	11.243
322.81	10.542
323.18	11.505
323.54	12.701
323.91	10.721
324.27	11.090
324.64	12.652
325.00	12.011
325.37	11.691
325.73	12.226
326.10	13.135
326.46	13.146
326.83	13.984
327.19	14.585
327.56	14.589
327.92	13.542
328.29	13.351
328.65	14.783
329.01	15.321
329.38	14.692
329.74	16.063
330.11	14.166
330.47	14.804
330.84	15.226
331.20	14.972
331.56	14.245
331.93	15.279
332.29	14.986
332.66	16.184
333.02	15.506
333.38	16.544
333.75	16.285
334.11	16.365
334.48	15.832
334.84	15.775
335.20	15.398
335.57	17.439
335.93	16.651
336.29	17.093
336.66	17.031
337.02	16.319
337.38	16.792
337.75	15.909
338.11	17.958
338.47	17.456
338.84	18.324
339.20	17.324
339.56	16.682
339.93	16.396
340.29	17.588
340.65	17.078
341.02	16.918
341.38	18.270
341.74	17.527
342.11	18.391
342.47	17.657
342.83	17.433
343.20	17.683
343.56	17.832
343.92	17.848
344.28	17.667
344.65	18.921
345.01	18.467
345.37	18.632
345.73	19.208
346.10	18.496
346.46	16.997
346.82	17.502
347.19	17.998
347.55	18.878
347.91	17.609
348.27	18.197
348.63	19.360
349.00	19.783
349.36	19.538
349.72	20.361
350.08	18.494
350.45	19.203
350.81	20.231
351.17	18.451
351.53	19.163
351.89	18.912
352.26	18.537
352.62	19.215
352.98	20.837
353.34	19.298
353.70	18.272
354.07	19.934
354.43	18.865
354.79	20.246
355.15	18.967
355.51	20.375
355.87	19.817
356.24	21.405
356.60	19.616
356.96	20.458
357.32	21.235
357.68	19.968
358.04	19.530
358.40	20.458
358.77	20.803
359.13	20.482
359.49	19.360
359.85	20.703
360.21	20.460
360.57	20.893
360.93	21.298
361.29	20.950
361.66	20.899
362.02	21.115
362.38	21.212
362.74	20.984
363.10	20.814
363.46	21.595
363.82	21.593
364.18	20.742
364.54	20.916
364.90	21.111
365.26	21.982
365.62	20.439
365.98	22.114
366.35	22.088
366.71	21.807
367.07	21.919
367.43	22.094
367.79	20.712
368.15	20.682
368.51	22.921
368.87	21.512
369.23	21.575
369.59	22.279
369.95	21.386
370.31	22.121
370.67	21.955
371.03	22.523
371.39	22.356
371.75	21.694
372.11	21.630
372.47	21.381
372.83	22.133
373.19	22.666
373.55	21.856
373.91	22.652
374.27	23.915
374.63	22.607
374.99	21.742
375.35	21.771
375.71	22.597
376.07	22.332
376.42	22.960
376.78	22.578
377.14	22.556
377.50	22.503
377.86	22.563
378.22	22.457
378.58	24.671
378.94	23.314
379.30	22.973
379.66	22.407
380.02	22.632
380.38	22.328
380.74	23.928
381.09	23.316
381.45	23.429
381.81	23.406
382.17	23.518
382.53	23.734
382.89	23.028
383.25	23.399
383.61	23.013
383.97	24.496
384.32	24.065
384.68	23.499
385.04	21.833
385.40	23.387
385.76	23.656
386.12	23.234
386.48	22.962
386.83	22.910
387.19	24.010
387.55	23.446
387.91	22.991
388.27	23.544
388.62	23.251
388.98	24.300
389.34	23.422
389.70	23.333
390.06	24.026
390.42	23.732
390.77	24.413
391.13	24.073
391.49	23.248
391.85	23.752
392.20	24.422
392.56	23.969
392.92	24.242
393.28	24.417
393.64	24.256
393.99	23.506
394.35	24.594
394.71	23.907
395.07	23.143
395.42	22.857
395.78	23.858
396.14	23.851
396.50	24.709
396.85	22.472
397.21	23.027
397.57	24.292
397.92	24.237
398.28	23.741
398.64	23.937
399.00	24.028
399.35	23.857
399.71	24.012
400.07	23.965
400.42	24.615
400.78	24.120
401.14	24.179
401.49	23.798
401.85	24.254
402.21	24.112
402.57	23.052
402.92	23.772
403.28	23.602
403.63	23.910
403.99	24.042
404.35	23.439
404.70	23.179
405.06	23.931
405.42	23.422
405.77	23.127
406.13	23.596
406.49	23.028
406.84	24.097
407.20	23.110
407.55	23.848
407.91	22.937
408.27	22.274
408.62	22.958
408.98	23.745
409.34	23.367
409.69	22.676
410.05	22.539
410.40	22.351
410.76	23.848
411.11	22.689
411.47	23.810
411.83	22.537
412.18	23.429
412.54	23.221
412.89	23.122
413.25	23.762
413.60	23.023
413.96	22.395
414.31	22.435
414.67	22.822
415.03	23.306
415.38	22.075
415.74	22.968
416.09	22.605
416.45	23.425
416.80	22.670
417.16	22.144
417.51	22.762
417.87	22.914
418.22	22.660
418.58	22.875
418.93	22.179
419.29	22.252
419.64	22.802
420.00	22.659
420.35	22.976
420.71	23.239
421.06	22.907
421.42	22.396
421.77	22.960
422.12	21.973
422.48	22.616
422.83	22.128
423.19	22.412
423.54	21.319
423.90	21.570
424.25	22.659
424.61	22.129
424.96	22.113
425.31	21.981
425.67	21.030
426.02	21.304
426.38	21.557
426.73	21.745
427.09	21.208
427.44	21.358
427.79	21.844
428.15	20.799
428.50	22.236
428.85	21.296
429.21	22.415
429.56	21.436
429.92	21.092
430.27	21.120
430.62	20.660
430.98	21.333
431.33	21.135
431.68	21.280
432.04	21.404
432.39	20.559
432.74	20.999
433.10	21.346
433.45	21.279
433.80	21.548
434.16	21.289
434.51	20.736
434.86	20.665
435.22	20.373
435.57	21.504
435.92	20.372
436.28	20.299
436.63	20.990
436.98	20.679
437.34	22.009
437.69	20.679
438.04	19.591
438.39	20.888
438.75	20.554
439.10	21.488
439.45	21.566
439.81	20.000
440.16	20.284
440.51	20.694
440.86	20.013
441.22	20.965
441.57	20.399
441.92	20.155
442.27	20.343
442.63	20.880
442.98	20.782
443.33	19.683
443.68	20.521
444.03	18.969
444.39	19.833
444.74	19.233
445.09	20.602
445.44	19.534
445.79	19.903
446.15	19.592
446.50	20.069
446.85	19.637
447.20	18.818
447.55	18.906
447.91	19.342
448.26	19.466
448.61	19.577
448.96	20.106
449.31	19.711
449.66	19.673
450.02	18.698
450.37	19.684
450.72	20.227
451.07	18.062
451.42	19.565
451.77	18.726
452.12	18.734
452.47	18.496
452.83	18.742
453.18	19.041
453.53	19.791
453.88	17.869
454.23	18.850
454.58	19.386
454.93	18.120
455.28	18.398
455.63	19.103
455.98	19.162
456.34	18.285
456.69	18.687
457.04	19.619
457.39	18.789
457.74	18.205
458.09	18.233
458.44	18.700
458.79	18.021
459.14	18.426
459.49	18.344
459.84	18.787
460.19	18.949
460.54	17.614
460.89	17.824
461.24	18.052
461.59	18.107
461.94	18.212
462.29	17.920
462.64	18.245
462.99	18.274
463.34	18.462
463.69	18.587
464.04	17.704
464.39	17.942
464.74	17.910
465.09	18.264
465.44	17.457
465.79	17.690
466.14	16.587
466.49	17.728
466.84	16.953
467.19	17.804
467.54	17.440
467.89	17.766
468.24	17.487
468.59	17.212
468.94	17.619
469.29	17.509
469.64	18.089
469.99	18.169
470.34	17.256
470.68	17.692
471.03	17.299
471.38	17.203
471.73	17.151
472.08	17.224
472.43	17.220
472.78	17.186
473.13	17.404
473.48	16.874
473.83	17.371
474.17	16.278
474.52	17.013
474.87	16.982
475.22	16.836
475.57	16.392
475.92	17.055
476.27	16.094
476.61	17.258
476.96	16.775
477.31	15.925
477.66	16.502
478.01	15.774
478.36	16.160
478.70	15.831
479.05	16.019
479.40	15.644
479.75	16.601
480.10	16.288
480.45	16.387
480.79	15.983
481.14	15.814
481.49	15.527
481.84	15.202
482.19	15.073
482.53	16.029
482.88	14.794
483.23	15.025
483.58	15.594
483.92	16.231
484.27	15.537
484.62	16.172
484.97	15.510
485.31	15.313
485.66	14.586
486.01	14.245
486.36	13.943
486.70	14.468
487.05	14.146
487.40	14.123
487.75	14.200
488.09	14.348
488.44	14.816
488.79	14.946
489.13	14.672
489.48	15.371
489.83	15.349
490.17	15.237
490.52	15.201
490.87	15.331
491.22	15.039
491.56	15.613
491.91	15.462
492.26	15.145
492.60	15.663
492.95	15.246
493.30	15.316
493.64	15.061
493.99	15.400
494.34	16.320
494.68	14.965
495.03	14.604
495.37	15.459
495.72	15.243
496.07	15.467
496.41	14.526
496.76	14.852
497.11	15.362
497.45	15.369
497.80	14.901
498.14	14.203
498.49	14.736
498.84	14.780
499.18	14.427
499.53	15.472
499.87	14.900
500.22	14.442
500.56	14.757
500.91	15.364
501.26	14.803
501.60	14.322
501.95	13.920
502.29	14.623
502.64	14.136
502.98	14.336
503.33	14.279
503.67	14.599
504.02	14.198
504.36	14.176
504.71	14.468
505.06	14.033
505.40	16.032
505.75	14.955
506.09	14.410
506.44	15.021
506.78	13.758
507.13	14.658
507.47	14.238
507.82	13.951
508.16	14.143
508.51	15.427
508.85	13.736
509.19	15.085
509.54	15.241
509.88	14.787
510.23	15.225
510.57	13.856
510.92	14.626
511.26	13.785
511.61	14.783
511.95	14.980
512.30	14.725
512.64	13.900
512.98	15.298
513.33	13.306
513.67	13.713
514.02	14.303
514.36	15.125
514.70	15.361
515.05	15.183
515.39	15.182
515.74	14.787
516.08	14.438
516.42	15.227
516.77	14.596
517.11	14.924
517.46	15.365
517.80	15.061
518.14	14.801
518.49	15.071
518.83	14.916
519.17	14.524
519.52	14.491
519.86	16.086
520.20	14.586
520.55	16.188
520.89	15.047
521.23	14.629
521.58	15.741
521.92	15.020
522.26	15.533
522.61	15.700
522.95	15.685
523.29	15.182
523.64	15.129
523.98	15.054
524.32	14.680
524.66	15.908
525.01	15.670
525.35	14.637
525.69	14.453
526.04	15.504
526.38	14.736
526.72	15.694
527.06	14.838
527.41	14.670
527.75	15.004
528.09	14.286
528.43	14.174
528.78	15.024
529.12	13.767
529.46	15.681
529.80	13.615
530.15	14.454
530.49	15.830
530.83	14.317
531.17	14.195
531.51	14.490
531.86	14.986
532.20	14.935
532.54	15.036
532.88	14.618
533.22	13.578
533.57	14.069
533.91	14.659
534.25	14.596
534.59	13.961
534.93	14.641
535.27	14.343
535.62	14.112
535.96	15.213
536.30	14.057
536.64	14.950
536.98	14.676
537.32	14.807
537.66	15.469
538.01	15.243
538.35	15.345
538.69	11.607
539.03	14.203
539.37	13.711
539.71	14.638
540.05	14.038
540.39	14.016
540.73	15.165
541.07	13.456
541.42	14.683
541.76	14.820
542.10	14.849
542.44	14.379
542.78	12.757
543.12	13.718
543.46	14.754
543.80	14.153
544.14	14.194
544.48	13.544
544.82	14.336
545.16	13.478
545.50	14.774
545.84	14.777
546.18	13.633
546.52	14.604
546.86	14.155
547.20	14.318
547.54	13.647
547.88	13.960
548.22	13.713
548.56	13.883
548.90	14.316
549.24	14.766
549.58	13.860
549.92	14.887
550.26	14.981
550.60	14.036
550.94	13.810
551.28	14.553
551.62	15.315
551.96	13.898
552.30	13.798
552.64	13.148
552.98	14.264
553.32	13.864
553.66	14.264
554.00	14.672
554.34	15.234
554.68	13.796
555.02	14.127
555.36	13.423
555.69	12.759
556.03	13.895
556.37	13.653
556.71	14.630
557.05	12.969
557.39	13.574
557.73	15.016
558.07	14.163
558.41	14.206
558.75	14.191
559.08	14.298
559.42	15.217
559.76	13.732
560.10	14.588
560.44	12.985
560.78	13.599
561.12	12.772
561.45	13.021
561.79	12.849
562.13	12.602
562.47	13.991
562.81	14.102
563.15	13.004
563.48	13.708
563.82	14.119
564.16	14.224
564.50	12.751
564.84	13.820
565.17	12.661
565.51	12.667
565.85	14.155
566.19	14.057
566.52	13.262
566.86	13.046
567.20	13.506
567.54	12.125
567.88	12.985
568.21	13.423
568.55	12.281
568.89	12.308
569.23	12.249
569.56	11.632
569.90	12.163
570.24	11.899
570.57	11.964
570.91	12.045
571.25	11.605
571.59	11.475
571.92	10.946
572.26	11.293
572.60	11.674
572.93	11.297
573.27	10.870
573.61	11.328
573.95	11.598
574.28	10.841
574.62	10.876
574.96	10.978
575.29	10.558
575.63	10.755
575.97	10.942
576.30	11.134
576.64	10.639
576.98	10.830
577.31	11.303
577.65	11.071
577.98	10.714
578.32	10.770
578.66	10.783
578.99	10.964
579.33	10.969
579.67	11.242
580.00	10.410
580.34	11.032
580.67	10.707
581.01	10.511
581.35	10.794
581.68	10.391
582.02	10.379
582.35	10.658
582.69	10.553
583.02	10.445
583.36	10.674
583.70	10.905
584.03	10.518
584.37	11.419
584.70	10.667
585.04	10.767
585.37	10.733
585.71	10.297
586.04	10.746
586.38	11.032
586.72	10.774
587.05	10.736
587.39	10.795
587.72	10.809
588.06	10.793
588.39	11.189
588.73	10.775
589.06	10.873
589.40	11.404
589.73	11.182
590.07	10.879
590.40	11.427
590.73	11.537
591.07	10.952
591.40	11.010
591.74	11.521
592.07	11.032
592.41	11.293
592.74	11.206
593.08	11.044
593.41	11.073
593.75	10.785
594.08	11.477
594.41	11.417
594.75	11.276
595.08	10.752
595.42	11.528
595.75	11.439
596.09	11.129
596.42	10.867
596.75	11.864
597.09	10.914
597.42	11.122
597.75	12.008
598.09	12.219
598.42	11.690
598.76	10.929
599.09	11.303
599.42	11.133
599.76	11.299
600.09	11.072
600.42	10.430
600.76	11.047
601.09	11.412
601.42	11.353
601.76	10.795
602.09	11.521
602.42	11.203
602.76	10.864
603.09	11.184
603.42	11.797
603.76	10.449
604.09	11.278
604.42	11.550
604.76	10.589
605.09	10.912
605.42	11.564
605.75	11.238
606.09	11.778
606.42	11.024
606.75	11.323
607.09	11.241
607.42	11.657
607.75	10.927
608.08	11.880
608.42	11.300
608.75	10.755
609.08	10.904
609.41	11.975
609.75	11.427
610.08	10.698
610.41	10.687
610.74	12.032
611.07	11.475
611.41	10.760
611.74	11.480
612.07	11.607
612.40	11.421
612.73	11.748
613.07	12.155
613.40	11.558
613.73	11.512
614.06	11.007
614.39	11.716
614.72	10.449
615.06	12.457
615.39	11.432
615.72	11.086
616.05	11.130
616.38	11.210
616.71	11.194
617.05	11.809
617.38	11.290
617.71	12.345
618.04	11.629
618.37	11.249
618.70	12.636
619.03	12.110
619.36	12.960
619.69	12.053
620.03	12.052
620.36	12.245
620.69	12.343
621.02	11.639
621.35	13.447
621.68	12.691
622.01	13.280
622.34	11.223
622.67	12.816
623.00	12.776
623.33	13.228
623.66	12.988
623.99	12.281
624.32	12.232
624.65	12.656
624.99	10.937
625.32	12.085
625.65	12.490
625.98	12.750
626.31	12.121
626.64	11.802
626.97	12.868
627.30	12.870
627.63	12.558
627.96	13.222
628.29	12.811
628.62	13.299
628.95	13.094
629.28	14.360
629.61	13.166
629.94	14.419
630.26	13.703
630.59	14.660
630.92	13.383
631.25	13.296
631.58	12.674
631.91	12.642
632.24	13.254
632.57	12.604
632.90	15.990
633.23	13.548
633.56	13.585
633.89	14.512
634.22	14.872
634.55	13.798
634.88	14.592
635.20	14.795
635.53	16.480
635.86	16.168
636.19	12.824
636.52	14.420
636.85	13.820
637.18	14.896
637.51	14.634
637.83	15.084
638.16	14.651
638.49	12.968
638.82	16.034
639.15	14.000
639.48	14.119
639.81	14.158
640.13	14.395
640.46	15.276
640.79	13.643
641.12	15.349
641.45	14.619
641.77	15.127
642.10	15.798
642.43	14.815
642.76	14.516
643.09	14.187
643.41	15.233
643.74	14.410
644.07	14.638
644.40	14.621
644.73	14.365
645.05	13.550
645.38	14.808
645.71	15.458
646.04	16.357
646.36	15.152
646.69	18.375
647.02	17.187
647.35	15.200
647.67	18.838
648.00	18.058
648.33	14.066
648.66	14.286
648.98	15.085
649.31	14.286
649.64	15.491
649.96	15.034
650.29	13.982
650.62	13.544
650.94	16.451
651.27	14.258
651.60	13.384
651.92	13.359
652.25	14.723
652.58	14.004
652.90	13.345
653.23	13.528
653.56	13.715
653.88	14.051
654.21	12.476
654.54	13.133
654.86	16.187
655.19	13.710
655.52	12.584
655.84	9.147
656.17	9.216
656.49	12.429
656.82	14.422
657.15	11.608
657.47	8.539
657.80	6.481
658.13	5.391
658.45	9.169
658.78	9.211
659.10	9.174
659.43	9.452
659.75	9.232
660.08	10.813
660.41	11.056
660.73	12.327
661.06	14.000
661.38	17.944
661.71	13.786
662.03	16.204
662.36	14.081
662.68	13.909
663.01	13.462
663.33	16.509
663.66	14.833
663.98	17.848
664.31	15.122
664.63	14.679
664.96	16.627
665.28	12.530
665.61	14.252
665.93	13.825
666.26	15.894
666.58	13.761
666.91	17.799
667.23	14.778
667.56	12.840
667.88	14.787
668.21	14.975
668.53	17.513
668.86	14.541
669.18	13.452
669.50	18.766
669.83	15.500
670.15	16.250
670.48	15.038
670.80	17.005
671.13	15.422
671.45	12.755
671.77	15.217
672.10	12.747
672.42	13.745
672.75	12.621
673.07	13.832
673.39	13.813
673.72	15.702
674.04	13.617
674.37	13.164
674.69	15.421
675.01	16.977
675.34	13.480
675.66	15.000
675.98	13.131
676.31	14.358
676.63	11.856
676.95	14.388
677.28	13.366
677.60	16.541
677.92	18.045
678.25	12.993
678.57	13.225
678.89	11.927
679.22	14.220
679.54	14.922
679.86	14.989
680.18	13.389
680.51	11.499
680.83	12.292
681.15	13.943
681.48	11.702
681.80	12.174
682.12	13.704
682.44	10.129
682.77	15.227
683.09	13.725
683.41	15.288
683.73	16.080
684.06	11.168
684.38	12.710
684.70	16.397
685.02	11.688
685.34	12.134
685.67	14.032
685.99	11.776
686.31	13.619
686.63	12.233
686.96	12.602
687.28	13.963
687.60	13.758
687.92	10.970
688.24	12.421
688.56	13.626
688.89	14.840
689.21	12.326
689.53	12.788
689.85	14.177
690.17	12.255
690.49	16.941
690.82	14.988
691.14	14.883
691.46	11.000
691.78	12.679
692.10	12.156
692.42	14.450
692.74	15.403
693.06	14.217
693.39	12.562
693.71	12.326
694.03	11.111
694.35	13.119
694.67	14.249
694.99	17.520
695.31	13.881
695.63	13.784
695.95	13.202
696.27	11.615
696.59	9.792
696.91	11.111
697.23	14.900
697.56	14.508
697.88	13.349
698.20	10.412
698.52	13.942
698.84	12.281
699.16	16.623
699.48	15.969
699.80	10.989
700.12	12.672
700.44	9.145
700.76	16.404
701.08	12.381
701.40	13.158
701.72	18.667
702.04	12.245
702.36	15.738
702.68	14.765
703.00	13.565
703.32	10.778
703.64	13.565
703.96	12.658
704.28	8.451
704.60	11.986
704.91	12.500
705.23	13.684
705.55	11.524
705.87	12.950
706.19	7.570
706.51	11.719
706.83	11.722
707.15	11.186
707.47	8.683
707.79	12.607
708.11	11.376
708.43	13.867
708.74	13.661
709.06	15.031
709.38	12.760
709.70	12.987
710.02	12.587
710.34	7.447
710.66	15.730
710.98	15.035
711.29	13.058
711.61	11.348
711.93	16.479
712.25	13.585
712.57	11.328
712.89	9.388
713.20	14.113
713.52	9.350
713.84	16.788
714.16	13.514
714.48	15.358
714.80	13.468
715.11	7.216
715.43	10.922
715.75	12.982
716.07	13.091
716.39	16.724
716.70	12.800
717.02	9.274
717.34	12.121
717.66	11.818
717.97	12.963
718.29	14.222
718.61	13.514
718.93	15.126
719.24	12.134
719.56	15.179
719.88	7.451
720.20	6.410
720.51	13.158
720.83	13.389
721.15	11.020
721.46	10.549
721.78	12.987
722.10	14.341
722.42	13.043
722.73	9.050
723.05	15.207
723.37	7.692
723.68	12.796
724.00	17.130
724.32	13.084
724.63	15.837
724.95	15.068
725.27	14.085
725.58	9.589
725.90	9.459
726.22	13.974
726.53	16.803
726.85	13.704
727.16	12.146
727.48	16.532
727.80	11.872
728.11	13.333
728.43	11.523
728.74	10.526
729.06	12.664
729.38	11.628
729.69	12.800
730.01	13.808
730.32	11.155
730.64	13.462
730.96	8.494
731.27	11.969
731.59	12.795
731.90	10.197
732.22	8.970
732.53	9.825
732.85	5.282
733.16	10.623
733.48	10.821
733.80	12.727
734.11	7.447
734.43	7.220
734.74	9.346
735.06	11.897
735.37	8.946
735.69	7.746
736.00	9.630
736.32	13.287
736.63	10.000
736.95	4.280
737.26	9.058
737.58	13.139
737.89	12.830
738.21	10.687
738.52	10.656
738.83	14.103
739.15	13.182
739.46	8.108
739.78	8.494
740.09	5.952
740.41	13.636
740.72	11.952
741.04	8.300
741.35	14.350
741.66	17.204
741.98	11.224
742.29	9.845
742.61	5.202
742.92	11.765
743.23	11.443
743.55	10.363
743.86	14.976
744.18	7.500
744.49	10.000
744.80	11.828
745.12	13.333
745.43	10.160
745.74	8.556
746.06	20.115
746.37	12.222
746.68	13.514
747.00	7.182
747.31	16.754
747.62	15.789
747.94	18.396
748.25	16.256
748.56	13.131
748.88	13.661
749.19	20.725
749.50	12.941
749.82	16.000
750.13	13.592
750.44	9.442
750.75	12.000
751.07	7.531
751.38	6.641
751.69	13.889
752.01	9.244
752.32	9.917
752.63	4.803
752.94	12.800
753.26	11.416
753.57	14.218
753.88	11.628
754.19	7.930
754.51	6.276
754.82	12.083
755.13	8.850
755.44	8.225
755.75	14.859
756.07	11.588
756.38	12.971
756.69	13.208
757.00	13.830
757.31	10.381
757.63	11.765
757.94	9.091
758.25	10.119
758.56	8.649
758.87	8.333
759.18	12.461
759.50	9.253
759.81	11.197
760.12	10.320
760.43	8.638
760.74	12.275
761.05	12.821
761.36	12.463
761.67	9.726
761.99	13.043
762.30	9.455
762.61	12.602
762.92	14.667
763.23	13.023
763.54	11.168
763.85	11.312
764.16	8.261
764.47	10.870
764.78	8.065
765.10	11.024
765.41	11.371
765.72	11.037
766.03	11.371
766.34	15.909
766.65	14.844
766.96	10.667
767.27	15.642
767.58	15.723
767.89	10.390
768.20	5.405
768.51	13.218
768.82	0.625
769.13	14.815
769.44	12.736
769.75	10.294
770.06	8.252
770.37	6.915
770.68	15.897
770.99	12.690
771.30	13.402
771.61	5.381
771.92	15.566
772.23	8.173
772.54	13.529
772.85	1.370
773.16	7.742
773.47	8.917
773.78	14.970
774.09	10.526
774.39	13.971
774.70	9.774
775.01	16.154
775.32	7.937
775.63	15.748
775.94	6.604
776.25	16.296
776.56	2.727
776.87	11.111
777.18	13.000
777.48	4.808
777.79	10.185
778.10	16.981
778.41	15.686
778.72	9.434
779.03	19.298
779.34	13.445
779.65	12.676
779.95	12.230
780.26	12.097
780.57	11.594
780.88	1.835
781.19	4.630
781.50	7.377
781.80	2.920
782.11	6.410
782.42	5.517
782.73	17.483
783.04	1.600
783.34	3.200
783.65	19.512
783.96	-3.279
784.27	5.042
784.57	1.869
784.88	3.571
785.19	4.124
785.50	13.684
785.81	4.000
786.11	3.960
786.42	-16.471
786.73	1.042
787.04	4.082
787.34	20.370
787.65	8.491
787.96	-1.031
788.26	13.861
788.57	9.565
788.88	-11.009
789.19	2.479
789.49	9.565
789.80	12.931
790.11	-1.220
790.41	8.989
790.72	2.326
791.03	10.465
791.33	-2.597
791.64	17.073
791.95	4.878
792.25	0.000
792.56	12.346
792.87	-2.817
793.17	12.048
793.48	3.529
793.79	1.250
794.09	-1.667
794.40	2.174
794.70	1.739
795.01	4.587
795.32	10.236
795.62	10.784
795.93	10.784
796.23	7.071
796.54	-3.488
796.85	0.000
797.15	-7.812
797.46	-16.949
797.76	3.279
798.07	2.632
798.37	-4.839
798.68	4.687
798.99	-1.538
799.29	-15.152
799.60	15.942
799.90	18.571
800.21	5.263
800.51	22.414
800.82	22.642
801.12	3.922
801.43	22.581
801.73	11.290
802.04	6.000
802.34	-1.887
802.65	2.632
802.95	0.000
803.26	26.415
803.56	-8.197
803.87	-2.000
804.17	-11.111
804.48	7.692
804.78	-26.531
805.09	-2.128
805.39	5.085
805.70	-12.500
806.00	-1.786
806.30	-6.780
806.61	6.154
806.91	-7.692
807.22	3.947
807.52	14.286
807.83	-6.897
808.13	17.722
808.43	3.279
808.74	11.475
809.04	25.676
809.35	5.556
809.65	16.071
809.95	6.780
810.26	-12.245
810.56	1.887
810.86	11.765
811.17	8.108
811.47	-22.222
811.77	-5.882
812.08	13.636
812.38	-12.500
812.69	15.385
812.99	0.000
813.29	30.435
813.59	-14.286
813.90	-4.762
814.20	-10.909
814.50	8.163
814.81	-3.922
815.11	-12.500
815.41	0.000
815.72	15.385
816.02	25.532
816.32	28.125
816.62	-6.061
816.93	-42.424
817.23	-24.324
817.53	-26.471
817.84	37.500
818.14	-23.529
818.44	6.250
818.74	-71.429
819.04	2.857
819.35	11.429
819.65	9.091
819.95	30.769
820.25	-77.778
820.56	-41.379
820.86	-25.000
821.16	-8.696
821.46	0.000
821.76	-1.852
822.07	0.000
822.37	-2.041
822.67	-23.256
822.97	4.348
823.27	-3.846
823.57	-25.926
823.88	-35.714
824.18	2.564
824.48	-25.000
824.78	9.091
825.08	-73.333
825.38	2.500
825.69	-66.667
825.99	14.815
826.29	17.778
826.59	-48.148
826.89	-7.407
827.19	3.571
827.49	-27.273
827.79	-100.000
828.09	-31.818
828.39	-65.217
828.70	-18.519
829.00	-3.571
829.30	28.571
829.60	-6.452
829.90	-26.923
830.20	5.128
830.50	-31.818
830.80	0.000
831.10	-72.222
831.40	-57.143
831.70	-3.704
832.00	-17.647
832.30	8.696
832.60	-8.333
832.90	-109.091
833.20	22.222
833.50	12.500
833.80	0.000
834.10	56.000
834.40	-16.667
834.70	-4.545
835.00	-30.769
835.30	-5.000
835.60	-100.000
835.90	-40.000
836.20	-64.286
836.50	8.696
836.80	-22.222
837.10	-26.667
837.40	-70.000
837.70	-13.043
838.00	7.143
838.30	2300.000
838.60	52.000
838.90	-240.000
839.19	-111.111
839.49	-700.000
839.79	-5.882
840.09	-111.111
840.39	3.571
840.69	-22.222
840.99	8.333
841.29	-10.345
841.59	-40.000
841.88	-36.364
842.18	-333.333
842.48	-31.250
842.78	-3.846
843.08	-76.471
843.38	25.000
843.68	-53.846
843.97	-41.176
844.27	-70.000
844.57	0.000
844.87	9.091
845.17	-26.316
845.47	-5.556
845.76	-13.889
846.06	-38.095
846.36	35.714
846.66	-122.222
846.96	-10.000
847.25	-200.000
847.55	-62.500
847.85	20.000
848.15	-150.000
848.44	-63.158
848.74	-73.333
849.04	-15.789
849.34	33.333
849.63	-66.667
849.93	17.647
850.23	-9.091
850.53	-300.000
850.82	20.000
851.12	-133.333
851.42	-42.857
851.71	-40.000
852.01	-42.857
852.31	-200.000
852.61	-61.538
852.90	-200.000
853.20	-133.333
853.50	-133.333
853.79	-60.000
854.09	-60.000
854.39	-68.421
854.68	5.000
854.98	-200.000
855.28	-38.889
855.57	-57.143
855.87	-68.421
856.17	-25.000
856.46	11.538
856.76	-13.333
857.05	-50.000
857.35	4.167
857.65	-77.778
857.94	25.000
858.24	8.696
858.53	-110.000
858.83	-333.333
859.13	-163.636
859.42	-120.000
859.72	183.333
860.01	-15.385
860.31	-20.000
860.60	-100.000
860.90	-175.000
861.20	-150.000
861.49	-75.000
861.79	600.000
862.08	19.355
862.38	15.789
862.67	-15.385
862.97	-170.000
863.26	-116.667
863.56	-21.739
863.85	-133.333
864.15	-71.429
864.44	-6.250
864.74	-66.667
865.03	-11.111
865.33	-133.333
865.62	-1200.000
865.92	-750.000
866.21	-133.333
866.51	-27.273
866.80	-433.333
867.10	-42.857
867.39	66.667
867.69	-150.000
867.98	260.000
868.27	-225.000
868.57	475.000
868.86	-40.000
869.16	15.385
869.45	900.000
869.75	-116.667
870.04	-8.333
870.33	41.176
870.63	-85.714
870.92	91.304
871.22	-125.000
871.51	440.000
871.80	-12.500
872.10	33.333
>>>>>End Processed Spectral Data<<<<<
