SpectraSuite Data File
++++++++++++++++++++++++++++++++++++
Date: Wed May 13 19:21:08 PDT 2015
User: schluterlab
Dark Spectrum Present: Yes
Reference Spectrum Present: Yes
Number of Sampled Component Spectra: 1
Spectrometers: USB2E3373
Integration Time (usec): 3000 (USB2E3373)
Spectra Averaged: 3 (USB2E3373)
Boxcar Smoothing: 0 (USB2E3373)
Correct for Electrical Dark: No (USB2E3373)
Strobe/Lamp Enabled: No (USB2E3373)
Correct for Detector Non-linearity: No (USB2E3373)
Correct for Stray Light: No (USB2E3373)
Number of Pixels in Processed Spectrum: 2048
>>>>>Begin Processed Spectral Data<<<<<
178.53	0.000
178.91	-1575.000
179.29	-1450.000
179.67	-250.000
180.04	-1350.000
180.42	2500.000
180.80	1320.000
181.18	-1000.000
181.56	700.000
181.94	0.000
182.31	-600.000
182.69	1700.000
183.07	-575.000
183.45	-600.000
183.83	654.545
184.20	-560.000
184.58	3150.000
184.96	5000.000
185.34	-920.000
185.72	-687.500
186.09	-2600.000
186.47	2900.000
186.85	2950.000
187.23	5000.000
187.61	-1966.667
187.98	1350.000
188.36	645.455
188.74	509.091
189.12	-1000.000
189.49	630.000
189.87	-5700.000
190.25	-1400.000
190.63	464.286
191.00	469.231
191.38	950.000
191.76	-1375.000
192.14	1325.000
192.51	700.000
192.89	800.000
193.27	750.000
193.65	-1275.000
194.02	670.000
194.40	1100.000
194.78	560.000
195.15	583.333
195.53	690.000
195.91	-2450.000
196.29	356.250
196.66	389.474
197.04	-380.000
197.42	0.000
197.79	650.000
198.17	-5600.000
198.55	657.143
198.92	787.500
199.30	920.000
199.68	0.000
200.05	366.667
200.43	785.714
200.81	5900.000
201.18	1833.333
201.56	-1900.000
201.94	655.556
202.31	600.000
202.69	525.000
203.07	630.000
203.44	0.000
203.82	1400.000
204.19	885.714
204.57	500.000
204.95	837.500
205.32	1500.000
205.70	600.000
206.08	435.714
206.45	2850.000
206.83	425.000
207.20	966.667
207.58	1020.000
207.96	333.333
208.33	762.500
208.71	-800.000
209.08	714.286
209.46	622.222
209.84	518.182
210.21	-1500.000
210.59	1650.000
210.96	-537.500
211.34	3050.000
211.71	650.000
212.09	966.667
212.46	0.000
212.84	1966.667
213.22	1375.000
213.59	-5300.000
213.97	1116.667
214.34	914.286
214.72	645.455
215.09	1080.000
215.47	-2750.000
215.84	-3000.000
216.22	2000.000
216.59	392.857
216.97	1525.000
217.34	509.091
217.72	-850.000
218.09	0.000
218.47	-6000.000
218.84	633.333
219.22	928.571
219.59	1866.667
219.97	-728.571
220.34	1200.000
220.72	-1700.000
221.09	385.714
221.47	1675.000
221.84	-1100.000
222.22	0.000
222.59	1375.000
222.97	-2800.000
223.34	1240.000
223.72	469.231
224.09	1200.000
224.46	2500.000
224.84	-5700.000
225.21	-1140.000
225.59	-5700.000
225.96	610.000
226.34	315.000
226.71	2750.000
227.08	725.000
227.46	630.000
227.83	-1250.000
228.21	-2650.000
228.58	633.333
228.95	-2900.000
229.33	-2450.000
229.70	1900.000
230.08	771.429
230.45	-900.000
230.82	483.333
231.20	916.667
231.57	700.000
231.95	491.667
232.32	263.636
232.69	481.818
233.07	814.286
233.44	438.462
233.81	-1733.333
234.19	342.105
234.56	483.333
234.93	400.000
235.31	572.727
235.68	400.000
236.05	342.857
236.43	187.879
236.80	294.737
237.17	4500.000
237.55	276.190
237.92	221.429
238.29	219.048
238.67	167.742
239.04	213.793
239.41	152.778
239.79	117.391
240.16	145.238
240.53	122.727
240.91	109.804
241.28	108.000
241.65	106.000
242.02	81.159
242.40	80.645
242.77	91.667
243.14	63.441
243.51	79.775
243.89	68.235
244.26	42.222
244.63	54.839
245.00	56.383
245.38	50.495
245.75	49.533
246.12	43.119
246.49	56.934
246.87	56.000
247.24	46.923
247.61	40.714
247.98	37.908
248.36	25.676
248.73	34.395
249.10	34.395
249.47	33.333
249.84	40.107
250.22	29.412
250.59	29.586
250.96	33.333
251.33	32.227
251.70	30.693
252.08	30.000
252.45	24.664
252.82	23.478
253.19	22.979
253.56	24.314
253.94	29.461
254.31	24.609
254.68	27.308
255.05	22.878
255.42	23.984
255.79	20.956
256.16	20.578
256.54	18.728
256.91	23.488
257.28	18.705
257.65	19.472
258.02	20.497
258.39	17.981
258.76	19.064
259.14	19.643
259.51	17.629
259.88	18.634
260.25	17.523
260.62	17.630
260.99	17.081
261.36	20.120
261.73	18.338
262.10	14.826
262.47	17.465
262.85	16.713
263.22	12.821
263.59	16.524
263.96	14.835
264.33	17.755
264.70	14.211
265.07	20.205
265.44	15.404
265.81	13.382
266.18	16.583
266.55	13.171
266.92	12.285
267.29	15.741
267.66	15.138
268.03	14.318
268.40	13.785
268.77	10.979
269.14	12.162
269.51	14.221
269.88	11.422
270.25	14.221
270.62	13.483
270.99	15.914
271.36	13.519
271.73	11.916
272.10	12.391
272.47	13.763
272.84	13.203
273.21	13.417
273.58	12.445
273.95	11.111
274.32	12.190
274.69	12.848
275.06	12.402
275.43	12.340
275.80	11.623
276.17	10.591
276.54	12.890
276.91	10.474
277.28	12.695
277.65	12.766
278.02	10.766
278.39	11.914
278.76	11.818
279.13	12.642
279.50	12.663
279.87	10.956
280.23	10.978
280.60	10.251
280.97	9.612
281.34	10.973
281.71	13.818
282.08	11.324
282.45	10.545
282.82	11.368
283.19	10.160
283.56	9.825
283.92	10.660
284.29	10.406
284.66	9.619
285.03	9.584
285.40	10.035
285.77	10.606
286.14	7.772
286.51	10.167
286.87	13.333
287.24	11.401
287.61	9.149
287.98	9.091
288.35	9.984
288.72	10.592
289.08	10.329
289.45	8.402
289.82	10.081
290.19	8.320
290.56	9.342
290.93	8.912
291.29	9.356
291.66	9.587
292.03	12.500
292.40	10.426
292.77	8.876
293.13	9.403
293.50	9.475
293.87	7.556
294.24	7.556
294.60	8.734
294.97	9.012
295.34	9.309
295.71	8.949
296.08	6.980
296.44	8.803
296.81	7.926
297.18	10.976
297.55	6.596
297.91	6.992
298.28	8.701
298.65	10.052
299.02	7.378
299.38	7.835
299.75	6.739
300.12	7.024
300.48	8.375
300.85	7.398
301.22	7.643
301.59	6.818
301.95	7.305
302.32	8.087
302.69	8.244
303.05	6.424
303.42	6.914
303.79	6.908
304.15	5.944
304.52	4.867
304.89	6.969
305.25	6.265
305.62	6.908
305.99	7.084
306.35	7.271
306.72	7.735
307.09	6.548
307.45	9.234
307.82	6.027
308.19	7.395
308.55	6.904
308.92	6.122
309.29	5.702
309.65	6.045
310.02	5.285
310.38	6.989
310.75	5.913
311.12	6.244
311.48	6.374
311.85	7.338
312.22	5.931
312.58	5.925
312.95	6.547
313.31	5.631
313.68	6.133
314.05	9.073
314.41	7.035
314.78	6.143
315.14	5.263
315.51	6.488
315.87	6.733
316.24	6.157
316.61	5.166
316.97	6.164
317.34	4.795
317.70	6.405
318.07	5.967
318.43	6.556
318.80	5.998
319.16	5.461
319.53	4.878
319.89	6.000
320.26	7.400
320.62	7.341
320.99	6.162
321.35	7.273
321.72	6.468
322.08	5.627
322.45	6.866
322.81	7.171
323.18	6.936
323.54	7.514
323.91	7.642
324.27	6.788
324.64	5.592
325.00	6.402
325.37	6.096
325.73	7.810
326.10	7.149
326.46	5.914
326.83	7.248
327.19	6.832
327.56	6.794
327.92	6.474
328.29	6.389
328.65	7.919
329.01	6.498
329.38	6.475
329.74	7.664
330.11	7.540
330.47	8.081
330.84	8.824
331.20	6.557
331.56	8.716
331.93	6.204
332.29	7.187
332.66	6.637
333.02	7.130
333.38	7.498
333.75	8.556
334.11	7.028
334.48	6.566
334.84	7.996
335.20	7.727
335.57	6.618
335.93	6.161
336.29	7.418
336.66	7.574
337.02	5.882
337.38	6.852
337.75	6.239
338.11	6.356
338.47	6.077
338.84	7.883
339.20	5.596
339.56	7.391
339.93	6.727
340.29	6.431
340.65	6.239
341.02	7.853
341.38	7.384
341.74	6.754
342.11	6.638
342.47	7.137
342.83	7.363
343.20	6.667
343.56	7.414
343.92	5.702
344.28	6.973
344.65	6.191
345.01	6.397
345.37	5.918
345.73	7.191
346.10	6.138
346.46	7.288
346.82	6.425
347.19	5.681
347.55	6.158
347.91	7.039
348.27	7.313
348.63	6.773
349.00	6.472
349.36	6.404
349.72	7.217
350.08	6.402
350.45	7.486
350.81	5.930
351.17	7.455
351.53	6.143
351.89	6.353
352.26	7.182
352.62	6.415
352.98	6.888
353.34	6.245
353.70	5.892
354.07	6.452
354.43	6.190
354.79	6.597
355.15	5.826
355.51	7.674
355.87	6.041
356.24	6.189
356.60	6.014
356.96	7.160
357.32	5.887
357.68	6.929
358.04	7.205
358.40	6.651
358.77	6.260
359.13	5.604
359.49	5.255
359.85	5.238
360.21	5.343
360.57	6.226
360.93	6.000
361.29	6.047
361.66	5.495
362.02	6.642
362.38	5.703
362.74	6.324
363.10	5.255
363.46	5.649
363.82	6.122
364.18	5.947
364.54	6.315
364.90	6.020
365.26	6.029
365.62	6.063
365.98	5.551
366.35	5.587
366.71	5.423
367.07	5.899
367.43	5.733
367.79	7.138
368.15	6.897
368.51	5.741
368.87	5.853
369.23	5.779
369.59	6.445
369.95	5.294
370.31	5.413
370.67	4.783
371.03	5.843
371.39	6.195
371.75	6.471
372.11	5.050
372.47	6.598
372.83	5.476
373.19	5.564
373.55	5.543
373.91	6.627
374.27	5.773
374.63	5.164
374.99	6.073
375.35	5.094
375.71	5.826
376.07	6.790
376.42	5.640
376.78	6.229
377.14	6.038
377.50	6.159
377.86	5.186
378.22	5.626
378.58	4.574
378.94	5.091
379.30	5.471
379.66	5.330
380.02	5.651
380.38	5.707
380.74	6.182
381.09	5.134
381.45	5.347
381.81	6.020
382.17	5.732
382.53	5.472
382.89	5.494
383.25	5.003
383.61	5.514
383.97	6.004
384.32	5.552
384.68	4.709
385.04	5.040
385.40	4.396
385.76	5.405
386.12	5.440
386.48	5.160
386.83	5.131
387.19	5.751
387.55	5.318
387.91	4.958
388.27	5.150
388.62	5.655
388.98	5.160
389.34	6.070
389.70	5.395
390.06	6.591
390.42	5.253
390.77	5.725
391.13	5.169
391.49	5.584
391.85	4.838
392.20	4.732
392.56	5.303
392.92	4.944
393.28	4.260
393.64	5.635
393.99	5.559
394.35	6.141
394.71	4.956
395.07	4.922
395.42	5.439
395.78	5.471
396.14	5.462
396.50	6.203
396.85	5.467
397.21	4.747
397.57	5.332
397.92	6.190
398.28	5.045
398.64	5.615
399.00	4.868
399.35	4.851
399.71	5.440
400.07	5.795
400.42	5.890
400.78	6.092
401.14	4.817
401.49	5.313
401.85	4.779
402.21	5.210
402.57	4.935
402.92	5.296
403.28	5.871
403.63	5.198
403.99	4.650
404.35	5.576
404.70	5.216
405.06	4.776
405.42	4.991
405.77	4.629
406.13	5.079
406.49	5.441
406.84	5.021
407.20	5.615
407.55	5.424
407.91	5.467
408.27	4.084
408.62	5.719
408.98	5.270
409.34	4.305
409.69	5.613
410.05	5.143
410.40	5.627
410.76	5.376
411.11	5.609
411.47	5.048
411.83	5.559
412.18	5.442
412.54	5.479
412.89	5.542
413.25	5.372
413.60	5.683
413.96	5.464
414.31	5.164
414.67	5.703
415.03	5.033
415.38	6.186
415.74	5.595
416.09	5.813
416.45	5.556
416.80	6.015
417.16	5.563
417.51	6.238
417.87	5.652
418.22	5.804
418.58	5.939
418.93	5.713
419.29	5.602
419.64	5.668
420.00	5.976
420.35	5.565
420.71	6.037
421.06	5.131
421.42	4.737
421.77	5.549
422.12	4.380
422.48	3.994
422.83	5.475
423.19	6.243
423.54	5.223
423.90	5.971
424.25	5.416
424.61	5.476
424.96	5.015
425.31	5.371
425.67	5.506
426.02	4.629
426.38	6.227
426.73	5.325
427.09	5.532
427.44	5.060
427.79	5.175
428.15	5.952
428.50	5.442
428.85	5.900
429.21	5.025
429.56	5.132
429.92	4.731
430.27	5.114
430.62	4.403
430.98	5.345
431.33	5.464
431.68	5.183
432.04	5.751
432.39	4.797
432.74	5.805
433.10	5.772
433.45	5.306
433.80	4.712
434.16	5.288
434.51	5.632
434.86	5.416
435.22	5.447
435.57	5.228
435.92	4.857
436.28	5.753
436.63	6.567
436.98	5.152
437.34	5.784
437.69	5.776
438.04	5.677
438.39	6.209
438.75	6.334
439.10	4.749
439.45	5.667
439.81	5.196
440.16	5.703
440.51	5.800
440.86	5.675
441.22	5.451
441.57	5.467
441.92	5.067
442.27	5.382
442.63	5.213
442.98	6.085
443.33	5.761
443.68	5.369
444.03	5.076
444.39	4.869
444.74	5.141
445.09	6.038
445.44	5.741
445.79	5.888
446.15	5.770
446.50	5.600
446.85	4.985
447.20	5.150
447.55	5.528
447.91	5.185
448.26	6.010
448.61	5.936
448.96	5.814
449.31	6.074
449.66	5.402
450.02	5.348
450.37	5.556
450.72	5.697
451.07	5.363
451.42	5.532
451.77	6.166
452.12	6.293
452.47	5.286
452.83	5.944
453.18	6.601
453.53	5.751
453.88	5.198
454.23	5.858
454.58	5.996
454.93	6.230
455.28	5.486
455.63	6.432
455.98	6.726
456.34	5.905
456.69	6.011
457.04	6.563
457.39	5.494
457.74	5.746
458.09	6.038
458.44	5.701
458.79	5.206
459.14	6.321
459.49	6.130
459.84	5.706
460.19	5.421
460.54	6.134
460.89	5.540
461.24	6.132
461.59	6.334
461.94	5.734
462.29	6.291
462.64	5.807
462.99	6.636
463.34	7.133
463.69	6.379
464.04	6.551
464.39	6.319
464.74	5.882
465.09	5.911
465.44	5.651
465.79	6.432
466.14	6.076
466.49	6.118
466.84	6.830
467.19	5.975
467.54	6.750
467.89	5.402
468.24	6.399
468.59	7.143
468.94	6.475
469.29	5.784
469.64	7.296
469.99	6.292
470.34	5.614
470.68	6.825
471.03	6.531
471.38	7.297
471.73	6.396
472.08	7.434
472.43	6.533
472.78	6.386
473.13	7.702
473.48	6.305
473.83	6.707
474.17	5.476
474.52	6.390
474.87	7.297
475.22	6.210
475.57	5.857
475.92	5.948
476.27	6.595
476.61	5.681
476.96	5.388
477.31	5.704
477.66	6.346
478.01	6.116
478.36	5.394
478.70	5.088
479.05	5.218
479.40	6.244
479.75	6.355
480.10	4.970
480.45	5.283
480.79	5.542
481.14	5.724
481.49	5.838
481.84	4.984
482.19	5.725
482.53	5.734
482.88	5.491
483.23	5.514
483.58	6.369
483.92	5.717
484.27	5.185
484.62	4.741
484.97	5.242
485.31	5.103
485.66	4.523
486.01	3.979
486.36	3.545
486.70	3.605
487.05	4.172
487.40	4.009
487.75	4.080
488.09	4.337
488.44	4.603
488.79	4.882
489.13	5.157
489.48	5.220
489.83	5.265
490.17	4.910
490.52	4.827
490.87	5.246
491.22	5.184
491.56	5.148
491.91	5.398
492.26	5.328
492.60	5.668
492.95	5.145
493.30	5.794
493.64	5.273
493.99	5.292
494.34	5.643
494.68	5.586
495.03	6.344
495.37	5.537
495.72	4.727
496.07	6.311
496.41	5.354
496.76	5.849
497.11	5.268
497.45	5.543
497.80	5.230
498.14	5.121
498.49	4.878
498.84	5.465
499.18	5.667
499.53	5.508
499.87	5.685
500.22	5.228
500.56	6.262
500.91	5.962
501.26	5.832
501.60	6.075
501.95	5.362
502.29	5.764
502.64	5.866
502.98	5.189
503.33	5.713
503.67	5.708
504.02	5.285
504.36	5.896
504.71	5.618
505.06	5.831
505.40	5.737
505.75	5.689
506.09	5.345
506.44	5.624
506.78	5.650
507.13	5.704
507.47	6.010
507.82	5.420
508.16	5.370
508.51	5.327
508.85	5.859
509.19	5.204
509.54	6.224
509.88	5.925
510.23	5.861
510.57	6.502
510.92	5.955
511.26	5.755
511.61	5.861
511.95	5.585
512.30	5.938
512.64	6.287
512.98	6.860
513.33	5.835
513.67	5.870
514.02	5.574
514.36	5.844
514.70	6.364
515.05	5.856
515.39	6.674
515.74	5.968
516.08	6.875
516.42	5.938
516.77	6.522
517.11	6.215
517.46	6.151
517.80	5.749
518.14	5.790
518.49	6.476
518.83	6.477
519.17	6.062
519.52	6.508
519.86	6.275
520.20	6.936
520.55	7.002
520.89	6.752
521.23	6.876
521.58	6.182
521.92	6.552
522.26	6.162
522.61	6.854
522.95	6.937
523.29	6.026
523.64	6.646
523.98	6.285
524.32	6.152
524.66	6.855
525.01	6.434
525.35	6.010
525.69	6.281
526.04	6.854
526.38	6.650
526.72	6.564
527.06	6.466
527.41	6.498
527.75	6.817
528.09	6.872
528.43	6.692
528.78	6.638
529.12	6.788
529.46	6.859
529.80	6.621
530.15	6.417
530.49	6.646
530.83	6.962
531.17	6.919
531.51	7.912
531.86	6.516
532.20	7.301
532.54	7.303
532.88	6.996
533.22	6.683
533.57	7.160
533.91	6.321
534.25	7.108
534.59	6.711
534.93	6.782
535.27	6.699
535.62	7.021
535.96	7.282
536.30	6.421
536.64	6.632
536.98	7.299
537.32	7.176
537.66	6.800
538.01	7.110
538.35	7.757
538.69	8.041
539.03	6.693
539.37	6.262
539.71	5.768
540.05	7.516
540.39	6.910
540.73	7.374
541.07	7.917
541.42	7.436
541.76	7.935
542.10	7.891
542.44	6.490
542.78	8.037
543.12	6.846
543.46	7.934
543.80	7.157
544.14	7.510
544.48	7.429
544.82	6.414
545.16	6.571
545.50	7.198
545.84	7.056
546.18	7.811
546.52	7.777
546.86	6.873
547.20	7.283
547.54	7.749
547.88	8.099
548.22	7.161
548.56	7.610
548.90	7.170
549.24	6.532
549.58	7.094
549.92	7.624
550.26	7.031
550.60	7.746
550.94	7.394
551.28	7.462
551.62	7.692
551.96	6.807
552.30	7.782
552.64	7.911
552.98	7.932
553.32	6.945
553.66	7.362
554.00	7.756
554.34	7.384
554.68	8.298
555.02	7.616
555.36	6.750
555.69	6.766
556.03	7.335
556.37	6.889
556.71	6.753
557.05	6.863
557.39	7.418
557.73	7.339
558.07	7.687
558.41	7.381
558.75	7.788
559.08	7.383
559.42	7.181
559.76	8.309
560.10	7.566
560.44	7.058
560.78	6.919
561.12	7.256
561.45	7.562
561.79	7.383
562.13	7.176
562.47	7.445
562.81	7.252
563.15	8.227
563.48	7.095
563.82	7.371
564.16	7.783
564.50	6.445
564.84	7.585
565.17	6.757
565.51	8.051
565.85	7.741
566.19	6.199
566.52	6.903
566.86	6.631
567.20	7.075
567.54	7.078
567.88	6.573
568.21	7.513
568.55	6.572
568.89	6.226
569.23	6.239
569.56	6.316
569.90	5.849
570.24	5.490
570.57	5.236
570.91	5.398
571.25	5.312
571.59	5.508
571.92	5.213
572.26	5.315
572.60	5.315
572.93	5.187
573.27	5.265
573.61	5.416
573.95	5.349
574.28	4.874
574.62	5.321
574.96	4.683
575.29	5.092
575.63	5.208
575.97	4.869
576.30	5.204
576.64	5.130
576.98	4.789
577.31	4.713
577.65	4.625
577.98	4.483
578.32	4.905
578.66	4.864
578.99	4.816
579.33	4.720
579.67	4.670
580.00	5.083
580.34	5.150
580.67	5.223
581.01	5.239
581.35	4.704
581.68	4.687
582.02	4.548
582.35	4.738
582.69	4.700
583.02	4.771
583.36	4.911
583.70	5.045
584.03	5.068
584.37	5.191
584.70	4.676
585.04	5.333
585.37	5.033
585.71	5.169
586.04	5.219
586.38	5.225
586.72	5.468
587.05	5.080
587.39	5.119
587.72	5.385
588.06	4.883
588.39	5.679
588.73	5.309
589.06	5.921
589.40	5.488
589.73	5.526
590.07	6.014
590.40	5.627
590.73	5.543
591.07	6.227
591.40	5.989
591.74	6.364
592.07	6.937
592.41	6.118
592.74	5.693
593.08	5.796
593.41	5.694
593.75	5.309
594.08	5.598
594.41	5.585
594.75	5.656
595.08	5.691
595.42	5.849
595.75	5.947
596.09	6.121
596.42	6.640
596.75	6.290
597.09	6.667
597.42	5.734
597.75	6.511
598.09	6.261
598.42	6.186
598.76	5.999
599.09	5.549
599.42	5.895
599.76	5.857
600.09	6.084
600.42	5.332
600.76	5.571
601.09	5.792
601.42	5.632
601.76	6.224
602.09	5.613
602.42	6.409
602.76	6.812
603.09	5.940
603.42	6.130
603.76	5.907
604.09	5.739
604.42	5.870
604.76	6.622
605.09	6.553
605.42	6.156
605.75	6.291
606.09	6.019
606.42	5.599
606.75	6.056
607.09	6.907
607.42	6.033
607.75	5.316
608.08	5.688
608.42	6.499
608.75	6.492
609.08	6.614
609.41	6.711
609.75	6.193
610.08	6.692
610.41	5.493
610.74	6.197
611.07	6.522
611.41	6.477
611.74	6.938
612.07	7.091
612.40	6.925
612.73	6.474
613.07	7.220
613.40	7.583
613.73	6.240
614.06	6.774
614.39	7.027
614.72	7.579
615.06	7.721
615.39	6.847
615.72	6.595
616.05	6.433
616.38	7.115
616.71	7.007
617.05	7.951
617.38	6.975
617.71	6.246
618.04	7.692
618.37	7.156
618.70	7.530
619.03	7.566
619.36	7.196
619.69	7.676
620.03	7.280
620.36	7.821
620.69	7.397
621.02	8.112
621.35	7.204
621.68	8.022
622.01	8.591
622.34	8.018
622.67	7.681
623.00	7.704
623.33	7.934
623.66	7.863
623.99	7.658
624.32	7.204
624.65	7.627
624.99	7.082
625.32	7.893
625.65	8.189
625.98	7.840
626.31	8.709
626.64	9.388
626.97	9.144
627.30	8.146
627.63	8.778
627.96	8.999
628.29	9.361
628.62	10.156
628.95	8.962
629.28	9.672
629.61	9.808
629.94	9.429
630.26	8.675
630.59	9.056
630.92	8.621
631.25	7.897
631.58	9.910
631.91	9.128
632.24	8.650
632.57	10.493
632.90	10.636
633.23	9.508
633.56	12.203
633.89	10.306
634.22	9.875
634.55	9.586
634.88	11.377
635.20	10.992
635.53	11.205
635.86	9.777
636.19	9.529
636.52	10.842
636.85	10.424
637.18	10.714
637.51	11.466
637.83	8.878
638.16	10.614
638.49	11.209
638.82	12.895
639.15	11.000
639.48	10.723
639.81	11.126
640.13	11.328
640.46	11.141
640.79	12.814
641.12	11.004
641.45	11.034
641.77	11.635
642.10	11.111
642.43	10.060
642.76	11.765
643.09	11.963
643.41	11.684
643.74	14.043
644.07	10.671
644.40	14.417
644.73	14.016
645.05	13.154
645.38	12.796
645.71	11.594
646.04	12.957
646.36	14.858
646.69	14.548
647.02	11.905
647.35	12.887
647.67	14.336
648.00	15.610
648.33	12.046
648.66	12.576
648.98	11.394
649.31	11.659
649.64	12.706
649.96	12.817
650.29	12.954
650.62	12.621
650.94	13.614
651.27	13.176
651.60	12.646
651.92	14.696
652.25	11.075
652.58	13.240
652.90	11.532
653.23	11.710
653.56	12.126
653.88	12.678
654.21	13.428
654.54	13.036
654.86	11.371
655.19	12.162
655.52	5.798
655.84	3.701
656.17	4.186
656.49	5.923
656.82	5.916
657.15	4.741
657.47	3.573
657.80	2.833
658.13	2.953
658.45	4.578
658.78	4.832
659.10	5.259
659.43	5.582
659.75	6.476
660.08	7.342
660.41	9.404
660.73	11.944
661.06	14.172
661.38	14.545
661.71	13.462
662.03	15.187
662.36	13.320
662.68	14.659
663.01	13.939
663.33	16.773
663.66	17.227
663.98	15.551
664.31	13.655
664.63	14.777
664.96	11.268
665.28	17.008
665.61	15.400
665.93	14.286
666.26	13.793
666.58	13.808
666.91	17.970
667.23	17.079
667.56	16.415
667.88	17.308
668.21	17.910
668.53	15.184
668.86	14.935
669.18	16.844
669.50	13.696
669.83	18.301
670.15	14.889
670.48	15.033
670.80	14.440
671.13	16.348
671.45	13.191
671.77	14.868
672.10	14.233
672.42	12.721
672.75	12.769
673.07	13.028
673.39	13.020
673.72	12.695
674.04	13.333
674.37	14.563
674.69	14.110
675.01	12.343
675.34	16.427
675.66	16.211
675.98	15.275
676.31	16.597
676.63	14.862
676.95	14.885
677.28	14.953
677.60	15.604
677.92	16.878
678.25	14.784
678.57	14.542
678.89	13.226
679.22	14.931
679.54	13.740
679.86	13.578
680.18	13.775
680.51	13.830
680.83	16.192
681.15	15.472
681.48	14.934
681.80	16.054
682.12	13.793
682.44	11.025
682.77	13.646
683.09	17.597
683.41	15.743
683.73	17.439
684.06	14.256
684.38	15.264
684.70	14.535
685.02	15.572
685.34	15.018
685.67	10.315
685.99	13.230
686.31	13.481
686.63	11.484
686.96	13.929
687.28	14.079
687.60	14.130
687.92	15.905
688.24	13.688
688.56	14.859
688.89	16.183
689.21	16.594
689.53	15.240
689.85	14.191
690.17	13.872
690.49	16.136
690.82	16.121
691.14	14.732
691.46	13.080
691.78	16.466
692.10	17.149
692.42	15.170
692.74	14.523
693.06	14.255
693.39	14.579
693.71	14.410
694.03	15.789
694.35	13.636
694.67	13.272
694.99	18.293
695.31	16.912
695.63	17.943
695.95	17.359
696.27	15.228
696.59	19.948
696.91	17.098
697.23	14.789
697.56	16.205
697.88	13.497
698.20	12.917
698.52	14.839
698.84	15.813
699.16	13.134
699.48	15.439
699.80	17.633
700.12	19.221
700.44	17.507
700.76	21.271
701.08	19.540
701.40	19.832
701.72	19.534
702.04	22.159
702.36	15.014
702.68	18.697
703.00	21.330
703.32	19.415
703.64	19.571
703.96	22.563
704.28	20.349
704.60	19.062
704.91	20.475
705.23	23.167
705.55	25.581
705.87	24.252
706.19	20.141
706.51	23.053
706.83	21.515
707.15	18.487
707.47	18.182
707.79	15.971
708.11	20.776
708.43	17.857
708.74	15.051
709.06	18.701
709.38	18.110
709.70	20.640
710.02	21.068
710.34	20.000
710.66	22.090
710.98	22.159
711.29	21.221
711.61	25.959
711.93	20.833
712.25	23.151
712.57	18.382
712.89	21.453
713.20	23.100
713.52	22.039
713.84	20.886
714.16	22.256
714.48	22.701
714.80	20.061
715.11	20.461
715.43	17.211
715.75	22.899
716.07	19.808
716.39	22.257
716.70	24.252
717.02	21.942
717.34	24.382
717.66	25.746
717.97	27.092
718.29	20.370
718.61	25.912
718.93	26.838
719.24	22.145
719.56	21.695
719.88	26.102
720.20	21.622
720.51	22.997
720.83	30.855
721.15	21.269
721.46	25.887
721.78	26.523
722.10	24.151
722.42	25.188
722.73	25.094
723.05	22.131
723.37	24.696
723.68	27.027
724.00	26.423
724.32	20.565
724.63	25.610
724.95	24.268
725.27	28.340
725.58	25.391
725.90	23.723
726.22	26.792
726.53	22.569
726.85	22.867
727.16	22.064
727.48	24.113
727.80	23.864
728.11	26.087
728.43	20.000
728.74	25.090
729.06	27.372
729.38	27.206
729.69	27.402
730.01	19.113
730.32	21.528
730.64	24.415
730.96	19.802
731.27	23.510
731.59	23.242
731.90	20.408
732.22	20.186
732.53	18.885
732.85	23.077
733.16	21.865
733.48	18.937
733.80	22.403
734.11	23.248
734.43	22.781
734.74	17.714
735.06	19.771
735.37	21.676
735.69	21.975
736.00	22.222
736.32	23.988
736.63	21.086
736.95	21.406
737.26	17.007
737.58	19.677
737.89	22.742
738.21	23.891
738.52	25.714
738.83	24.151
739.15	28.462
739.46	24.453
739.78	21.181
740.09	21.538
740.41	22.903
740.72	24.042
741.04	24.815
741.35	28.333
741.66	31.111
741.98	24.528
742.29	32.536
742.61	31.897
742.92	25.792
743.23	31.624
743.55	29.200
743.86	25.000
744.18	31.858
744.49	28.708
744.80	32.864
745.12	31.818
745.43	29.956
745.74	29.730
746.06	29.817
746.37	30.942
746.68	29.412
747.00	32.407
747.31	30.000
747.62	25.221
747.94	30.396
748.25	26.383
748.56	33.921
748.88	27.228
749.19	33.500
749.50	33.488
749.82	25.203
750.13	28.980
750.44	22.263
750.75	24.561
751.07	23.794
751.38	23.345
751.69	20.578
752.01	27.444
752.32	18.051
752.63	25.532
752.94	22.951
753.26	29.200
753.57	23.577
753.88	28.125
754.19	22.143
754.51	26.042
754.82	21.300
755.13	27.547
755.44	25.940
755.75	25.182
756.07	17.730
756.38	19.708
756.69	22.819
757.00	18.263
757.31	18.398
757.63	21.930
757.94	17.158
758.25	19.118
758.56	17.037
758.87	17.742
759.18	21.515
759.50	21.003
759.81	18.069
760.12	19.063
760.43	20.344
760.74	17.391
761.05	19.492
761.36	18.182
761.67	17.898
761.99	22.671
762.30	23.958
762.61	27.481
762.92	26.562
763.23	29.412
763.54	28.400
763.85	23.047
764.16	27.692
764.47	25.095
764.78	20.495
765.10	18.354
765.41	21.534
765.72	21.856
766.03	21.944
766.34	22.000
766.65	27.234
766.96	28.205
767.27	30.964
767.58	30.729
767.89	31.579
768.20	30.460
768.51	34.518
768.82	31.651
769.13	24.797
769.44	23.887
769.75	28.326
770.06	24.312
770.37	30.317
770.68	31.019
770.99	28.000
771.30	20.902
771.61	25.561
771.92	28.689
772.23	31.513
772.54	27.179
772.85	35.079
773.16	32.447
773.47	34.783
773.78	38.579
774.09	36.310
774.39	39.181
774.70	39.506
775.01	40.580
775.32	43.791
775.63	42.763
775.94	38.129
776.25	53.543
776.56	46.269
776.87	50.820
777.18	44.531
777.48	47.328
777.79	43.182
778.10	53.333
778.41	49.107
778.72	45.985
779.03	40.268
779.34	32.886
779.65	35.811
779.95	39.264
780.26	44.444
780.57	45.517
780.88	54.688
781.19	45.865
781.50	47.297
781.80	38.365
782.11	33.898
782.42	36.709
782.73	31.288
783.04	47.973
783.34	40.141
783.65	51.370
783.96	41.791
784.27	39.860
784.57	41.007
784.88	49.074
785.19	52.381
785.50	50.000
785.81	54.478
786.11	58.197
786.42	51.938
786.73	45.133
787.04	50.943
787.34	41.071
787.65	47.000
787.96	49.550
788.26	43.802
788.57	53.390
788.88	57.025
789.19	53.472
789.49	59.091
789.80	47.328
790.11	57.143
790.41	59.406
790.72	63.855
791.03	69.565
791.33	67.442
791.64	55.670
791.95	60.396
792.25	67.778
792.56	72.727
792.87	78.205
793.17	87.342
793.48	64.368
793.79	66.667
794.09	61.364
794.40	50.420
794.70	53.676
795.01	45.926
795.32	40.288
795.62	45.669
795.93	62.069
796.23	47.788
796.54	62.353
796.85	81.081
797.15	101.408
797.46	80.303
797.76	91.566
798.07	75.949
798.37	66.154
798.68	86.364
798.99	74.648
799.29	76.623
799.60	78.409
799.90	69.863
800.21	92.537
800.51	94.828
800.82	96.491
801.12	93.443
801.43	92.424
801.73	74.324
802.04	112.698
802.34	72.840
802.65	104.688
802.95	105.085
803.26	103.125
803.56	80.000
803.87	87.692
804.17	83.824
804.48	103.704
804.78	86.207
805.09	77.941
805.39	92.308
805.70	89.286
806.00	98.361
806.30	90.909
806.61	78.049
806.91	59.494
807.22	72.368
807.52	64.179
807.83	87.324
808.13	87.500
808.43	110.000
808.74	82.895
809.04	82.609
809.35	89.552
809.65	90.789
809.95	98.387
810.26	83.051
810.56	87.302
810.86	134.091
811.17	142.857
811.47	118.333
811.77	100.000
812.08	105.455
812.38	128.000
812.69	130.556
812.99	134.091
813.29	102.041
813.59	100.000
813.90	122.449
814.20	101.818
814.50	75.385
814.81	101.471
815.11	122.449
815.41	103.279
815.72	145.238
816.02	110.909
816.32	147.619
816.62	140.000
816.93	119.512
817.23	147.619
817.53	122.727
817.84	175.758
818.14	134.783
818.44	124.444
818.74	164.706
819.04	112.500
819.35	165.714
819.65	164.706
819.95	228.571
820.25	245.000
820.56	161.538
820.86	134.091
821.16	148.837
821.46	125.641
821.76	112.000
822.07	168.571
822.37	180.000
822.67	169.697
822.97	125.490
823.27	221.429
823.57	181.081
823.88	157.500
824.18	193.333
824.48	142.857
824.78	256.000
825.08	262.500
825.38	167.568
825.69	151.220
825.99	208.333
826.29	172.414
826.59	160.526
826.89	152.632
827.19	152.941
827.49	187.097
827.79	138.636
828.09	138.636
828.39	138.298
828.70	142.857
829.00	185.185
829.30	187.097
829.60	137.500
829.90	293.333
830.20	214.286
830.50	213.043
830.80	191.304
831.10	186.667
831.40	206.667
831.70	221.739
832.00	257.692
832.30	211.111
832.60	293.750
832.90	206.667
833.20	421.429
833.50	190.323
833.80	213.793
834.10	221.875
834.40	211.538
834.70	300.000
835.00	300.000
835.30	177.143
835.60	284.615
835.90	193.103
836.20	400.000
836.50	203.448
836.80	228.000
837.10	177.778
837.40	257.143
837.70	329.412
838.00	259.259
838.30	290.476
838.60	304.762
838.90	215.385
839.19	325.000
839.49	400.000
839.79	340.000
840.09	280.000
840.39	271.429
840.69	278.261
840.99	305.556
841.29	480.000
841.59	391.667
841.88	337.500
842.18	203.448
842.48	266.667
842.78	203.333
843.08	221.739
843.38	200.000
843.68	883.333
843.97	215.385
844.27	203.448
844.57	290.476
844.87	325.000
845.17	229.630
845.47	1600.000
845.76	466.667
846.06	288.235
846.36	550.000
846.66	435.714
846.96	325.000
847.25	463.636
847.55	454.545
847.85	239.130
848.15	520.000
848.44	314.286
848.74	327.778
849.04	282.353
849.34	670.000
849.63	263.158
849.93	481.818
850.23	800.000
850.53	464.286
850.82	2650.000
851.12	-4800.000
851.42	5200.000
851.71	310.000
852.01	-1533.333
852.31	245.833
852.61	1766.667
852.90	261.905
853.20	220.000
853.50	352.941
853.79	304.762
854.09	233.333
854.39	393.750
854.68	170.270
854.98	187.097
855.28	170.000
855.57	255.172
855.87	214.815
856.17	278.947
856.46	240.000
856.76	288.235
857.05	196.552
857.35	233.333
857.65	420.000
857.94	282.609
858.24	242.308
858.53	330.000
858.83	281.818
859.13	366.667
859.42	0.000
859.72	566.667
860.01	463.636
860.31	281.818
860.60	294.737
860.90	304.348
861.20	677.778
861.49	408.333
861.79	-4800.000
862.08	675.000
862.38	300.000
862.67	307.692
862.97	394.118
863.26	522.222
863.56	361.111
863.85	441.667
864.15	637.500
864.44	400.000
864.74	983.333
865.03	750.000
865.33	294.737
865.62	472.727
865.92	400.000
866.21	391.667
866.51	0.000
866.80	472.727
867.10	1180.000
867.39	415.385
867.69	436.364
867.98	294.737
868.27	472.727
868.57	315.789
868.86	-5100.000
869.16	400.000
869.45	2400.000
869.75	-5300.000
870.04	433.333
870.33	928.571
870.63	1225.000
870.92	2700.000
871.22	828.571
871.51	370.588
871.80	276.190
872.10	428.571
>>>>>End Processed Spectral Data<<<<<
