SpectraSuite Data File
++++++++++++++++++++++++++++++++++++
Date: Wed May 13 19:42:14 PDT 2015
User: schluterlab
Dark Spectrum Present: Yes
Reference Spectrum Present: Yes
Number of Sampled Component Spectra: 1
Spectrometers: USB2E3373
Integration Time (usec): 3000 (USB2E3373)
Spectra Averaged: 3 (USB2E3373)
Boxcar Smoothing: 0 (USB2E3373)
Correct for Electrical Dark: No (USB2E3373)
Strobe/Lamp Enabled: No (USB2E3373)
Correct for Detector Non-linearity: No (USB2E3373)
Correct for Stray Light: No (USB2E3373)
Number of Pixels in Processed Spectrum: 2048
>>>>>Begin Processed Spectral Data<<<<<
178.53	0.000
178.91	-1175.000
179.29	-1300.000
179.67	-266.667
180.04	-1275.000
180.42	2650.000
180.80	1120.000
181.18	-1050.000
181.56	642.857
181.94	0.000
182.31	-585.714
182.69	1800.000
183.07	-587.500
183.45	-511.111
183.83	609.091
184.20	-380.000
184.58	2750.000
184.96	5300.000
185.34	-860.000
185.72	-562.500
186.09	-2300.000
186.47	2650.000
186.85	2650.000
187.23	4800.000
187.61	-1800.000
187.98	1400.000
188.36	600.000
188.74	481.818
189.12	-860.000
189.49	560.000
189.87	-5000.000
190.25	-1350.000
190.63	428.571
191.00	438.462
191.38	966.667
191.76	-1250.000
192.14	1375.000
192.51	612.500
192.89	933.333
193.27	500.000
193.65	-1200.000
194.02	550.000
194.40	840.000
194.78	500.000
195.15	566.667
195.53	650.000
195.91	-2450.000
196.29	362.500
196.66	315.789
197.04	-270.000
197.42	0.000
197.79	590.000
198.17	-4700.000
198.55	685.714
198.92	737.500
199.30	1000.000
199.68	0.000
200.05	266.667
200.43	785.714
200.81	5000.000
201.18	1700.000
201.56	-1666.667
201.94	511.111
202.31	611.111
202.69	375.000
203.07	590.000
203.44	0.000
203.82	1325.000
204.19	728.571
204.57	471.429
204.95	650.000
205.32	1666.667
205.70	572.727
206.08	357.143
206.45	2850.000
206.83	375.000
207.20	866.667
207.58	740.000
207.96	338.889
208.33	725.000
208.71	-816.667
209.08	771.429
209.46	677.778
209.84	490.909
210.21	-1600.000
210.59	1400.000
210.96	-525.000
211.34	2150.000
211.71	670.000
212.09	900.000
212.46	0.000
212.84	2100.000
213.22	1400.000
213.59	-4900.000
213.97	916.667
214.34	842.857
214.72	636.364
215.09	1000.000
215.47	-2350.000
215.84	-2700.000
216.22	1533.333
216.59	407.143
216.97	1300.000
217.34	509.091
217.72	-700.000
218.09	0.000
218.47	-4500.000
218.84	644.444
219.22	728.571
219.59	2000.000
219.97	-642.857
220.34	840.000
220.72	-1800.000
221.09	364.286
221.47	1425.000
221.84	-1116.667
222.22	0.000
222.59	1425.000
222.97	-2050.000
223.34	1180.000
223.72	453.846
224.09	1160.000
224.46	1750.000
224.84	-5500.000
225.21	-1000.000
225.59	-4000.000
225.96	540.000
226.34	355.000
226.71	2850.000
227.08	650.000
227.46	500.000
227.83	-1125.000
228.21	-2550.000
228.58	677.778
228.95	-2500.000
229.33	-2400.000
229.70	1533.333
230.08	771.429
230.45	-920.000
230.82	425.000
231.20	916.667
231.57	642.857
231.95	450.000
232.32	286.364
232.69	300.000
233.07	785.714
233.44	376.923
233.81	-1566.667
234.19	310.526
234.56	450.000
234.93	458.333
235.31	427.273
235.68	384.615
236.05	371.429
236.43	160.606
236.80	247.368
237.17	4100.000
237.55	238.095
237.92	225.000
238.29	261.905
238.67	174.194
239.04	210.345
239.41	150.000
239.79	95.652
240.16	145.238
240.53	115.909
240.91	100.000
241.28	104.000
241.65	116.000
242.02	101.449
242.40	83.871
242.77	90.000
243.14	76.344
243.51	76.404
243.89	63.529
244.26	58.889
244.63	64.516
245.00	60.638
245.38	54.455
245.75	57.944
246.12	46.789
246.49	57.664
246.87	59.200
247.24	50.769
247.61	45.000
247.98	47.712
248.36	44.595
248.73	43.949
249.10	48.408
249.47	44.068
249.84	45.455
250.22	35.829
250.59	40.237
250.96	39.394
251.33	39.336
251.70	35.644
252.08	35.238
252.45	35.874
252.82	37.826
253.19	33.191
253.56	32.941
253.94	35.685
254.31	37.109
254.68	31.923
255.05	32.472
255.42	30.081
255.79	34.191
256.16	31.408
256.54	30.389
256.91	28.826
257.28	25.899
257.65	27.723
258.02	29.814
258.39	24.606
258.76	24.749
259.14	26.488
259.51	25.836
259.88	23.913
260.25	29.305
260.62	27.457
260.99	22.981
261.36	25.826
261.73	26.074
262.10	23.256
262.47	26.761
262.85	28.134
263.22	25.926
263.59	29.630
263.96	25.275
264.33	26.632
264.70	26.316
265.07	26.598
265.44	26.010
265.81	22.384
266.18	24.623
266.55	23.415
266.92	20.393
267.29	25.926
267.66	22.936
268.03	22.727
268.40	24.065
268.77	23.150
269.14	20.946
269.51	24.379
269.88	21.911
270.25	22.122
270.62	21.573
270.99	25.161
271.36	24.678
271.73	20.327
272.10	19.130
272.47	20.645
272.84	22.294
273.21	22.432
273.58	21.179
273.95	19.287
274.32	22.107
274.69	22.056
275.06	20.472
275.43	22.553
275.80	22.044
276.17	21.385
276.54	21.830
276.91	22.134
277.28	19.922
277.65	20.309
278.02	20.083
278.39	23.242
278.76	22.000
279.13	21.321
279.50	20.298
279.87	20.717
280.23	23.353
280.60	19.923
280.97	19.593
281.34	20.177
281.71	20.182
282.08	19.194
282.45	19.455
282.82	19.005
283.19	17.112
283.56	19.123
283.92	20.981
284.29	17.813
284.66	18.875
285.03	18.626
285.40	19.190
285.77	18.855
286.14	17.962
286.51	19.000
286.87	18.803
287.24	20.358
287.61	19.422
287.98	18.344
288.35	17.433
288.72	18.380
289.08	19.249
289.45	18.451
289.82	18.862
290.19	15.856
290.56	15.926
290.93	16.163
291.29	17.025
291.66	16.224
292.03	17.587
292.40	18.355
292.77	15.828
293.13	17.015
293.50	18.222
293.87	15.704
294.24	16.148
294.60	14.847
294.97	17.297
295.34	17.348
295.71	15.909
296.08	13.818
296.44	15.406
296.81	15.852
297.18	17.209
297.55	13.456
297.91	15.172
298.28	16.600
298.65	16.057
299.02	16.337
299.38	14.874
299.75	13.073
300.12	14.559
300.48	13.875
300.85	15.043
301.22	16.178
301.59	14.141
301.95	13.098
302.32	13.736
302.69	14.098
303.05	14.424
303.42	14.074
303.79	14.383
304.15	13.054
304.52	12.167
304.89	13.821
305.25	14.153
305.62	14.270
305.99	13.577
306.35	13.647
306.72	14.798
307.09	12.986
307.45	14.527
307.82	12.388
308.19	13.576
308.55	13.916
308.92	14.286
309.29	12.883
309.65	12.301
310.02	14.588
310.38	14.086
310.75	13.622
311.12	14.330
311.48	14.211
311.85	14.151
312.22	13.736
312.58	14.345
312.95	15.523
313.31	13.981
313.68	13.410
314.05	15.483
314.41	14.874
314.78	15.005
315.14	14.399
315.51	15.551
315.87	15.446
316.24	16.187
316.61	14.327
316.97	15.656
317.34	15.460
317.70	16.635
318.07	16.747
318.43	16.634
318.80	17.994
319.16	17.514
319.53	17.355
319.89	18.952
320.26	18.600
320.62	19.643
320.99	19.899
321.35	19.798
321.72	20.021
322.08	20.928
322.45	21.692
322.81	22.093
323.18	22.736
323.54	21.985
323.91	22.547
324.27	21.893
324.64	21.994
325.00	23.625
325.37	23.658
325.73	24.237
326.10	23.919
326.46	22.939
326.83	25.367
327.19	25.021
327.56	25.174
327.92	25.722
328.29	26.087
328.65	25.783
329.01	25.722
329.38	27.197
329.74	25.762
330.11	27.898
330.47	28.742
330.84	29.320
331.20	27.505
331.56	28.073
331.93	28.889
332.29	28.128
332.66	28.407
333.02	28.885
333.38	28.817
333.75	29.412
334.11	28.737
334.48	28.217
334.84	29.044
335.20	29.182
335.57	29.374
335.93	27.946
336.29	27.564
336.66	28.855
337.02	29.412
337.38	29.352
337.75	27.807
338.11	28.021
338.47	28.545
338.84	29.423
339.20	29.725
339.56	30.383
339.93	28.545
340.29	29.076
340.65	29.768
341.02	30.192
341.38	27.669
341.74	28.246
342.11	30.306
342.47	30.485
342.83	28.253
343.20	30.823
343.56	29.739
343.92	29.298
344.28	29.422
344.65	29.493
345.01	29.040
345.37	28.473
345.73	31.303
346.10	30.094
346.46	30.508
346.82	29.325
347.19	29.574
347.55	29.967
347.91	30.421
348.27	30.485
348.63	29.682
349.00	30.583
349.36	29.639
349.72	28.549
350.08	29.579
350.45	30.594
350.81	29.894
351.17	30.227
351.53	29.566
351.89	29.868
352.26	30.071
352.62	30.714
352.98	31.524
353.34	31.142
353.70	30.033
354.07	30.484
354.43	30.397
354.79	30.008
355.15	30.726
355.51	31.894
355.87	31.265
356.24	31.352
356.60	30.313
356.96	31.617
357.32	31.643
357.68	31.102
358.04	32.542
358.40	31.591
358.77	31.299
359.13	31.255
359.49	30.824
359.85	31.667
360.21	31.021
360.57	32.529
360.93	31.308
361.29	31.595
361.66	30.805
362.02	32.463
362.38	31.863
362.74	32.887
363.10	31.532
363.46	32.135
363.82	32.426
364.18	32.966
364.54	32.318
364.90	32.011
365.26	32.059
365.62	32.798
365.98	32.725
366.35	30.874
366.71	33.695
367.07	32.047
367.43	34.615
367.79	33.405
368.15	33.405
368.51	32.340
368.87	33.547
369.23	34.016
369.59	33.164
369.95	33.897
370.31	32.336
370.67	33.333
371.03	34.082
371.39	32.580
371.75	34.118
372.11	33.997
372.47	34.531
372.83	33.862
373.19	34.176
373.55	34.885
373.91	34.831
374.27	33.883
374.63	33.891
374.99	34.463
375.35	33.985
375.71	33.516
376.07	35.802
376.42	36.520
376.78	34.924
377.14	35.482
377.50	36.490
377.86	34.973
378.22	34.893
378.58	34.023
378.94	34.758
379.30	35.115
379.66	37.119
380.02	36.671
380.38	34.912
380.74	36.375
381.09	36.491
381.45	36.570
381.81	37.101
382.17	36.497
382.53	36.541
382.89	37.099
383.25	38.086
383.61	37.237
383.97	36.898
384.32	37.804
384.68	37.918
385.04	37.431
385.40	38.266
385.76	37.715
386.12	37.824
386.48	38.578
386.83	38.486
387.19	38.837
387.55	37.662
387.91	38.573
388.27	38.013
388.62	37.984
388.98	38.821
389.34	37.985
389.70	38.443
390.06	39.354
390.42	39.948
390.77	38.677
391.13	39.694
391.49	37.500
391.85	38.765
392.20	38.486
392.56	39.015
392.92	39.435
393.28	39.763
393.64	39.688
393.99	39.462
394.35	40.261
394.71	39.335
395.07	38.629
395.42	40.049
395.78	39.377
396.14	39.913
396.50	39.662
396.85	40.051
397.21	39.581
397.57	39.244
397.92	39.904
398.28	39.126
398.64	40.442
399.00	40.403
399.35	39.707
399.71	40.683
400.07	40.923
400.42	40.675
400.78	41.194
401.14	40.061
401.49	40.896
401.85	40.290
402.21	40.060
402.57	40.222
402.92	40.731
403.28	41.224
403.63	40.965
403.99	42.293
404.35	39.939
404.70	41.127
405.06	39.895
405.42	40.299
405.77	40.171
406.13	40.519
406.49	40.095
406.84	40.520
407.20	39.303
407.55	40.587
407.91	41.933
408.27	41.800
408.62	40.759
408.98	41.115
409.34	40.590
409.69	42.000
410.05	39.529
410.40	41.101
410.76	40.980
411.11	40.410
411.47	40.831
411.83	40.929
412.18	39.703
412.54	40.909
412.89	40.663
413.25	40.614
413.60	39.839
413.96	39.223
414.31	39.854
414.67	41.128
415.03	41.192
415.38	40.851
415.74	41.672
416.09	41.868
416.45	40.964
416.80	40.449
417.16	41.220
417.51	40.212
417.87	40.013
418.22	41.009
418.58	41.963
418.93	40.541
419.29	41.120
419.64	41.688
420.00	40.000
420.35	39.536
420.71	41.482
421.06	39.439
421.42	39.825
421.77	40.527
422.12	40.202
422.48	39.935
422.83	40.478
423.19	39.613
423.54	40.279
423.90	41.159
424.25	39.866
424.61	40.238
424.96	41.166
425.31	39.258
425.67	38.652
426.02	39.486
426.38	40.904
426.73	39.380
427.09	40.182
427.44	39.160
427.79	39.563
428.15	40.357
428.50	39.614
428.85	39.928
429.21	40.420
429.56	39.554
429.92	39.305
430.27	40.268
430.62	39.222
430.98	39.699
431.33	38.454
431.68	40.000
432.04	38.765
432.39	39.349
432.74	40.036
433.10	39.502
433.45	40.058
433.80	38.525
434.16	38.729
434.51	37.842
434.86	39.111
435.22	38.243
435.57	39.635
435.92	38.619
436.28	39.087
436.63	39.570
436.98	38.523
437.34	39.296
437.69	38.798
438.04	38.561
438.39	39.582
438.75	39.512
439.10	38.939
439.45	38.489
439.81	38.912
440.16	37.888
440.51	38.723
440.86	38.796
441.22	38.154
441.57	38.217
441.92	38.434
442.27	37.513
442.63	37.967
442.98	38.366
443.33	37.174
443.68	37.274
444.03	37.482
444.39	37.098
444.74	38.799
445.09	37.412
445.44	37.671
445.79	37.358
446.15	37.215
446.50	36.349
446.85	36.999
447.20	36.206
447.55	37.298
447.91	37.231
448.26	36.561
448.61	37.422
448.96	36.434
449.31	37.345
449.66	37.535
450.02	37.103
450.37	35.998
450.72	36.379
451.07	36.990
451.42	36.596
451.77	37.581
452.12	35.393
452.47	35.634
452.83	36.422
453.18	35.636
453.53	36.549
453.88	35.676
454.23	36.820
454.58	36.039
454.93	37.317
455.28	36.035
455.63	35.619
455.98	36.667
456.34	35.804
456.69	36.694
457.04	35.604
457.39	34.424
457.74	34.359
458.09	34.675
458.44	35.405
458.79	33.623
459.14	35.497
459.49	35.377
459.84	34.515
460.19	34.414
460.54	34.086
460.89	34.174
461.24	35.033
461.59	34.340
461.94	34.217
462.29	35.312
462.64	33.248
462.99	33.182
463.34	35.267
463.69	33.333
464.04	33.391
464.39	32.696
464.74	32.680
465.09	32.207
465.44	32.687
465.79	32.606
466.14	33.114
466.49	32.981
466.84	32.283
467.19	32.408
467.54	33.625
467.89	32.113
468.24	33.624
468.59	32.234
468.94	31.888
469.29	33.612
469.64	32.999
469.99	32.679
470.34	32.100
470.68	32.040
471.03	31.769
471.38	33.287
471.73	32.378
472.08	33.026
472.43	31.281
472.78	31.797
473.13	31.836
473.48	31.835
473.83	31.646
474.17	30.554
474.52	32.320
474.87	30.940
475.22	30.934
475.57	30.360
475.92	30.165
476.27	30.383
476.61	29.895
476.96	29.962
477.31	30.508
477.66	30.033
478.01	30.214
478.36	30.143
478.70	28.816
479.05	29.925
479.40	29.120
479.75	29.690
480.10	28.777
480.45	29.177
480.79	29.097
481.14	29.061
481.49	29.283
481.84	28.624
482.19	28.124
482.53	28.624
482.88	28.944
483.23	27.897
483.58	28.116
483.92	27.741
484.27	26.885
484.62	27.241
484.97	26.724
485.31	26.781
485.66	25.639
486.01	25.092
486.36	24.541
486.70	24.488
487.05	24.628
487.40	25.128
487.75	25.602
488.09	25.933
488.44	26.051
488.79	26.691
489.13	25.936
489.48	26.101
489.83	26.370
490.17	26.260
490.52	25.864
490.87	26.323
491.22	26.558
491.56	26.469
491.91	26.012
492.26	25.723
492.60	25.576
492.95	25.959
493.30	25.888
493.64	25.992
493.99	25.905
494.34	26.457
494.68	25.916
495.03	26.410
495.37	24.942
495.72	25.926
496.07	25.429
496.41	24.735
496.76	24.802
497.11	25.124
497.45	25.431
497.80	25.192
498.14	24.348
498.49	24.732
498.84	25.120
499.18	24.524
499.53	24.644
499.87	24.837
500.22	24.305
500.56	25.583
500.91	24.375
501.26	24.277
501.60	24.917
501.95	24.335
502.29	24.274
502.64	24.162
502.98	24.030
503.33	24.223
503.67	23.434
504.02	24.088
504.36	24.427
504.71	23.986
505.06	24.386
505.40	23.140
505.75	23.626
506.09	23.129
506.44	23.631
506.78	23.527
507.13	23.624
507.47	24.394
507.82	23.658
508.16	24.063
508.51	24.404
508.85	23.486
509.19	23.622
509.54	23.214
509.88	22.926
510.23	22.879
510.57	23.994
510.92	23.925
511.26	23.895
511.61	22.925
511.95	22.912
512.30	23.012
512.64	23.213
512.98	22.937
513.33	22.752
513.67	23.052
514.02	21.970
514.36	23.430
514.70	23.409
515.05	23.146
515.39	22.771
515.74	22.072
516.08	22.638
516.42	23.252
516.77	23.467
517.11	22.142
517.46	22.968
517.80	23.113
518.14	22.003
518.49	23.104
518.83	22.784
519.17	23.152
519.52	22.581
519.86	22.761
520.20	22.486
520.55	22.861
520.89	22.993
521.23	23.583
521.58	21.849
521.92	22.413
522.26	21.477
522.61	22.617
522.95	22.836
523.29	22.763
523.64	22.561
523.98	23.105
524.32	22.376
524.66	22.730
525.01	22.243
525.35	21.623
525.69	21.305
526.04	22.118
526.38	21.721
526.72	22.638
527.06	22.724
527.41	21.535
527.75	22.251
528.09	22.094
528.43	21.861
528.78	21.942
529.12	20.848
529.46	21.433
529.80	21.535
530.15	21.745
530.49	21.231
530.83	22.025
531.17	22.715
531.51	22.503
531.86	21.742
532.20	22.360
532.54	21.332
532.88	21.181
533.22	21.112
533.57	22.037
533.91	21.011
534.25	20.899
534.59	20.744
534.93	19.988
535.27	20.700
535.62	20.452
535.96	21.218
536.30	20.407
536.64	21.893
536.98	21.699
537.32	21.001
537.66	20.867
538.01	20.540
538.35	21.202
538.69	22.527
539.03	19.818
539.37	19.553
539.71	19.637
540.05	20.654
540.39	20.864
540.73	20.699
541.07	21.090
541.42	20.874
541.76	21.032
542.10	21.151
542.44	20.530
542.78	21.212
543.12	19.962
543.46	20.787
543.80	20.950
544.14	19.705
544.48	20.571
544.82	20.398
545.16	20.104
545.50	20.308
545.84	20.296
546.18	20.673
546.52	20.372
546.86	19.794
547.20	20.432
547.54	19.906
547.88	20.599
548.22	19.240
548.56	19.182
548.90	20.294
549.24	19.529
549.58	20.532
549.92	20.124
550.26	20.739
550.60	19.710
550.94	19.718
551.28	18.947
551.62	19.770
551.96	19.509
552.30	20.205
552.64	19.946
552.98	18.915
553.32	18.611
553.66	20.723
554.00	19.835
554.34	19.600
554.68	20.172
555.02	19.887
555.36	20.529
555.69	18.471
556.03	19.448
556.37	19.236
556.71	19.714
557.05	19.258
557.39	19.384
557.73	20.113
558.07	19.652
558.41	19.320
558.75	18.589
559.08	20.283
559.42	19.426
559.76	19.338
560.10	19.272
560.44	19.706
560.78	19.095
561.12	19.459
561.45	19.687
561.79	18.128
562.13	18.712
562.47	18.716
562.81	18.131
563.15	18.863
563.48	19.363
563.82	19.504
564.16	18.247
564.50	18.359
564.84	18.900
565.17	17.632
565.51	19.233
565.85	18.464
566.19	18.222
566.52	19.379
566.86	18.505
567.20	18.455
567.54	18.094
567.88	16.947
568.21	17.037
568.55	17.341
568.89	16.975
569.23	17.068
569.56	16.073
569.90	16.491
570.24	16.218
570.57	16.117
570.91	15.837
571.25	15.812
571.59	15.670
571.92	15.495
572.26	15.598
572.60	15.976
572.93	15.322
573.27	15.439
573.61	15.745
573.95	15.194
574.28	14.975
574.62	14.966
574.96	15.054
575.29	15.058
575.63	15.168
575.97	14.840
576.30	15.056
576.64	15.087
576.98	15.265
577.31	14.579
577.65	14.723
577.98	14.395
578.32	14.158
578.66	15.157
578.99	14.768
579.33	14.815
579.67	14.206
580.00	14.673
580.34	15.021
580.67	14.796
581.01	14.594
581.35	14.359
581.68	14.264
582.02	13.696
582.35	14.141
582.69	14.421
583.02	14.187
583.36	14.641
583.70	14.985
584.03	14.577
584.37	14.941
584.70	14.629
585.04	14.335
585.37	14.236
585.71	14.544
586.04	14.690
586.38	14.525
586.72	14.416
587.05	14.507
587.39	14.037
587.72	14.713
588.06	14.915
588.39	14.458
588.73	14.579
589.06	15.145
589.40	14.848
589.73	14.854
590.07	15.552
590.40	15.090
590.73	15.418
591.07	16.077
591.40	15.732
591.74	16.364
592.07	15.140
592.41	14.841
592.74	15.094
593.08	14.823
593.41	14.711
593.75	14.272
594.08	14.516
594.41	14.988
594.75	14.455
595.08	14.710
595.42	14.746
595.75	14.459
596.09	15.697
596.42	15.756
596.75	15.281
597.09	15.671
597.42	14.713
597.75	15.783
598.09	15.348
598.42	14.948
598.76	14.309
599.09	14.405
599.42	14.847
599.76	14.678
600.09	14.645
600.42	14.427
600.76	14.321
601.09	14.208
601.42	14.878
601.76	14.839
602.09	14.664
602.42	15.525
602.76	15.236
603.09	14.831
603.42	15.228
603.76	14.139
604.09	14.347
604.42	14.717
604.76	15.437
605.09	14.723
605.42	14.793
605.75	14.528
606.09	13.949
606.42	14.221
606.75	14.683
607.09	15.069
607.42	15.233
607.75	13.840
608.08	14.894
608.42	14.836
608.75	15.149
609.08	14.940
609.41	15.278
609.75	14.578
610.08	15.269
610.41	14.804
610.74	14.711
611.07	15.366
611.41	15.800
611.74	15.133
612.07	15.269
612.40	16.002
612.73	14.947
613.07	15.463
613.40	15.745
613.73	14.578
614.06	15.108
614.39	15.417
614.72	15.632
615.06	15.074
615.39	15.021
615.72	15.491
616.05	14.992
616.38	14.897
616.71	15.677
617.05	15.135
617.38	15.394
617.71	15.556
618.04	15.565
618.37	15.376
618.70	15.993
619.03	15.329
619.36	15.614
619.69	16.690
620.03	16.415
620.36	16.444
620.69	16.849
621.02	16.740
621.35	16.523
621.68	17.679
622.01	16.486
622.34	15.885
622.67	16.578
623.00	16.801
623.33	15.583
623.66	16.798
623.99	15.169
624.32	16.619
624.65	16.102
624.99	15.864
625.32	15.858
625.65	16.078
625.98	17.141
626.31	17.496
626.64	17.714
626.97	16.542
627.30	16.293
627.63	16.817
627.96	16.905
628.29	17.498
628.62	17.658
628.95	19.340
629.28	17.518
629.61	17.965
629.94	17.143
630.26	17.064
630.59	18.017
630.92	17.146
631.25	17.473
631.58	18.418
631.91	17.748
632.24	16.772
632.57	18.363
632.90	19.518
633.23	19.016
633.56	19.096
633.89	18.913
634.22	19.410
634.55	19.172
634.88	17.485
635.20	20.669
635.53	19.157
635.86	17.450
636.19	17.882
636.52	17.532
636.85	19.015
637.18	17.166
637.51	20.449
637.83	16.769
638.16	20.332
638.49	19.521
638.82	20.860
639.15	19.750
639.48	19.825
639.81	19.571
640.13	19.271
640.46	19.060
640.79	20.343
641.12	18.845
641.45	19.693
641.77	19.440
642.10	18.713
642.43	19.520
642.76	19.814
643.09	21.779
643.41	21.093
643.74	21.605
644.07	19.665
644.40	21.472
644.73	22.520
645.05	20.285
645.38	20.853
645.71	21.417
646.04	20.432
646.36	23.205
646.69	20.903
647.02	21.088
647.35	22.509
647.67	20.708
648.00	23.252
648.33	20.957
648.66	19.697
648.98	21.289
649.31	19.432
649.64	19.880
649.96	20.119
650.29	20.221
650.62	19.094
650.94	21.556
651.27	19.764
651.60	22.463
651.92	21.086
652.25	20.358
652.58	21.184
652.90	20.695
653.23	20.647
653.56	21.102
653.88	21.712
654.21	22.433
654.54	22.607
654.86	21.963
655.19	18.243
655.52	11.237
655.84	9.658
656.17	12.159
656.49	16.877
656.82	17.315
657.15	13.670
657.47	10.014
657.80	7.982
658.13	8.375
658.45	12.557
658.78	12.849
659.10	13.663
659.43	13.853
659.75	14.560
660.08	16.139
660.41	17.970
660.73	18.424
661.06	18.631
661.38	22.182
661.71	23.269
662.03	26.036
662.36	20.477
662.68	20.884
663.01	23.636
663.33	20.170
663.66	23.950
663.98	22.894
664.31	21.849
664.63	20.243
664.96	22.736
665.28	22.746
665.61	21.442
665.93	21.730
666.26	22.110
666.58	22.176
666.91	24.313
667.23	23.146
667.56	21.166
667.88	24.359
668.21	23.667
668.53	21.692
668.86	24.459
669.18	26.013
669.50	21.304
669.83	23.529
670.15	24.000
670.48	20.915
670.80	23.276
671.13	23.355
671.45	22.128
671.77	23.218
672.10	21.257
672.42	21.731
672.75	18.905
673.07	19.894
673.39	17.902
673.72	20.508
674.04	22.941
674.37	21.942
674.69	22.290
675.01	19.247
675.34	23.614
675.66	23.789
675.98	24.236
676.31	23.109
676.63	22.505
676.95	22.642
677.28	22.897
677.60	21.319
677.92	22.152
678.25	21.971
678.57	23.904
678.89	20.842
679.22	20.039
679.54	21.183
679.86	21.651
680.18	20.751
680.51	19.326
680.83	22.954
681.15	21.132
681.48	21.172
681.80	19.729
682.12	22.222
682.44	19.342
682.77	21.385
683.09	25.536
683.41	24.612
683.73	24.945
684.06	25.413
684.38	20.352
684.70	19.186
685.02	21.951
685.34	21.245
685.67	17.483
685.99	18.557
686.31	19.454
686.63	18.551
686.96	20.357
687.28	19.675
687.60	19.384
687.92	22.303
688.24	21.863
688.56	23.695
688.89	22.407
689.21	21.179
689.53	22.129
689.85	22.395
690.17	20.290
690.49	24.416
690.82	25.234
691.14	22.098
691.46	20.886
691.78	21.687
692.10	24.380
692.42	22.555
692.74	19.917
693.06	22.128
693.39	23.614
693.71	20.961
694.03	21.263
694.35	21.861
694.67	21.968
694.99	20.732
695.31	24.020
695.63	22.727
695.95	22.494
696.27	20.558
696.59	26.684
696.91	24.352
697.23	22.300
697.56	23.241
697.88	17.587
698.20	21.042
698.52	21.075
698.84	22.940
699.16	22.811
699.48	24.466
699.80	24.879
700.12	28.571
700.44	24.668
700.76	25.138
701.08	22.414
701.40	24.860
701.72	24.781
702.04	28.977
702.36	20.963
702.68	26.629
703.00	23.546
703.32	26.064
703.64	26.273
703.96	23.955
704.28	27.907
704.60	27.566
704.91	27.596
705.23	26.393
705.55	28.904
705.87	30.565
706.19	24.382
706.51	26.168
706.83	25.758
707.15	28.571
707.47	24.747
707.79	22.604
708.11	22.603
708.43	20.714
708.74	23.214
709.06	24.156
709.38	24.934
709.70	27.616
710.02	21.365
710.34	25.455
710.66	24.478
710.98	28.409
711.29	31.395
711.61	30.678
711.93	27.885
712.25	29.904
712.57	25.000
712.89	28.720
713.20	25.836
713.52	24.671
713.84	27.532
714.16	26.220
714.48	26.437
714.80	31.915
715.11	26.801
715.43	26.706
715.75	27.246
716.07	29.712
716.39	27.586
716.70	28.239
717.02	26.619
717.34	27.208
717.66	28.731
717.97	31.474
718.29	28.519
718.61	28.102
718.93	30.147
719.24	29.066
719.56	27.797
719.88	28.814
720.20	29.054
720.51	32.056
720.83	28.625
721.15	23.881
721.46	28.369
721.78	29.391
722.10	33.585
722.42	30.827
722.73	31.835
723.05	28.689
723.37	28.340
723.68	30.888
724.00	33.333
724.32	31.452
724.63	27.642
724.95	30.544
725.27	31.174
725.58	26.953
725.90	35.036
726.22	28.302
726.53	27.083
726.85	27.986
727.16	29.181
727.48	28.723
727.80	31.818
728.11	28.623
728.43	30.385
728.74	27.957
729.06	31.022
729.38	29.779
729.69	34.164
730.01	26.621
730.32	27.778
730.64	25.084
730.96	25.083
731.27	31.457
731.59	29.052
731.90	25.364
732.22	22.671
732.53	24.768
732.85	27.564
733.16	25.723
733.48	24.585
733.80	27.922
734.11	28.025
734.43	27.811
734.74	19.429
735.06	22.636
735.37	25.723
735.69	24.841
736.00	25.163
736.32	28.349
736.63	26.198
736.95	28.754
737.26	24.830
737.58	24.839
737.89	26.756
738.21	26.962
738.52	29.643
738.83	26.038
739.15	31.154
739.46	29.562
739.78	29.514
740.09	27.077
740.41	28.065
740.72	29.965
741.04	29.259
741.35	26.250
741.66	36.444
741.98	32.075
742.29	41.627
742.61	32.759
742.92	28.959
743.23	33.761
743.55	31.200
743.86	30.702
744.18	33.186
744.49	35.407
744.80	33.333
745.12	34.545
745.43	31.278
745.74	37.387
746.06	34.862
746.37	34.978
746.68	32.127
747.00	32.407
747.31	33.333
747.62	28.761
747.94	34.802
748.25	26.809
748.56	30.396
748.88	36.139
749.19	36.500
749.50	34.884
749.82	32.927
750.13	29.796
750.44	27.372
750.75	31.228
751.07	30.225
751.38	30.662
751.69	28.881
752.01	28.947
752.32	28.159
752.63	28.369
752.94	31.967
753.26	32.800
753.57	31.301
753.88	32.422
754.19	31.429
754.51	28.819
754.82	23.827
755.13	30.189
755.44	26.692
755.75	25.182
756.07	32.624
756.38	26.277
756.69	27.517
757.00	26.647
757.31	24.926
757.63	23.684
757.94	23.056
758.25	21.324
758.56	20.988
758.87	25.269
759.18	29.091
759.50	25.705
759.81	22.430
760.12	22.813
760.43	28.080
760.74	22.011
761.05	22.881
761.36	22.460
761.67	25.284
761.99	23.602
762.30	32.986
762.61	30.153
762.92	30.078
763.23	33.193
763.54	35.200
763.85	26.562
764.16	33.077
764.47	29.658
764.78	27.562
765.10	26.899
765.41	25.664
765.72	25.749
766.03	26.646
766.34	26.333
766.65	32.340
766.96	29.487
767.27	41.624
767.58	37.500
767.89	41.579
768.20	37.356
768.51	27.411
768.82	31.193
769.13	31.707
769.44	27.126
769.75	33.047
770.06	25.229
770.37	33.484
770.68	35.648
770.99	34.667
771.30	27.869
771.61	35.874
771.92	34.836
772.23	36.555
772.54	41.538
772.85	40.314
773.16	41.489
773.47	44.565
773.78	41.117
774.09	40.476
774.39	42.690
774.70	38.272
775.01	40.580
775.32	43.791
775.63	38.816
775.94	48.201
776.25	50.394
776.56	41.791
776.87	45.082
777.18	51.563
777.48	55.725
777.79	46.212
778.10	48.148
778.41	51.786
778.72	43.066
779.03	48.993
779.34	46.980
779.65	35.811
779.95	41.104
780.26	44.444
780.57	45.517
780.88	59.375
781.19	50.376
781.50	50.000
781.80	45.283
782.11	41.243
782.42	38.608
782.73	36.810
783.04	42.568
783.34	47.183
783.65	51.370
783.96	44.030
784.27	48.252
784.57	46.763
784.88	54.630
785.19	56.349
785.50	55.660
785.81	44.776
786.11	53.279
786.42	55.814
786.73	50.442
787.04	55.660
787.34	50.893
787.65	65.000
787.96	63.063
788.26	47.934
788.57	54.237
788.88	61.157
789.19	54.861
789.49	55.303
789.80	48.855
790.11	62.857
790.41	61.386
790.72	63.855
791.03	71.739
791.33	66.279
791.64	64.948
791.95	69.307
792.25	66.667
792.56	71.429
792.87	89.744
793.17	83.544
793.48	68.966
793.79	67.816
794.09	69.318
794.40	54.622
794.70	55.882
795.01	47.407
795.32	41.727
795.62	52.756
795.93	59.483
796.23	61.062
796.54	63.529
796.85	74.324
797.15	87.324
797.46	78.788
797.76	79.518
798.07	79.747
798.37	84.615
798.68	72.727
798.99	77.465
799.29	72.727
799.60	69.318
799.90	94.521
800.21	89.552
800.51	72.414
800.82	78.947
801.12	90.164
801.43	84.848
801.73	83.784
802.04	96.825
802.34	85.185
802.65	85.938
802.95	105.085
803.26	115.625
803.56	70.000
803.87	89.231
804.17	69.118
804.48	112.963
804.78	86.207
805.09	91.176
805.39	86.538
805.70	83.929
806.00	96.721
806.30	87.879
806.61	78.049
806.91	54.430
807.22	65.789
807.52	64.179
807.83	71.831
808.13	84.375
808.43	96.667
808.74	71.053
809.04	95.652
809.35	83.582
809.65	81.579
809.95	108.065
810.26	105.085
810.56	88.889
810.86	127.273
811.17	128.571
811.47	93.333
811.77	122.222
812.08	98.182
812.38	116.000
812.69	161.111
812.99	138.636
813.29	122.449
813.59	95.238
813.90	140.816
814.20	90.909
814.50	89.231
814.81	104.412
815.11	116.327
815.41	100.000
815.72	133.333
816.02	114.545
816.32	133.333
816.62	122.500
816.93	109.756
817.23	130.952
817.53	115.909
817.84	175.758
818.14	110.870
818.44	113.333
818.74	155.882
819.04	122.500
819.35	128.571
819.65	173.529
819.95	196.429
820.25	250.000
820.56	128.205
820.86	134.091
821.16	144.186
821.46	148.718
821.76	128.000
822.07	142.857
822.37	160.000
822.67	172.727
822.97	109.804
823.27	185.714
823.57	140.541
823.88	162.500
824.18	186.667
824.48	130.952
824.78	192.000
825.08	200.000
825.38	143.243
825.69	131.707
825.99	195.833
826.29	165.517
826.59	136.842
826.89	144.737
827.19	164.706
827.49	183.871
827.79	136.364
828.09	140.909
828.39	138.298
828.70	142.857
829.00	203.704
829.30	170.968
829.60	150.000
829.90	286.667
830.20	175.000
830.50	213.043
830.80	221.739
831.10	180.000
831.40	210.000
831.70	213.043
832.00	223.077
832.30	188.889
832.60	325.000
832.90	196.667
833.20	385.714
833.50	203.226
833.80	186.207
834.10	203.125
834.40	223.077
834.70	333.333
835.00	304.762
835.30	162.857
835.60	330.769
835.90	172.414
836.20	357.143
836.50	155.172
836.80	188.000
837.10	161.111
837.40	261.905
837.70	300.000
838.00	188.889
838.30	233.333
838.60	328.571
838.90	215.385
839.19	275.000
839.49	485.714
839.79	300.000
840.09	265.000
840.39	252.381
840.69	256.522
840.99	322.222
841.29	520.000
841.59	258.333
841.88	343.750
842.18	162.069
842.48	223.810
842.78	200.000
843.08	239.130
843.38	190.625
843.68	866.667
843.97	219.231
844.27	196.552
844.57	271.429
844.87	337.500
845.17	229.630
845.47	1600.000
845.76	488.889
846.06	311.765
846.36	575.000
846.66	357.143
846.96	275.000
847.25	427.273
847.55	390.909
847.85	291.304
848.15	500.000
848.44	400.000
848.74	233.333
849.04	276.471
849.34	470.000
849.63	294.737
849.93	463.636
850.23	880.000
850.53	350.000
850.82	2200.000
851.12	-4100.000
851.42	4700.000
851.71	230.000
852.01	-1200.000
852.31	270.833
852.61	1900.000
852.90	252.381
853.20	260.000
853.50	317.647
853.79	285.714
854.09	187.500
854.39	381.250
854.68	175.676
854.98	180.645
855.28	170.000
855.57	241.379
855.87	218.519
856.17	205.263
856.46	246.667
856.76	305.882
857.05	217.241
857.35	266.667
857.65	320.000
857.94	278.261
858.24	219.231
858.53	300.000
858.83	245.455
859.13	360.000
859.42	0.000
859.72	500.000
860.01	427.273
860.31	236.364
860.60	273.684
860.90	239.130
861.20	511.111
861.49	450.000
861.79	-4300.000
862.08	600.000
862.38	285.714
862.67	323.077
862.97	370.588
863.26	555.556
863.56	327.778
863.85	441.667
864.15	600.000
864.44	406.667
864.74	933.333
865.03	537.500
865.33	284.211
865.62	463.636
865.92	407.692
866.21	458.333
866.51	0.000
866.80	427.273
867.10	1040.000
867.39	438.462
867.69	436.364
867.98	268.421
868.27	454.545
868.57	315.789
868.86	-3800.000
869.16	375.000
869.45	2300.000
869.75	-3200.000
870.04	466.667
870.33	657.143
870.63	975.000
870.92	3100.000
871.22	757.143
871.51	382.353
871.80	195.238
872.10	442.857
>>>>>End Processed Spectral Data<<<<<
