SpectraSuite Data File
++++++++++++++++++++++++++++++++++++
Date: Wed May 13 19:17:20 PDT 2015
User: schluterlab
Dark Spectrum Present: Yes
Reference Spectrum Present: Yes
Number of Sampled Component Spectra: 1
Spectrometers: USB2E3373
Integration Time (usec): 3000 (USB2E3373)
Spectra Averaged: 3 (USB2E3373)
Boxcar Smoothing: 0 (USB2E3373)
Correct for Electrical Dark: No (USB2E3373)
Strobe/Lamp Enabled: No (USB2E3373)
Correct for Detector Non-linearity: No (USB2E3373)
Correct for Stray Light: No (USB2E3373)
Number of Pixels in Processed Spectrum: 2048
>>>>>Begin Processed Spectral Data<<<<<
178.53	0.000
178.91	-1500.000
179.29	-1500.000
179.67	-227.778
180.04	-1350.000
180.42	2900.000
180.80	1160.000
181.18	-1300.000
181.56	800.000
181.94	0.000
182.31	-585.714
182.69	1966.667
183.07	-700.000
183.45	-588.889
183.83	663.636
184.20	-470.000
184.58	3050.000
184.96	6200.000
185.34	-900.000
185.72	-687.500
186.09	-2450.000
186.47	3000.000
186.85	2400.000
187.23	5500.000
187.61	-1866.667
187.98	1400.000
188.36	572.727
188.74	554.545
189.12	-1160.000
189.49	600.000
189.87	-5300.000
190.25	-1400.000
190.63	492.857
191.00	438.462
191.38	900.000
191.76	-1225.000
192.14	1575.000
192.51	650.000
192.89	1016.667
193.27	725.000
193.65	-1425.000
194.02	570.000
194.40	980.000
194.78	610.000
195.15	591.667
195.53	700.000
195.91	-2650.000
196.29	387.500
196.66	310.526
197.04	-370.000
197.42	0.000
197.79	710.000
198.17	-4800.000
198.55	700.000
198.92	800.000
199.30	1140.000
199.68	0.000
200.05	377.778
200.43	857.143
200.81	5200.000
201.18	1600.000
201.56	-1866.667
201.94	588.889
202.31	744.444
202.69	500.000
203.07	570.000
203.44	0.000
203.82	1425.000
204.19	914.286
204.57	528.571
204.95	662.500
205.32	1666.667
205.70	590.909
206.08	407.143
206.45	3300.000
206.83	406.250
207.20	1100.000
207.58	980.000
207.96	350.000
208.33	787.500
208.71	-900.000
209.08	800.000
209.46	733.333
209.84	436.364
210.21	-1933.333
210.59	1525.000
210.96	-562.500
211.34	3250.000
211.71	590.000
212.09	1200.000
212.46	0.000
212.84	2100.000
213.22	1600.000
213.59	-4600.000
213.97	1116.667
214.34	885.714
214.72	618.182
215.09	1020.000
215.47	-2550.000
215.84	-2850.000
216.22	2033.333
216.59	485.714
216.97	1275.000
217.34	627.273
217.72	-716.667
218.09	0.000
218.47	-5900.000
218.84	822.222
219.22	885.714
219.59	2200.000
219.97	-728.571
220.34	1220.000
220.72	-1966.667
221.09	514.286
221.47	1425.000
221.84	-1016.667
222.22	0.000
222.59	1650.000
222.97	-2800.000
223.34	1240.000
223.72	469.231
224.09	1180.000
224.46	2800.000
224.84	-5300.000
225.21	-1020.000
225.59	-5500.000
225.96	640.000
226.34	320.000
226.71	2900.000
227.08	787.500
227.46	650.000
227.83	-1375.000
228.21	-2600.000
228.58	733.333
228.95	-2450.000
229.33	-2450.000
229.70	1900.000
230.08	928.571
230.45	-1020.000
230.82	508.333
231.20	933.333
231.57	657.143
231.95	466.667
232.32	322.727
232.69	463.636
233.07	857.143
233.44	376.923
233.81	-2133.333
234.19	300.000
234.56	550.000
234.93	475.000
235.31	545.455
235.68	407.692
236.05	500.000
236.43	224.242
236.80	315.789
237.17	5600.000
237.55	247.619
237.92	232.143
238.29	280.952
238.67	200.000
239.04	217.241
239.41	155.556
239.79	119.565
240.16	145.238
240.53	170.455
240.91	96.078
241.28	104.000
241.65	132.000
242.02	107.246
242.40	80.645
242.77	103.333
243.14	77.419
243.51	80.899
243.89	72.941
244.26	68.889
244.63	70.968
245.00	65.957
245.38	63.366
245.75	55.140
246.12	58.716
246.49	56.204
246.87	65.600
247.24	53.077
247.61	45.714
247.98	46.405
248.36	49.324
248.73	43.949
249.10	48.408
249.47	42.373
249.84	43.850
250.22	40.107
250.59	42.604
250.96	38.889
251.33	44.550
251.70	40.594
252.08	41.905
252.45	38.117
252.82	31.739
253.19	31.064
253.56	32.157
253.94	34.025
254.31	38.281
254.68	31.923
255.05	29.889
255.42	28.049
255.79	32.721
256.16	35.018
256.54	27.208
256.91	30.961
257.28	24.101
257.65	28.053
258.02	27.019
258.39	25.868
258.76	27.425
259.14	30.060
259.51	27.660
259.88	22.360
260.25	24.169
260.62	26.301
260.99	29.503
261.36	27.027
261.73	22.350
262.10	23.547
262.47	27.042
262.85	27.019
263.22	19.658
263.59	26.496
263.96	23.352
264.33	24.021
264.70	24.737
265.07	24.808
265.44	24.495
265.81	20.681
266.18	23.869
266.55	21.463
266.92	22.850
267.29	22.917
267.66	22.706
268.03	22.045
268.40	21.495
268.77	23.389
269.14	20.045
269.51	24.605
269.88	23.543
270.25	20.993
270.62	22.022
270.99	21.720
271.36	20.601
271.73	21.262
272.10	20.000
272.47	22.151
272.84	20.779
273.21	21.593
273.58	20.961
273.95	21.384
274.32	19.835
274.69	17.773
275.06	19.685
275.43	20.426
275.80	18.838
276.17	19.145
276.54	22.661
276.91	17.984
277.28	19.922
277.65	20.503
278.02	18.012
278.39	19.922
278.76	21.636
279.13	19.245
279.50	20.484
279.87	17.729
280.23	19.361
280.60	19.729
280.97	18.115
281.34	19.292
281.71	19.455
282.08	20.345
282.45	17.455
282.82	20.782
283.19	17.469
283.56	19.298
283.92	19.966
284.29	17.813
284.66	18.330
285.03	18.264
285.40	16.197
285.77	16.498
286.14	16.580
286.51	19.667
286.87	17.094
287.24	17.101
287.61	16.693
287.98	17.695
288.35	16.799
288.72	16.978
289.08	17.684
289.45	15.980
289.82	18.211
290.19	15.228
290.56	15.467
290.93	15.106
291.29	15.491
291.66	15.044
292.03	17.297
292.40	16.887
292.77	15.533
293.13	17.015
293.50	14.431
293.87	14.519
294.24	15.704
294.60	15.138
294.97	14.390
295.34	16.502
295.71	14.915
296.08	15.385
296.44	15.956
296.81	13.342
297.18	15.583
297.55	12.005
297.91	13.984
298.28	15.797
298.65	13.577
299.02	14.097
299.38	13.413
299.75	10.916
300.12	14.049
300.48	13.750
300.85	14.057
301.22	13.631
301.59	13.636
301.95	14.736
302.32	13.607
302.69	13.023
303.05	12.970
303.42	11.852
303.79	13.590
304.15	12.238
304.52	11.124
304.89	13.357
305.25	13.573
305.62	13.703
305.99	13.577
306.35	11.857
306.72	11.996
307.09	14.095
307.45	12.725
307.82	10.937
308.19	12.693
308.55	12.945
308.92	12.675
309.29	11.510
309.65	11.559
310.02	12.051
310.38	12.151
310.75	12.883
311.12	11.771
311.48	13.062
311.85	13.208
312.22	12.071
312.58	12.578
312.95	13.200
313.31	11.845
313.68	12.370
314.05	12.919
314.41	11.859
314.78	12.286
315.14	11.519
315.51	12.358
315.87	11.980
316.24	11.420
316.61	11.696
316.97	12.622
317.34	12.818
317.70	12.333
318.07	12.705
318.43	13.307
318.80	13.402
319.16	13.748
319.53	13.415
319.89	14.095
320.26	14.800
320.62	13.790
320.99	15.657
321.35	15.152
321.72	15.606
322.08	15.597
322.45	16.219
322.81	15.795
323.18	17.052
323.54	17.440
323.91	17.075
324.27	17.304
324.64	16.216
325.00	16.592
325.37	18.289
325.73	19.031
326.10	17.917
326.46	19.086
326.83	19.672
327.19	19.214
327.56	20.122
327.92	20.385
328.29	20.586
328.65	21.915
329.01	21.570
329.38	20.907
329.74	20.868
330.11	21.206
330.47	22.406
330.84	22.886
331.20	21.858
331.56	21.927
331.93	22.685
332.29	22.626
332.66	23.628
333.02	22.943
333.38	24.119
333.75	23.886
334.11	23.843
334.48	23.425
334.84	24.265
335.20	25.182
335.57	22.937
335.93	23.482
336.29	23.352
336.66	24.166
337.02	23.077
337.38	24.259
337.75	24.332
338.11	25.067
338.47	24.678
338.84	25.481
339.20	24.771
339.56	26.095
339.93	23.909
340.29	25.091
340.65	25.758
341.02	26.091
341.38	25.712
341.74	23.684
342.11	26.026
342.47	25.286
342.83	25.771
343.20	25.195
343.56	25.190
343.92	25.175
344.28	26.020
344.65	25.881
345.01	25.337
345.37	25.815
345.73	25.127
346.10	25.661
346.46	26.102
346.82	26.524
347.19	24.645
347.55	24.959
347.91	26.214
348.27	26.787
348.63	26.338
349.00	25.081
349.36	25.534
349.72	26.303
350.08	25.770
350.45	26.200
350.81	26.076
351.17	25.446
351.53	25.225
351.89	24.670
352.26	25.335
352.62	24.539
352.98	24.797
353.34	26.541
353.70	24.795
354.07	26.290
354.43	25.556
354.79	24.698
355.15	26.018
355.51	26.859
355.87	26.939
356.24	26.221
356.60	24.619
356.96	25.986
357.32	26.329
357.68	26.063
358.04	26.128
358.40	25.574
358.77	25.587
359.13	23.994
359.49	26.196
359.85	25.079
360.21	25.279
360.57	27.704
360.93	26.846
361.29	25.397
361.66	26.316
362.02	26.045
362.38	26.312
362.74	26.786
363.10	24.796
363.46	26.486
363.82	25.775
364.18	26.799
364.54	26.449
364.90	26.700
365.26	26.471
365.62	27.173
365.98	25.274
366.35	26.003
366.71	26.898
367.07	27.240
367.43	27.213
367.79	27.909
368.15	27.443
368.51	26.890
368.87	27.623
369.23	26.993
369.59	27.516
369.95	26.544
370.31	27.066
370.67	27.101
371.03	28.090
371.39	27.988
371.75	27.500
372.11	28.094
372.47	28.006
372.83	28.602
373.19	27.023
373.55	27.494
373.91	28.719
374.27	27.629
374.63	28.655
374.99	28.460
375.35	27.634
375.71	27.964
376.07	28.738
376.42	29.023
376.78	29.092
377.14	28.087
377.50	28.146
377.86	28.191
378.22	29.456
378.58	28.634
378.94	28.158
379.30	29.135
379.66	29.251
380.02	29.484
380.38	28.658
380.74	29.352
381.09	29.829
381.45	30.240
381.81	29.238
382.17	29.172
382.53	30.189
382.89	31.111
383.25	30.019
383.61	30.112
383.97	30.081
384.32	30.505
384.68	30.359
385.04	30.977
385.40	31.146
385.76	30.037
386.12	31.606
386.48	31.278
386.83	31.302
387.19	31.602
387.55	30.550
387.91	31.318
388.27	31.453
388.62	31.039
388.98	31.143
389.34	31.915
389.70	32.189
390.06	32.193
390.42	33.528
390.77	32.570
391.13	32.546
391.49	33.439
391.85	32.081
392.20	31.861
392.56	32.513
392.92	32.902
393.28	32.959
393.64	32.854
393.99	32.682
394.35	33.499
394.71	33.312
395.07	32.586
395.42	33.313
395.78	33.588
396.14	33.706
396.50	35.025
396.85	34.393
397.21	32.244
397.57	33.788
397.92	33.474
398.28	33.184
398.64	34.349
399.00	34.583
399.35	33.559
399.71	34.606
400.07	35.186
400.42	34.847
400.78	35.706
401.14	36.159
401.49	35.642
401.85	35.330
402.21	35.030
402.57	35.102
402.92	35.876
403.28	35.353
403.63	36.015
403.99	36.051
404.35	36.364
404.70	35.971
405.06	34.770
405.42	36.057
405.77	35.314
406.13	35.158
406.49	35.305
406.84	35.854
407.20	35.579
407.55	36.631
407.91	37.533
408.27	36.886
408.62	36.123
408.98	36.826
409.34	37.269
409.69	36.839
410.05	37.794
410.40	36.514
410.76	38.112
411.11	37.093
411.47	36.677
411.83	37.996
412.18	37.353
412.54	37.983
412.89	37.470
413.25	37.013
413.60	37.307
413.96	36.855
414.31	37.485
414.67	39.100
415.03	37.351
415.38	38.080
415.74	38.842
416.09	38.537
416.45	39.090
416.80	38.599
417.16	38.003
417.51	40.013
417.87	37.765
418.22	37.792
418.58	38.993
418.93	38.759
419.29	39.720
419.64	39.232
420.00	38.110
420.35	38.899
420.71	38.673
421.06	38.305
421.42	38.713
421.77	38.509
422.12	39.023
422.48	37.777
422.83	38.847
423.19	38.895
423.54	38.828
423.90	39.420
424.25	39.196
424.61	39.167
424.96	39.942
425.31	39.590
425.67	39.438
426.02	39.657
426.38	41.087
426.73	40.667
427.09	39.574
427.44	38.815
427.79	39.160
428.15	40.060
428.50	39.321
428.85	39.750
429.21	38.929
429.56	38.932
429.92	39.104
430.27	39.474
430.62	38.146
430.98	39.958
431.33	39.124
431.68	39.581
432.04	39.989
432.39	40.720
432.74	40.814
433.10	41.087
433.45	40.758
433.80	40.133
434.16	40.171
434.51	40.158
434.86	40.308
435.22	41.301
435.57	40.608
435.92	40.140
436.28	41.815
436.63	40.121
436.98	40.584
437.34	41.562
437.69	41.424
438.04	41.315
438.39	41.612
438.75	41.081
439.10	42.346
439.45	41.204
439.81	41.873
440.16	41.446
440.51	40.773
440.86	42.386
441.22	40.768
441.57	41.030
441.92	41.146
442.27	40.958
442.63	40.600
442.98	42.479
443.33	41.033
443.68	41.146
444.03	42.069
444.39	40.360
444.74	40.963
445.09	41.402
445.44	41.279
445.79	41.019
446.15	40.868
446.50	40.549
446.85	41.110
447.20	41.203
447.55	42.658
447.91	41.754
448.26	42.126
448.61	41.153
448.96	41.584
449.31	42.070
449.66	41.249
450.02	41.616
450.37	41.610
450.72	40.948
451.07	41.438
451.42	40.243
451.77	42.572
452.12	41.109
452.47	42.226
452.83	41.492
453.18	42.482
453.53	41.806
453.88	41.937
454.23	42.200
454.58	41.914
454.93	43.166
455.28	41.272
455.63	41.201
455.98	42.321
456.34	41.332
456.69	41.641
457.04	41.796
457.39	41.438
457.74	41.962
458.09	41.288
458.44	41.562
458.79	40.347
459.14	41.704
459.49	41.973
459.84	40.665
460.19	40.719
460.54	40.336
460.89	41.360
461.24	40.923
461.59	42.475
461.94	42.417
462.29	41.780
462.64	41.417
462.99	40.859
463.34	41.467
463.69	41.964
464.04	41.971
464.39	40.406
464.74	41.355
465.09	40.470
465.44	40.886
465.79	39.653
466.14	40.339
466.49	40.378
466.84	41.798
467.19	41.581
467.54	41.937
467.89	41.116
468.24	41.827
468.59	41.941
468.94	40.990
469.29	41.774
469.64	42.771
469.99	41.949
470.34	41.017
470.68	42.170
471.03	41.497
471.38	42.182
471.73	41.039
472.08	41.711
472.43	41.394
472.78	41.145
473.13	41.463
473.48	41.760
473.83	40.976
474.17	40.821
474.52	41.935
474.87	41.039
475.22	40.685
475.57	39.979
475.92	40.361
476.27	40.981
476.61	40.099
476.96	40.572
477.31	39.089
477.66	41.685
478.01	39.676
478.36	39.662
478.70	39.823
479.05	40.628
479.40	40.532
479.75	40.315
480.10	40.010
480.45	40.314
480.79	38.653
481.14	40.998
481.49	40.626
481.84	39.369
482.19	39.709
482.53	39.083
482.88	39.972
483.23	39.813
483.58	38.763
483.92	40.300
484.27	38.388
484.62	39.095
484.97	38.431
485.31	39.349
485.66	36.603
486.01	35.814
486.36	34.660
486.70	34.590
487.05	36.333
487.40	36.849
487.75	36.966
488.09	38.641
488.44	38.426
488.79	39.602
489.13	40.183
489.48	39.396
489.83	38.886
490.17	39.807
490.52	38.973
490.87	37.901
491.22	38.745
491.56	37.631
491.91	38.576
492.26	38.218
492.60	38.433
492.95	38.120
493.30	39.393
493.64	39.571
493.99	39.229
494.34	38.575
494.68	39.148
495.03	38.722
495.37	39.134
495.72	40.156
496.07	39.118
496.41	38.628
496.76	37.687
497.11	37.731
497.45	38.752
497.80	39.155
498.14	38.019
498.49	38.341
498.84	38.495
499.18	38.429
499.53	38.889
499.87	37.884
500.22	38.295
500.56	39.612
500.91	37.837
501.26	38.834
501.60	39.535
501.95	37.855
502.29	39.082
502.64	39.013
502.98	38.149
503.33	37.431
503.67	38.329
504.02	38.354
504.36	38.325
504.71	38.593
505.06	38.024
505.40	38.989
505.75	36.933
506.09	38.192
506.44	39.467
506.78	38.578
507.13	39.122
507.47	38.788
507.82	39.260
508.16	39.767
508.51	39.472
508.85	38.481
509.19	39.082
509.54	38.367
509.88	38.640
510.23	38.509
510.57	39.835
510.92	39.202
511.26	38.181
511.61	38.849
511.95	38.100
512.30	37.699
512.64	38.528
512.98	38.960
513.33	39.293
513.67	38.847
514.02	38.690
514.36	40.251
514.70	39.790
515.05	39.543
515.39	38.755
515.74	38.851
516.08	39.631
516.42	39.900
516.77	40.245
517.11	39.068
517.46	40.463
517.80	39.837
518.14	39.548
518.49	40.082
518.83	39.545
519.17	39.954
519.52	39.502
519.86	39.817
520.20	39.595
520.55	40.215
520.89	40.815
521.23	39.686
521.58	38.836
521.92	40.478
522.26	38.743
522.61	40.000
522.95	39.104
523.29	39.623
523.64	40.305
523.98	40.173
524.32	39.686
524.66	40.108
525.01	39.277
525.35	38.724
525.69	38.239
526.04	39.377
526.38	40.024
526.72	40.368
527.06	39.862
527.41	38.366
527.75	39.550
528.09	40.591
528.43	40.089
528.78	39.582
529.12	39.818
529.46	40.478
529.80	39.728
530.15	39.938
530.49	39.200
530.83	40.127
531.17	40.405
531.51	40.661
531.86	40.581
532.20	40.222
532.54	41.320
532.88	39.795
533.22	38.413
533.57	38.272
533.91	39.916
534.25	39.064
534.59	38.804
534.93	39.024
535.27	38.564
535.62	39.499
535.96	39.799
536.30	40.051
536.64	41.404
536.98	39.748
537.32	39.829
537.66	39.867
538.01	40.487
538.35	39.690
538.69	39.821
539.03	38.596
539.37	38.275
539.71	39.598
540.05	38.824
540.39	40.199
540.73	39.133
541.07	40.688
541.42	38.682
541.76	40.065
542.10	38.098
542.44	39.007
542.78	40.053
543.12	37.876
543.46	39.869
543.80	39.102
544.14	38.383
544.48	39.937
544.82	38.999
545.16	38.777
545.50	39.139
545.84	41.062
546.18	38.923
546.52	39.504
546.86	39.313
547.20	39.245
547.54	39.078
547.88	39.222
548.22	39.041
548.56	37.862
548.90	37.580
549.24	40.202
549.58	39.495
549.92	39.286
550.26	40.199
550.60	39.212
550.94	39.437
551.28	39.649
551.62	39.684
551.96	38.386
552.30	38.430
552.64	38.607
552.98	38.644
553.32	38.975
553.66	38.855
554.00	39.327
554.34	38.647
554.68	39.485
555.02	38.646
555.36	38.553
555.69	37.618
556.03	37.550
556.37	38.131
556.71	36.835
557.05	38.515
557.39	38.908
557.73	38.109
558.07	38.869
558.41	39.580
558.75	38.428
559.08	39.299
559.42	39.153
559.76	39.118
560.10	38.687
560.44	37.596
560.78	36.394
561.12	37.401
561.45	37.940
561.79	36.849
562.13	37.894
562.47	38.456
562.81	38.145
563.15	37.726
563.48	37.666
563.82	37.443
564.16	35.971
564.50	36.784
564.84	36.536
565.17	36.358
565.51	37.380
565.85	36.802
566.19	35.755
566.52	37.302
566.86	35.443
567.20	36.616
567.54	36.587
567.88	35.035
568.21	36.296
568.55	35.288
568.89	35.165
569.23	34.938
569.56	33.482
569.90	33.245
570.24	33.046
570.57	33.186
570.91	32.094
571.25	32.551
571.59	31.988
571.92	32.056
572.26	32.091
572.60	32.102
572.93	32.384
573.27	32.505
573.61	31.993
573.95	31.654
574.28	31.407
574.62	31.390
574.96	30.705
575.29	31.062
575.63	30.869
575.97	31.190
576.30	31.253
576.64	30.882
576.98	30.773
577.31	30.638
577.65	30.814
577.98	30.881
578.32	30.222
578.66	30.629
578.99	30.381
579.33	31.179
579.67	30.528
580.00	31.024
580.34	31.087
580.67	30.655
581.01	30.492
581.35	30.088
581.68	30.091
582.02	29.823
582.35	29.693
582.69	30.529
583.02	30.278
583.36	30.620
583.70	31.194
584.03	30.747
584.37	31.858
584.70	31.348
585.04	30.479
585.37	30.266
585.71	30.475
586.04	30.708
586.38	31.139
586.72	30.820
587.05	29.775
587.39	30.501
587.72	30.430
588.06	30.683
588.39	30.864
588.73	31.211
589.06	31.661
589.40	31.919
589.73	31.749
590.07	31.423
590.40	31.202
590.73	32.240
591.07	32.112
591.40	32.518
591.74	33.593
592.07	32.897
592.41	31.831
592.74	30.637
593.08	30.413
593.41	30.022
593.75	29.669
594.08	30.372
594.41	31.142
594.75	31.349
595.08	30.923
595.42	31.559
595.75	30.520
596.09	31.618
596.42	32.495
596.75	32.123
597.09	31.905
597.42	30.776
597.75	31.436
598.09	31.261
598.42	31.658
598.76	30.280
599.09	30.027
599.42	29.913
599.76	29.722
600.09	30.091
600.42	29.584
600.76	29.429
601.09	30.565
601.42	31.279
601.76	30.474
602.09	30.514
602.42	31.250
602.76	31.358
603.09	30.212
603.42	31.043
603.76	29.649
604.09	30.632
604.42	30.697
604.76	31.548
605.09	31.062
605.42	30.740
605.75	30.050
606.09	30.500
606.42	30.527
606.75	30.610
607.09	30.347
607.42	30.595
607.75	29.662
608.08	29.917
608.42	30.704
608.75	30.613
609.08	30.620
609.41	30.890
609.75	30.967
610.08	31.527
610.41	30.587
610.74	31.552
611.07	30.830
611.41	30.177
611.74	31.624
612.07	31.832
612.40	32.371
612.73	31.579
613.07	31.142
613.40	31.016
613.73	30.676
614.06	31.505
614.39	30.939
614.72	31.316
615.06	30.567
615.39	30.892
615.72	30.777
616.05	30.888
616.38	30.962
616.71	31.770
617.05	31.390
617.38	30.788
617.71	31.111
618.04	32.452
618.37	31.579
618.70	31.176
619.03	32.171
619.36	31.636
619.69	32.817
620.03	32.967
620.36	32.086
620.69	32.466
621.02	32.596
621.35	33.203
621.68	32.632
622.01	32.663
622.34	33.359
622.67	33.308
623.00	32.355
623.33	31.880
623.66	32.023
623.99	33.432
624.32	31.526
624.65	31.356
624.99	31.232
625.32	31.354
625.65	33.358
625.98	33.128
626.31	32.970
626.64	33.306
626.97	33.915
627.30	33.416
627.63	34.126
627.96	32.717
628.29	34.033
628.62	34.675
628.95	35.377
629.28	35.036
629.61	34.830
629.94	33.619
630.26	33.937
630.59	33.556
630.92	34.579
631.25	34.057
631.58	33.734
631.91	33.570
632.24	35.021
632.57	34.732
632.90	34.211
633.23	35.906
633.56	35.932
633.89	36.353
634.22	34.847
634.55	36.568
634.88	34.731
635.20	37.395
635.53	34.940
635.86	37.376
636.19	35.176
636.52	34.256
636.85	35.853
637.18	34.332
637.51	36.525
637.83	34.772
638.16	36.573
638.49	36.398
638.82	36.789
639.15	37.375
639.48	37.032
639.81	36.193
640.13	36.328
640.46	37.718
640.79	34.478
641.12	34.938
641.45	37.291
641.77	38.733
642.10	36.988
642.43	36.036
642.76	37.771
643.09	40.031
643.41	36.722
643.74	37.654
644.07	39.177
644.40	37.730
644.73	40.472
645.05	39.461
645.38	37.283
645.71	40.097
646.04	38.704
646.36	40.735
646.69	40.635
647.02	40.306
647.35	39.347
647.67	40.177
648.00	38.537
648.33	35.149
648.66	36.515
648.98	38.531
649.31	36.771
649.64	35.725
649.96	35.917
650.29	35.387
650.62	36.246
650.94	38.250
651.27	41.554
651.60	39.933
651.92	39.457
652.25	36.808
652.58	36.293
652.90	36.967
653.23	35.901
653.56	35.276
653.88	38.352
654.21	37.599
654.54	36.634
654.86	36.760
655.19	35.811
655.52	23.192
655.84	19.407
656.17	25.100
656.49	34.442
656.82	35.817
657.15	27.595
657.47	20.613
657.80	16.108
658.13	17.040
658.45	26.197
658.78	26.246
659.10	28.118
659.43	30.293
659.75	31.979
660.08	35.127
660.41	38.082
660.73	40.534
661.06	38.217
661.38	40.545
661.71	40.385
662.03	41.223
662.36	40.358
662.68	39.759
663.01	40.000
663.33	39.703
663.66	42.437
663.98	39.309
664.31	37.185
664.63	37.449
664.96	37.626
665.28	39.754
665.61	37.817
665.93	38.431
666.26	40.365
666.58	39.540
666.91	41.649
667.23	41.573
667.56	38.877
667.88	41.239
668.21	39.659
668.53	39.262
668.86	38.961
669.18	40.938
669.50	38.696
669.83	42.266
670.15	39.556
670.48	39.651
670.80	40.517
671.13	42.675
671.45	36.170
671.77	38.900
672.10	36.044
672.42	35.512
672.75	34.328
673.07	36.092
673.39	35.624
673.72	36.133
674.04	37.647
674.37	36.893
674.69	38.037
675.01	38.703
675.34	40.246
675.66	40.421
675.98	37.271
676.31	40.336
676.63	38.854
676.95	37.736
677.28	41.355
677.60	40.659
677.92	40.295
678.25	36.550
678.57	37.849
678.89	35.471
679.22	38.114
679.54	37.786
679.86	37.798
680.18	36.494
680.51	34.929
680.83	37.189
681.15	37.925
681.48	38.185
681.80	37.911
682.12	35.441
682.44	33.849
682.77	38.493
683.09	41.416
683.41	37.472
683.73	41.280
684.06	40.289
684.38	38.552
684.70	37.209
685.02	36.585
685.34	35.531
685.67	34.266
685.99	32.818
686.31	33.106
686.63	31.625
686.96	33.393
687.28	36.282
687.60	34.601
687.92	35.101
688.24	35.551
688.56	40.161
688.89	35.892
689.21	38.865
689.53	39.248
689.85	38.137
690.17	33.747
690.49	39.703
690.82	39.252
691.14	35.714
691.46	38.186
691.78	36.145
692.10	39.463
692.42	36.527
692.74	34.025
693.06	37.234
693.39	36.345
693.71	37.991
694.03	35.789
694.35	37.662
694.67	37.071
694.99	39.756
695.31	37.990
695.63	37.560
695.95	36.675
696.27	38.579
696.59	36.269
696.91	40.933
697.23	33.803
697.56	34.755
697.88	33.742
698.20	35.625
698.52	37.634
698.84	39.198
699.16	38.018
699.48	39.192
699.80	39.372
700.12	43.117
700.44	38.992
700.76	38.398
701.08	39.655
701.40	37.989
701.72	42.566
702.04	43.750
702.36	39.377
702.68	41.926
703.00	39.058
703.32	39.096
703.64	39.142
703.96	37.883
704.28	39.244
704.60	41.056
704.91	44.510
705.23	41.935
705.55	44.850
705.87	43.854
706.19	44.876
706.51	38.941
706.83	45.455
707.15	42.017
707.47	34.091
707.79	41.769
708.11	38.584
708.43	36.429
708.74	36.224
709.06	40.260
709.38	41.995
709.70	42.733
710.02	42.730
710.34	39.091
710.66	43.582
710.98	38.920
711.29	41.570
711.61	42.773
711.93	41.026
712.25	42.765
712.57	44.485
712.89	44.291
713.20	42.857
713.52	41.447
713.84	41.139
714.16	39.939
714.48	37.069
714.80	42.857
715.11	41.210
715.43	41.246
715.75	40.870
716.07	41.534
716.39	38.558
716.70	47.841
717.02	47.842
717.34	43.110
717.66	48.134
717.97	47.410
718.29	42.222
718.61	40.876
718.93	47.794
719.24	42.215
719.56	43.390
719.88	44.068
720.20	44.595
720.51	45.645
720.83	47.212
721.15	40.299
721.46	40.426
721.78	43.011
722.10	44.151
722.42	46.241
722.73	42.697
723.05	42.623
723.37	43.320
723.68	45.560
724.00	45.122
724.32	42.742
724.63	49.593
724.95	41.841
725.27	44.130
725.58	46.484
725.90	43.796
726.22	39.623
726.53	40.278
726.85	42.662
727.16	44.484
727.48	39.716
727.80	44.318
728.11	42.029
728.43	44.231
728.74	45.520
729.06	47.810
729.38	49.265
729.69	46.263
730.01	39.249
730.32	40.972
730.64	41.137
730.96	36.964
731.27	43.709
731.59	38.532
731.90	36.152
732.22	38.509
732.53	35.913
732.85	38.462
733.16	37.621
733.48	42.525
733.80	41.558
734.11	43.949
734.43	37.870
734.74	35.143
735.06	34.097
735.37	40.462
735.69	37.580
736.00	40.523
736.32	37.072
736.63	37.700
736.95	42.173
737.26	32.313
737.58	38.710
737.89	37.458
738.21	42.321
738.52	40.357
738.83	44.528
739.15	39.615
739.46	44.161
739.78	39.236
740.09	40.615
740.41	41.290
740.72	37.631
741.04	40.370
741.35	41.250
741.66	50.667
741.98	44.811
742.29	45.455
742.61	50.000
742.92	44.344
743.23	43.590
743.55	45.600
743.86	42.982
744.18	53.097
744.49	50.718
744.80	49.765
745.12	52.273
745.43	41.410
745.74	48.649
746.06	46.789
746.37	47.982
746.68	46.606
747.00	50.000
747.31	47.619
747.62	44.248
747.94	43.172
748.25	39.574
748.56	50.661
748.88	47.030
749.19	57.500
749.50	47.907
749.82	44.309
750.13	40.816
750.44	40.876
750.75	44.211
751.07	44.373
751.38	39.721
751.69	39.711
752.01	44.361
752.32	41.516
752.63	39.007
752.94	42.623
753.26	46.000
753.57	39.837
753.88	44.531
754.19	38.214
754.51	44.097
754.82	41.516
755.13	42.264
755.44	41.353
755.75	42.336
756.07	41.489
756.38	36.496
756.69	39.262
757.00	35.030
757.31	33.234
757.63	35.673
757.94	36.461
758.25	31.373
758.56	33.333
758.87	35.215
759.18	40.000
759.50	36.991
759.81	39.564
760.12	35.312
760.43	34.670
760.74	35.054
761.05	37.571
761.36	33.155
761.67	37.500
761.99	36.957
762.30	36.111
762.61	40.076
762.92	41.016
763.23	44.538
763.54	46.000
763.85	42.578
764.16	46.154
764.47	44.106
764.78	34.629
765.10	33.544
765.41	35.693
765.72	37.725
766.03	39.812
766.34	39.000
766.65	45.106
766.96	46.581
767.27	49.746
767.58	45.312
767.89	54.737
768.20	56.322
768.51	48.223
768.82	55.963
769.13	44.309
769.44	39.271
769.75	47.639
770.06	34.862
770.37	47.964
770.68	46.759
770.99	44.000
771.30	40.984
771.61	45.291
771.92	40.574
772.23	52.101
772.54	49.231
772.85	51.309
773.16	52.660
773.47	52.717
773.78	48.731
774.09	47.619
774.39	50.877
774.70	50.617
775.01	60.145
775.32	67.320
775.63	46.711
775.94	60.432
776.25	62.992
776.56	58.955
776.87	68.033
777.18	67.187
777.48	69.466
777.79	65.152
778.10	58.519
778.41	66.071
778.72	54.745
779.03	63.087
779.34	58.389
779.65	54.054
779.95	54.601
780.26	58.824
780.57	66.897
780.88	75.781
781.19	63.910
781.50	62.838
781.80	52.830
782.11	50.282
782.42	52.532
782.73	54.601
783.04	60.135
783.34	60.563
783.65	63.699
783.96	67.910
784.27	55.944
784.57	52.518
784.88	68.519
785.19	64.286
785.50	69.811
785.81	61.194
786.11	77.049
786.42	67.442
786.73	64.602
787.04	66.038
787.34	65.179
787.65	77.000
787.96	74.775
788.26	62.810
788.57	75.424
788.88	71.901
789.19	68.056
789.49	62.121
789.80	64.122
790.11	82.857
790.41	85.149
790.72	75.904
791.03	79.348
791.33	86.047
791.64	74.227
791.95	81.188
792.25	81.111
792.56	80.519
792.87	93.590
793.17	101.266
793.48	80.460
793.79	91.954
794.09	76.136
794.40	68.067
794.70	66.912
795.01	55.556
795.32	53.237
795.62	55.906
795.93	68.966
796.23	61.062
796.54	90.588
796.85	81.081
797.15	123.944
797.46	103.030
797.76	95.181
798.07	86.076
798.37	90.769
798.68	100.000
798.99	94.366
799.29	85.714
799.60	71.591
799.90	104.110
800.21	110.448
800.51	134.483
800.82	108.772
801.12	101.639
801.43	110.606
801.73	85.135
802.04	96.825
802.34	98.765
802.65	103.125
802.95	113.559
803.26	139.063
803.56	88.571
803.87	106.154
804.17	108.824
804.48	140.741
804.78	105.172
805.09	110.294
805.39	109.615
805.70	112.500
806.00	119.672
806.30	107.576
806.61	86.585
806.91	77.215
807.22	86.842
807.52	86.567
807.83	94.366
808.13	121.875
808.43	105.000
808.74	82.895
809.04	108.696
809.35	102.985
809.65	96.053
809.95	129.032
810.26	105.085
810.56	101.587
810.86	159.091
811.17	161.905
811.47	135.000
811.77	142.593
812.08	121.818
812.38	118.000
812.69	158.333
812.99	193.182
813.29	132.653
813.59	126.190
813.90	171.429
814.20	121.818
814.50	104.615
814.81	110.294
815.11	128.571
815.41	113.115
815.72	152.381
816.02	132.727
816.32	166.667
816.62	137.500
816.93	129.268
817.23	166.667
817.53	147.727
817.84	200.000
818.14	143.478
818.44	140.000
818.74	179.412
819.04	175.000
819.35	205.714
819.65	182.353
819.95	228.571
820.25	270.000
820.56	184.615
820.86	152.273
821.16	125.581
821.46	151.282
821.76	162.000
822.07	191.429
822.37	182.500
822.67	196.970
822.97	127.451
823.27	214.286
823.57	170.270
823.88	180.000
824.18	203.333
824.48	161.905
824.78	244.000
825.08	183.333
825.38	162.162
825.69	158.537
825.99	250.000
826.29	172.414
826.59	163.158
826.89	150.000
827.19	185.294
827.49	196.774
827.79	175.000
828.09	154.545
828.39	131.915
828.70	151.020
829.00	237.037
829.30	219.355
829.60	150.000
829.90	360.000
830.20	235.714
830.50	217.391
830.80	239.130
831.10	230.000
831.40	213.333
831.70	217.391
832.00	230.769
832.30	248.148
832.60	400.000
832.90	243.333
833.20	485.714
833.50	251.613
833.80	210.345
834.10	209.375
834.40	276.923
834.70	283.333
835.00	361.905
835.30	191.429
835.60	330.769
835.90	248.276
836.20	428.571
836.50	220.690
836.80	216.000
837.10	169.444
837.40	252.381
837.70	429.412
838.00	218.519
838.30	261.905
838.60	328.571
838.90	269.231
839.19	305.000
839.49	485.714
839.79	375.000
840.09	250.000
840.39	309.524
840.69	286.957
840.99	383.333
841.29	480.000
841.59	458.333
841.88	375.000
842.18	210.345
842.48	300.000
842.78	203.333
843.08	269.565
843.38	215.625
843.68	900.000
843.97	238.462
844.27	224.138
844.57	300.000
844.87	387.500
845.17	211.111
845.47	1633.333
845.76	522.222
846.06	352.941
846.36	687.500
846.66	378.571
846.96	412.500
847.25	536.364
847.55	518.182
847.85	291.304
848.15	700.000
848.44	450.000
848.74	316.667
849.04	341.176
849.34	640.000
849.63	289.474
849.93	627.273
850.23	1120.000
850.53	457.143
850.82	2950.000
851.12	-5000.000
851.42	5300.000
851.71	285.000
852.01	-1400.000
852.31	254.167
852.61	1733.333
852.90	290.476
853.20	240.000
853.50	364.706
853.79	323.810
854.09	233.333
854.39	337.500
854.68	221.622
854.98	190.323
855.28	176.667
855.57	210.345
855.87	225.926
856.17	315.789
856.46	320.000
856.76	311.765
857.05	217.241
857.35	241.667
857.65	360.000
857.94	291.304
858.24	292.308
858.53	310.000
858.83	263.636
859.13	420.000
859.42	0.000
859.72	655.556
860.01	545.455
860.31	318.182
860.60	284.211
860.90	256.522
861.20	600.000
861.49	600.000
861.79	-5200.000
862.08	800.000
862.38	328.571
862.67	400.000
862.97	370.588
863.26	588.889
863.56	283.333
863.85	458.333
864.15	737.500
864.44	406.667
864.74	1083.333
865.03	775.000
865.33	321.053
865.62	463.636
865.92	407.692
866.21	375.000
866.51	0.000
866.80	536.364
867.10	1140.000
867.39	576.923
867.69	463.636
867.98	336.842
868.27	572.727
868.57	352.632
868.86	-4800.000
869.16	393.750
869.45	2350.000
869.75	-5200.000
870.04	475.000
870.33	800.000
870.63	1325.000
870.92	2900.000
871.22	928.571
871.51	388.235
871.80	247.619
872.10	485.714
>>>>>End Processed Spectral Data<<<<<
