SpectraSuite Data File
++++++++++++++++++++++++++++++++++++
Date: Tue May 12 19:47:33 PDT 2015
User: schluterlab
Dark Spectrum Present: Yes
Reference Spectrum Present: Yes
Number of Sampled Component Spectra: 1
Spectrometers: USB2E3373
Integration Time (usec): 3000 (USB2E3373)
Spectra Averaged: 3 (USB2E3373)
Boxcar Smoothing: 0 (USB2E3373)
Correct for Electrical Dark: No (USB2E3373)
Strobe/Lamp Enabled: No (USB2E3373)
Correct for Detector Non-linearity: No (USB2E3373)
Correct for Stray Light: No (USB2E3373)
Number of Pixels in Processed Spectrum: 2048
>>>>>Begin Processed Spectral Data<<<<<
178.53	0.000
178.91	-180.000
179.29	-83.333
179.67	300.000
180.04	0.000
180.42	-80.000
180.80	-233.333
181.18	950.000
181.56	-750.000
181.94	283.333
182.31	2500.000
182.69	-128.571
183.07	0.000
183.45	225.000
183.83	380.000
184.20	350.000
184.58	700.000
184.96	416.667
185.34	-200.000
185.72	-100.000
186.09	-183.333
186.47	-800.000
186.85	-240.000
187.23	158.333
187.61	-85.714
187.98	-200.000
188.36	350.000
188.74	-25.000
189.12	-100.000
189.49	-150.000
189.87	250.000
190.25	155.556
190.63	433.333
191.00	240.000
191.38	-233.333
191.76	340.000
192.14	-114.286
192.51	-60.000
192.89	-200.000
193.27	-220.000
193.65	-433.333
194.02	-233.333
194.40	1100.000
194.78	-150.000
195.15	-285.714
195.53	466.667
195.91	280.000
196.29	-475.000
196.66	-266.667
197.04	-57.143
197.42	140.000
197.79	-187.500
198.17	-75.000
198.55	-900.000
198.92	-177.778
199.30	1250.000
199.68	-325.000
200.05	-1200.000
200.43	-61.111
200.81	-41.667
201.18	366.667
201.56	-550.000
201.94	-2000.000
202.31	-66.667
202.69	88.889
203.07	-50.000
203.44	-325.000
203.82	0.000
204.19	62.500
204.57	-833.333
204.95	181.818
205.32	360.000
205.70	475.000
206.08	-500.000
206.45	-280.000
206.83	1900.000
207.20	-200.000
207.58	-7.692
207.96	566.667
208.33	500.000
208.71	700.000
209.08	800.000
209.46	-44.444
209.84	566.667
210.21	-333.333
210.59	350.000
210.96	144.444
211.34	-375.000
211.71	500.000
212.09	-140.000
212.46	-100.000
212.84	-12.500
213.22	128.571
213.59	-87.500
213.97	0.000
214.34	-300.000
214.72	-700.000
215.09	600.000
215.47	-20.000
215.84	-62.500
216.22	-1200.000
216.59	800.000
216.97	-41.667
217.34	-66.667
217.72	-5.556
218.09	425.000
218.47	-68.421
218.84	-150.000
219.22	14.286
219.59	-130.000
219.97	10.000
220.34	250.000
220.72	127.273
221.09	-750.000
221.47	0.000
221.84	550.000
222.22	-400.000
222.59	-175.000
222.97	-30.435
223.34	146.667
223.72	542.857
224.09	-33.333
224.46	169.231
224.84	-46.667
225.21	-450.000
225.59	-250.000
225.96	10.000
226.34	266.667
226.71	210.000
227.08	-46.154
227.46	-71.429
227.83	-25.000
228.21	-450.000
228.58	100.000
228.95	-21.053
229.33	-25.000
229.70	-150.000
230.08	-177.778
230.45	-500.000
230.82	-800.000
231.20	-14.286
231.57	-340.000
231.95	-300.000
232.32	155.556
232.69	-550.000
233.07	62.500
233.44	-62.500
233.81	38.710
234.19	-220.000
234.56	-11.111
234.93	-116.667
235.31	29.630
235.68	22.222
236.05	-26.923
236.43	21.053
236.80	-4.545
237.17	-85.714
237.55	-60.000
237.92	9.302
238.29	-45.161
238.67	-3.571
239.04	28.571
239.41	17.647
239.79	24.000
240.16	32.500
240.53	5.172
240.91	17.808
241.28	1.408
241.65	21.875
242.02	14.035
242.40	16.000
242.77	20.000
243.14	24.706
243.51	19.355
243.89	24.762
244.26	28.704
244.63	16.327
245.00	22.321
245.38	18.487
245.75	26.271
246.12	26.562
246.49	28.800
246.87	27.049
247.24	21.831
247.61	20.530
247.98	23.034
248.36	22.642
248.73	23.864
249.10	22.222
249.47	25.000
249.84	32.995
250.22	21.875
250.59	30.899
250.96	30.000
251.33	33.962
251.70	34.404
252.08	35.498
252.45	22.857
252.82	32.489
253.19	29.961
253.56	30.196
253.94	33.333
254.31	30.576
254.68	26.389
255.05	33.113
255.42	26.545
255.79	32.781
256.16	28.472
256.54	31.515
256.91	31.731
257.28	31.169
257.65	30.164
258.02	33.634
258.39	32.024
258.76	29.664
259.14	28.529
259.51	33.521
259.88	32.565
260.25	29.545
260.62	31.742
260.99	33.705
261.36	29.885
261.73	27.467
262.10	32.698
262.47	33.884
262.85	31.620
263.22	34.677
263.59	30.831
263.96	30.026
264.33	30.728
264.70	31.941
265.07	30.788
265.44	35.597
265.81	33.976
266.18	30.913
266.55	31.190
266.92	31.696
267.29	32.667
267.66	27.955
268.03	31.828
268.40	32.723
268.77	30.512
269.14	30.462
269.51	31.448
269.88	31.624
270.25	30.591
270.62	32.773
270.99	30.947
271.36	30.243
271.73	30.833
272.10	30.290
272.47	30.200
272.84	29.512
273.21	32.150
273.58	30.612
273.95	30.279
274.32	33.075
274.69	30.724
275.06	34.522
275.43	29.800
275.80	30.402
276.17	29.447
276.54	33.270
276.91	31.862
277.28	31.915
277.65	31.569
278.02	32.008
278.39	32.668
278.76	31.099
279.13	30.769
279.50	30.866
279.87	30.755
280.23	30.965
280.60	28.269
280.97	31.283
281.34	31.186
281.71	28.597
282.08	28.980
282.45	30.511
282.82	29.293
283.19	30.976
283.56	31.570
283.92	30.490
284.29	32.149
284.66	27.788
285.03	28.645
285.40	32.000
285.77	31.527
286.14	29.952
286.51	30.386
286.87	28.201
287.24	28.205
287.61	29.321
287.98	32.238
288.35	29.767
288.72	30.122
289.08	27.358
289.45	26.521
289.82	27.329
290.19	28.030
290.56	27.062
290.93	27.622
291.29	27.376
291.66	29.635
292.03	28.551
292.40	28.633
292.77	24.636
293.13	25.404
293.50	25.895
293.87	26.075
294.24	25.421
294.60	25.683
294.97	26.316
295.34	24.521
295.71	25.243
296.08	26.366
296.44	25.560
296.81	24.709
297.18	24.191
297.55	23.367
297.91	23.096
298.28	23.529
298.65	24.580
299.02	25.894
299.38	23.087
299.75	24.968
300.12	24.700
300.48	24.648
300.85	22.738
301.22	23.918
301.59	22.749
301.95	24.756
302.32	24.180
302.69	22.949
303.05	23.495
303.42	23.188
303.79	22.697
304.15	22.877
304.52	23.575
304.89	22.773
305.25	25.000
305.62	23.295
305.99	23.740
306.35	23.937
306.72	23.094
307.09	22.851
307.45	20.712
307.82	23.052
308.19	23.432
308.55	23.101
308.92	23.305
309.29	22.908
309.65	22.601
310.02	21.803
310.38	23.454
310.75	23.873
311.12	24.110
311.48	24.152
311.85	23.911
312.22	23.657
312.58	23.162
312.95	22.998
313.31	23.500
313.68	24.032
314.05	26.316
314.41	23.969
314.78	22.513
315.14	25.563
315.51	26.614
315.87	26.270
316.24	25.519
316.61	26.505
316.97	26.765
317.34	26.411
317.70	27.731
318.07	28.351
318.43	27.788
318.80	28.233
319.16	28.145
319.53	30.377
319.89	29.545
320.26	31.170
320.62	31.977
320.99	32.653
321.35	32.016
321.72	33.131
322.08	34.455
322.45	33.531
322.81	34.975
323.18	37.200
323.54	38.104
323.91	38.140
324.27	38.091
324.64	38.051
325.00	38.217
325.37	41.727
325.73	42.153
326.10	42.382
326.46	44.606
326.83	45.998
327.19	46.463
327.56	48.718
327.92	46.701
328.29	48.387
328.65	51.601
329.01	48.440
329.38	50.597
329.74	50.975
330.11	49.767
330.47	54.283
330.84	52.726
331.20	52.773
331.56	53.491
331.93	54.163
332.29	54.857
332.66	57.414
333.02	56.825
333.38	57.077
333.75	56.267
334.11	58.047
334.48	58.050
334.84	58.310
335.20	59.087
335.57	58.856
335.93	58.512
336.29	57.678
336.66	60.018
337.02	58.205
337.38	61.038
337.75	60.091
338.11	61.714
338.47	63.510
338.84	60.129
339.20	61.778
339.56	61.789
339.93	59.640
340.29	60.562
340.65	62.740
341.02	61.205
341.38	61.606
341.74	63.879
342.11	61.715
342.47	62.937
342.83	62.359
343.20	63.042
343.56	64.336
343.92	63.517
344.28	63.122
344.65	64.812
345.01	65.418
345.37	64.274
345.73	65.030
346.10	65.514
346.46	66.005
346.82	65.421
347.19	66.106
347.55	65.221
347.91	66.749
348.27	67.650
348.63	67.416
349.00	67.696
349.36	67.024
349.72	66.502
350.08	66.939
350.45	67.860
350.81	68.126
351.17	66.722
351.53	66.667
351.89	68.739
352.26	68.455
352.62	68.357
352.98	71.464
353.34	68.421
353.70	68.148
354.07	68.863
354.43	69.032
354.79	69.016
355.15	70.218
355.51	69.519
355.87	70.691
356.24	71.569
356.60	70.618
356.96	69.510
357.32	72.181
357.68	71.042
358.04	71.394
358.40	70.049
358.77	72.369
359.13	73.253
359.49	72.560
359.85	73.062
360.21	73.830
360.57	73.684
360.93	75.534
361.29	73.287
361.66	73.028
362.02	76.138
362.38	76.535
362.74	76.095
363.10	75.264
363.46	76.749
363.82	77.642
364.18	75.473
364.54	77.710
364.90	77.556
365.26	78.987
365.62	79.485
365.98	78.561
366.35	80.030
366.71	80.732
367.07	79.188
367.43	77.545
367.79	78.779
368.15	80.578
368.51	82.022
368.87	82.305
369.23	84.557
369.59	82.279
369.95	81.297
370.31	83.561
370.67	83.985
371.03	83.746
371.39	84.894
371.75	83.061
372.11	83.630
372.47	82.925
372.83	85.756
373.19	86.220
373.55	86.527
373.91	86.970
374.27	88.447
374.63	86.966
374.99	87.042
375.35	87.881
375.71	88.666
376.07	87.774
376.42	88.105
376.78	90.244
377.14	89.385
377.50	90.082
377.86	91.435
378.22	90.489
378.58	92.500
378.94	91.880
379.30	91.763
379.66	90.653
380.02	92.053
380.38	92.748
380.74	93.785
381.09	93.583
381.45	94.095
381.81	93.495
382.17	94.463
382.53	96.055
382.89	96.023
383.25	94.864
383.61	95.931
383.97	94.217
384.32	96.387
384.68	96.041
385.04	95.162
385.40	96.677
385.76	97.407
386.12	97.426
386.48	97.652
386.83	98.947
387.19	98.595
387.55	99.352
387.91	97.570
388.27	99.744
388.62	98.510
388.98	99.936
389.34	99.349
389.70	100.897
390.06	101.914
390.42	101.623
390.77	101.677
391.13	100.195
391.49	103.302
391.85	101.464
392.20	101.584
392.56	101.244
392.92	103.030
393.28	100.718
393.64	104.560
393.99	102.597
394.35	102.531
394.71	103.046
395.07	103.448
395.42	102.159
395.78	104.032
396.14	105.130
396.50	103.752
396.85	103.900
397.21	103.558
397.57	106.715
397.92	104.771
398.28	104.496
398.64	104.444
399.00	103.889
399.35	103.693
399.71	103.653
400.07	104.756
400.42	106.346
400.78	104.351
401.14	104.924
401.49	105.247
401.85	107.429
402.21	106.536
402.57	104.636
402.92	107.105
403.28	106.372
403.63	104.679
403.99	105.350
404.35	104.268
404.70	105.320
405.06	107.130
405.42	106.897
405.77	105.054
406.13	105.556
406.49	107.192
406.84	107.347
407.20	106.815
407.55	107.281
407.91	107.203
408.27	106.051
408.62	105.788
408.98	107.400
409.34	105.570
409.69	105.017
410.05	105.505
410.40	105.780
410.76	106.164
411.11	106.593
411.47	107.347
411.83	105.023
412.18	107.330
412.54	105.757
412.89	105.829
413.25	107.398
413.60	106.888
413.96	106.796
414.31	105.800
414.67	108.710
415.03	107.123
415.38	108.287
415.74	105.709
416.09	108.959
416.45	107.856
416.80	106.120
417.16	107.123
417.51	107.772
417.87	109.302
418.22	107.420
418.58	108.569
418.93	106.770
419.29	108.209
419.64	110.989
420.00	108.251
420.35	108.663
420.71	110.499
421.06	109.539
421.42	107.591
421.77	110.231
422.12	106.852
422.48	110.451
422.83	108.328
423.19	108.412
423.54	110.751
423.90	108.714
424.25	109.970
424.61	110.645
424.96	110.381
425.31	110.145
425.67	110.424
426.02	112.857
426.38	109.717
426.73	109.595
427.09	112.672
427.44	109.815
427.79	111.200
428.15	109.702
428.50	110.741
428.85	109.108
429.21	111.357
429.56	109.006
429.92	110.276
430.27	109.333
430.62	109.194
430.98	107.147
431.33	111.179
431.68	110.503
432.04	111.162
432.39	109.210
432.74	108.412
433.10	111.704
433.45	111.590
433.80	110.655
434.16	109.896
434.51	109.866
434.86	112.991
435.22	110.536
435.57	113.391
435.92	111.827
436.28	109.589
436.63	111.091
436.98	112.346
437.34	113.500
437.69	112.840
438.04	111.118
438.39	114.034
438.75	111.815
439.10	113.571
439.45	114.634
439.81	111.746
440.16	114.657
440.51	111.648
440.86	112.374
441.22	111.793
441.57	111.909
441.92	114.357
442.27	113.143
442.63	113.093
442.98	114.792
443.33	111.751
443.68	112.646
444.03	111.804
444.39	112.754
444.74	113.165
445.09	113.932
445.44	111.720
445.79	114.024
446.15	112.828
446.50	111.741
446.85	112.101
447.20	112.637
447.55	111.809
447.91	112.698
448.26	111.691
448.61	111.118
448.96	112.537
449.31	113.020
449.66	111.804
450.02	110.828
450.37	112.029
450.72	111.490
451.07	113.514
451.42	114.559
451.77	111.980
452.12	111.529
452.47	112.195
452.83	112.391
453.18	113.910
453.53	113.717
453.88	112.380
454.23	112.077
454.58	114.883
454.93	112.807
455.28	110.726
455.63	112.151
455.98	112.500
456.34	112.324
456.69	112.729
457.04	112.533
457.39	111.111
457.74	113.211
458.09	112.508
458.44	112.569
458.79	111.484
459.14	110.912
459.49	112.484
459.84	110.939
460.19	111.257
460.54	110.795
460.89	112.294
461.24	110.714
461.59	112.808
461.94	110.717
462.29	111.278
462.64	111.490
462.99	114.503
463.34	112.821
463.69	113.306
464.04	112.572
464.39	111.511
464.74	110.123
465.09	109.775
465.44	111.398
465.79	110.409
466.14	111.217
466.49	108.923
466.84	108.108
467.19	108.902
467.54	107.958
467.89	111.430
468.24	108.523
468.59	109.751
468.94	111.029
469.29	113.149
469.64	113.348
469.99	111.968
470.34	109.901
470.68	111.538
471.03	110.438
471.38	113.837
471.73	113.590
472.08	110.676
472.43	111.895
472.78	113.778
473.13	110.667
473.48	113.140
473.83	114.003
474.17	109.673
474.52	114.200
474.87	112.563
475.22	113.469
475.57	111.986
475.92	110.631
476.27	111.031
476.61	110.697
476.96	111.440
477.31	112.158
477.66	110.285
478.01	111.477
478.36	112.092
478.70	113.465
479.05	113.001
479.40	111.277
479.75	112.675
480.10	111.688
480.45	112.880
480.79	111.469
481.14	111.861
481.49	111.671
481.84	113.889
482.19	111.561
482.53	110.686
482.88	112.659
483.23	111.357
483.58	110.495
483.92	110.251
484.27	111.713
484.62	111.457
484.97	109.271
485.31	108.817
485.66	106.391
486.01	103.541
486.36	103.986
486.70	106.883
487.05	107.470
487.40	105.591
487.75	104.409
488.09	104.167
488.44	105.269
488.79	105.696
489.13	108.603
489.48	107.509
489.83	108.183
490.17	110.970
490.52	108.126
490.87	110.237
491.22	108.876
491.56	110.375
491.91	110.291
492.26	111.270
492.60	110.306
492.95	110.010
493.30	111.082
493.64	110.598
493.99	111.242
494.34	110.035
494.68	109.861
495.03	109.736
495.37	108.819
495.72	110.496
496.07	109.280
496.41	108.498
496.76	109.647
497.11	109.946
497.45	109.945
497.80	109.969
498.14	110.296
498.49	110.945
498.84	108.438
499.18	108.874
499.53	110.955
499.87	110.753
500.22	110.961
500.56	110.466
500.91	110.330
501.26	110.446
501.60	109.225
501.95	112.078
502.29	112.365
502.64	107.367
502.98	107.622
503.33	108.637
503.67	109.597
504.02	111.083
504.36	109.348
504.71	110.426
505.06	110.016
505.40	110.724
505.75	109.268
506.09	112.026
506.44	111.052
506.78	111.028
507.13	110.641
507.47	112.742
507.82	111.105
508.16	110.802
508.51	111.433
508.85	111.044
509.19	111.465
509.54	113.484
509.88	113.464
510.23	113.933
510.57	112.209
510.92	113.662
511.26	113.153
511.61	113.699
511.95	112.435
512.30	113.449
512.64	111.026
512.98	114.767
513.33	111.196
513.67	113.593
514.02	114.904
514.36	113.938
514.70	115.058
515.05	115.488
515.39	118.005
515.74	117.481
516.08	114.689
516.42	115.289
516.77	116.335
517.11	115.902
517.46	118.301
517.80	117.613
518.14	117.710
518.49	117.982
518.83	117.315
519.17	116.774
519.52	116.240
519.86	119.633
520.20	117.261
520.55	118.995
520.89	120.445
521.23	118.236
521.58	119.246
521.92	117.423
522.26	121.375
522.61	120.887
522.95	118.630
523.29	118.354
523.64	118.589
523.98	119.422
524.32	119.865
524.66	122.298
525.01	120.550
525.35	121.477
525.69	119.752
526.04	121.987
526.38	122.276
526.72	120.625
527.06	123.347
527.41	123.388
527.75	123.331
528.09	118.317
528.43	122.395
528.78	121.104
529.12	121.644
529.46	120.332
529.80	119.061
530.15	121.126
530.49	120.502
530.83	121.692
531.17	119.774
531.51	121.842
531.86	117.857
532.20	120.851
532.54	121.439
532.88	122.400
533.22	120.905
533.57	121.586
533.91	119.890
534.25	121.860
534.59	121.596
534.93	119.073
535.27	119.933
535.62	119.649
535.96	120.796
536.30	120.807
536.64	118.956
536.98	121.903
537.32	120.536
537.66	119.135
538.01	122.239
538.35	119.782
538.69	120.028
539.03	118.673
539.37	120.244
539.71	123.841
540.05	118.958
540.39	118.373
540.73	117.802
541.07	120.147
541.42	118.603
541.76	118.633
542.10	117.432
542.44	119.509
542.78	118.328
543.12	117.617
543.46	118.480
543.80	117.084
544.14	118.423
544.48	116.561
544.82	115.969
545.16	119.348
545.50	117.176
545.84	116.971
546.18	119.101
546.52	119.523
546.86	118.363
547.20	121.061
547.54	117.665
547.88	115.741
548.22	117.159
548.56	117.829
548.90	115.930
549.24	115.424
549.58	115.574
549.92	116.241
550.26	116.371
550.60	117.605
550.94	117.540
551.28	118.780
551.62	119.001
551.96	117.732
552.30	114.264
552.64	116.754
552.98	114.562
553.32	113.864
553.66	115.402
554.00	117.066
554.34	119.531
554.68	117.384
555.02	116.746
555.36	115.171
555.69	112.529
556.03	113.969
556.37	115.679
556.71	114.103
557.05	116.563
557.39	116.867
557.73	113.915
558.07	111.737
558.41	115.084
558.75	117.095
559.08	118.383
559.42	117.809
559.76	117.018
560.10	118.011
560.44	112.985
560.78	113.674
561.12	115.552
561.45	115.625
561.79	111.454
562.13	114.307
562.47	113.838
562.81	111.903
563.15	112.776
563.48	112.734
563.82	112.082
564.16	108.926
564.50	111.461
564.84	109.993
565.17	112.089
565.51	110.837
565.85	111.197
566.19	112.317
566.52	112.043
566.86	110.724
567.20	109.581
567.54	108.870
567.88	108.192
568.21	107.679
568.55	108.149
568.89	108.571
569.23	105.723
569.56	104.092
569.90	104.968
570.24	102.167
570.57	101.543
570.91	101.820
571.25	101.756
571.59	99.475
571.92	97.860
572.26	98.519
572.60	98.717
572.93	97.610
573.27	96.853
573.61	97.926
573.95	96.803
574.28	96.855
574.62	96.035
574.96	96.037
575.29	93.753
575.63	94.823
575.97	94.778
576.30	95.720
576.64	94.653
576.98	95.946
577.31	95.174
577.65	95.183
577.98	93.607
578.32	93.607
578.66	92.811
578.99	95.034
579.33	94.170
579.67	92.879
580.00	93.484
580.34	94.560
580.67	91.734
581.01	92.628
581.35	92.258
581.68	91.667
582.02	92.045
582.35	92.082
582.69	92.510
583.02	92.792
583.36	91.800
583.70	93.044
584.03	93.350
584.37	92.435
584.70	91.716
585.04	91.225
585.37	91.055
585.71	92.019
586.04	93.423
586.38	93.871
586.72	92.435
587.05	92.606
587.39	92.219
587.72	93.165
588.06	92.543
588.39	93.047
588.73	93.504
589.06	92.488
589.40	93.629
589.73	92.895
590.07	94.038
590.40	93.476
590.73	94.336
591.07	94.632
591.40	96.117
591.74	95.896
592.07	95.320
592.41	94.330
592.74	94.717
593.08	92.412
593.41	92.081
593.75	92.080
594.08	93.851
594.41	92.992
594.75	91.817
595.08	91.741
595.42	92.227
595.75	92.576
596.09	93.395
596.42	93.446
596.75	92.864
597.09	90.951
597.42	92.867
597.75	93.011
598.09	91.526
598.42	93.422
598.76	92.851
599.09	91.555
599.42	89.772
599.76	90.624
600.09	90.866
600.42	88.008
600.76	89.761
601.09	89.176
601.42	89.493
601.76	90.463
602.09	90.532
602.42	91.099
602.76	91.230
603.09	91.558
603.42	91.184
603.76	91.397
604.09	91.729
604.42	90.683
604.76	90.507
605.09	91.025
605.42	91.280
605.75	89.493
606.09	91.822
606.42	89.326
606.75	90.719
607.09	90.532
607.42	89.536
607.75	88.889
608.08	89.944
608.42	91.271
608.75	91.046
609.08	89.854
609.41	91.135
609.75	90.995
610.08	89.044
610.41	89.415
610.74	91.911
611.07	90.640
611.41	89.615
611.74	91.349
612.07	90.681
612.40	89.694
612.73	91.319
613.07	90.018
613.40	89.994
613.73	91.466
614.06	89.110
614.39	91.037
614.72	89.965
615.06	89.380
615.39	89.145
615.72	88.970
616.05	89.333
616.38	88.849
616.71	89.303
617.05	90.201
617.38	89.419
617.71	92.358
618.04	91.524
618.37	89.209
618.70	92.595
619.03	92.531
619.36	91.973
619.69	91.680
620.03	92.143
620.36	92.517
620.69	89.727
621.02	91.924
621.35	94.723
621.68	96.220
622.01	96.881
622.34	92.462
622.67	93.929
623.00	92.138
623.33	91.181
623.66	92.271
623.99	93.541
624.32	93.090
624.65	91.016
624.99	90.391
625.32	91.548
625.65	89.992
625.98	93.000
626.31	92.294
626.64	92.162
626.97	94.301
627.30	93.611
627.63	92.930
627.96	91.993
628.29	94.264
628.62	95.567
628.95	97.043
629.28	93.698
629.61	95.298
629.94	96.266
630.26	93.933
630.59	95.288
630.92	92.729
631.25	96.425
631.58	96.512
631.91	96.241
632.24	97.396
632.57	97.146
632.90	97.417
633.23	99.742
633.56	96.855
633.89	98.285
634.22	99.103
634.55	97.766
634.88	96.921
635.20	100.137
635.53	99.441
635.86	97.418
636.19	99.727
636.52	98.652
636.85	96.089
637.18	94.041
637.51	97.832
637.83	99.162
638.16	98.009
638.49	97.983
638.82	97.046
639.15	98.571
639.48	97.817
639.81	96.572
640.13	96.478
640.46	97.008
640.79	97.364
641.12	96.899
641.45	96.423
641.77	96.656
642.10	97.068
642.43	99.663
642.76	100.896
643.09	100.865
643.41	100.179
643.74	97.743
644.07	98.060
644.40	99.819
644.73	100.552
645.05	103.626
645.38	102.885
645.71	101.145
646.04	99.257
646.36	97.538
646.69	101.161
647.02	105.078
647.35	103.200
647.67	102.204
648.00	101.748
648.33	102.505
648.66	98.145
648.98	92.542
649.31	93.287
649.64	98.107
649.96	94.257
650.29	90.796
650.62	98.145
650.94	93.346
651.27	97.881
651.60	96.367
651.92	97.137
652.25	97.514
652.58	92.998
652.90	90.747
653.23	96.527
653.56	89.236
653.88	93.431
654.21	95.463
654.54	96.435
654.86	93.525
655.19	88.871
655.52	87.305
655.84	78.596
656.17	73.059
656.49	96.744
656.82	100.000
657.15	97.300
657.47	68.611
657.80	50.409
658.13	41.791
658.45	69.959
658.78	68.422
659.10	67.146
659.43	66.936
659.75	67.185
660.08	68.414
660.41	75.123
660.73	80.055
661.06	87.636
661.38	94.355
661.71	95.186
662.03	99.306
662.36	100.000
662.68	96.643
663.01	98.798
663.33	97.170
663.66	98.804
663.98	99.022
664.31	95.854
664.63	93.807
664.96	96.200
665.28	97.163
665.61	97.897
665.93	91.705
666.26	90.949
666.58	92.661
666.91	93.911
667.23	94.581
667.56	94.074
667.88	92.231
668.21	92.893
668.53	97.970
668.86	92.602
669.18	93.401
669.50	95.116
669.83	90.750
670.15	90.500
670.48	92.982
670.80	92.640
671.13	90.843
671.45	93.367
671.77	98.551
672.10	91.209
672.42	83.466
672.75	85.437
673.07	85.047
673.39	87.743
673.72	87.603
674.04	88.936
674.37	90.069
674.69	89.720
675.01	92.558
675.34	87.255
675.66	86.905
675.98	95.455
676.31	89.673
676.63	90.979
676.95	84.652
677.28	89.356
677.60	90.727
677.92	91.228
678.25	84.919
678.57	87.471
678.89	88.073
679.22	88.303
679.54	87.305
679.86	86.938
680.18	84.937
680.51	86.037
680.83	82.083
681.15	87.800
681.48	82.128
681.80	83.913
682.12	87.580
682.44	80.819
682.77	85.455
683.09	84.804
683.41	88.972
683.73	87.940
684.06	85.279
684.38	85.372
684.70	85.450
685.02	83.766
685.34	79.916
685.67	80.237
685.99	85.230
686.31	80.970
686.63	79.612
686.96	82.317
687.28	80.493
687.60	81.109
687.92	81.857
688.24	78.737
688.56	81.978
688.89	83.333
689.21	81.628
689.53	89.514
689.85	86.582
690.17	80.147
690.49	81.412
690.82	84.767
691.14	85.117
691.46	85.250
691.78	81.818
692.10	83.257
692.42	81.881
692.74	82.701
693.06	79.036
693.39	78.818
693.71	77.907
694.03	76.329
694.35	77.228
694.67	80.407
694.99	78.706
695.31	84.419
695.63	82.432
695.95	84.551
696.27	85.836
696.59	86.350
696.91	77.493
697.23	80.516
697.56	81.865
697.88	77.049
698.20	79.903
698.52	77.885
698.84	80.201
699.16	82.850
699.48	83.246
699.80	78.022
700.12	77.961
700.44	77.286
700.76	83.281
701.08	80.952
701.40	80.592
701.72	87.667
702.04	80.952
702.36	81.639
702.68	82.215
703.00	83.912
703.32	73.653
703.64	82.019
703.96	76.899
704.28	80.282
704.60	81.849
704.91	76.316
705.23	76.140
705.55	80.297
705.87	77.338
706.19	86.853
706.51	75.391
706.83	82.051
707.15	77.288
707.47	78.743
707.79	73.926
708.11	77.249
708.43	75.200
708.74	72.404
709.06	78.834
709.38	73.591
709.70	76.948
710.02	81.818
710.34	78.723
710.66	84.270
710.98	75.874
711.29	80.756
711.61	79.078
711.93	85.393
712.25	82.264
712.57	80.078
712.89	80.408
713.20	79.435
713.52	80.081
713.84	79.197
714.16	76.014
714.48	80.205
714.80	74.411
715.11	79.381
715.43	75.085
715.75	74.035
716.07	77.455
716.39	75.085
716.70	76.400
717.02	75.000
717.34	81.818
717.66	81.818
717.97	77.315
718.29	77.778
718.61	78.829
718.93	72.269
719.24	70.711
719.56	83.929
719.88	70.196
720.20	75.641
720.51	78.070
720.83	77.824
721.15	70.204
721.46	75.527
721.78	75.325
722.10	70.543
722.42	80.435
722.73	66.968
723.05	81.106
723.37	72.398
723.68	79.147
724.00	75.000
724.32	71.963
724.63	75.566
724.95	68.493
725.27	78.404
725.58	77.169
725.90	69.369
726.22	68.996
726.53	75.820
726.85	69.630
727.16	74.899
727.48	74.194
727.80	73.516
728.11	75.111
728.43	72.428
728.74	72.807
729.06	77.293
729.38	72.093
729.69	69.200
730.01	75.314
730.32	66.932
730.64	68.077
730.96	64.093
731.27	64.865
731.59	64.646
731.90	64.803
732.22	69.767
732.53	63.158
732.85	60.211
733.16	71.062
733.48	64.552
733.80	70.909
734.11	67.730
734.43	72.202
734.74	63.240
735.06	66.881
735.37	67.093
735.69	64.437
736.00	74.074
736.32	67.133
736.63	64.074
736.95	64.591
737.26	63.768
737.58	60.584
737.89	66.792
738.21	64.885
738.52	65.574
738.83	63.248
739.15	70.909
739.46	60.360
739.78	67.181
740.09	64.683
740.41	67.045
740.72	62.151
741.04	63.636
741.35	63.229
741.66	70.430
741.98	67.857
742.29	66.839
742.61	72.832
742.92	68.627
743.23	70.149
743.55	69.430
743.86	70.531
744.18	63.000
744.49	67.222
744.80	70.430
745.12	65.128
745.43	67.380
745.74	72.193
746.06	69.540
746.37	69.444
746.68	72.432
747.00	64.088
747.31	69.634
747.62	74.737
747.94	67.453
748.25	71.921
748.56	67.172
748.88	73.770
749.19	68.394
749.50	68.824
749.82	71.500
750.13	68.447
750.44	68.240
750.75	64.800
751.07	68.619
751.38	62.500
751.69	63.889
752.01	63.445
752.32	60.744
752.63	64.192
752.94	62.800
753.26	63.014
753.57	64.455
753.88	61.395
754.19	58.150
754.51	61.088
754.82	62.500
755.13	58.407
755.44	60.606
755.75	63.454
756.07	64.378
756.38	71.130
756.69	64.151
757.00	61.702
757.31	62.284
757.63	63.072
757.94	59.697
758.25	60.119
758.56	54.054
758.87	55.655
759.18	59.813
759.50	59.786
759.81	63.707
760.12	59.431
760.43	62.458
760.74	60.778
761.05	61.538
761.36	55.490
761.67	54.103
761.99	60.201
762.30	57.455
762.61	71.138
762.92	62.222
763.23	60.000
763.54	74.619
763.85	63.348
764.16	55.652
764.47	65.652
764.78	60.484
765.10	57.874
765.41	60.201
765.72	55.518
766.03	57.525
766.34	59.848
766.65	56.641
766.96	57.778
767.27	68.156
767.58	73.585
767.89	66.883
768.20	60.135
768.51	61.494
768.82	58.750
769.13	58.333
769.44	56.132
769.75	56.863
770.06	56.796
770.37	61.702
770.68	58.462
770.99	60.914
771.30	63.402
771.61	55.605
771.92	58.019
772.23	54.327
772.54	62.941
772.85	56.849
773.16	63.871
773.47	58.599
773.78	64.072
774.09	61.184
774.39	57.353
774.70	62.406
775.01	63.077
775.32	64.286
775.63	60.630
775.94	62.264
776.25	62.222
776.56	60.909
776.87	57.265
777.18	59.000
777.48	67.308
777.79	48.148
778.10	66.981
778.41	72.549
778.72	61.321
779.03	64.912
779.34	63.866
779.65	59.155
779.95	58.273
780.26	57.258
780.57	55.072
780.88	56.881
781.19	66.667
781.50	55.738
781.80	59.124
782.11	55.769
782.42	51.034
782.73	59.441
783.04	63.200
783.34	64.800
783.65	54.472
783.96	48.361
784.27	51.261
784.57	53.271
784.88	67.857
785.19	55.670
785.50	50.526
785.81	54.000
786.11	54.455
786.42	35.294
786.73	65.625
787.04	59.184
787.34	49.074
787.65	50.943
787.96	56.701
788.26	54.455
788.57	49.565
788.88	48.624
789.19	53.719
789.49	48.696
789.80	43.966
790.11	54.878
790.41	59.551
790.72	44.186
791.03	60.465
791.33	33.766
791.64	57.317
791.95	42.683
792.25	39.759
792.56	38.272
792.87	40.845
793.17	46.988
793.48	44.706
793.79	47.500
794.09	55.000
794.40	52.174
794.70	39.130
795.01	46.789
795.32	52.756
795.62	50.980
795.93	52.941
796.23	43.434
796.54	47.674
796.85	47.826
797.15	56.250
797.46	28.814
797.76	40.984
798.07	46.053
798.37	43.548
798.68	26.563
798.99	60.000
799.29	45.455
799.60	46.377
799.90	52.857
800.21	38.596
800.51	37.931
800.82	26.415
801.12	43.137
801.43	40.323
801.73	53.226
802.04	48.000
802.34	24.528
802.65	76.316
802.95	61.818
803.26	32.075
803.56	31.148
803.87	46.000
804.17	18.519
804.48	44.231
804.78	24.490
805.09	51.064
805.39	55.932
805.70	39.583
806.00	37.500
806.30	33.898
806.61	36.923
806.91	35.385
807.22	34.211
807.52	41.429
807.83	27.586
808.13	41.772
808.43	40.984
808.74	50.820
809.04	47.297
809.35	46.296
809.65	51.786
809.95	52.542
810.26	24.490
810.56	41.509
810.86	31.373
811.17	35.135
811.47	18.519
811.77	29.412
812.08	40.909
812.38	54.167
812.69	38.462
812.99	33.333
813.29	43.478
813.59	31.429
813.90	26.190
814.20	41.818
814.50	44.898
814.81	43.137
815.11	37.500
815.41	53.659
815.72	19.231
816.02	51.064
816.32	50.000
816.62	24.242
816.93	-9.091
817.23	24.324
817.53	20.588
817.84	77.500
818.14	23.529
818.44	43.750
818.74	19.048
819.04	20.000
819.35	22.857
819.65	56.818
819.95	30.769
820.25	66.667
820.56	13.793
820.86	14.286
821.16	26.087
821.46	35.714
821.76	40.741
822.07	47.826
822.37	36.735
822.67	30.233
822.97	26.087
823.27	-11.538
823.57	29.630
823.88	10.714
824.18	-15.385
824.48	25.000
824.78	39.394
825.08	-6.667
825.38	32.500
825.69	5.556
825.99	-3.704
826.29	51.111
826.59	3.704
826.89	25.926
827.19	7.143
827.49	18.182
827.79	18.182
828.09	4.545
828.39	21.739
828.70	40.741
829.00	0.000
829.30	30.952
829.60	48.387
829.90	3.846
830.20	7.692
830.50	50.000
830.80	-42.857
831.10	-11.111
831.40	-42.857
831.70	3.704
832.00	11.765
832.30	34.783
832.60	25.000
832.90	-72.727
833.20	-50.000
833.50	12.500
833.80	30.769
834.10	64.000
834.40	-12.500
834.70	36.364
835.00	38.462
835.30	0.000
835.60	-160.000
835.90	45.000
836.20	-28.571
836.50	43.478
836.80	16.667
837.10	60.000
837.40	0.000
837.70	39.130
838.00	-7.143
838.30	2100.000
838.60	32.000
838.90	-200.000
839.19	-111.111
839.49	-50.000
839.79	0.000
840.09	-111.111
840.39	21.429
840.69	-16.667
840.99	-33.333
841.29	24.138
841.59	-53.333
841.88	36.364
842.18	-183.333
842.48	31.250
842.78	0.000
843.08	0.000
843.38	-5.000
843.68	0.000
843.97	-41.176
844.27	-80.000
844.57	12.500
844.87	-18.182
845.17	-36.842
845.47	-55.556
845.76	11.111
846.06	-57.143
846.36	-78.571
846.66	-155.556
846.96	5.000
847.25	-80.000
847.55	-100.000
847.85	-20.000
848.15	-125.000
848.44	-57.895
848.74	40.000
849.04	-15.789
849.34	-33.333
849.63	-100.000
849.93	52.941
850.23	-163.636
850.53	-133.333
850.82	60.000
851.12	-155.556
851.42	-271.429
851.71	-120.000
852.01	7.143
852.31	-166.667
852.61	-7.692
852.90	-180.000
853.20	-55.556
853.50	-122.222
853.79	-90.000
854.09	-60.000
854.39	0.000
854.68	20.000
854.98	25.000
855.28	0.000
855.57	-71.429
855.87	36.842
856.17	-93.750
856.46	30.769
856.76	-6.667
857.05	-75.000
857.35	-20.833
857.65	-27.778
857.94	-75.000
858.24	-13.043
858.53	-90.000
858.83	-433.333
859.13	-136.364
859.42	-210.000
859.72	150.000
860.01	30.769
860.31	-80.000
860.60	-175.000
860.90	-350.000
861.20	-300.000
861.49	-275.000
861.79	550.000
862.08	41.935
862.38	-15.789
862.67	30.769
862.97	-180.000
863.26	16.667
863.56	-13.043
863.85	-266.667
864.15	-42.857
864.44	-25.000
864.74	-41.667
865.03	-88.889
865.33	-66.667
865.62	-1900.000
865.92	-200.000
866.21	-116.667
866.51	54.545
866.80	-333.333
867.10	-171.429
867.39	-188.889
867.69	-100.000
867.98	340.000
868.27	-425.000
868.57	475.000
868.86	-66.667
869.16	-46.154
869.45	600.000
869.75	-83.333
870.04	-166.667
870.33	-41.176
870.63	-57.143
870.92	47.826
871.22	-62.500
871.51	540.000
871.80	-43.750
872.10	-300.000
>>>>>End Processed Spectral Data<<<<<
