SpectraSuite Data File
++++++++++++++++++++++++++++++++++++
Date: Wed May 13 19:42:11 PDT 2015
User: schluterlab
Dark Spectrum Present: Yes
Reference Spectrum Present: Yes
Number of Sampled Component Spectra: 1
Spectrometers: USB2E3373
Integration Time (usec): 3000 (USB2E3373)
Spectra Averaged: 3 (USB2E3373)
Boxcar Smoothing: 0 (USB2E3373)
Correct for Electrical Dark: No (USB2E3373)
Strobe/Lamp Enabled: No (USB2E3373)
Correct for Detector Non-linearity: No (USB2E3373)
Correct for Stray Light: No (USB2E3373)
Number of Pixels in Processed Spectrum: 2048
>>>>>Begin Processed Spectral Data<<<<<
178.53	0.000
178.91	-1350.000
179.29	-1300.000
179.67	-277.778
180.04	-1375.000
180.42	2550.000
180.80	1120.000
181.18	-1225.000
181.56	671.429
181.94	0.000
182.31	-728.571
182.69	1866.667
183.07	-575.000
183.45	-544.444
183.83	618.182
184.20	-420.000
184.58	2050.000
184.96	5500.000
185.34	-1000.000
185.72	-512.500
186.09	-2350.000
186.47	2750.000
186.85	2650.000
187.23	5100.000
187.61	-1533.333
187.98	1275.000
188.36	527.273
188.74	600.000
189.12	-780.000
189.49	570.000
189.87	-5100.000
190.25	-1225.000
190.63	414.286
191.00	423.077
191.38	816.667
191.76	-1325.000
192.14	1400.000
192.51	662.500
192.89	1016.667
193.27	600.000
193.65	-1125.000
194.02	430.000
194.40	1020.000
194.78	590.000
195.15	458.333
195.53	640.000
195.91	-2250.000
196.29	393.750
196.66	315.789
197.04	-380.000
197.42	0.000
197.79	680.000
198.17	-4600.000
198.55	728.571
198.92	662.500
199.30	840.000
199.68	0.000
200.05	305.556
200.43	785.714
200.81	4500.000
201.18	1900.000
201.56	-1633.333
201.94	488.889
202.31	622.222
202.69	391.667
203.07	470.000
203.44	0.000
203.82	1425.000
204.19	785.714
204.57	507.143
204.95	675.000
205.32	1733.333
205.70	527.273
206.08	371.429
206.45	2800.000
206.83	331.250
207.20	816.667
207.58	820.000
207.96	266.667
208.33	700.000
208.71	-850.000
209.08	785.714
209.46	544.444
209.84	409.091
210.21	-1600.000
210.59	1225.000
210.96	-437.500
211.34	2450.000
211.71	570.000
212.09	900.000
212.46	0.000
212.84	1900.000
213.22	1250.000
213.59	-4900.000
213.97	916.667
214.34	885.714
214.72	554.545
215.09	1100.000
215.47	-2300.000
215.84	-3150.000
216.22	1400.000
216.59	464.286
216.97	1125.000
217.34	463.636
217.72	-716.667
218.09	0.000
218.47	-4400.000
218.84	666.667
219.22	785.714
219.59	1800.000
219.97	-642.857
220.34	1020.000
220.72	-1733.333
221.09	457.143
221.47	1475.000
221.84	-883.333
222.22	0.000
222.59	1550.000
222.97	-3000.000
223.34	1000.000
223.72	507.692
224.09	1120.000
224.46	2000.000
224.84	-4800.000
225.21	-1060.000
225.59	-5000.000
225.96	600.000
226.34	315.000
226.71	2800.000
227.08	662.500
227.46	540.000
227.83	-1325.000
228.21	-2400.000
228.58	600.000
228.95	-2600.000
229.33	-2000.000
229.70	1633.333
230.08	857.143
230.45	-660.000
230.82	466.667
231.20	883.333
231.57	628.571
231.95	483.333
232.32	250.000
232.69	318.182
233.07	657.143
233.44	346.154
233.81	-1733.333
234.19	284.211
234.56	391.667
234.93	416.667
235.31	436.364
235.68	415.385
236.05	350.000
236.43	172.727
236.80	231.579
237.17	3800.000
237.55	204.762
237.92	225.000
238.29	238.095
238.67	180.645
239.04	217.241
239.41	116.667
239.79	117.391
240.16	142.857
240.53	122.727
240.91	94.118
241.28	102.000
241.65	98.000
242.02	76.812
242.40	91.935
242.77	76.667
243.14	77.419
243.51	77.528
243.89	60.000
244.26	63.333
244.63	50.538
245.00	55.319
245.38	58.416
245.75	56.075
246.12	45.872
246.49	50.365
246.87	51.200
247.24	46.154
247.61	45.714
247.98	43.137
248.36	42.568
248.73	34.395
249.10	45.860
249.47	41.243
249.84	35.829
250.22	31.016
250.59	30.178
250.96	34.848
251.33	37.915
251.70	37.129
252.08	32.857
252.45	30.493
252.82	28.696
253.19	32.340
253.56	27.843
253.94	31.535
254.31	28.906
254.68	30.769
255.05	25.830
255.42	23.984
255.79	25.368
256.16	27.798
256.54	22.968
256.91	28.470
257.28	22.662
257.65	23.762
258.02	25.155
258.39	25.868
258.76	22.408
259.14	23.512
259.51	24.620
259.88	22.981
260.25	26.586
260.62	23.410
260.99	19.255
261.36	27.327
261.73	23.782
262.10	21.221
262.47	21.972
262.85	20.891
263.22	21.652
263.59	23.932
263.96	20.879
264.33	23.499
264.70	22.632
265.07	21.228
265.44	19.949
265.81	19.708
266.18	21.357
266.55	19.024
266.92	18.428
267.29	20.139
267.66	18.349
268.03	21.136
268.40	20.794
268.77	19.570
269.14	18.468
269.51	21.219
269.88	18.881
270.25	20.090
270.62	18.202
270.99	20.000
271.36	18.455
271.73	19.393
272.10	18.696
272.47	18.065
272.84	16.234
273.21	20.964
273.58	18.122
273.95	16.771
274.32	17.562
274.69	16.488
275.06	17.323
275.43	18.723
275.80	17.836
276.17	17.312
276.54	21.206
276.91	17.787
277.28	18.750
277.65	17.215
278.02	15.735
278.39	18.945
278.76	18.182
279.13	17.547
279.50	17.318
279.87	16.932
280.23	17.365
280.60	15.087
280.97	17.560
281.34	17.522
281.71	18.182
282.08	18.618
282.45	16.000
282.82	16.341
283.19	14.617
283.56	15.965
283.92	17.259
284.29	14.638
284.66	14.882
285.03	14.828
285.40	14.437
285.77	15.152
286.14	17.271
286.51	15.333
286.87	16.923
287.24	15.472
287.61	14.446
287.98	17.532
288.35	15.214
288.72	14.953
289.08	14.085
289.45	14.498
289.82	15.122
290.19	13.658
290.56	15.008
290.93	13.897
291.29	13.037
291.66	13.864
292.03	17.006
292.40	16.153
292.77	13.757
293.13	13.433
293.50	12.536
293.87	12.741
294.24	12.889
294.60	13.683
294.97	13.227
295.34	13.963
295.71	12.784
296.08	12.393
296.44	12.517
296.81	13.078
297.18	14.092
297.55	12.137
297.91	11.478
298.28	12.985
298.65	13.316
299.02	12.253
299.38	12.483
299.75	10.108
300.12	11.622
300.48	12.625
300.85	11.961
301.22	10.701
301.59	11.995
301.95	10.831
302.32	10.526
302.69	10.992
303.05	11.636
303.42	11.728
303.79	11.438
304.15	10.956
304.52	10.776
304.89	11.034
305.25	11.021
305.62	11.099
305.99	11.334
306.35	11.186
306.72	11.659
307.09	9.989
307.45	13.288
307.82	10.156
308.19	11.810
308.55	12.837
308.92	10.741
309.29	10.454
309.65	11.347
310.02	11.416
310.38	11.828
310.75	11.404
311.12	12.385
311.48	11.076
311.85	11.006
312.22	11.446
312.58	11.123
312.95	11.827
313.31	11.068
313.68	11.227
314.05	13.116
314.41	13.166
314.78	12.185
315.14	12.612
315.51	12.873
315.87	12.970
316.24	13.108
316.61	12.476
316.97	12.133
317.34	11.057
317.70	13.384
318.07	13.763
318.43	15.166
318.80	14.246
319.16	14.501
319.53	13.227
319.89	14.762
320.26	16.100
320.62	15.675
320.99	17.071
321.35	17.273
321.72	16.632
322.08	18.164
322.45	18.806
322.81	18.798
323.18	18.786
323.54	18.924
323.91	20.094
324.27	19.790
324.64	19.292
325.00	19.477
325.37	20.382
325.73	21.993
326.10	21.006
326.46	20.968
326.83	21.570
327.19	22.545
327.56	21.254
327.92	22.135
328.29	23.957
328.65	21.639
329.01	22.563
329.38	23.959
329.74	23.361
330.11	23.374
330.47	24.059
330.84	24.449
331.20	24.954
331.56	24.495
331.93	25.093
332.29	24.667
332.66	26.106
333.02	25.046
333.38	24.571
333.75	25.758
334.11	26.246
334.48	26.619
334.84	25.643
335.20	25.636
335.57	24.841
335.93	25.179
336.29	25.275
336.66	26.510
337.02	25.158
337.38	26.204
337.75	25.401
338.11	25.157
338.47	25.506
338.84	27.314
339.20	26.055
339.56	26.642
339.93	25.727
340.29	27.174
340.65	26.560
341.02	27.138
341.38	25.801
341.74	25.614
342.11	27.511
342.47	25.198
342.83	26.712
343.20	27.965
343.56	26.874
343.92	27.105
344.28	26.786
344.65	27.945
345.01	25.673
345.37	25.643
345.73	25.973
346.10	27.366
346.46	27.119
346.82	27.512
347.19	26.399
347.55	26.847
347.91	27.427
348.27	27.938
348.63	27.592
349.00	27.832
349.36	27.011
349.72	25.982
350.08	26.580
350.45	27.258
350.81	27.620
351.17	28.039
351.53	27.437
351.89	26.815
352.26	28.887
352.62	28.148
352.98	27.796
353.34	27.034
353.70	27.169
354.07	27.742
354.43	27.778
354.79	27.595
355.15	26.736
355.51	28.697
355.87	28.898
356.24	28.583
356.60	28.148
356.96	28.640
357.32	27.719
357.68	28.031
358.04	28.820
358.40	28.583
358.77	28.795
359.13	28.335
359.49	28.941
359.85	28.333
360.21	28.309
360.57	29.416
360.93	28.308
361.29	27.967
361.66	27.941
362.02	30.000
362.38	29.962
362.74	29.464
363.10	28.127
363.46	28.100
363.82	29.176
364.18	29.295
364.54	29.272
364.90	28.329
365.26	28.750
365.62	29.584
365.98	28.269
366.35	28.080
366.71	29.284
367.07	29.206
367.43	29.826
367.79	29.979
368.15	30.172
368.51	29.360
368.87	29.693
369.23	30.139
369.59	29.399
369.95	29.632
370.31	29.701
370.67	30.000
371.03	30.412
371.39	29.592
371.75	30.294
372.11	29.872
372.47	30.792
372.83	30.115
373.19	29.697
373.55	30.894
373.91	30.854
374.27	30.103
374.63	30.545
374.99	30.862
375.35	29.798
375.71	30.912
376.07	30.796
376.42	30.880
376.78	31.544
377.14	30.258
377.50	30.464
377.86	30.851
378.22	29.899
378.58	30.138
378.94	31.050
379.30	30.980
379.66	31.091
380.02	31.204
380.38	30.601
380.74	31.393
381.09	31.235
381.45	32.391
381.81	32.125
382.17	31.274
382.53	30.503
382.89	31.728
383.25	31.957
383.61	31.846
383.97	31.520
384.32	31.628
384.68	31.289
385.04	31.285
385.40	31.827
385.76	32.064
386.12	31.865
386.48	32.599
386.83	33.034
387.19	33.271
387.55	32.282
387.91	32.104
388.27	32.925
388.62	32.022
388.98	32.002
389.34	32.728
389.70	33.170
390.06	32.636
390.42	32.944
390.77	32.761
391.13	32.163
391.49	31.789
391.85	32.909
392.20	31.672
392.56	32.071
392.92	32.784
393.28	31.657
393.64	33.573
393.99	32.498
394.35	33.685
394.71	33.877
395.07	31.776
395.42	32.571
395.78	32.761
396.14	32.651
396.50	32.895
396.85	33.058
397.21	32.614
397.57	31.990
397.92	33.474
398.28	31.166
398.64	33.632
399.00	34.024
399.35	32.375
399.71	33.044
400.07	32.170
400.42	32.515
400.78	33.353
401.14	32.927
401.49	33.015
401.85	32.123
402.21	32.754
402.57	33.004
402.92	32.535
403.28	33.604
403.63	32.921
403.99	32.866
404.35	32.364
404.70	32.914
405.06	33.314
405.42	32.439
405.77	32.114
406.13	32.619
406.49	31.993
406.84	32.959
407.20	31.915
407.55	32.865
407.91	32.267
408.27	31.780
408.62	33.113
408.98	32.904
409.34	32.042
409.69	32.710
410.05	32.094
410.40	32.416
410.76	31.840
411.11	32.871
411.47	32.077
411.83	32.376
412.18	31.293
412.54	32.814
412.89	31.807
413.25	32.231
413.60	32.366
413.96	31.633
414.31	32.928
414.67	31.115
415.03	32.781
415.38	32.088
415.74	32.412
416.09	31.744
416.45	31.727
416.80	32.320
417.16	32.641
417.51	31.254
417.87	31.214
418.22	32.492
418.58	32.214
418.93	31.511
419.29	32.654
419.64	32.872
420.00	31.768
420.35	31.246
420.71	31.978
421.06	31.444
421.42	31.813
421.77	31.783
422.12	30.825
422.48	30.707
422.83	31.159
423.19	30.994
423.54	31.341
423.90	30.551
424.25	31.491
424.61	31.845
424.96	30.962
425.31	30.454
425.67	30.787
426.02	30.743
426.38	31.624
426.73	31.071
427.09	31.246
427.44	30.420
427.79	30.362
428.15	31.012
428.50	30.427
428.85	30.632
429.21	30.591
429.56	30.689
429.92	30.247
430.27	29.494
430.62	28.674
430.98	29.839
431.33	28.866
431.68	30.524
432.04	29.925
432.39	30.097
432.74	29.324
433.10	29.994
433.45	30.787
433.80	29.712
434.16	30.449
434.51	29.789
434.86	30.046
435.22	29.294
435.57	29.848
435.92	28.964
436.28	29.953
436.63	29.967
436.98	29.365
437.34	29.636
437.69	30.222
438.04	29.623
438.39	29.552
438.75	29.692
439.10	28.994
439.45	28.985
439.81	28.701
440.16	28.797
440.51	29.877
440.86	29.241
441.22	28.476
441.57	28.928
441.92	29.017
442.27	28.525
442.63	28.120
442.98	30.254
443.33	27.826
443.68	28.136
444.03	28.502
444.39	27.897
444.74	28.409
445.09	27.709
445.44	28.157
445.79	28.204
446.15	28.004
446.50	28.325
446.85	28.109
447.20	27.843
447.55	27.694
447.91	28.627
448.26	27.546
448.61	28.151
448.96	27.464
449.31	28.009
449.66	27.575
450.02	28.022
450.37	27.664
450.72	26.904
451.07	26.630
451.42	27.173
451.77	27.775
452.12	28.002
452.47	28.047
452.83	27.389
453.18	27.017
453.53	27.767
453.88	26.226
454.23	26.121
454.58	27.559
454.93	27.781
455.28	26.372
455.63	26.335
455.98	28.274
456.34	27.073
456.69	26.925
457.04	27.368
457.39	26.242
457.74	25.015
458.09	25.647
458.44	25.656
458.79	25.597
459.14	25.903
459.49	26.036
459.84	25.706
460.19	25.516
460.54	25.637
460.89	26.330
461.24	25.319
461.59	26.264
461.94	25.462
462.29	25.816
462.64	26.101
462.99	25.830
463.34	26.267
463.69	25.516
464.04	24.986
464.39	24.870
464.74	25.074
465.09	24.668
465.44	24.432
465.79	23.546
466.14	23.810
466.49	24.194
466.84	24.752
467.19	24.864
467.54	24.812
467.89	23.890
468.24	24.433
468.59	24.542
468.94	23.885
469.29	24.422
469.64	24.900
469.99	25.101
470.34	23.844
470.68	24.569
471.03	23.878
471.38	24.878
471.73	24.384
472.08	23.882
472.43	24.058
472.78	24.358
473.13	23.235
473.48	23.471
473.83	24.085
474.17	22.526
474.52	22.705
474.87	23.117
475.22	23.041
475.57	22.246
475.92	22.199
476.27	22.210
476.61	22.063
476.96	21.990
477.31	22.344
477.66	22.210
478.01	21.432
478.36	22.210
478.70	22.118
479.05	21.299
479.40	22.211
479.75	21.352
480.10	21.918
480.45	20.990
480.79	20.879
481.14	20.890
481.49	21.500
481.84	20.393
482.19	21.081
482.53	20.917
482.88	20.800
483.23	21.028
483.58	21.065
483.92	21.087
484.27	19.564
484.62	19.741
484.97	20.260
485.31	19.760
485.66	18.781
486.01	17.833
486.36	17.805
486.70	17.789
487.05	17.930
487.40	18.105
487.75	18.729
488.09	19.533
488.44	18.913
488.79	19.638
489.13	18.984
489.48	19.290
489.83	19.335
490.17	19.509
490.52	19.398
490.87	19.539
491.22	18.918
491.56	19.226
491.91	19.125
492.26	20.119
492.60	19.585
492.95	18.709
493.30	19.533
493.64	18.432
493.99	19.081
494.34	19.149
494.68	19.643
495.03	19.267
495.37	18.939
495.72	18.908
496.07	18.422
496.41	18.363
496.76	18.997
497.11	18.370
497.45	18.258
497.80	19.002
498.14	18.164
498.49	17.951
498.84	18.121
499.18	18.381
499.53	18.566
499.87	18.313
500.22	18.088
500.56	19.320
500.91	17.404
501.26	18.208
501.60	17.940
501.95	17.644
502.29	18.697
502.64	18.855
502.98	17.719
503.33	18.236
503.67	17.448
504.02	17.867
504.36	18.063
504.71	17.684
505.06	18.265
505.40	17.453
505.75	17.502
506.09	17.979
506.44	17.316
506.78	17.828
507.13	18.021
507.47	18.081
507.82	18.237
508.16	17.882
508.51	17.555
508.85	17.478
509.19	17.449
509.54	17.500
509.88	17.259
510.23	17.481
510.57	18.060
510.92	17.866
511.26	18.397
511.61	17.687
511.95	16.388
512.30	16.808
512.64	17.464
512.98	17.310
513.33	17.880
513.67	17.449
514.02	17.532
514.36	17.368
514.70	17.820
515.05	16.955
515.39	17.611
515.74	17.624
516.08	17.775
516.42	17.314
516.77	18.283
517.11	16.704
517.46	18.059
517.80	17.480
518.14	15.924
518.49	17.970
518.83	17.386
519.17	16.859
519.52	17.261
519.86	18.197
520.20	17.283
520.55	17.953
520.89	18.005
521.23	17.310
521.58	17.587
521.92	17.820
522.26	17.572
522.61	17.944
522.95	17.373
523.29	17.712
523.64	17.500
523.98	16.759
524.32	17.431
524.66	17.498
525.01	16.728
525.35	17.410
525.69	16.872
526.04	17.508
526.38	16.718
526.72	17.546
527.06	17.137
527.41	15.842
527.75	17.299
528.09	17.020
528.43	17.208
528.78	17.394
529.12	16.848
529.46	16.901
529.80	16.955
530.15	17.445
530.49	16.246
530.83	16.139
531.17	18.668
531.51	17.639
531.86	16.774
532.20	17.797
532.54	18.001
532.88	16.945
533.22	16.802
533.57	16.790
533.91	17.158
534.25	17.193
534.59	16.901
534.93	16.121
535.27	16.355
535.62	16.056
535.96	16.824
536.30	15.893
536.64	17.579
536.98	16.589
537.32	16.261
537.66	16.533
538.01	16.656
538.35	16.290
538.69	16.847
539.03	15.400
539.37	16.038
539.71	15.554
540.05	16.732
540.39	16.346
540.73	15.653
541.07	17.391
541.42	16.308
541.76	16.903
542.10	17.464
542.44	15.695
542.78	16.271
543.12	16.571
543.46	16.787
543.80	16.461
544.14	15.083
544.48	16.952
544.82	15.587
545.16	16.396
545.50	15.874
545.84	16.129
546.18	16.633
546.52	16.999
546.86	16.357
547.20	15.711
547.54	16.700
547.88	17.156
548.22	15.753
548.56	15.723
548.90	16.325
549.24	15.152
549.58	16.235
549.92	16.209
550.26	16.548
550.60	15.560
550.94	16.831
551.28	14.923
551.62	16.247
551.96	16.000
552.30	16.109
552.64	16.295
552.98	15.729
553.32	16.655
553.66	16.905
554.00	17.021
554.34	16.287
554.68	16.023
555.02	15.797
555.36	16.562
555.69	15.562
556.03	16.083
556.37	15.348
556.71	16.030
557.05	16.597
557.39	16.025
557.73	16.443
558.07	16.099
558.41	15.630
558.75	16.018
559.08	16.928
559.42	15.949
559.76	15.956
560.10	15.275
560.44	15.164
560.78	15.103
561.12	15.172
561.45	15.906
561.79	15.030
562.13	15.761
562.47	15.574
562.81	16.248
563.15	15.786
563.48	15.849
563.82	14.938
564.16	14.912
564.50	14.128
564.84	14.539
565.17	15.315
565.51	15.399
565.85	14.467
566.19	15.091
566.52	14.376
566.86	14.768
567.20	15.035
567.54	15.525
567.88	13.797
568.21	14.233
568.55	13.852
568.89	13.813
569.23	13.458
569.56	13.360
569.90	13.547
570.24	13.204
570.57	12.615
570.91	12.508
571.25	12.261
571.59	12.224
571.92	12.615
572.26	12.074
572.60	12.793
572.93	12.204
573.27	12.570
573.61	12.312
573.95	12.377
574.28	12.136
574.62	11.880
574.96	12.091
575.29	12.003
575.63	11.712
575.97	12.236
576.30	12.215
576.64	11.676
576.98	11.595
577.31	11.599
577.65	11.596
577.98	11.359
578.32	11.358
578.66	11.509
578.99	11.413
579.33	11.692
579.67	11.700
580.00	11.604
580.34	11.699
580.67	11.463
581.01	11.513
581.35	11.516
581.68	11.177
582.02	11.142
582.35	10.796
582.69	11.427
583.02	11.634
583.36	11.759
583.70	11.838
584.03	12.069
584.37	12.490
584.70	11.755
585.04	11.619
585.37	11.673
585.71	12.077
586.04	11.766
586.38	11.703
586.72	11.930
587.05	11.274
587.39	11.609
587.72	11.956
588.06	11.446
588.39	11.852
588.73	12.056
589.06	12.371
589.40	12.424
589.73	12.531
590.07	12.384
590.40	12.276
590.73	12.178
591.07	12.983
591.40	12.906
591.74	13.463
592.07	13.002
592.41	13.022
592.74	12.060
593.08	12.258
593.41	11.863
593.75	11.524
594.08	12.270
594.41	12.337
594.75	12.089
595.08	12.276
595.42	12.434
595.75	12.322
596.09	12.617
596.42	12.927
596.75	12.664
597.09	13.333
597.42	12.605
597.75	12.678
598.09	13.087
598.42	12.543
598.76	13.012
599.09	11.783
599.42	12.009
599.76	11.640
600.09	12.168
600.42	11.687
600.76	11.964
601.09	12.095
601.42	12.100
601.76	11.917
602.09	11.937
602.42	12.341
602.76	12.777
603.09	12.156
603.42	12.651
603.76	12.652
604.09	11.981
604.42	12.189
604.76	12.484
605.09	12.320
605.42	12.527
605.75	12.045
606.09	12.159
606.42	12.178
606.75	13.107
607.09	12.516
607.42	12.238
607.75	12.194
608.08	12.201
608.42	12.775
608.75	12.985
609.08	12.257
609.41	12.899
609.75	12.625
610.08	12.582
610.41	12.337
610.74	12.299
611.07	12.796
611.41	13.297
611.74	12.921
612.07	12.888
612.40	13.536
612.73	13.053
613.07	13.308
613.40	13.323
613.73	13.267
614.06	13.548
614.39	13.162
614.72	13.632
615.06	13.235
615.39	12.314
615.72	12.883
616.05	12.812
616.38	13.285
616.71	13.539
617.05	13.428
617.38	13.590
617.71	13.514
618.04	12.981
618.37	13.424
618.70	13.006
619.03	13.816
619.36	14.189
619.69	13.873
620.03	14.148
620.36	14.572
620.69	14.589
621.02	14.233
621.35	13.939
621.68	13.863
622.01	14.783
622.34	14.297
622.67	14.753
623.00	13.500
623.33	12.938
623.66	14.439
623.99	15.096
624.32	14.051
624.65	14.477
624.99	12.890
625.32	13.396
625.65	13.974
625.98	14.835
626.31	14.930
626.64	15.429
626.97	14.879
627.30	14.630
627.63	14.438
627.96	14.130
628.29	13.998
628.62	16.377
628.95	16.415
629.28	15.967
629.61	16.040
629.94	15.048
630.26	14.871
630.59	15.157
630.92	15.613
631.25	15.795
631.58	15.415
631.91	15.822
632.24	14.979
632.57	16.159
632.90	15.680
633.23	17.673
633.56	16.271
633.89	16.988
634.22	17.140
634.55	17.041
634.88	16.766
635.20	17.324
635.53	18.916
635.86	17.574
636.19	18.471
636.52	15.802
636.85	16.266
637.18	16.590
637.51	18.558
637.83	14.427
638.16	17.903
638.49	18.388
638.82	17.826
639.15	16.500
639.48	18.454
639.81	18.499
640.13	19.531
640.46	16.242
640.79	17.305
641.12	16.369
641.45	18.017
641.77	18.557
642.10	20.175
642.43	18.619
642.76	17.337
643.09	18.405
643.41	18.361
643.74	21.296
644.07	19.512
644.40	20.552
644.73	22.205
645.05	20.285
645.38	19.431
645.71	19.163
646.04	18.272
646.36	21.202
646.69	20.067
647.02	19.048
647.35	19.931
647.67	19.469
648.00	18.862
648.33	18.317
648.66	18.788
648.98	19.040
649.31	17.190
649.64	17.788
649.96	18.331
650.29	19.747
650.62	16.343
650.94	18.963
651.27	20.101
651.60	19.967
651.92	18.211
652.25	17.427
652.58	18.692
652.90	18.325
653.23	17.257
653.56	17.795
653.88	19.493
654.21	20.695
654.54	18.152
654.86	18.069
655.19	15.270
655.52	9.743
655.84	7.737
656.17	9.943
656.49	13.364
656.82	14.157
657.15	10.965
657.47	8.427
657.80	6.447
658.13	6.758
658.45	10.258
658.78	10.608
659.10	11.020
659.43	11.709
659.75	12.506
660.08	13.987
660.41	15.363
660.73	18.933
661.06	17.357
661.38	21.273
661.71	20.192
662.03	20.513
662.36	20.080
662.68	19.679
663.01	18.788
663.33	19.321
663.66	21.008
663.98	20.302
664.31	20.798
664.63	21.457
664.96	18.712
665.28	21.721
665.61	20.858
665.93	19.718
666.26	21.095
666.58	21.130
666.91	21.987
667.23	22.247
667.56	22.246
667.88	20.513
668.21	22.175
668.53	18.872
668.86	23.160
669.18	23.028
669.50	23.696
669.83	23.747
670.15	21.333
670.48	23.529
670.80	21.336
671.13	23.142
671.45	21.702
671.77	23.218
672.10	21.257
672.42	18.551
672.75	18.574
673.07	19.190
673.39	19.711
673.72	17.969
674.04	19.804
674.37	20.000
674.69	21.063
675.01	19.247
675.34	23.203
675.66	25.263
675.98	23.829
676.31	21.429
676.63	20.594
676.95	22.222
677.28	18.458
677.60	20.000
677.92	25.527
678.25	20.534
678.57	19.323
678.89	20.842
679.22	21.218
679.54	18.702
679.86	20.734
680.18	18.426
680.51	20.213
680.83	21.530
681.15	20.000
681.48	21.361
681.80	20.890
682.12	19.349
682.44	19.149
682.77	21.996
683.09	22.318
683.41	23.282
683.73	22.517
684.06	24.174
684.38	19.765
684.70	20.543
685.02	21.764
685.34	19.597
685.67	17.657
685.99	17.526
686.31	17.235
686.63	19.258
686.96	18.750
687.28	17.509
687.60	20.471
687.92	18.830
688.24	19.392
688.56	20.884
688.89	21.162
689.21	22.052
689.53	22.965
689.85	20.621
690.17	19.048
690.49	22.718
690.82	21.262
691.14	22.768
691.46	19.831
691.78	20.884
692.10	21.488
692.42	20.958
692.74	19.087
693.06	22.553
693.39	20.329
693.71	20.524
694.03	21.474
694.35	21.429
694.67	20.366
694.99	20.976
695.31	19.608
695.63	22.727
695.95	23.227
696.27	20.305
696.59	20.466
696.91	24.870
697.23	19.953
697.56	20.896
697.88	18.200
698.20	19.375
698.52	21.720
698.84	21.604
699.16	20.737
699.48	21.853
699.80	21.014
700.12	25.455
700.44	23.607
700.76	23.757
701.08	22.701
701.40	24.302
701.72	27.988
702.04	26.705
702.36	24.929
702.68	20.680
703.00	24.654
703.32	25.266
703.64	21.716
703.96	25.348
704.28	22.965
704.60	27.273
704.91	29.674
705.23	29.032
705.55	29.236
705.87	31.229
706.19	25.442
706.51	29.595
706.83	24.848
707.15	26.611
707.47	23.232
707.79	23.096
708.11	21.918
708.43	21.429
708.74	19.643
709.06	23.896
709.38	25.722
709.70	25.291
710.02	23.442
710.34	21.515
710.66	24.776
710.98	27.841
711.29	23.256
711.61	24.779
711.93	25.000
712.25	26.688
712.57	25.735
712.89	28.028
713.20	27.052
713.52	25.000
713.84	26.582
714.16	23.171
714.48	23.276
714.80	29.483
715.11	26.801
715.43	22.849
715.75	25.217
716.07	22.684
716.39	27.273
716.70	30.897
717.02	28.058
717.34	28.622
717.66	33.209
717.97	31.076
718.29	31.111
718.61	27.372
718.93	26.471
719.24	26.298
719.56	22.712
719.88	27.797
720.20	26.689
720.51	26.132
720.83	29.368
721.15	25.373
721.46	27.305
721.78	31.900
722.10	32.075
722.42	24.436
722.73	29.588
723.05	29.098
723.37	27.935
723.68	27.027
724.00	29.675
724.32	27.823
724.63	24.797
724.95	31.799
725.27	30.364
725.58	30.859
725.90	28.467
726.22	26.792
726.53	25.347
726.85	25.256
727.16	29.893
727.48	26.596
727.80	25.758
728.11	25.725
728.43	28.462
728.74	26.523
729.06	28.832
729.38	30.882
729.69	26.335
730.01	24.573
730.32	26.042
730.64	26.756
730.96	28.383
731.27	26.821
731.59	24.465
731.90	24.490
732.22	24.224
732.53	25.697
732.85	25.321
733.16	24.437
733.48	23.256
733.80	24.026
734.11	26.752
734.43	26.036
734.74	22.000
735.06	20.917
735.37	23.410
735.69	25.159
736.00	30.065
736.32	24.299
736.63	21.086
736.95	26.198
737.26	23.129
737.58	20.645
737.89	27.759
738.21	33.447
738.52	26.071
738.83	28.302
739.15	28.462
739.46	32.847
739.78	26.042
740.09	27.385
740.41	29.032
740.72	26.481
741.04	29.630
741.35	26.667
741.66	35.111
741.98	28.774
742.29	32.536
742.61	35.776
742.92	28.054
743.23	29.915
743.55	31.200
743.86	25.000
744.18	34.956
744.49	32.057
744.80	37.089
745.12	37.273
745.43	36.123
745.74	31.532
746.06	36.697
746.37	33.632
746.68	33.484
747.00	36.574
747.31	31.905
747.62	32.743
747.94	32.599
748.25	25.957
748.56	34.361
748.88	33.168
749.19	35.500
749.50	33.488
749.82	29.268
750.13	26.531
750.44	29.562
750.75	25.263
751.07	31.833
751.38	24.739
751.69	24.910
752.01	27.820
752.32	27.076
752.63	27.305
752.94	23.770
753.26	33.600
753.57	29.268
753.88	33.594
754.19	28.214
754.51	30.903
754.82	22.022
755.13	29.434
755.44	24.812
755.75	25.547
756.07	26.596
756.38	23.723
756.69	24.497
757.00	19.760
757.31	21.662
757.63	23.684
757.94	23.324
758.25	22.059
758.56	21.481
758.87	19.892
759.18	21.818
759.50	26.019
759.81	23.988
760.12	23.125
760.43	22.636
760.74	22.283
761.05	22.881
761.36	20.053
761.67	25.000
761.99	24.845
762.30	26.736
762.61	24.046
762.92	29.687
763.23	29.832
763.54	33.600
763.85	28.516
764.16	33.077
764.47	28.897
764.78	26.502
765.10	20.886
765.41	27.434
765.72	24.850
766.03	21.317
766.34	25.667
766.65	29.362
766.96	30.769
767.27	35.533
767.58	34.375
767.89	39.474
768.20	35.632
768.51	37.563
768.82	35.321
769.13	28.862
769.44	26.721
769.75	27.897
770.06	21.101
770.37	36.199
770.68	35.648
770.99	32.000
771.30	30.328
771.61	30.493
771.92	29.098
772.23	32.773
772.54	35.897
772.85	33.508
773.16	32.979
773.47	40.761
773.78	42.640
774.09	35.714
774.39	40.936
774.70	34.568
775.01	36.957
775.32	46.405
775.63	44.079
775.94	41.007
776.25	55.118
776.56	44.776
776.87	40.164
777.18	53.125
777.48	47.328
777.79	42.424
778.10	51.852
778.41	49.107
778.72	41.606
779.03	49.664
779.34	36.242
779.65	39.189
779.95	40.491
780.26	39.869
780.57	44.138
780.88	63.281
781.19	51.880
781.50	46.622
781.80	49.686
782.11	38.418
782.42	36.709
782.73	37.423
783.04	44.595
783.34	50.000
783.65	54.110
783.96	50.000
784.27	39.860
784.57	33.094
784.88	50.926
785.19	57.143
785.50	48.113
785.81	48.507
786.11	55.738
786.42	55.814
786.73	53.097
787.04	60.377
787.34	52.679
787.65	66.000
787.96	56.757
788.26	46.281
788.57	46.610
788.88	54.545
789.19	50.000
789.49	50.758
789.80	54.962
790.11	59.048
790.41	57.426
790.72	62.651
791.03	73.913
791.33	66.279
791.64	64.948
791.95	54.455
792.25	72.222
792.56	62.338
792.87	80.769
793.17	81.013
793.48	74.713
793.79	68.966
794.09	69.318
794.40	52.101
794.70	43.382
795.01	48.148
795.32	45.324
795.62	48.031
795.93	53.448
796.23	51.327
796.54	68.235
796.85	58.108
797.15	91.549
797.46	65.152
797.76	91.566
798.07	63.291
798.37	75.385
798.68	81.818
798.99	57.746
799.29	71.429
799.60	59.091
799.90	89.041
800.21	86.567
800.51	96.552
800.82	101.754
801.12	88.525
801.43	93.939
801.73	74.324
802.04	98.413
802.34	79.012
802.65	98.437
802.95	101.695
803.26	87.500
803.56	71.429
803.87	103.077
804.17	91.176
804.48	107.407
804.78	81.034
805.09	77.941
805.39	88.462
805.70	80.357
806.00	113.115
806.30	74.242
806.61	74.390
806.91	63.291
807.22	67.105
807.52	73.134
807.83	94.366
808.13	85.938
808.43	88.333
808.74	71.053
809.04	82.609
809.35	74.627
809.65	75.000
809.95	101.613
810.26	84.746
810.56	84.127
810.86	145.455
811.17	123.810
811.47	105.000
811.77	83.333
812.08	100.000
812.38	108.000
812.69	130.556
812.99	140.909
813.29	132.653
813.59	95.238
813.90	132.653
814.20	116.364
814.50	73.846
814.81	92.647
815.11	104.082
815.41	85.246
815.72	130.952
816.02	109.091
816.32	126.190
816.62	130.000
816.93	141.463
817.23	161.905
817.53	136.364
817.84	151.515
818.14	117.391
818.44	120.000
818.74	167.647
819.04	130.000
819.35	168.571
819.65	179.412
819.95	146.429
820.25	195.000
820.56	151.282
820.86	134.091
821.16	146.512
821.46	123.077
821.76	138.000
822.07	171.429
822.37	155.000
822.67	172.727
822.97	111.765
823.27	203.571
823.57	140.541
823.88	142.500
824.18	186.667
824.48	147.619
824.78	200.000
825.08	200.000
825.38	154.054
825.69	131.707
825.99	195.833
826.29	168.966
826.59	152.632
826.89	128.947
827.19	152.941
827.49	187.097
827.79	145.455
828.09	138.636
828.39	112.766
828.70	110.204
829.00	166.667
829.30	161.290
829.60	132.500
829.90	346.667
830.20	185.714
830.50	182.609
830.80	217.391
831.10	200.000
831.40	190.000
831.70	234.783
832.00	238.462
832.30	196.296
832.60	312.500
832.90	203.333
833.20	414.286
833.50	187.097
833.80	203.448
834.10	181.250
834.40	223.077
834.70	338.889
835.00	309.524
835.30	154.286
835.60	261.538
835.90	193.103
836.20	371.429
836.50	168.966
836.80	180.000
837.10	191.667
837.40	280.952
837.70	358.824
838.00	207.407
838.30	238.095
838.60	304.762
838.90	230.769
839.19	255.000
839.49	407.143
839.79	315.000
840.09	250.000
840.39	295.238
840.69	234.783
840.99	288.889
841.29	420.000
841.59	350.000
841.88	312.500
842.18	175.862
842.48	252.381
842.78	196.667
843.08	208.696
843.38	156.250
843.68	800.000
843.97	211.538
844.27	196.552
844.57	333.333
844.87	375.000
845.17	192.593
845.47	1500.000
845.76	455.556
846.06	294.118
846.36	537.500
846.66	342.857
846.96	375.000
847.25	427.273
847.55	372.727
847.85	217.391
848.15	540.000
848.44	364.286
848.74	277.778
849.04	270.588
849.34	480.000
849.63	305.263
849.93	390.909
850.23	1060.000
850.53	335.714
850.82	2050.000
851.12	-4000.000
851.42	4300.000
851.71	245.000
852.01	-1466.667
852.31	220.833
852.61	1533.333
852.90	271.429
853.20	236.000
853.50	323.529
853.79	300.000
854.09	229.167
854.39	318.750
854.68	170.270
854.98	167.742
855.28	156.667
855.57	200.000
855.87	270.370
856.17	257.895
856.46	293.333
856.76	282.353
857.05	231.034
857.35	241.667
857.65	366.667
857.94	239.130
858.24	242.308
858.53	310.000
858.83	245.455
859.13	353.333
859.42	0.000
859.72	511.111
860.01	409.091
860.31	268.182
860.60	289.474
860.90	213.043
861.20	611.111
861.49	550.000
861.79	-5400.000
862.08	562.500
862.38	266.667
862.67	376.923
862.97	341.176
863.26	500.000
863.56	305.556
863.85	408.333
864.15	562.500
864.44	413.333
864.74	883.333
865.03	737.500
865.33	310.526
865.62	400.000
865.92	438.462
866.21	366.667
866.51	0.000
866.80	472.727
867.10	1000.000
867.39	415.385
867.69	436.364
867.98	284.211
868.27	445.455
868.57	278.947
868.86	-5100.000
869.16	337.500
869.45	2100.000
869.75	-5100.000
870.04	416.667
870.33	728.571
870.63	1100.000
870.92	2250.000
871.22	700.000
871.51	376.471
871.80	204.762
872.10	435.714
>>>>>End Processed Spectral Data<<<<<
