SpectraSuite Data File
++++++++++++++++++++++++++++++++++++
Date: Wed May 13 19:48:23 PDT 2015
User: schluterlab
Dark Spectrum Present: Yes
Reference Spectrum Present: Yes
Number of Sampled Component Spectra: 1
Spectrometers: USB2E3373
Integration Time (usec): 3000 (USB2E3373)
Spectra Averaged: 3 (USB2E3373)
Boxcar Smoothing: 0 (USB2E3373)
Correct for Electrical Dark: No (USB2E3373)
Strobe/Lamp Enabled: No (USB2E3373)
Correct for Detector Non-linearity: No (USB2E3373)
Correct for Stray Light: No (USB2E3373)
Number of Pixels in Processed Spectrum: 2048
>>>>>Begin Processed Spectral Data<<<<<
178.53	0.000
178.91	-1375.000
179.29	-1250.000
179.67	-233.333
180.04	-1375.000
180.42	2500.000
180.80	1240.000
181.18	-1200.000
181.56	571.429
181.94	0.000
182.31	-671.429
182.69	1666.667
183.07	-487.500
183.45	-488.889
183.83	518.182
184.20	-440.000
184.58	2600.000
184.96	5700.000
185.34	-880.000
185.72	-575.000
186.09	-2350.000
186.47	2800.000
186.85	2750.000
187.23	4700.000
187.61	-1733.333
187.98	1350.000
188.36	590.909
188.74	490.909
189.12	-840.000
189.49	600.000
189.87	-5500.000
190.25	-1175.000
190.63	450.000
191.00	438.462
191.38	950.000
191.76	-1350.000
192.14	1475.000
192.51	662.500
192.89	850.000
193.27	725.000
193.65	-1325.000
194.02	470.000
194.40	840.000
194.78	630.000
195.15	525.000
195.53	650.000
195.91	-2050.000
196.29	356.250
196.66	300.000
197.04	-360.000
197.42	0.000
197.79	660.000
198.17	-4800.000
198.55	671.429
198.92	700.000
199.30	1140.000
199.68	0.000
200.05	344.444
200.43	771.429
200.81	5200.000
201.18	1933.333
201.56	-2000.000
201.94	555.556
202.31	555.556
202.69	441.667
203.07	510.000
203.44	0.000
203.82	1100.000
204.19	914.286
204.57	450.000
204.95	825.000
205.32	1766.667
205.70	545.455
206.08	471.429
206.45	2200.000
206.83	318.750
207.20	833.333
207.58	840.000
207.96	338.889
208.33	775.000
208.71	-716.667
209.08	885.714
209.46	633.333
209.84	463.636
210.21	-1533.333
210.59	1225.000
210.96	-550.000
211.34	2100.000
211.71	570.000
212.09	900.000
212.46	0.000
212.84	1933.333
213.22	1325.000
213.59	-4700.000
213.97	883.333
214.34	714.286
214.72	536.364
215.09	1060.000
215.47	-2150.000
215.84	-2550.000
216.22	1533.333
216.59	392.857
216.97	1350.000
217.34	436.364
217.72	-766.667
218.09	0.000
218.47	-5000.000
218.84	600.000
219.22	800.000
219.59	1866.667
219.97	-642.857
220.34	1040.000
220.72	-1666.667
221.09	392.857
221.47	1300.000
221.84	-900.000
222.22	0.000
222.59	1300.000
222.97	-2550.000
223.34	1340.000
223.72	423.077
224.09	1160.000
224.46	2000.000
224.84	-5100.000
225.21	-920.000
225.59	-5500.000
225.96	630.000
226.34	310.000
226.71	2750.000
227.08	612.500
227.46	550.000
227.83	-975.000
228.21	-2450.000
228.58	633.333
228.95	-2950.000
229.33	-2050.000
229.70	1766.667
230.08	771.429
230.45	-840.000
230.82	400.000
231.20	766.667
231.57	628.571
231.95	450.000
232.32	240.909
232.69	418.182
233.07	600.000
233.44	338.462
233.81	-1666.667
234.19	305.263
234.56	416.667
234.93	350.000
235.31	381.818
235.68	338.462
236.05	242.857
236.43	178.788
236.80	231.579
237.17	4200.000
237.55	252.381
237.92	182.143
238.29	180.952
238.67	145.161
239.04	168.966
239.41	138.889
239.79	100.000
240.16	126.190
240.53	109.091
240.91	76.471
241.28	86.000
241.65	110.000
242.02	72.464
242.40	69.355
242.77	75.000
243.14	73.118
243.51	62.921
243.89	60.000
244.26	62.222
244.63	53.763
245.00	48.936
245.38	44.554
245.75	52.336
246.12	42.202
246.49	48.905
246.87	50.400
247.24	35.385
247.61	37.857
247.98	32.680
248.36	31.757
248.73	25.478
249.10	33.758
249.47	31.073
249.84	33.690
250.22	32.620
250.59	27.219
250.96	25.758
251.33	22.749
251.70	29.703
252.08	22.857
252.45	25.112
252.82	21.304
253.19	20.851
253.56	24.314
253.94	23.237
254.31	21.484
254.68	22.692
255.05	20.664
255.42	19.106
255.79	18.750
256.16	22.744
256.54	14.134
256.91	19.217
257.28	14.029
257.65	20.462
258.02	15.839
258.39	17.035
258.76	18.060
259.14	16.369
259.51	17.629
259.88	13.975
260.25	17.523
260.62	15.318
260.99	15.839
261.36	15.916
261.73	15.473
262.10	13.081
262.47	15.211
262.85	15.320
263.22	13.390
263.59	17.379
263.96	13.187
264.33	13.055
264.70	14.474
265.07	16.113
265.44	13.636
265.81	13.869
266.18	12.312
266.55	11.220
266.92	11.302
267.29	15.278
267.66	11.009
268.03	12.500
268.40	13.551
268.77	11.933
269.14	11.712
269.51	13.544
269.88	12.587
270.25	11.964
270.62	11.685
270.99	13.333
271.36	11.803
271.73	9.112
272.10	11.087
272.47	12.688
272.84	10.606
273.21	14.046
273.58	9.607
273.95	10.692
274.32	10.950
274.69	12.206
275.06	12.598
275.43	12.766
275.80	11.423
276.17	11.813
276.54	12.682
276.91	10.474
277.28	10.352
277.65	11.605
278.02	8.282
278.39	11.523
278.76	9.455
279.13	9.434
279.50	10.242
279.87	9.363
280.23	9.780
280.60	10.058
280.97	9.242
281.34	9.558
281.71	10.727
282.08	10.557
282.45	8.000
282.82	9.591
283.19	8.378
283.56	11.404
283.92	9.983
284.29	9.524
284.66	7.985
285.03	8.137
285.40	8.803
285.77	9.428
286.14	8.981
286.51	10.333
286.87	8.205
287.24	10.912
287.61	9.470
287.98	9.253
288.35	8.241
288.72	10.125
289.08	9.077
289.45	8.731
289.82	8.780
290.19	6.593
290.56	7.963
290.93	8.308
291.29	7.209
291.66	8.407
292.03	9.738
292.40	9.838
292.77	8.284
293.13	8.060
293.50	6.706
293.87	9.333
294.24	7.259
294.60	7.278
294.97	8.140
295.34	9.027
295.71	7.955
296.08	7.835
296.44	7.290
296.81	6.605
297.18	8.266
297.55	4.749
297.91	7.124
298.28	8.300
298.65	8.877
299.02	7.642
299.38	6.640
299.75	5.256
300.12	6.897
300.48	7.875
300.85	7.028
301.22	7.006
301.59	6.061
301.95	6.927
302.32	7.060
302.69	7.646
303.05	5.697
303.42	6.790
303.79	5.889
304.15	5.012
304.52	6.257
304.89	6.736
305.25	7.077
305.62	7.475
305.99	6.966
306.35	6.152
306.72	6.390
307.09	7.547
307.45	7.320
307.82	5.915
308.19	6.843
308.55	7.228
308.92	6.337
309.29	5.702
309.65	5.408
310.02	6.871
310.38	6.452
310.75	5.702
311.12	6.039
311.48	6.583
311.85	7.757
312.22	6.139
312.58	6.029
312.95	6.230
313.31	6.019
313.68	7.173
314.05	7.495
314.41	8.040
314.78	6.143
315.14	6.356
315.51	7.518
315.87	7.921
316.24	7.249
316.61	7.407
316.97	8.023
317.34	5.773
317.70	7.075
318.07	7.507
318.43	7.632
318.80	8.435
319.16	8.475
319.53	6.004
319.89	8.000
320.26	10.100
320.62	9.623
320.99	9.697
321.35	9.293
321.72	10.780
322.08	9.477
322.45	10.348
322.81	10.271
323.18	10.983
323.54	10.853
323.91	11.509
324.27	10.707
324.64	9.320
325.00	10.280
325.37	10.919
325.73	12.118
326.10	11.474
326.46	11.111
326.83	12.166
327.19	11.358
327.56	11.760
327.92	12.336
328.29	12.866
328.65	13.168
329.01	13.177
329.38	13.136
329.74	12.465
330.11	13.195
330.47	13.590
330.84	13.879
331.20	13.206
331.56	13.578
331.93	13.889
332.29	12.866
332.66	13.982
333.02	14.260
333.38	14.002
333.75	13.458
334.11	14.591
334.48	13.576
334.84	14.706
335.20	13.455
335.57	13.871
335.93	13.125
336.29	14.103
336.66	13.345
337.02	13.484
337.38	14.259
337.75	13.904
338.11	14.145
338.47	13.904
338.84	14.024
339.20	13.119
339.56	15.785
339.93	13.727
340.29	14.855
340.65	14.528
341.02	15.009
341.38	14.502
341.74	13.684
342.11	14.410
342.47	14.626
342.83	15.668
343.20	14.199
343.56	14.490
343.92	14.912
344.28	15.136
344.65	15.305
345.01	14.141
345.37	14.322
345.73	16.244
346.10	15.175
346.46	15.254
346.82	15.157
347.19	14.954
347.55	14.286
347.91	15.615
348.27	15.859
348.63	15.552
349.00	13.754
349.36	14.368
349.72	15.317
350.08	14.830
350.45	16.436
350.81	16.247
351.17	16.045
351.53	15.315
351.89	15.182
352.26	16.022
352.62	14.595
352.98	15.154
353.34	15.612
353.70	15.221
354.07	15.081
354.43	15.556
354.79	14.481
355.15	15.164
355.51	15.667
355.87	16.082
356.24	14.984
356.60	14.515
356.96	14.722
357.32	15.699
357.68	15.118
358.04	15.044
358.40	15.281
358.77	15.336
359.13	14.522
359.49	15.137
359.85	14.444
360.21	15.630
360.57	15.642
360.93	15.385
361.29	15.873
361.66	14.396
362.02	15.522
362.38	15.665
362.74	15.104
363.10	14.804
363.46	14.600
363.82	15.495
364.18	14.391
364.54	15.899
364.90	15.793
365.26	14.191
365.62	15.267
365.98	15.194
366.35	15.258
366.71	15.835
367.07	15.222
367.43	15.747
367.79	15.132
368.15	15.661
368.51	15.480
368.87	15.418
369.23	15.508
369.59	15.858
369.95	14.485
370.31	15.883
370.67	15.507
371.03	15.955
371.39	14.213
371.75	14.926
372.11	15.718
372.47	15.982
372.83	16.499
373.19	14.957
373.55	15.743
373.91	16.642
374.27	14.433
374.63	14.764
374.99	15.537
375.35	15.213
375.71	15.079
376.07	16.255
376.42	15.681
376.78	15.639
377.14	15.807
377.50	15.563
377.86	14.561
378.22	15.550
378.58	14.912
378.94	14.896
379.30	14.249
379.66	16.688
380.02	15.848
380.38	15.118
380.74	15.906
381.09	15.831
381.45	16.226
381.81	16.032
382.17	15.924
382.53	15.346
382.89	16.420
383.25	16.260
383.61	15.861
383.97	16.010
384.32	15.908
384.68	15.551
385.04	16.042
385.40	15.356
385.76	15.725
386.12	15.933
386.48	16.425
386.83	15.972
387.19	17.130
387.55	16.512
387.91	15.357
388.27	15.573
388.62	16.411
388.98	15.909
389.34	16.270
389.70	16.002
390.06	17.237
390.42	16.926
390.77	15.522
391.13	16.847
391.49	16.307
391.85	15.850
392.20	14.890
392.56	15.972
392.92	16.127
393.28	15.325
393.64	16.427
393.99	16.188
394.35	16.253
394.71	16.625
395.07	15.763
395.42	16.625
395.78	16.476
396.14	15.705
396.50	17.168
396.85	16.275
397.21	15.290
397.57	15.747
397.92	16.106
398.28	15.135
398.64	15.890
399.00	15.557
399.35	15.623
399.71	15.856
400.07	16.322
400.42	15.767
400.78	16.043
401.14	15.427
401.49	15.940
401.85	16.031
402.21	15.329
402.57	15.731
402.92	15.763
403.28	16.365
403.63	15.285
403.99	15.987
404.35	16.485
404.70	15.228
405.06	15.317
405.42	15.596
405.77	14.857
406.13	14.786
406.49	15.612
406.84	15.771
407.20	15.248
407.55	16.146
407.91	16.333
408.27	15.890
408.62	15.352
408.98	16.360
409.34	15.744
409.69	16.194
410.05	15.180
410.40	15.841
410.76	15.352
411.11	15.320
411.47	15.399
411.83	15.394
412.18	15.152
412.54	15.193
412.89	15.783
413.25	14.640
413.60	15.318
413.96	15.301
414.31	14.885
414.67	15.526
415.03	15.232
415.38	15.013
415.74	15.498
416.09	15.219
416.45	14.926
416.80	15.003
417.16	15.550
417.51	14.864
417.87	14.515
418.22	15.079
418.58	15.688
418.93	14.619
419.29	14.895
419.64	15.617
420.00	14.878
420.35	14.667
420.71	15.182
421.06	15.334
421.42	15.088
421.77	14.462
422.12	13.756
422.48	13.708
422.83	14.153
423.19	14.972
423.54	14.393
423.90	14.667
424.25	14.852
424.61	13.631
424.96	14.694
425.31	14.729
425.67	13.876
426.02	13.943
426.38	15.385
426.73	13.341
427.09	14.347
427.44	14.089
427.79	13.916
428.15	14.762
428.50	15.097
428.85	13.945
429.21	13.639
429.56	14.308
429.92	13.739
430.27	13.555
430.62	12.698
430.98	13.441
431.33	13.711
431.68	13.717
432.04	14.217
432.39	13.364
432.74	14.841
433.10	12.564
433.45	13.761
433.80	12.528
434.16	14.049
434.51	13.263
434.86	14.253
435.22	13.174
435.57	13.739
435.92	13.400
436.28	13.582
436.63	14.073
436.98	12.707
437.34	13.596
437.69	13.477
438.04	13.153
438.39	12.955
438.75	14.178
439.10	13.799
439.45	13.341
439.81	13.414
440.16	12.818
440.51	13.298
440.86	12.681
441.22	12.903
441.57	12.898
441.92	12.999
442.27	13.186
442.63	12.428
442.98	13.915
443.33	13.207
443.68	12.081
444.03	11.908
444.39	11.879
444.74	12.771
445.09	12.884
445.44	12.083
445.79	12.914
446.15	13.182
446.50	11.793
446.85	12.025
447.20	12.698
447.55	12.284
447.91	12.135
448.26	12.632
448.61	12.380
448.96	13.178
449.31	13.105
449.66	11.480
450.02	12.201
450.37	11.905
450.72	12.183
451.07	12.005
451.42	12.280
451.77	12.566
452.12	12.471
452.47	12.562
452.83	11.830
453.18	12.408
453.53	12.678
453.88	12.286
454.23	12.014
454.58	13.446
454.93	13.223
455.28	11.970
455.63	12.561
455.98	13.333
456.34	12.688
456.69	12.085
457.04	11.517
457.39	12.040
457.74	12.246
458.09	12.478
458.44	11.574
458.79	11.280
459.14	11.682
459.49	12.259
459.84	11.191
460.19	11.196
460.54	11.574
460.89	11.739
461.24	11.779
461.59	12.377
461.94	11.714
462.29	12.760
462.64	11.295
462.99	11.386
463.34	12.800
463.69	11.507
464.04	12.116
464.39	11.710
464.74	11.884
465.09	11.218
465.44	11.080
465.79	11.969
466.14	11.549
466.49	11.290
466.84	11.851
467.19	12.311
467.54	12.000
467.89	11.104
468.24	11.169
468.59	11.172
468.94	11.179
469.29	11.440
469.64	12.249
469.99	11.367
470.34	11.625
470.68	12.069
471.03	11.224
471.38	11.049
471.73	10.859
472.08	12.566
472.43	11.244
472.78	11.126
473.13	12.516
473.48	11.049
473.83	11.220
474.17	10.392
474.52	11.787
474.87	10.858
475.22	11.492
475.57	11.069
475.92	10.621
476.27	10.203
476.61	10.259
476.96	10.225
477.31	10.466
477.66	10.667
478.01	10.089
478.36	10.894
478.70	9.865
479.05	9.904
479.40	10.133
479.75	10.117
480.10	9.543
480.45	9.519
480.79	9.173
481.14	9.932
481.49	10.346
481.84	9.374
482.19	9.814
482.53	9.587
482.88	9.819
483.23	10.093
483.58	9.463
483.92	9.606
484.27	9.325
484.62	8.836
484.97	8.869
485.31	9.075
485.66	7.989
486.01	7.793
486.36	7.686
486.70	7.595
487.05	7.803
487.40	7.993
487.75	8.269
488.09	8.584
488.44	8.072
488.79	8.897
489.13	8.709
489.48	9.380
489.83	8.287
490.17	9.470
490.52	9.300
490.87	8.503
491.22	9.141
491.56	8.747
491.91	8.702
492.26	8.222
492.60	8.986
492.95	8.232
493.30	9.159
493.64	8.773
493.99	8.774
494.34	8.881
494.68	9.020
495.03	9.070
495.37	9.260
495.72	8.723
496.07	8.956
496.41	8.894
496.76	9.103
497.11	8.690
497.45	8.850
497.80	8.589
498.14	8.551
498.49	8.098
498.84	8.629
499.18	8.381
499.53	8.879
499.87	8.434
500.22	9.044
500.56	8.689
500.91	8.269
501.26	8.914
501.60	8.638
501.95	8.020
502.29	8.716
502.64	8.566
502.98	8.322
503.33	8.501
503.67	7.796
504.02	8.513
504.36	8.189
504.71	8.158
505.06	8.771
505.40	8.021
505.75	8.438
506.09	8.795
506.44	8.189
506.78	8.914
507.13	8.026
507.47	8.990
507.82	8.409
508.16	8.409
508.51	8.676
508.85	8.391
509.19	8.163
509.54	7.959
509.88	8.810
510.23	8.997
510.57	8.720
510.92	8.493
511.26	8.582
511.61	8.558
511.95	8.246
512.30	8.059
512.64	8.812
512.98	8.735
513.33	8.887
513.67	8.378
514.02	8.063
514.36	8.520
514.70	8.633
515.05	8.310
515.39	8.918
515.74	8.390
516.08	8.720
516.42	8.935
516.77	9.309
517.11	7.991
517.46	8.578
517.80	9.059
518.14	7.991
518.49	7.818
518.83	8.750
519.17	7.910
519.52	8.659
519.86	8.671
520.20	9.017
520.55	8.797
520.89	8.151
521.23	8.926
521.58	8.463
521.92	9.063
522.26	8.359
522.61	8.598
522.95	8.042
523.29	9.069
523.64	8.841
523.98	7.640
524.32	8.504
524.66	9.200
525.01	8.578
525.35	9.108
525.69	8.067
526.04	8.723
526.38	8.664
526.72	8.466
527.06	7.972
527.41	7.611
527.75	8.232
528.09	8.478
528.43	8.413
528.78	8.482
529.12	8.848
529.46	8.696
529.80	9.468
530.15	9.221
530.49	8.615
530.83	9.241
531.17	9.269
531.51	9.339
531.86	8.903
532.20	9.583
532.54	8.840
532.88	9.050
533.22	8.994
533.57	8.519
533.91	8.549
534.25	8.384
534.59	8.542
534.93	8.209
535.27	8.449
535.62	8.242
535.96	8.537
536.30	8.582
536.64	8.500
536.98	8.560
537.32	7.768
537.66	8.533
538.01	8.492
538.35	8.727
538.69	9.126
539.03	7.927
539.37	8.371
539.71	7.583
540.05	7.974
540.39	7.774
540.73	8.150
541.07	9.409
541.42	7.436
541.76	9.032
542.10	8.668
542.44	8.079
542.78	8.893
543.12	7.933
543.46	9.311
543.80	8.523
544.14	7.445
544.48	8.825
544.82	7.890
545.16	8.783
545.50	7.969
545.84	7.460
546.18	8.418
546.52	8.259
546.86	8.316
547.20	8.496
547.54	8.083
547.88	9.184
548.22	8.219
548.56	8.176
548.90	8.643
549.24	7.542
549.58	8.527
549.92	8.585
550.26	8.239
550.60	8.506
550.94	8.239
551.28	7.681
551.62	8.483
551.96	7.860
552.30	8.805
552.64	8.316
552.98	7.458
553.32	8.968
553.66	8.657
554.00	8.236
554.34	8.351
554.68	7.940
555.02	8.251
555.36	8.907
555.69	7.916
556.03	8.277
556.37	8.595
556.71	7.708
557.05	8.333
557.39	8.957
557.73	7.763
558.07	8.629
558.41	8.104
558.75	8.670
559.08	8.576
559.42	7.407
559.76	8.382
560.10	8.565
560.44	7.827
560.78	6.919
561.12	8.047
561.45	8.801
561.79	8.635
562.13	7.981
562.47	7.445
562.81	7.392
563.15	8.361
563.48	7.825
563.82	7.893
564.16	7.587
564.50	7.161
564.84	7.775
565.17	7.786
565.51	7.604
565.85	8.185
566.19	7.013
566.52	7.410
566.86	7.836
567.20	8.019
567.54	7.249
567.88	6.464
568.21	7.513
568.55	7.280
568.89	7.150
569.23	6.640
569.56	6.721
569.90	6.528
570.24	6.100
570.57	6.120
570.91	6.399
571.25	6.115
571.59	6.009
571.92	5.991
572.26	6.181
572.60	6.246
572.93	5.967
573.27	6.300
573.61	5.751
573.95	5.814
574.28	5.804
574.62	5.539
574.96	5.591
575.29	5.626
575.63	5.843
575.97	5.910
576.30	6.240
576.64	5.585
576.98	5.737
577.31	5.430
577.65	5.646
577.98	5.509
578.32	5.342
578.66	5.577
578.99	5.638
579.33	5.810
579.67	5.522
580.00	5.586
580.34	5.577
580.67	5.389
581.01	5.757
581.35	5.461
581.68	5.393
582.02	5.038
582.35	5.407
582.69	5.344
583.02	5.357
583.36	5.926
583.70	5.694
584.03	5.799
584.37	5.718
584.70	5.408
585.04	5.602
585.37	5.755
585.71	5.780
586.04	5.267
586.38	5.617
586.72	6.131
587.05	5.651
587.39	5.383
587.72	6.029
588.06	5.470
588.39	5.706
588.73	5.749
589.06	5.765
589.40	6.128
589.73	6.125
590.07	6.121
590.40	5.992
590.73	6.167
591.07	7.285
591.40	7.043
591.74	6.840
592.07	6.457
592.41	6.656
592.74	6.367
593.08	6.229
593.41	5.947
593.75	6.246
594.08	6.436
594.41	6.257
594.75	5.915
595.08	6.263
595.42	6.235
595.75	5.520
596.09	6.196
596.42	6.994
596.75	6.332
597.09	6.623
597.42	6.155
597.75	6.641
598.09	6.870
598.42	6.572
598.76	6.405
599.09	6.423
599.42	6.295
599.76	6.332
600.09	6.193
600.42	5.807
600.76	6.357
601.09	6.266
601.42	6.126
601.76	6.148
602.09	6.285
602.42	6.489
602.76	6.731
603.09	6.963
603.42	5.428
603.76	6.402
604.09	5.700
604.42	6.278
604.76	6.875
605.09	6.160
605.42	6.327
605.75	6.664
606.09	6.059
606.42	5.926
606.75	5.973
607.09	6.907
607.42	6.247
607.75	6.076
608.08	6.079
608.42	6.679
608.75	6.943
609.08	6.938
609.41	6.663
609.75	6.432
610.08	7.022
610.41	6.006
610.74	6.670
611.07	6.275
611.41	7.311
611.74	6.888
612.07	6.884
612.40	7.240
612.73	7.105
613.07	7.543
613.40	7.056
613.73	6.660
614.06	7.366
614.39	7.551
614.72	6.842
615.06	7.616
615.39	7.113
615.72	6.748
616.05	6.964
616.38	6.615
616.71	7.067
617.05	7.951
617.38	7.697
617.71	6.907
618.04	7.452
618.37	6.919
618.70	7.716
619.03	8.289
619.36	7.196
619.69	7.746
620.03	7.761
620.36	8.422
620.69	8.973
621.02	8.038
621.35	7.909
621.68	8.100
622.01	7.895
622.34	8.548
622.67	7.757
623.00	7.997
623.33	7.648
623.66	7.434
623.99	7.732
624.32	7.917
624.65	7.133
624.99	7.365
625.32	7.603
625.65	8.114
625.98	7.533
626.31	8.787
626.64	9.796
626.97	8.728
627.30	8.229
627.63	8.614
627.96	7.738
628.29	9.361
628.62	9.241
628.95	10.849
629.28	8.485
629.61	10.266
629.94	9.524
630.26	9.056
630.59	9.152
630.92	9.387
631.25	8.983
631.58	9.409
631.91	9.432
632.24	8.861
632.57	10.178
632.90	9.978
633.23	9.732
633.56	9.379
633.89	10.419
634.22	9.535
634.55	10.769
634.88	9.222
635.20	10.275
635.53	10.361
635.86	9.406
636.19	11.059
636.52	10.842
636.85	8.706
637.18	10.023
637.51	11.348
637.83	6.782
638.16	11.381
638.49	10.453
638.82	10.367
639.15	10.875
639.48	11.222
639.81	9.920
640.13	12.240
640.46	10.738
640.79	11.096
641.12	9.904
641.45	9.777
641.77	11.046
642.10	12.865
642.43	10.511
642.76	11.146
643.09	13.804
643.41	11.381
643.74	13.426
644.07	10.823
644.40	13.190
644.73	12.598
645.05	12.678
645.38	11.690
645.71	12.077
646.04	12.292
646.36	13.689
646.69	12.375
647.02	11.565
647.35	12.371
647.67	12.389
648.00	13.171
648.33	11.056
648.66	11.667
648.98	12.144
649.31	11.360
649.64	11.211
649.96	11.475
650.29	11.216
650.62	12.298
650.94	13.614
651.27	13.007
651.60	12.812
651.92	12.300
652.25	11.564
652.58	12.150
652.90	11.532
653.23	11.094
653.56	11.969
653.88	11.410
654.21	12.796
654.54	11.881
654.86	11.994
655.19	10.270
655.52	6.097
655.84	4.036
656.17	4.993
656.49	6.729
656.82	6.968
657.15	5.309
657.47	3.997
657.80	3.164
658.13	3.190
658.45	4.882
658.78	4.986
659.10	5.180
659.43	5.922
659.75	6.342
660.08	7.152
660.41	8.287
660.73	10.928
661.06	12.580
661.38	14.000
661.71	13.269
662.03	17.160
662.36	12.127
662.68	14.257
663.01	13.131
663.33	14.013
663.66	15.966
663.98	15.335
664.31	14.076
664.63	12.146
664.96	13.280
665.28	12.295
665.61	14.230
665.93	11.066
666.26	12.982
666.58	16.109
666.91	15.011
667.23	15.506
667.56	14.471
667.88	15.385
668.21	15.565
668.53	13.666
668.86	14.719
669.18	15.565
669.50	14.348
669.83	15.686
670.15	17.111
670.48	13.290
670.80	14.871
671.13	15.711
671.45	14.894
671.77	15.275
672.10	14.418
672.42	13.428
672.75	11.609
673.07	13.028
673.39	13.743
673.72	14.258
674.04	11.961
674.37	12.039
674.69	13.497
675.01	12.552
675.34	17.248
675.66	15.789
675.98	14.053
676.31	16.176
676.63	13.588
676.95	13.417
677.28	14.019
677.60	13.846
677.92	14.135
678.25	14.784
678.57	11.753
678.89	14.830
679.22	12.181
679.54	15.649
679.86	13.394
680.18	11.807
680.51	13.475
680.83	14.769
681.15	15.283
681.48	14.367
681.80	12.766
682.12	11.686
682.44	11.992
682.77	14.460
683.09	16.738
683.41	14.634
683.73	13.024
684.06	16.942
684.38	12.720
684.70	13.953
685.02	15.009
685.34	14.103
685.67	10.664
685.99	11.856
686.31	12.969
686.63	9.894
686.96	11.964
687.28	12.635
687.60	11.413
687.92	14.991
688.24	12.738
688.56	14.458
688.89	16.390
689.21	15.502
689.53	15.658
689.85	14.856
690.17	13.251
690.49	17.410
690.82	14.252
691.14	16.518
691.46	13.713
691.78	15.060
692.10	14.463
692.42	14.970
692.74	14.938
693.06	13.191
693.39	14.579
693.71	15.721
694.03	15.158
694.35	16.234
694.67	16.247
694.99	15.854
695.31	14.461
695.63	18.421
695.95	16.626
696.27	12.183
696.59	15.803
696.91	19.171
697.23	13.380
697.56	15.778
697.88	11.247
698.20	12.708
698.52	15.484
698.84	15.590
699.16	14.286
699.48	16.865
699.80	14.976
700.12	15.584
700.44	19.098
700.76	18.508
701.08	13.218
701.40	18.436
701.72	17.784
702.04	22.159
702.36	14.731
702.68	17.564
703.00	18.837
703.32	16.755
703.64	16.354
703.96	18.106
704.28	18.605
704.60	19.355
704.91	20.178
705.23	17.889
705.55	17.276
705.87	25.249
706.19	19.788
706.51	19.626
706.83	20.000
707.15	20.728
707.47	17.424
707.79	16.216
708.11	17.580
708.43	15.476
708.74	14.031
709.06	17.403
709.38	17.585
709.70	20.058
710.02	20.475
710.34	18.788
710.66	21.493
710.98	21.023
711.29	18.605
711.61	23.009
711.93	14.103
712.25	21.543
712.57	18.750
712.89	19.377
713.20	22.796
713.52	22.368
713.84	17.089
714.16	21.646
714.48	18.103
714.80	20.365
715.11	17.867
715.43	17.211
715.75	20.000
716.07	19.169
716.39	21.003
716.70	21.595
717.02	23.022
717.34	20.848
717.66	24.254
717.97	21.514
718.29	19.630
718.61	22.628
718.93	20.588
719.24	22.491
719.56	19.661
719.88	22.712
720.20	20.946
720.51	22.648
720.83	18.587
721.15	20.149
721.46	20.213
721.78	21.147
722.10	24.528
722.42	25.940
722.73	20.974
723.05	22.131
723.37	23.077
723.68	26.255
724.00	20.325
724.32	26.210
724.63	22.358
724.95	20.084
725.27	22.267
725.58	26.172
725.90	27.737
726.22	25.660
726.53	25.000
726.85	23.208
727.16	21.708
727.48	21.631
727.80	20.076
728.11	24.275
728.43	18.077
728.74	22.222
729.06	21.898
729.38	25.000
729.69	23.132
730.01	17.065
730.32	21.528
730.64	19.732
730.96	18.152
731.27	21.523
731.59	20.183
731.90	17.784
732.22	20.807
732.53	16.099
732.85	16.987
733.16	17.685
733.48	18.937
733.80	25.649
734.11	23.248
734.43	20.710
734.74	18.857
735.06	17.479
735.37	19.364
735.69	14.968
736.00	25.817
736.32	20.872
736.63	18.211
736.95	19.489
737.26	14.286
737.58	21.290
737.89	21.070
738.21	21.502
738.52	18.214
738.83	23.396
739.15	22.692
739.46	24.453
739.78	19.444
740.09	20.000
740.41	22.258
740.72	20.906
741.04	24.444
741.35	21.667
741.66	30.667
741.98	24.528
742.29	27.273
742.61	32.328
742.92	23.982
743.23	22.222
743.55	28.400
743.86	23.246
744.18	27.876
744.49	31.100
744.80	30.516
745.12	29.545
745.43	25.110
745.74	24.775
746.06	25.229
746.37	25.112
746.68	25.792
747.00	28.704
747.31	27.143
747.62	23.451
747.94	23.348
748.25	26.383
748.56	26.432
748.88	21.287
749.19	28.000
749.50	27.907
749.82	23.577
750.13	25.306
750.44	24.088
750.75	20.702
751.07	26.045
751.38	22.997
751.69	19.134
752.01	19.173
752.32	20.578
752.63	22.340
752.94	17.623
753.26	25.200
753.57	18.699
753.88	26.172
754.19	21.786
754.51	26.042
754.82	15.884
755.13	23.396
755.44	22.180
755.75	22.263
756.07	22.695
756.38	18.978
756.69	25.839
757.00	19.461
757.31	18.694
757.63	16.959
757.94	14.477
758.25	16.912
758.56	12.099
758.87	18.280
759.18	18.788
759.50	17.241
759.81	20.872
760.12	17.500
760.43	19.771
760.74	18.207
761.05	20.339
761.36	17.914
761.67	18.750
761.99	18.944
762.30	20.833
762.61	24.046
762.92	26.562
763.23	23.529
763.54	28.000
763.85	21.875
764.16	23.846
764.47	26.616
764.78	21.201
765.10	19.304
765.41	19.764
765.72	20.659
766.03	20.690
766.34	22.333
766.65	27.660
766.96	25.641
767.27	30.457
767.58	33.333
767.89	31.053
768.20	36.782
768.51	25.888
768.82	25.229
769.13	17.886
769.44	24.696
769.75	28.755
770.06	22.018
770.37	33.937
770.68	29.167
770.99	26.667
771.30	19.672
771.61	26.009
771.92	28.279
772.23	32.353
772.54	32.821
772.85	33.508
773.16	31.915
773.47	34.783
773.78	35.533
774.09	30.952
774.39	27.485
774.70	33.951
775.01	39.130
775.32	39.869
775.63	38.816
775.94	35.252
776.25	38.583
776.56	41.791
776.87	39.344
777.18	48.437
777.48	47.328
777.79	42.424
778.10	44.444
778.41	46.429
778.72	35.036
779.03	38.255
779.34	36.913
779.65	37.838
779.95	41.718
780.26	37.908
780.57	40.690
780.88	49.219
781.19	35.338
781.50	40.541
781.80	32.075
782.11	31.073
782.42	37.975
782.73	28.834
783.04	39.189
783.34	42.254
783.65	43.836
783.96	41.791
784.27	34.965
784.57	37.410
784.88	42.593
785.19	44.444
785.50	34.906
785.81	44.030
786.11	51.639
786.42	51.163
786.73	54.867
787.04	53.774
787.34	44.643
787.65	57.000
787.96	49.550
788.26	46.281
788.57	51.695
788.88	55.372
789.19	48.611
789.49	51.515
789.80	40.458
790.11	53.333
790.41	60.396
790.72	56.627
791.03	65.217
791.33	61.628
791.64	61.856
791.95	67.327
792.25	58.889
792.56	64.935
792.87	70.513
793.17	75.949
793.48	79.310
793.79	62.069
794.09	64.773
794.40	52.941
794.70	58.088
795.01	49.630
795.32	38.129
795.62	44.094
795.93	48.276
796.23	48.673
796.54	48.235
796.85	64.865
797.15	84.507
797.46	68.182
797.76	75.904
798.07	68.354
798.37	70.769
798.68	74.242
798.99	69.014
799.29	62.338
799.60	57.955
799.90	64.384
800.21	67.164
800.51	87.931
800.82	78.947
801.12	96.721
801.43	84.848
801.73	72.973
802.04	101.587
802.34	83.951
802.65	78.125
802.95	98.305
803.26	98.438
803.56	70.000
803.87	69.231
804.17	80.882
804.48	111.111
804.78	84.483
805.09	75.000
805.39	84.615
805.70	85.714
806.00	90.164
806.30	63.636
806.61	78.049
806.91	65.823
807.22	72.368
807.52	49.254
807.83	80.282
808.13	100.000
808.43	95.000
808.74	60.526
809.04	76.812
809.35	74.627
809.65	71.053
809.95	101.613
810.26	83.051
810.56	79.365
810.86	127.273
811.17	147.619
811.47	91.667
811.77	96.296
812.08	90.909
812.38	104.000
812.69	113.889
812.99	150.000
813.29	97.959
813.59	109.524
813.90	120.408
814.20	74.545
814.50	78.462
814.81	97.059
815.11	110.204
815.41	109.836
815.72	142.857
816.02	98.182
816.32	121.429
816.62	115.000
816.93	102.439
817.23	123.810
817.53	127.273
817.84	163.636
818.14	115.217
818.44	117.778
818.74	141.176
819.04	127.500
819.35	122.857
819.65	152.941
819.95	171.429
820.25	210.000
820.56	151.282
820.86	140.909
821.16	127.907
821.46	135.897
821.76	114.000
822.07	128.571
822.37	145.000
822.67	127.273
822.97	115.686
823.27	175.000
823.57	135.135
823.88	115.000
824.18	206.667
824.48	138.095
824.78	208.000
825.08	183.333
825.38	156.757
825.69	126.829
825.99	200.000
826.29	158.621
826.59	131.579
826.89	160.526
827.19	191.176
827.49	145.161
827.79	140.909
828.09	125.000
828.39	114.894
828.70	124.490
829.00	170.370
829.30	167.742
829.60	137.500
829.90	353.333
830.20	210.714
830.50	182.609
830.80	178.261
831.10	170.000
831.40	146.667
831.70	173.913
832.00	215.385
832.30	174.074
832.60	287.500
832.90	206.667
833.20	414.286
833.50	177.419
833.80	193.103
834.10	181.250
834.40	242.308
834.70	327.778
835.00	285.714
835.30	137.143
835.60	323.077
835.90	172.414
836.20	307.143
836.50	175.862
836.80	180.000
837.10	172.222
837.40	252.381
837.70	335.294
838.00	218.519
838.30	233.333
838.60	233.333
838.90	207.692
839.19	275.000
839.49	392.857
839.79	305.000
840.09	260.000
840.39	266.667
840.69	217.391
840.99	322.222
841.29	460.000
841.59	416.667
841.88	325.000
842.18	182.759
842.48	242.857
842.78	183.333
843.08	260.870
843.38	165.625
843.68	900.000
843.97	242.308
844.27	189.655
844.57	233.333
844.87	318.750
845.17	174.074
845.47	1733.333
845.76	544.444
846.06	347.059
846.36	562.500
846.66	328.571
846.96	268.750
847.25	445.455
847.55	472.727
847.85	239.130
848.15	510.000
848.44	335.714
848.74	250.000
849.04	294.118
849.34	470.000
849.63	252.632
849.93	372.727
850.23	880.000
850.53	371.429
850.82	2100.000
851.12	-4000.000
851.42	4800.000
851.71	285.000
852.01	-1566.667
852.31	250.000
852.61	1900.000
852.90	257.143
853.20	260.000
853.50	323.529
853.79	290.476
854.09	204.167
854.39	331.250
854.68	186.486
854.98	174.194
855.28	170.000
855.57	203.448
855.87	207.407
856.17	278.947
856.46	246.667
856.76	229.412
857.05	206.897
857.35	241.667
857.65	386.667
857.94	256.522
858.24	200.000
858.53	240.000
858.83	240.909
859.13	393.333
859.42	0.000
859.72	622.222
860.01	436.364
860.31	227.273
860.60	315.789
860.90	217.391
861.20	622.222
861.49	450.000
861.79	-3900.000
862.08	550.000
862.38	266.667
862.67	315.385
862.97	341.176
863.26	555.556
863.56	311.111
863.85	375.000
864.15	625.000
864.44	393.333
864.74	716.667
865.03	675.000
865.33	236.842
865.62	427.273
865.92	392.308
866.21	358.333
866.51	0.000
866.80	500.000
867.10	1120.000
867.39	484.615
867.69	490.909
867.98	305.263
868.27	554.545
868.57	321.053
868.86	-4000.000
869.16	350.000
869.45	1900.000
869.75	-4800.000
870.04	441.667
870.33	700.000
870.63	1125.000
870.92	2750.000
871.22	771.429
871.51	323.529
871.80	228.571
872.10	371.429
>>>>>End Processed Spectral Data<<<<<
