SpectraSuite Data File
++++++++++++++++++++++++++++++++++++
Date: Wed May 13 19:41:26 PDT 2015
User: schluterlab
Dark Spectrum Present: Yes
Reference Spectrum Present: Yes
Number of Sampled Component Spectra: 1
Spectrometers: USB2E3373
Integration Time (usec): 3000 (USB2E3373)
Spectra Averaged: 3 (USB2E3373)
Boxcar Smoothing: 0 (USB2E3373)
Correct for Electrical Dark: No (USB2E3373)
Strobe/Lamp Enabled: No (USB2E3373)
Correct for Detector Non-linearity: No (USB2E3373)
Correct for Stray Light: No (USB2E3373)
Number of Pixels in Processed Spectrum: 2048
>>>>>Begin Processed Spectral Data<<<<<
178.53	0.000
178.91	-1350.000
179.29	-1350.000
179.67	-238.889
180.04	-1375.000
180.42	2750.000
180.80	1180.000
181.18	-1225.000
181.56	742.857
181.94	0.000
182.31	-628.571
182.69	1933.333
183.07	-600.000
183.45	-555.556
183.83	490.909
184.20	-300.000
184.58	2750.000
184.96	4700.000
185.34	-1000.000
185.72	-625.000
186.09	-2450.000
186.47	3000.000
186.85	2700.000
187.23	4900.000
187.61	-1633.333
187.98	1425.000
188.36	509.091
188.74	481.818
189.12	-740.000
189.49	570.000
189.87	-5100.000
190.25	-1300.000
190.63	407.143
191.00	484.615
191.38	833.333
191.76	-1200.000
192.14	1350.000
192.51	762.500
192.89	1133.333
193.27	587.500
193.65	-1425.000
194.02	610.000
194.40	1020.000
194.78	580.000
195.15	525.000
195.53	720.000
195.91	-2200.000
196.29	312.500
196.66	326.316
197.04	-330.000
197.42	0.000
197.79	580.000
198.17	-5100.000
198.55	828.571
198.92	687.500
199.30	840.000
199.68	0.000
200.05	350.000
200.43	900.000
200.81	4900.000
201.18	1766.667
201.56	-1933.333
201.94	488.889
202.31	577.778
202.69	508.333
203.07	630.000
203.44	0.000
203.82	1250.000
204.19	800.000
204.57	471.429
204.95	562.500
205.32	1833.333
205.70	545.455
206.08	442.857
206.45	2750.000
206.83	393.750
207.20	916.667
207.58	860.000
207.96	361.111
208.33	825.000
208.71	-916.667
209.08	800.000
209.46	600.000
209.84	445.455
210.21	-1733.333
210.59	1400.000
210.96	-600.000
211.34	2500.000
211.71	660.000
212.09	783.333
212.46	0.000
212.84	1633.333
213.22	1600.000
213.59	-4300.000
213.97	816.667
214.34	728.571
214.72	581.818
215.09	1020.000
215.47	-2350.000
215.84	-2650.000
216.22	1633.333
216.59	371.429
216.97	1375.000
217.34	527.273
217.72	-583.333
218.09	0.000
218.47	-4700.000
218.84	677.778
219.22	900.000
219.59	1666.667
219.97	-728.571
220.34	1060.000
220.72	-1500.000
221.09	385.714
221.47	1300.000
221.84	-933.333
222.22	0.000
222.59	1450.000
222.97	-2600.000
223.34	1220.000
223.72	384.615
224.09	1240.000
224.46	2250.000
224.84	-4500.000
225.21	-1000.000
225.59	-4000.000
225.96	600.000
226.34	320.000
226.71	3000.000
227.08	600.000
227.46	480.000
227.83	-1025.000
228.21	-2850.000
228.58	577.778
228.95	-1600.000
229.33	-2150.000
229.70	1800.000
230.08	900.000
230.45	-940.000
230.82	466.667
231.20	750.000
231.57	642.857
231.95	458.333
232.32	272.727
232.69	463.636
233.07	642.857
233.44	392.308
233.81	-1800.000
234.19	268.421
234.56	450.000
234.93	341.667
235.31	472.727
235.68	338.462
236.05	350.000
236.43	175.758
236.80	268.421
237.17	3900.000
237.55	261.905
237.92	203.571
238.29	257.143
238.67	164.516
239.04	151.724
239.41	136.111
239.79	104.348
240.16	128.571
240.53	115.909
240.91	98.039
241.28	116.000
241.65	106.000
242.02	89.855
242.40	80.645
242.77	81.667
243.14	64.516
243.51	62.921
243.89	63.529
244.26	65.556
244.63	54.839
245.00	54.255
245.38	56.436
245.75	48.598
246.12	40.367
246.49	58.394
246.87	52.800
247.24	56.154
247.61	37.143
247.98	40.523
248.36	39.189
248.73	38.217
249.10	36.306
249.47	31.073
249.84	40.107
250.22	37.433
250.59	31.953
250.96	32.323
251.33	33.649
251.70	33.168
252.08	28.571
252.45	26.009
252.82	26.957
253.19	29.787
253.56	27.059
253.94	31.120
254.31	29.688
254.68	27.308
255.05	26.937
255.42	25.203
255.79	23.529
256.16	25.993
256.54	22.261
256.91	27.046
257.28	23.022
257.65	21.782
258.02	19.565
258.39	21.767
258.76	23.077
259.14	25.000
259.51	23.100
259.88	19.876
260.25	24.773
260.62	21.676
260.99	20.807
261.36	19.820
261.73	16.905
262.10	19.477
262.47	21.127
262.85	19.220
263.22	16.239
263.59	18.234
263.96	20.055
264.33	20.627
264.70	18.947
265.07	19.437
265.44	20.455
265.81	16.545
266.18	16.834
266.55	16.829
266.92	16.462
267.29	18.750
267.66	13.991
268.03	18.864
268.40	13.785
268.77	16.945
269.14	17.117
269.51	19.639
269.88	17.249
270.25	14.898
270.62	15.281
270.99	17.419
271.36	15.665
271.73	16.589
272.10	17.391
272.47	18.280
272.84	15.801
273.21	14.675
273.58	17.031
273.95	15.094
274.32	15.702
274.69	14.347
275.06	15.748
275.43	15.745
275.80	16.633
276.17	14.460
276.54	15.385
276.91	15.613
277.28	15.039
277.65	16.054
278.02	15.114
278.39	16.406
278.76	14.727
279.13	16.981
279.50	13.780
279.87	14.343
280.23	14.571
280.60	13.733
280.97	12.384
281.34	13.628
281.71	14.909
282.08	14.012
282.45	14.545
282.82	13.321
283.19	12.299
283.56	15.789
283.92	13.367
284.29	13.404
284.66	13.249
285.03	13.924
285.40	12.324
285.77	11.616
286.14	14.508
286.51	14.167
286.87	13.504
287.24	12.704
287.61	13.644
287.98	13.636
288.35	13.788
288.72	11.526
289.08	13.928
289.45	11.697
289.82	11.870
290.19	11.146
290.56	11.332
290.93	11.480
291.29	10.429
291.66	10.177
292.03	11.919
292.40	13.510
292.77	11.243
293.13	12.836
293.50	10.496
293.87	10.519
294.24	9.630
294.60	9.607
294.97	10.756
295.34	10.860
295.71	12.500
296.08	9.544
296.44	11.279
296.81	10.568
297.18	12.602
297.55	7.916
297.91	9.499
298.28	12.450
298.65	11.227
299.02	9.223
299.38	9.562
299.75	8.625
300.12	11.494
300.48	10.500
300.85	9.618
301.22	10.064
301.59	9.470
301.95	8.564
302.32	9.628
302.69	10.036
303.05	8.606
303.42	8.395
303.79	9.626
304.15	8.508
304.52	9.386
304.89	9.872
305.25	9.397
305.62	9.966
305.99	8.973
306.35	8.613
306.72	9.753
307.09	8.990
307.45	9.910
307.82	7.924
308.19	9.713
308.55	10.572
308.92	9.023
309.29	8.131
309.65	7.529
310.02	9.725
310.38	9.140
310.75	7.603
311.12	9.621
311.48	10.240
311.85	9.539
312.22	9.573
312.58	8.940
312.95	9.187
313.31	8.641
313.68	8.732
314.05	9.467
314.41	8.744
314.78	9.063
315.14	8.739
315.51	9.681
315.87	9.208
316.24	9.335
316.61	8.772
316.97	8.415
317.34	8.806
317.70	8.987
318.07	9.432
318.43	9.491
318.80	10.028
319.16	8.004
319.53	9.006
319.89	10.190
320.26	9.100
320.62	9.325
320.99	9.697
321.35	9.798
321.72	10.062
322.08	10.760
322.45	11.244
322.81	10.756
323.18	9.923
323.54	10.575
323.91	11.698
324.27	10.899
324.64	8.854
325.00	9.197
325.37	10.737
325.73	10.323
326.10	10.591
326.46	9.857
326.83	10.267
327.19	11.102
327.56	10.105
327.92	10.149
328.29	10.736
328.65	11.418
329.01	10.469
329.38	10.268
329.74	11.080
330.11	10.556
330.47	11.478
330.84	12.040
331.20	10.656
331.56	10.917
331.93	9.259
332.29	11.535
332.66	11.327
333.02	11.243
333.38	10.930
333.75	10.784
334.11	11.121
334.48	11.003
334.84	11.213
335.20	10.364
335.57	10.607
335.93	10.625
336.29	10.623
336.66	11.001
337.02	10.769
337.38	11.667
337.75	10.250
338.11	10.922
338.47	9.484
338.84	10.724
339.20	9.633
339.56	11.040
339.93	9.727
340.29	9.601
340.65	10.873
341.02	10.646
341.38	11.566
341.74	10.175
342.11	10.830
342.47	10.044
342.83	9.760
343.20	10.216
343.56	10.615
343.92	10.263
344.28	10.799
344.65	10.576
345.01	8.754
345.37	9.863
345.73	10.491
346.10	9.633
346.46	10.339
346.82	10.379
347.19	9.774
347.55	10.099
347.91	9.790
348.27	10.518
348.63	9.950
349.00	10.194
349.36	9.852
349.72	10.505
350.08	8.995
350.45	9.601
350.81	9.586
351.17	10.292
351.53	9.337
351.89	9.323
352.26	10.260
352.62	10.425
352.98	10.211
353.34	9.121
353.70	8.838
354.07	9.597
354.43	9.444
354.79	9.413
355.15	9.497
355.51	10.072
355.87	9.469
356.24	10.016
356.60	9.543
356.96	9.171
357.32	8.667
357.68	9.370
358.04	9.739
358.40	9.422
358.77	8.998
359.13	8.287
359.49	9.333
359.85	7.698
360.21	8.772
360.57	10.039
360.93	9.231
361.29	9.297
361.66	9.056
362.02	8.881
362.38	9.278
362.74	9.077
363.10	8.660
363.46	8.070
363.82	8.163
364.18	8.664
364.54	9.881
364.90	9.348
365.26	8.456
365.62	8.766
365.98	7.816
366.35	7.593
366.71	9.400
367.07	8.886
367.43	8.345
367.79	8.922
368.15	9.555
368.51	7.849
368.87	8.922
369.23	7.901
369.59	8.182
369.95	8.529
370.31	8.547
370.67	7.971
371.03	9.064
371.39	8.236
371.75	8.235
372.11	8.464
372.47	8.944
372.83	8.501
373.19	8.165
373.55	7.908
373.91	9.794
374.27	7.560
374.63	7.491
374.99	8.686
375.35	7.746
375.71	7.814
376.07	8.779
376.42	7.909
376.78	8.748
377.14	8.277
377.50	7.947
377.86	7.513
378.22	8.534
378.58	7.331
378.94	7.354
379.30	7.888
379.66	7.931
380.02	8.354
380.38	7.347
380.74	7.743
381.09	8.007
381.45	7.621
381.81	8.661
382.17	8.344
382.53	7.673
382.89	8.025
383.25	7.567
383.61	7.807
383.97	8.130
384.32	7.548
384.68	7.249
385.04	7.990
385.40	7.554
385.76	8.047
386.12	7.642
386.48	8.181
386.83	8.339
387.19	8.349
387.55	8.472
387.91	7.134
388.27	7.541
388.62	8.605
388.98	7.924
389.34	7.822
389.70	7.725
390.06	8.238
390.42	7.393
390.77	8.588
391.13	7.466
391.49	8.058
391.85	7.575
392.20	6.435
392.56	8.460
392.92	7.357
393.28	6.864
393.64	7.494
393.99	7.819
394.35	7.258
394.71	7.967
395.07	6.667
395.42	6.799
395.78	7.188
396.14	7.821
396.50	7.707
396.85	7.819
397.21	7.213
397.57	8.431
397.92	7.272
398.28	6.839
398.64	8.065
399.00	7.387
399.35	7.050
399.71	7.407
400.07	7.569
400.42	7.730
400.78	7.660
401.14	7.012
401.49	6.985
401.85	7.320
402.21	7.305
402.57	7.588
402.92	8.260
403.28	7.495
403.63	6.559
403.99	6.943
404.35	7.697
404.70	7.434
405.06	7.455
405.42	7.486
405.77	6.171
406.13	7.449
406.49	7.392
406.84	7.265
407.20	6.678
407.55	7.020
407.91	7.333
408.27	7.594
408.62	7.766
408.98	6.985
409.34	7.134
409.69	7.032
410.05	7.249
410.40	7.584
410.76	7.168
411.11	8.203
411.47	6.901
411.83	7.697
412.18	7.112
412.54	7.347
412.89	7.048
413.25	7.143
413.60	7.165
413.96	7.043
414.31	7.594
414.67	7.668
415.03	7.417
415.38	8.247
415.74	8.296
416.09	7.642
416.45	7.296
416.80	7.403
417.16	7.708
417.51	7.498
417.87	6.872
418.22	8.139
418.58	7.876
418.93	8.292
419.29	7.829
419.64	8.060
420.00	7.744
420.35	8.406
420.71	7.770
421.06	7.041
421.42	7.778
421.77	7.791
422.12	7.019
422.48	6.746
422.83	7.630
423.19	7.348
423.54	7.197
423.90	7.826
424.25	7.091
424.61	7.202
424.96	6.939
425.31	7.807
425.67	7.191
426.02	7.543
426.38	7.631
426.73	7.665
427.09	7.599
427.44	7.706
427.79	7.073
428.15	7.857
428.50	8.133
428.85	8.045
429.21	7.234
429.56	7.102
429.92	6.945
430.27	6.852
430.62	7.168
430.98	7.421
431.33	7.216
431.68	7.487
432.04	7.774
432.39	6.739
432.74	7.660
433.10	7.810
433.45	7.988
433.80	7.483
434.16	7.318
434.51	7.105
434.86	7.754
435.22	7.282
435.57	8.085
435.92	6.788
436.28	7.651
436.63	8.609
436.98	7.613
437.34	8.050
437.69	8.401
438.04	7.813
438.39	7.642
438.75	8.425
439.10	8.380
439.45	8.146
439.81	7.734
440.16	7.284
440.51	7.850
440.86	8.743
441.22	7.508
441.57	8.227
441.92	7.625
442.27	7.858
442.63	7.267
442.98	8.451
443.33	7.500
443.68	8.157
444.03	6.930
444.39	6.962
444.74	7.792
445.09	7.709
445.44	7.108
445.79	7.373
446.15	8.629
446.50	8.239
446.85	7.348
447.20	8.414
447.55	8.487
447.91	7.612
448.26	8.125
448.61	7.349
448.96	8.638
449.31	8.324
449.66	7.822
450.02	7.465
450.37	7.766
450.72	8.404
451.07	7.617
451.42	8.146
451.77	8.925
452.12	8.372
452.47	8.209
452.83	8.042
453.18	8.374
453.53	8.472
453.88	7.265
454.23	7.830
454.58	8.964
454.93	8.709
455.28	8.791
455.63	6.917
455.98	9.226
456.34	8.606
456.69	8.015
457.04	8.050
457.39	7.773
457.74	7.835
458.09	7.993
458.44	8.324
458.79	8.351
459.14	7.957
459.49	8.640
459.84	7.424
460.19	7.837
460.54	8.102
460.89	8.173
461.24	7.772
461.59	9.355
461.94	8.076
462.29	9.021
462.64	9.445
462.99	8.523
463.34	9.533
463.69	8.380
464.04	8.696
464.39	8.696
464.74	9.210
465.09	8.444
465.44	8.366
465.79	8.893
466.14	8.593
466.49	7.508
466.84	9.340
467.19	8.871
467.54	8.750
467.89	8.463
468.24	8.610
468.59	9.524
468.94	8.064
469.29	8.162
469.64	8.635
469.99	9.202
470.34	8.851
470.68	9.339
471.03	8.980
471.38	8.756
471.73	9.527
472.08	9.737
472.43	8.606
472.78	9.217
473.13	9.564
473.48	9.051
473.83	8.659
474.17	8.774
474.52	8.747
474.87	9.515
475.22	8.938
475.57	8.436
475.92	7.594
476.27	8.455
476.61	8.274
476.96	8.521
477.31	8.163
477.66	8.260
478.01	8.468
478.36	9.043
478.70	7.996
479.05	8.360
479.40	7.728
479.75	8.541
480.10	8.002
480.45	8.234
480.79	7.597
481.14	8.708
481.49	8.401
481.84	7.819
482.19	7.996
482.53	8.440
482.88	8.143
483.23	8.224
483.58	8.872
483.92	8.060
484.27	7.102
484.62	8.190
484.97	7.726
485.31	7.432
485.66	6.809
486.01	6.098
486.36	6.171
486.70	6.589
487.05	6.676
487.40	6.691
487.75	7.229
488.09	7.340
488.44	7.605
488.79	8.535
489.13	8.136
489.48	7.912
489.83	8.028
490.17	7.672
490.52	7.573
490.87	7.779
491.22	7.913
491.56	7.790
491.91	8.329
492.26	7.947
492.60	8.525
492.95	7.998
493.30	8.271
493.64	7.793
493.99	7.707
494.34	8.187
494.68	8.654
495.03	8.553
495.37	8.283
495.72	8.674
496.07	8.817
496.41	7.566
496.76	8.223
497.11	7.969
497.45	8.151
497.80	9.261
498.14	8.551
498.49	8.439
498.84	8.533
499.18	8.190
499.53	8.784
499.87	8.201
500.22	8.950
500.56	8.981
500.91	8.077
501.26	8.440
501.60	9.065
501.95	8.433
502.29	8.294
502.64	8.845
502.98	8.088
503.33	8.318
503.67	8.631
504.02	7.671
504.36	8.517
504.71	9.038
505.06	8.627
505.40	8.994
505.75	8.438
506.09	9.086
506.44	8.387
506.78	8.329
507.13	8.279
507.47	8.788
507.82	9.068
508.16	9.169
508.51	8.676
508.85	8.143
509.19	8.724
509.54	8.571
509.88	9.067
510.23	8.946
510.57	9.340
510.92	9.477
511.26	8.582
511.61	9.544
511.95	8.612
512.30	8.431
512.64	9.081
512.98	9.003
513.33	9.475
513.67	9.232
514.02	8.929
514.36	9.558
514.70	9.463
515.05	8.589
515.39	9.310
515.74	9.628
516.08	9.335
516.42	9.878
516.77	8.863
517.11	8.935
517.46	9.481
517.80	9.466
518.14	8.859
518.49	9.102
518.83	9.261
519.17	9.584
519.52	9.508
519.86	9.698
520.20	9.769
520.55	9.874
520.89	10.036
521.23	9.831
521.58	9.304
521.92	10.288
522.26	8.969
522.61	9.097
522.95	9.945
523.29	9.799
523.64	9.939
523.98	8.872
524.32	9.831
524.66	10.283
525.01	10.355
525.35	9.913
525.69	10.037
526.04	9.969
526.38	10.250
526.72	10.613
527.06	10.421
527.41	9.901
527.75	9.968
528.09	10.083
528.43	9.943
528.78	10.264
529.12	9.212
529.46	10.472
529.80	9.839
530.15	10.218
530.49	9.723
530.83	10.253
531.17	10.640
531.51	11.025
531.86	10.129
532.20	10.691
532.54	10.698
532.88	10.719
533.22	10.493
533.57	10.432
533.91	9.633
534.25	10.632
534.59	10.250
534.93	10.589
535.27	10.803
535.62	11.050
535.96	11.237
536.30	10.426
536.64	10.947
536.98	10.816
537.32	9.875
537.66	9.733
538.01	10.665
538.35	10.666
538.69	11.040
539.03	10.071
539.37	9.968
539.71	9.721
540.05	10.458
540.39	10.033
540.73	10.026
541.07	10.707
541.42	10.568
541.76	11.677
542.10	10.802
542.44	10.464
542.78	10.935
543.12	10.493
543.46	11.213
543.80	11.061
544.14	10.398
544.48	11.238
544.82	10.455
545.16	11.516
545.50	10.411
545.84	10.484
546.18	10.774
546.52	11.287
546.86	10.859
547.20	11.733
547.54	10.955
547.88	12.691
548.22	10.897
548.56	10.440
548.90	10.371
549.24	9.832
549.58	11.392
549.92	11.058
550.26	10.085
550.60	11.065
550.94	10.563
551.28	10.241
551.62	12.221
551.96	10.456
552.30	11.126
552.64	11.765
552.98	11.119
553.32	11.126
553.66	11.588
554.00	11.668
554.34	10.628
554.68	11.946
555.02	11.072
555.36	11.969
555.69	10.961
556.03	10.767
556.37	10.982
556.71	10.778
557.05	10.994
557.39	10.917
557.73	10.515
558.07	11.893
558.41	10.420
558.75	11.683
559.08	12.081
559.42	10.809
559.76	11.544
560.10	10.921
560.44	10.622
560.78	10.912
561.12	10.422
561.45	11.147
561.79	10.811
562.13	10.932
562.47	10.519
562.81	11.088
563.15	10.836
563.48	11.472
563.82	10.894
564.16	10.334
564.50	10.286
564.84	10.493
565.17	10.360
565.51	10.607
565.85	10.723
566.19	10.645
566.52	10.703
566.86	9.946
567.20	10.908
567.54	10.046
567.88	9.560
568.21	10.635
568.55	10.061
568.89	9.776
569.23	9.180
569.56	9.433
569.90	9.434
570.24	9.006
570.57	9.045
570.91	8.630
571.25	8.277
571.59	8.660
571.92	8.525
572.26	8.579
572.60	8.979
572.93	8.666
573.27	8.755
573.61	8.291
573.95	8.630
574.28	8.116
574.62	8.090
574.96	8.029
575.29	8.244
575.63	8.435
575.97	8.123
576.30	8.444
576.64	8.592
576.98	7.997
577.31	7.925
577.65	8.187
577.98	7.760
578.32	7.744
578.66	8.134
578.99	8.446
579.33	8.061
579.67	8.003
580.00	8.391
580.34	8.068
580.67	8.012
581.01	8.208
581.35	7.813
581.68	7.625
582.02	7.731
582.35	7.830
582.69	8.168
583.02	8.098
583.36	8.416
583.70	8.042
584.03	8.281
584.37	8.959
584.70	8.386
585.04	8.317
585.37	8.388
585.71	8.177
586.04	8.432
586.38	8.725
586.72	9.058
587.05	8.449
587.39	7.810
587.72	8.658
588.06	8.271
588.39	8.889
588.73	8.742
589.06	8.850
589.40	8.923
589.73	9.187
590.07	9.146
590.40	8.623
590.73	9.329
591.07	9.809
591.40	9.743
591.74	9.827
592.07	9.599
592.41	9.301
592.74	8.764
593.08	8.694
593.41	8.763
593.75	8.932
594.08	8.515
594.41	8.696
594.75	8.762
595.08	8.697
595.42	9.072
595.75	9.259
596.09	9.839
596.42	9.627
596.75	9.160
597.09	10.173
597.42	8.769
597.75	9.659
598.09	9.696
598.42	9.278
598.76	8.593
599.09	8.666
599.42	8.879
599.76	8.931
600.09	8.816
600.42	8.766
600.76	8.393
601.09	8.561
601.42	8.714
601.76	8.994
602.09	8.933
602.42	9.275
602.76	9.633
603.09	9.205
603.42	9.215
603.76	9.108
604.09	9.345
604.42	8.724
604.76	9.447
605.09	9.218
605.42	9.448
605.75	9.189
606.09	8.581
606.42	8.868
606.75	9.125
607.09	9.125
607.42	9.157
607.75	8.481
608.08	9.032
608.42	9.592
608.75	9.378
609.08	9.112
609.41	9.281
609.75	9.385
610.08	9.708
610.41	9.218
610.74	8.893
611.07	9.140
611.41	9.470
611.74	10.055
612.07	9.834
612.40	10.178
612.73	9.737
613.07	10.022
613.40	9.689
613.73	8.862
614.06	9.462
614.39	9.701
614.72	9.158
615.06	9.979
615.39	9.130
615.72	9.202
616.05	9.516
616.38	9.783
616.71	10.511
617.05	9.953
617.38	9.982
617.71	9.970
618.04	10.938
618.37	10.171
618.70	10.268
619.03	11.184
619.36	10.455
619.69	10.493
620.03	10.714
620.36	10.495
620.69	11.712
621.02	11.726
621.35	10.728
621.68	10.047
622.01	11.455
622.34	11.195
622.67	10.418
623.00	10.345
623.33	10.650
623.66	10.936
623.99	10.383
624.32	10.200
624.65	10.381
624.99	9.278
625.32	9.703
625.65	11.645
625.98	11.145
626.31	11.742
626.64	11.102
626.97	11.139
627.30	11.804
627.63	11.239
627.96	10.681
628.29	12.248
628.62	12.077
628.95	13.868
629.28	10.949
629.61	11.824
629.94	12.381
630.26	11.439
630.59	10.867
630.92	11.207
631.25	11.056
631.58	11.712
631.91	10.953
632.24	10.865
632.57	12.382
632.90	10.197
633.23	12.975
633.56	13.107
633.89	12.231
634.22	13.394
634.55	12.663
634.88	12.695
635.20	13.142
635.53	14.217
635.86	12.376
636.19	12.824
636.52	11.880
636.85	11.798
637.18	13.134
637.51	13.239
637.83	11.344
638.16	13.427
638.49	13.476
638.82	13.906
639.15	13.750
639.48	13.466
639.81	14.075
640.13	13.281
640.46	14.631
640.79	15.324
641.12	12.242
641.45	13.268
641.77	13.844
642.10	13.889
642.43	12.763
642.76	13.932
643.09	14.417
643.41	15.478
643.74	16.204
644.07	13.720
644.40	16.718
644.73	15.906
645.05	16.957
645.38	13.586
645.71	15.620
646.04	13.787
646.36	17.195
646.69	17.224
647.02	14.626
647.35	15.292
647.67	16.460
648.00	18.537
648.33	13.861
648.66	14.242
648.98	16.042
649.31	11.510
649.64	14.649
649.96	13.711
650.29	14.534
650.62	13.107
650.94	16.694
651.27	16.216
651.60	14.143
651.92	16.613
652.25	13.681
652.58	15.732
652.90	16.114
653.23	12.943
653.56	14.173
653.88	15.848
654.21	15.798
654.54	13.696
654.86	14.642
655.19	13.919
655.52	7.711
655.84	5.081
656.17	6.266
656.49	8.333
656.82	8.971
657.15	7.285
657.47	5.380
657.80	4.547
658.13	4.710
658.45	7.314
658.78	7.731
659.10	8.668
659.43	9.122
659.75	9.736
660.08	9.747
660.41	12.570
660.73	14.612
661.06	14.809
661.38	16.545
661.71	15.385
662.03	16.765
662.36	14.314
662.68	18.675
663.01	18.384
663.33	19.108
663.66	18.277
663.98	15.119
664.31	15.966
664.63	17.206
664.96	14.085
665.28	17.828
665.61	17.934
665.93	14.688
666.26	15.822
666.58	16.318
666.91	18.182
667.23	17.079
667.56	16.847
667.88	17.949
668.21	18.337
668.53	18.438
668.86	17.749
669.18	18.124
669.50	18.696
669.83	17.211
670.15	18.889
670.48	15.468
670.80	17.672
671.13	18.471
671.45	16.596
671.77	17.312
672.10	15.896
672.42	13.604
672.75	14.096
673.07	15.845
673.39	14.286
673.72	13.672
674.04	17.255
674.37	16.505
674.69	16.973
675.01	15.481
675.34	19.507
675.66	17.474
675.98	18.330
676.31	16.807
676.63	18.259
676.95	18.029
677.28	16.822
677.60	17.582
677.92	17.511
678.25	17.043
678.57	14.343
678.89	14.830
679.22	16.699
679.54	15.840
679.86	17.431
680.18	15.206
680.51	16.844
680.83	17.794
681.15	16.981
681.48	15.690
681.80	16.054
682.12	14.943
682.44	14.700
682.77	16.701
683.09	20.386
683.41	15.743
683.73	16.998
684.06	16.529
684.38	16.243
684.70	17.636
685.02	16.698
685.34	15.751
685.67	12.587
685.99	13.058
686.31	13.481
686.63	14.664
686.96	14.821
687.28	14.440
687.60	14.493
687.92	14.442
688.24	16.540
688.56	18.072
688.89	18.050
689.21	17.904
689.53	16.701
689.85	17.073
690.17	16.977
690.49	17.197
690.82	17.757
691.14	14.509
691.46	14.135
691.78	18.072
692.10	18.182
692.42	17.565
692.74	14.315
693.06	15.957
693.39	17.043
693.71	18.777
694.03	16.000
694.35	18.182
694.67	16.705
694.99	17.561
695.31	18.873
695.63	18.182
695.95	15.159
696.27	17.766
696.59	17.617
696.91	19.689
697.23	15.023
697.56	16.844
697.88	13.701
698.20	15.625
698.52	15.699
698.84	18.931
699.16	18.894
699.48	18.290
699.80	17.391
700.12	20.779
700.44	20.690
700.76	18.508
701.08	21.264
701.40	20.112
701.72	23.615
702.04	25.568
702.36	16.714
702.68	19.830
703.00	19.945
703.32	16.223
703.64	19.571
703.96	20.334
704.28	18.605
704.60	18.768
704.91	19.881
705.23	19.062
705.55	24.585
705.87	24.917
706.19	21.555
706.51	27.726
706.83	22.727
707.15	23.249
707.47	18.182
707.79	20.147
708.11	19.863
708.43	17.381
708.74	18.112
709.06	20.000
709.38	20.735
709.70	21.221
710.02	20.772
710.34	19.091
710.66	20.597
710.98	21.591
711.29	21.802
711.61	24.484
711.93	19.551
712.25	24.116
712.57	20.956
712.89	20.415
713.20	23.708
713.52	20.724
713.84	20.886
714.16	22.866
714.48	21.264
714.80	25.228
715.11	19.020
715.43	18.398
715.75	22.029
716.07	21.086
716.39	22.884
716.70	27.907
717.02	25.540
717.34	24.735
717.66	24.627
717.97	25.100
718.29	21.852
718.61	21.533
718.93	22.059
719.24	28.720
719.56	22.712
719.88	23.051
720.20	25.338
720.51	25.784
720.83	23.792
721.15	23.507
721.46	21.631
721.78	25.090
722.10	22.264
722.42	23.684
722.73	26.966
723.05	22.541
723.37	28.745
723.68	24.324
724.00	24.390
724.32	29.839
724.63	23.984
724.95	24.686
725.27	25.506
725.58	25.000
725.90	23.723
726.22	26.415
726.53	18.750
726.85	23.891
727.16	22.064
727.48	25.532
727.80	22.727
728.11	27.174
728.43	21.154
728.74	27.240
729.06	28.832
729.38	22.794
729.69	22.776
730.01	20.478
730.32	20.139
730.64	24.080
730.96	21.122
731.27	21.192
731.59	21.713
731.90	18.950
732.22	18.323
732.53	18.576
732.85	23.718
733.16	21.543
733.48	23.588
733.80	19.481
734.11	21.019
734.43	23.077
734.74	18.857
735.06	18.625
735.37	22.832
735.69	18.790
736.00	27.124
736.32	25.234
736.63	23.642
736.95	22.684
737.26	18.027
737.58	18.065
737.89	22.074
738.21	24.915
738.52	23.571
738.83	20.377
739.15	20.769
739.46	26.277
739.78	24.653
740.09	20.308
740.41	20.323
740.72	20.906
741.04	24.074
741.35	24.167
741.66	32.444
741.98	26.415
742.29	31.100
742.61	28.879
742.92	24.887
743.23	31.624
743.55	30.400
743.86	25.877
744.18	31.416
744.49	31.579
744.80	27.230
745.12	33.636
745.43	29.956
745.74	30.631
746.06	26.606
746.37	32.735
746.68	28.507
747.00	28.704
747.31	30.952
747.62	23.451
747.94	23.789
748.25	22.979
748.56	30.837
748.88	28.218
749.19	33.000
749.50	25.581
749.82	28.049
750.13	22.449
750.44	23.358
750.75	22.807
751.07	24.437
751.38	24.390
751.69	24.910
752.01	18.797
752.32	22.744
752.63	24.468
752.94	22.951
753.26	25.600
753.57	23.171
753.88	27.734
754.19	23.214
754.51	30.208
754.82	19.856
755.13	25.283
755.44	25.564
755.75	23.358
756.07	21.631
756.38	20.438
756.69	24.161
757.00	19.760
757.31	23.145
757.63	18.421
757.94	20.375
758.25	20.588
758.56	17.778
758.87	20.161
759.18	21.515
759.50	21.630
759.81	20.561
760.12	19.375
760.43	23.496
760.74	16.033
761.05	19.492
761.36	18.717
761.67	19.602
761.99	19.255
762.30	18.750
762.61	24.427
762.92	24.219
763.23	26.471
763.54	30.000
763.85	23.047
764.16	30.769
764.47	20.913
764.78	22.615
765.10	16.456
765.41	19.764
765.72	22.455
766.03	22.571
766.34	25.333
766.65	23.830
766.96	26.496
767.27	30.457
767.58	38.021
767.89	34.737
768.20	36.207
768.51	37.563
768.82	30.275
769.13	21.951
769.44	23.077
769.75	26.609
770.06	25.229
770.37	29.412
770.68	27.778
770.99	29.333
771.30	22.951
771.61	24.215
771.92	26.639
772.23	28.992
772.54	32.308
772.85	32.984
773.16	35.106
773.47	35.870
773.78	32.995
774.09	30.952
774.39	36.257
774.70	29.630
775.01	42.754
775.32	46.405
775.63	37.500
775.94	38.849
776.25	44.882
776.56	42.537
776.87	45.082
777.18	53.906
777.48	53.435
777.79	44.697
778.10	49.630
778.41	50.000
778.72	35.766
779.03	39.597
779.34	35.570
779.65	29.054
779.95	39.264
780.26	42.484
780.57	44.138
780.88	46.094
781.19	39.098
781.50	43.919
781.80	42.138
782.11	32.768
782.42	36.076
782.73	39.877
783.04	38.514
783.34	47.887
783.65	46.575
783.96	43.284
784.27	41.958
784.57	37.410
784.88	43.519
785.19	51.587
785.50	53.774
785.81	55.970
786.11	59.016
786.42	41.860
786.73	49.558
787.04	59.434
787.34	44.643
787.65	59.000
787.96	52.252
788.26	44.628
788.57	50.000
788.88	53.719
789.19	47.917
789.49	49.242
789.80	48.092
790.11	57.143
790.41	60.396
790.72	63.855
791.03	60.870
791.33	69.767
791.64	55.670
791.95	58.416
792.25	72.222
792.56	55.844
792.87	78.205
793.17	84.810
793.48	68.966
793.79	66.667
794.09	70.455
794.40	45.378
794.70	47.794
795.01	46.667
795.32	44.604
795.62	40.157
795.93	46.552
796.23	57.522
796.54	68.235
796.85	68.919
797.15	91.549
797.46	84.848
797.76	75.904
798.07	72.152
798.37	69.231
798.68	83.333
798.99	57.746
799.29	79.221
799.60	67.045
799.90	84.932
800.21	77.612
800.51	81.034
800.82	92.982
801.12	80.328
801.43	68.182
801.73	74.324
802.04	90.476
802.34	71.605
802.65	81.250
802.95	96.610
803.26	103.125
803.56	74.286
803.87	87.692
804.17	80.882
804.48	116.667
804.78	68.966
805.09	94.118
805.39	96.154
805.70	101.786
806.00	95.082
806.30	78.788
806.61	70.732
806.91	74.684
807.22	75.000
807.52	70.149
807.83	78.873
808.13	87.500
808.43	90.000
808.74	68.421
809.04	101.449
809.35	88.060
809.65	77.632
809.95	101.613
810.26	108.475
810.56	90.476
810.86	136.364
811.17	138.095
811.47	111.667
811.77	109.259
812.08	107.273
812.38	124.000
812.69	141.667
812.99	150.000
813.29	108.163
813.59	114.286
813.90	116.327
814.20	94.545
814.50	89.231
814.81	108.824
815.11	112.245
815.41	96.721
815.72	130.952
816.02	116.364
816.32	128.571
816.62	125.000
816.93	134.146
817.23	133.333
817.53	118.182
817.84	142.424
818.14	110.870
818.44	106.667
818.74	155.882
819.04	122.500
819.35	125.714
819.65	152.941
819.95	196.429
820.25	165.000
820.56	166.667
820.86	138.636
821.16	132.558
821.46	156.410
821.76	124.000
822.07	165.714
822.37	160.000
822.67	169.697
822.97	119.608
823.27	182.143
823.57	140.541
823.88	127.500
824.18	210.000
824.48	133.333
824.78	208.000
825.08	179.167
825.38	143.243
825.69	139.024
825.99	225.000
826.29	162.069
826.59	134.211
826.89	128.947
827.19	176.471
827.49	167.742
827.79	145.455
828.09	118.182
828.39	110.638
828.70	132.653
829.00	185.185
829.30	141.935
829.60	130.000
829.90	333.333
830.20	217.857
830.50	200.000
830.80	195.652
831.10	196.667
831.40	183.333
831.70	191.304
832.00	250.000
832.30	211.111
832.60	337.500
832.90	220.000
833.20	357.143
833.50	193.548
833.80	162.069
834.10	212.500
834.40	207.692
834.70	255.556
835.00	257.143
835.30	157.143
835.60	261.538
835.90	210.345
836.20	364.286
836.50	203.448
836.80	176.000
837.10	172.222
837.40	247.619
837.70	288.235
838.00	233.333
838.30	252.381
838.60	285.714
838.90	211.538
839.19	285.000
839.49	342.857
839.79	350.000
840.09	280.000
840.39	314.286
840.69	291.304
840.99	316.667
841.29	450.000
841.59	350.000
841.88	325.000
842.18	186.207
842.48	233.333
842.78	180.000
843.08	230.435
843.38	165.625
843.68	933.333
843.97	242.308
844.27	196.552
844.57	247.619
844.87	368.750
845.17	181.481
845.47	1500.000
845.76	500.000
846.06	376.471
846.36	487.500
846.66	385.714
846.96	293.750
847.25	409.091
847.55	454.545
847.85	252.174
848.15	460.000
848.44	314.286
848.74	266.667
849.04	311.765
849.34	450.000
849.63	278.947
849.93	418.182
850.23	1000.000
850.53	428.571
850.82	1700.000
851.12	-4200.000
851.42	3800.000
851.71	285.000
852.01	-1500.000
852.31	220.833
852.61	1700.000
852.90	219.048
853.20	208.000
853.50	276.471
853.79	300.000
854.09	225.000
854.39	306.250
854.68	186.486
854.98	177.419
855.28	180.000
855.57	237.931
855.87	200.000
856.17	226.316
856.46	266.667
856.76	288.235
857.05	189.655
857.35	241.667
857.65	400.000
857.94	226.087
858.24	230.769
858.53	305.000
858.83	272.727
859.13	320.000
859.42	0.000
859.72	544.444
860.01	445.455
860.31	250.000
860.60	263.158
860.90	256.522
861.20	488.889
861.49	483.333
861.79	-5000.000
862.08	675.000
862.38	271.429
862.67	323.077
862.97	323.529
863.26	600.000
863.56	277.778
863.85	383.333
864.15	587.500
864.44	393.333
864.74	816.667
865.03	625.000
865.33	247.368
865.62	463.636
865.92	469.231
866.21	341.667
866.51	0.000
866.80	454.545
867.10	1160.000
867.39	423.077
867.69	490.909
867.98	289.474
868.27	490.909
868.57	336.842
868.86	-4500.000
869.16	387.500
869.45	2600.000
869.75	-3900.000
870.04	450.000
870.33	657.143
870.63	1075.000
870.92	2850.000
871.22	814.286
871.51	335.294
871.80	257.143
872.10	392.857
>>>>>End Processed Spectral Data<<<<<
