SpectraSuite Data File
++++++++++++++++++++++++++++++++++++
Date: Tue May 12 19:58:41 PDT 2015
User: schluterlab
Dark Spectrum Present: Yes
Reference Spectrum Present: Yes
Number of Sampled Component Spectra: 1
Spectrometers: USB2E3373
Integration Time (usec): 3000 (USB2E3373)
Spectra Averaged: 3 (USB2E3373)
Boxcar Smoothing: 0 (USB2E3373)
Correct for Electrical Dark: No (USB2E3373)
Strobe/Lamp Enabled: No (USB2E3373)
Correct for Detector Non-linearity: No (USB2E3373)
Correct for Stray Light: No (USB2E3373)
Number of Pixels in Processed Spectrum: 2048
>>>>>Begin Processed Spectral Data<<<<<
178.53	0.000
178.91	-150.000
179.29	-166.667
179.67	600.000
180.04	0.000
180.42	-340.000
180.80	-500.000
181.18	1350.000
181.56	-900.000
181.94	483.333
182.31	2900.000
182.69	-142.857
183.07	0.000
183.45	250.000
183.83	360.000
184.20	400.000
184.58	1500.000
184.96	316.667
185.34	-566.667
185.72	-71.429
186.09	-350.000
186.47	-2300.000
186.85	-280.000
187.23	233.333
187.61	-342.857
187.98	-300.000
188.36	1050.000
188.74	-275.000
189.12	-355.556
189.49	-170.000
189.87	575.000
190.25	300.000
190.63	800.000
191.00	380.000
191.38	-300.000
191.76	720.000
192.14	-271.429
192.51	-210.000
192.89	-100.000
193.27	-260.000
193.65	-266.667
194.02	-300.000
194.40	1800.000
194.78	-262.500
195.15	-300.000
195.53	333.333
195.91	360.000
196.29	-400.000
196.66	-366.667
197.04	-242.857
197.42	240.000
197.79	-200.000
198.17	-150.000
198.55	-1200.000
198.92	-188.889
199.30	1300.000
199.68	-300.000
200.05	-1150.000
200.43	-111.111
200.81	-133.333
201.18	516.667
201.56	-600.000
201.94	-2100.000
202.31	-133.333
202.69	-166.667
203.07	-83.333
203.44	-625.000
203.82	0.000
204.19	262.500
204.57	-700.000
204.95	272.727
205.32	440.000
205.70	400.000
206.08	-300.000
206.45	-300.000
206.83	2400.000
207.20	-277.778
207.58	-115.385
207.96	300.000
208.33	800.000
208.71	700.000
209.08	950.000
209.46	-11.111
209.84	800.000
210.21	-666.667
210.59	900.000
210.96	266.667
211.34	-575.000
211.71	1250.000
212.09	-140.000
212.46	-287.500
212.84	-262.500
213.22	142.857
213.59	-100.000
213.97	0.000
214.34	-600.000
214.72	-1400.000
215.09	1000.000
215.47	-86.667
215.84	-237.500
216.22	-900.000
216.59	2100.000
216.97	-25.000
217.34	-216.667
217.72	38.889
218.09	625.000
218.47	-68.421
218.84	-262.500
219.22	-92.857
219.59	-240.000
219.97	-180.000
220.34	316.667
220.72	172.727
221.09	-500.000
221.47	0.000
221.84	950.000
222.22	-550.000
222.59	-375.000
222.97	-56.522
223.34	160.000
223.72	371.429
224.09	-150.000
224.46	200.000
224.84	-53.333
225.21	-1100.000
225.59	-400.000
225.96	-5.000
226.34	483.333
226.71	350.000
227.08	-169.231
227.46	-142.857
227.83	-125.000
228.21	-1650.000
228.58	400.000
228.95	-52.632
229.33	-43.750
229.70	-283.333
230.08	-77.778
230.45	-500.000
230.82	-1000.000
231.20	-9.524
231.57	-320.000
231.95	-333.333
232.32	200.000
232.69	-700.000
233.07	-31.250
233.44	-187.500
233.81	-6.452
234.19	-280.000
234.56	-44.444
234.93	-100.000
235.31	3.704
235.68	-55.556
236.05	-15.385
236.43	-15.789
236.80	-4.545
237.17	-57.143
237.55	-65.000
237.92	9.302
238.29	-19.355
238.67	3.571
239.04	48.571
239.41	13.725
239.79	24.000
240.16	5.000
240.53	18.966
240.91	20.548
241.28	29.577
241.65	23.437
242.02	26.316
242.40	29.333
242.77	22.105
243.14	36.471
243.51	45.161
243.89	29.524
244.26	42.593
244.63	37.755
245.00	33.929
245.38	33.613
245.75	38.983
246.12	38.281
246.49	40.800
246.87	45.902
247.24	40.845
247.61	43.046
247.98	42.135
248.36	45.283
248.73	44.318
249.10	42.778
249.47	48.438
249.84	42.132
250.22	39.583
250.59	48.315
250.96	47.727
251.33	49.057
251.70	53.211
252.08	51.948
252.45	43.265
252.82	48.101
253.19	50.584
253.56	50.980
253.94	51.626
254.31	48.201
254.68	48.611
255.05	50.662
255.42	49.818
255.79	53.642
256.16	50.694
256.54	46.667
256.91	49.679
257.28	49.351
257.65	48.852
258.02	52.252
258.39	50.453
258.76	49.235
259.14	49.412
259.51	51.549
259.88	55.331
260.25	51.989
260.62	50.281
260.99	48.747
261.36	50.862
261.73	53.067
262.10	56.131
262.47	56.198
262.85	50.386
263.22	48.925
263.59	53.083
263.96	54.047
264.33	52.561
264.70	48.894
265.07	53.202
265.44	50.351
265.81	52.048
266.18	51.991
266.55	55.476
266.92	51.563
267.29	50.889
267.66	49.773
268.03	52.043
268.40	52.174
268.77	50.334
269.14	49.580
269.51	52.036
269.88	51.496
270.25	49.156
270.62	52.731
270.99	49.053
271.36	51.656
271.73	51.458
272.10	51.660
272.47	48.200
272.84	49.469
273.21	48.643
273.58	47.755
273.95	49.203
274.32	47.776
274.69	50.098
275.06	51.220
275.43	50.800
275.80	51.434
276.17	50.000
276.54	49.620
276.91	50.672
277.28	50.677
277.65	49.527
278.02	51.136
278.39	50.635
278.76	52.328
279.13	50.805
279.50	51.986
279.87	50.000
280.23	49.545
280.60	46.996
280.97	52.197
281.34	48.983
281.71	46.892
282.08	49.195
282.45	48.325
282.82	48.316
283.19	47.980
283.56	50.171
283.92	46.919
284.29	49.408
284.66	49.204
285.03	45.455
285.40	50.333
285.77	48.112
286.14	45.800
286.51	46.302
286.87	45.867
287.24	47.436
287.61	47.531
287.98	49.139
288.35	47.752
288.72	46.636
289.08	43.868
289.45	44.774
289.82	43.634
290.19	44.697
290.56	43.849
290.93	44.904
291.29	41.560
291.66	41.994
292.03	44.189
292.40	44.317
292.77	42.420
293.13	40.235
293.50	41.736
293.87	41.193
294.24	40.169
294.60	41.803
294.97	38.643
295.34	39.315
295.71	39.667
296.08	38.525
296.44	40.580
296.81	38.422
297.18	39.457
297.55	36.055
297.91	37.056
298.28	37.724
298.65	38.422
299.02	36.128
299.38	37.117
299.75	37.580
300.12	36.571
300.48	36.385
300.85	37.042
301.22	35.216
301.59	36.131
301.95	37.439
302.32	36.574
302.69	35.434
303.05	36.482
303.42	38.527
303.79	35.056
304.15	35.787
304.52	37.207
304.89	34.386
305.25	37.729
305.62	35.795
305.99	35.162
306.35	32.998
306.72	36.166
307.09	34.385
307.45	33.441
307.82	34.792
308.19	35.864
308.55	35.338
308.92	34.746
309.29	35.983
309.65	34.469
310.02	34.486
310.38	34.861
310.75	35.041
311.12	34.690
311.48	36.074
311.85	34.448
312.22	35.434
312.58	34.642
312.95	33.881
313.31	35.693
313.68	34.558
314.05	35.452
314.41	36.444
314.78	34.673
315.14	35.749
315.51	34.955
315.87	35.938
316.24	36.301
316.61	36.019
316.97	37.353
317.34	37.512
317.70	37.068
318.07	37.608
318.43	37.146
318.80	36.248
319.16	37.185
319.53	40.472
319.89	37.973
320.26	39.135
320.62	38.372
320.99	39.286
321.35	40.217
321.72	40.505
322.08	41.188
322.45	40.533
322.81	42.463
323.18	41.227
323.54	42.464
323.91	42.125
324.27	44.166
324.64	43.861
325.00	43.858
325.37	44.874
325.73	44.434
326.10	44.221
326.46	46.963
326.83	46.702
327.19	47.511
327.56	47.480
327.92	47.049
328.29	45.878
328.65	49.718
329.01	47.798
329.38	48.026
329.74	49.582
330.11	48.649
330.47	49.348
330.84	48.966
331.20	48.152
331.56	49.717
331.93	50.229
332.29	50.324
332.66	49.548
333.02	51.068
333.38	50.368
333.75	50.320
334.11	49.458
334.48	50.805
334.84	51.080
335.20	50.224
335.57	50.772
335.93	51.349
336.29	50.274
336.66	51.093
337.02	51.315
337.38	53.019
337.75	50.909
338.11	52.142
338.47	52.368
338.84	51.289
339.20	51.512
339.56	51.817
339.93	51.171
340.29	52.856
340.65	52.146
341.02	50.841
341.38	51.545
341.74	53.025
342.11	51.724
342.47	53.497
342.83	51.084
343.20	53.050
343.56	54.196
343.92	53.193
344.28	52.144
344.65	51.627
345.01	53.484
345.37	52.308
345.73	53.661
346.10	53.760
346.46	52.632
346.82	53.526
347.19	52.397
347.55	53.316
347.91	53.153
348.27	53.665
348.63	55.056
349.00	55.175
349.36	53.751
349.72	53.530
350.08	53.846
350.45	53.214
350.81	54.831
351.17	54.283
351.53	52.738
351.89	55.440
352.26	52.846
352.62	54.374
352.98	53.808
353.34	54.470
353.70	54.897
354.07	53.542
354.43	54.841
354.79	55.082
355.15	54.318
355.51	56.153
355.87	56.203
356.24	56.127
356.60	54.341
356.96	53.791
357.32	57.202
357.68	54.733
358.04	55.105
358.40	57.038
358.77	54.940
359.13	55.261
359.49	55.760
359.85	56.195
360.21	56.384
360.57	56.938
360.93	57.720
361.29	55.763
361.66	55.363
362.02	57.614
362.38	56.022
362.74	57.417
363.10	55.354
363.46	56.960
363.82	56.968
364.18	57.456
364.54	56.870
364.90	57.926
365.26	58.942
365.62	57.835
365.98	58.546
366.35	59.228
366.71	57.655
367.07	59.410
367.43	58.051
367.79	57.413
368.15	59.229
368.51	59.476
368.87	59.251
369.23	59.727
369.59	57.574
369.95	58.867
370.31	60.076
370.67	58.496
371.03	60.759
371.39	61.027
371.75	58.990
372.11	58.519
372.47	58.500
372.83	60.190
373.19	61.521
373.55	60.105
373.91	59.924
374.27	61.442
374.63	59.057
374.99	59.663
375.35	61.611
375.71	59.828
376.07	60.565
376.42	59.544
376.78	61.951
377.14	60.684
377.50	60.328
377.86	61.560
378.22	61.229
378.58	62.829
378.94	61.231
379.30	61.583
379.66	61.908
380.02	62.683
380.38	61.896
380.74	62.337
381.09	62.706
381.45	63.492
381.81	63.776
382.17	62.345
382.53	62.919
382.89	61.642
383.25	62.016
383.61	60.776
383.97	63.288
384.32	63.484
384.68	63.985
385.04	63.081
385.40	61.661
385.76	62.745
386.12	62.640
386.48	62.753
386.83	62.870
387.19	63.282
387.55	62.889
387.91	63.115
388.27	64.171
388.62	64.896
388.98	63.422
389.34	64.151
389.70	63.590
390.06	65.611
390.42	64.368
390.77	65.526
391.13	63.240
391.49	64.353
391.85	63.806
392.20	64.620
392.56	61.952
392.92	64.564
393.28	62.597
393.64	63.901
393.99	64.610
394.35	64.828
394.71	62.517
395.07	63.859
395.42	63.746
395.78	63.844
396.14	63.757
396.50	63.066
396.85	63.120
397.21	62.419
397.57	63.002
397.92	64.059
398.28	64.329
398.64	63.111
399.00	62.449
399.35	63.599
399.71	64.431
400.07	64.484
400.42	64.615
400.78	64.427
401.14	63.005
401.49	62.586
401.85	64.254
402.21	63.325
402.57	60.979
402.92	64.675
403.28	63.654
403.63	63.077
403.99	63.210
404.35	61.911
404.70	63.395
405.06	64.352
405.42	61.809
405.77	61.950
406.13	61.768
406.49	62.965
406.84	63.699
407.20	62.577
407.55	62.458
407.91	62.657
408.27	63.497
408.62	63.215
408.98	64.286
409.34	61.972
409.69	60.803
410.05	61.464
410.40	60.501
410.76	61.021
411.11	61.926
411.47	63.401
411.83	61.365
412.18	61.780
412.54	60.220
412.89	60.622
413.25	62.194
413.60	61.480
413.96	60.712
414.31	59.401
414.67	62.863
415.03	59.682
415.38	61.630
415.74	60.510
416.09	61.544
416.45	60.934
416.80	61.405
417.16	62.059
417.51	59.750
417.87	62.312
418.22	59.960
418.58	61.921
418.93	59.703
419.29	59.905
419.64	63.393
420.00	59.659
420.35	60.452
420.71	60.371
421.06	61.129
421.42	59.849
421.77	61.510
422.12	59.953
422.48	60.537
422.83	59.392
423.19	59.882
423.54	58.949
423.90	59.765
424.25	60.121
424.61	60.516
424.96	59.152
425.31	60.205
425.67	58.667
426.02	60.497
426.38	59.846
426.73	58.816
427.09	60.013
427.44	59.691
427.79	59.530
428.15	58.782
428.50	59.108
428.85	57.986
429.21	59.713
429.56	58.840
429.92	58.302
430.27	57.440
430.62	57.707
430.98	57.818
431.33	58.509
431.68	57.823
432.04	59.091
432.39	57.219
432.74	58.824
433.10	57.671
433.45	57.631
433.80	57.560
434.16	57.192
434.51	58.305
434.86	57.946
435.22	57.858
435.57	59.169
435.92	57.028
436.28	56.974
436.63	57.722
436.98	59.321
437.34	58.797
437.69	58.086
438.04	58.173
438.39	57.245
438.75	56.738
439.10	58.393
439.45	60.077
439.81	57.397
440.16	57.761
440.51	58.240
440.86	57.955
441.22	55.986
441.57	56.923
441.92	59.139
442.27	58.229
442.63	57.280
442.98	59.535
443.33	58.108
443.68	56.295
444.03	56.959
444.39	57.626
444.74	56.898
445.09	58.501
445.44	57.143
445.79	57.174
446.15	56.968
446.50	57.027
446.85	56.711
447.20	56.565
447.55	55.963
447.91	57.848
448.26	57.389
448.61	56.798
448.96	56.298
449.31	56.600
449.66	56.538
450.02	56.213
450.37	56.744
450.72	56.373
451.07	57.218
451.42	57.049
451.77	55.422
452.12	56.516
452.47	56.978
452.83	56.787
453.18	56.718
453.53	57.871
453.88	55.839
454.23	55.783
454.58	56.332
454.93	54.837
455.28	55.804
455.63	55.231
455.98	55.964
456.34	55.459
456.69	56.060
457.04	54.462
457.39	54.557
457.74	55.247
458.09	54.200
458.44	54.690
458.79	54.181
459.14	53.667
459.49	54.650
459.84	56.243
460.19	55.159
460.54	53.283
460.89	53.765
461.24	54.740
461.59	54.069
461.94	53.583
462.29	53.383
462.64	52.855
462.99	53.299
463.34	53.553
463.69	53.978
464.04	53.881
464.39	52.733
464.74	52.433
465.09	53.183
465.44	53.569
465.79	53.550
466.14	51.611
466.49	52.766
466.84	52.580
467.19	52.891
467.54	51.127
467.89	51.666
468.24	51.831
468.59	50.524
468.94	51.311
469.29	52.318
469.64	53.538
469.99	50.757
470.34	50.778
470.68	51.538
471.03	50.511
471.38	50.486
471.73	49.782
472.08	51.317
472.43	51.314
472.78	50.834
473.13	49.965
473.48	52.351
473.83	51.651
474.17	49.833
474.52	50.904
474.87	50.947
475.22	51.207
475.57	49.824
475.92	49.801
476.27	50.753
476.61	50.414
476.96	49.852
477.31	50.457
477.66	49.913
478.01	49.617
478.36	49.914
478.70	50.817
479.05	49.971
479.40	49.475
479.75	50.421
480.10	50.649
480.45	50.524
480.79	49.974
481.14	49.974
481.49	49.563
481.84	48.889
482.19	49.610
482.53	49.363
482.88	49.670
483.23	49.045
483.58	49.010
483.92	48.442
484.27	48.451
484.62	48.798
484.97	48.814
485.31	46.984
485.66	46.627
486.01	46.768
486.36	46.649
486.70	47.610
487.05	47.820
487.40	48.463
487.75	46.837
488.09	47.243
488.44	47.030
488.79	47.286
489.13	47.506
489.48	46.731
489.83	47.388
490.17	47.304
490.52	46.654
490.87	48.121
491.22	46.499
491.56	47.332
491.91	47.289
492.26	49.057
492.60	48.571
492.95	48.409
493.30	47.308
493.64	47.414
493.99	48.049
494.34	47.897
494.68	45.491
495.03	46.146
495.37	46.984
495.72	46.414
496.07	46.501
496.41	46.097
496.76	46.944
497.11	45.396
497.45	46.710
497.80	46.885
498.14	45.618
498.49	46.503
498.84	46.646
499.18	47.483
499.53	46.262
499.87	46.749
500.22	46.390
500.56	46.782
500.91	46.775
501.26	46.299
501.60	46.075
501.95	46.008
502.29	45.767
502.64	45.197
502.98	44.876
503.33	44.783
503.67	45.636
504.02	46.782
504.36	44.890
504.71	45.851
505.06	45.206
505.40	45.737
505.75	43.760
506.09	45.937
506.44	45.708
506.78	45.396
507.13	45.657
507.47	46.316
507.82	45.871
508.16	45.323
508.51	46.280
508.85	46.593
509.19	45.694
509.54	45.439
509.88	45.512
510.23	46.292
510.57	46.792
510.92	46.599
511.26	45.778
511.61	45.548
511.95	45.344
512.30	46.609
512.64	45.220
512.98	45.481
513.33	44.783
513.67	45.030
514.02	45.312
514.36	45.492
514.70	47.177
515.05	45.122
515.39	45.671
515.74	46.241
516.08	45.700
516.42	46.116
516.77	46.087
517.11	45.688
517.46	45.909
517.80	46.586
518.14	45.667
518.49	47.348
518.83	46.628
519.17	47.622
519.52	45.409
519.86	46.105
520.20	46.369
520.55	45.431
520.89	48.178
521.23	45.357
521.58	46.561
521.92	45.394
522.26	46.804
522.61	45.529
522.95	47.740
523.29	45.816
523.64	45.658
523.98	46.035
524.32	46.330
524.66	45.615
525.01	46.048
525.35	45.349
525.69	46.043
526.04	46.582
526.38	46.676
526.72	46.458
527.06	45.992
527.41	44.933
527.75	46.734
528.09	45.474
528.43	46.492
528.78	46.122
529.12	46.096
529.46	45.382
529.80	43.567
530.15	45.865
530.49	46.792
530.83	45.915
531.17	45.339
531.51	46.467
531.86	44.048
532.20	44.012
532.54	44.748
532.88	44.873
533.22	45.761
533.57	44.621
533.91	45.010
534.25	44.535
534.59	45.117
534.93	45.064
535.27	44.512
535.62	44.429
535.96	45.220
536.30	43.772
536.64	45.494
536.98	44.838
537.32	44.345
537.66	43.988
538.01	44.551
538.35	45.091
538.69	44.232
539.03	44.124
539.37	43.575
539.71	44.710
540.05	43.271
540.39	44.953
540.73	43.956
541.07	44.779
541.42	43.621
541.76	43.237
542.10	43.615
542.44	44.003
542.78	43.109
543.12	43.394
543.46	44.486
543.80	42.459
544.14	44.444
544.48	41.965
544.82	44.074
545.16	43.333
545.50	43.013
545.84	43.745
546.18	43.521
546.52	43.582
546.86	44.376
547.20	43.409
547.54	42.002
547.88	42.450
548.22	44.023
548.56	43.904
548.90	43.789
549.24	44.225
549.58	43.368
549.92	42.481
550.26	43.629
550.60	43.775
550.94	43.968
551.28	42.439
551.62	43.489
551.96	42.652
552.30	42.558
552.64	42.449
552.98	43.016
553.32	42.727
553.66	41.806
554.00	43.552
554.34	42.969
554.68	43.062
555.02	42.778
555.36	43.288
555.69	43.428
556.03	42.794
556.37	43.661
556.71	44.193
557.05	42.344
557.39	42.008
557.73	42.374
558.07	41.862
558.41	41.740
558.75	42.822
559.08	45.106
559.42	44.565
559.76	42.123
560.10	42.624
560.44	41.172
560.78	41.923
561.12	43.050
561.45	41.964
561.79	40.749
562.13	41.512
562.47	43.043
562.81	42.153
563.15	42.281
563.48	40.749
563.82	40.975
564.16	41.582
564.50	42.479
564.84	42.665
565.17	42.489
565.51	41.731
565.85	41.549
566.19	43.215
566.52	41.505
566.86	43.033
567.20	40.985
567.54	40.970
567.88	41.383
568.21	41.735
568.55	41.653
568.89	41.648
569.23	39.809
569.56	40.138
569.90	40.428
570.24	40.268
570.57	39.955
570.91	40.648
571.25	39.910
571.59	40.328
571.92	38.915
572.26	39.247
572.60	39.064
572.93	39.391
573.27	38.968
573.61	39.059
573.95	38.586
574.28	38.814
574.62	38.159
574.96	38.149
575.29	37.868
575.63	38.191
575.97	37.662
576.30	38.664
576.64	38.892
576.98	39.237
577.31	38.456
577.65	38.509
577.98	38.206
578.32	38.533
578.66	38.324
578.99	38.052
579.33	38.558
579.67	38.237
580.00	38.006
580.34	38.460
580.67	39.369
581.01	38.331
581.35	38.241
581.68	38.045
582.02	38.144
582.35	37.736
582.69	38.399
583.02	38.131
583.36	38.124
583.70	38.154
584.03	38.509
584.37	38.253
584.70	38.043
585.04	38.250
585.37	37.797
585.71	38.092
586.04	38.089
586.38	38.818
586.72	39.388
587.05	39.101
587.39	38.128
587.72	38.261
588.06	37.931
588.39	38.358
588.73	38.663
589.06	38.386
589.40	38.191
589.73	38.369
590.07	39.334
590.40	38.988
590.73	39.442
591.07	38.918
591.40	39.059
591.74	38.386
592.07	38.777
592.41	39.784
592.74	38.645
593.08	38.693
593.41	38.533
593.75	38.322
594.08	38.613
594.41	38.922
594.75	39.115
595.08	39.346
595.42	38.115
595.75	38.409
596.09	38.631
596.42	38.436
596.75	39.455
597.09	38.106
597.42	38.386
597.75	38.884
598.09	38.858
598.42	38.997
598.76	39.162
599.09	38.319
599.42	37.766
599.76	38.564
600.09	38.750
600.42	37.539
600.76	37.529
601.09	38.627
601.42	37.480
601.76	37.500
602.09	38.500
602.42	38.645
602.76	38.525
603.09	38.990
603.42	38.288
603.76	38.019
604.09	37.970
604.42	37.999
604.76	39.023
605.09	38.356
605.42	38.673
605.75	37.780
606.09	38.800
606.42	38.058
606.75	38.499
607.09	38.806
607.42	38.917
607.75	38.062
608.08	37.886
608.42	38.409
608.75	39.270
609.08	37.708
609.41	39.295
609.75	38.599
610.08	38.760
610.41	38.575
610.74	38.675
611.07	38.921
611.41	38.169
611.74	39.554
612.07	39.118
612.40	38.663
612.73	38.310
613.07	38.696
613.40	39.045
613.73	38.660
614.06	38.642
614.39	40.363
614.72	38.430
615.06	37.486
615.39	38.684
615.72	38.242
616.05	38.145
616.38	38.019
616.71	37.749
617.05	37.940
617.38	38.258
617.71	38.994
618.04	39.159
618.37	38.522
618.70	38.587
619.03	39.231
619.36	38.954
619.69	40.435
620.03	40.198
620.36	39.078
620.69	38.285
621.02	39.034
621.35	39.915
621.68	40.234
622.01	39.394
622.34	39.028
622.67	39.123
623.00	39.885
623.33	38.898
623.66	39.761
623.99	39.394
624.32	38.999
624.65	38.984
624.99	38.984
625.32	39.179
625.65	38.351
625.98	38.583
626.31	40.346
626.64	40.721
626.97	39.890
627.30	40.093
627.63	39.721
627.96	39.758
628.29	38.719
628.62	39.175
628.95	40.655
629.28	39.773
629.61	39.916
629.94	39.627
630.26	39.854
630.59	39.476
630.92	38.988
631.25	41.117
631.58	40.116
631.91	39.180
632.24	41.538
632.57	40.071
632.90	39.852
633.23	41.290
633.56	40.629
633.89	39.974
634.22	41.667
634.55	40.473
634.88	40.696
635.20	40.000
635.53	42.877
635.86	42.935
636.19	40.928
636.52	40.701
636.85	39.113
637.18	40.285
637.51	39.837
637.83	38.966
638.16	40.683
638.49	41.931
638.82	41.210
639.15	41.143
639.48	42.067
639.81	40.089
640.13	41.960
640.46	41.102
640.79	39.535
641.12	40.000
641.45	42.457
641.77	39.331
642.10	40.391
642.43	39.899
642.76	41.756
643.09	39.100
643.41	42.473
643.74	38.368
644.07	40.035
644.40	43.141
644.73	41.989
645.05	42.366
645.38	43.462
645.71	42.748
646.04	41.264
646.36	39.962
646.69	42.747
647.02	43.359
647.35	43.000
647.67	44.689
648.00	40.388
648.33	42.197
648.66	41.558
648.98	38.983
649.31	41.480
649.64	39.071
649.96	37.500
650.29	38.407
650.62	40.631
650.94	39.926
651.27	40.270
651.60	38.050
651.92	41.603
652.25	37.667
652.58	39.138
652.90	38.434
653.23	38.208
653.56	37.674
653.88	38.686
654.21	41.399
654.54	42.026
654.86	40.288
655.19	40.161
655.52	39.310
655.84	40.270
656.17	38.262
656.49	50.925
656.82	56.990
657.15	44.584
657.47	33.926
657.80	25.728
658.13	21.553
658.45	35.632
658.78	35.002
659.10	33.717
659.43	33.199
659.75	31.490
660.08	32.634
660.41	32.083
660.73	33.380
661.06	35.455
661.38	40.121
661.71	36.761
662.03	39.583
662.36	38.902
662.68	36.211
663.01	39.423
663.33	41.745
663.66	41.388
663.98	39.609
664.31	39.756
664.63	40.138
664.96	39.192
665.28	40.898
665.61	37.850
665.93	42.166
666.26	39.735
666.58	36.927
666.91	40.515
667.23	41.133
667.56	39.506
667.88	39.348
668.21	39.340
668.53	41.117
668.86	39.031
669.18	36.802
669.50	43.188
669.83	36.750
670.15	39.500
670.48	37.845
670.80	42.132
671.13	36.386
671.45	37.500
671.77	41.063
672.10	38.242
672.42	38.048
672.75	39.223
673.07	37.570
673.39	36.770
673.72	38.636
674.04	35.106
674.37	39.030
674.69	39.720
675.01	43.721
675.34	38.235
675.66	35.000
675.98	39.141
676.31	39.295
676.63	35.567
676.95	37.650
677.28	38.861
677.60	37.594
677.92	37.594
678.25	36.427
678.57	37.819
678.89	36.009
679.22	39.908
679.54	39.421
679.86	37.259
680.18	34.728
680.51	38.809
680.83	38.750
681.15	39.869
681.48	38.298
681.80	35.870
682.12	38.758
682.44	35.129
682.77	39.091
683.09	37.745
683.41	36.591
683.73	36.181
684.06	37.056
684.38	38.849
684.70	39.723
685.02	34.416
685.34	34.728
685.67	37.154
685.99	36.527
686.31	39.179
686.63	34.951
686.96	34.553
687.28	36.550
687.60	36.550
687.92	35.654
688.24	36.421
688.56	34.286
688.89	36.758
689.21	37.674
689.53	38.875
689.85	40.253
690.17	37.500
690.49	39.059
690.82	36.609
691.14	38.642
691.46	39.750
691.78	36.842
692.10	39.450
692.42	36.697
692.74	34.360
693.06	36.145
693.39	34.975
693.71	32.791
694.03	35.024
694.35	33.663
694.67	34.606
694.99	36.119
695.31	34.844
695.63	37.027
695.95	37.921
696.27	42.210
696.59	35.905
696.91	35.897
697.23	38.395
697.56	37.047
697.88	36.300
698.20	34.140
698.52	36.538
698.84	35.338
699.16	34.828
699.48	39.005
699.80	35.165
700.12	36.639
700.44	32.448
700.76	35.647
701.08	35.556
701.40	37.500
701.72	36.000
702.04	36.395
702.36	36.066
702.68	37.248
703.00	37.224
703.32	33.234
703.64	37.539
703.96	37.025
704.28	29.930
704.60	36.986
704.91	33.224
705.23	32.982
705.55	29.740
705.87	34.173
706.19	39.841
706.51	33.984
706.83	38.095
707.15	38.305
707.47	33.533
707.79	35.530
708.11	34.656
708.43	35.733
708.74	31.967
709.06	34.356
709.38	32.047
709.70	30.195
710.02	33.217
710.34	27.660
710.66	40.449
710.98	38.462
711.29	38.832
711.61	30.142
711.93	33.708
712.25	38.868
712.57	36.328
712.89	40.408
713.20	39.113
713.52	33.333
713.84	35.036
714.16	33.784
714.48	37.201
714.80	31.987
715.11	35.395
715.43	37.201
715.75	30.526
716.07	35.273
716.39	32.423
716.70	32.400
717.02	35.081
717.34	33.333
717.66	32.273
717.97	31.481
718.29	37.778
718.61	33.333
718.93	33.613
719.24	36.402
719.56	36.607
719.88	30.196
720.20	33.761
720.51	33.772
720.83	33.054
721.15	33.469
721.46	30.802
721.78	32.035
722.10	27.907
722.42	38.261
722.73	25.339
723.05	35.945
723.37	32.579
723.68	31.280
724.00	31.019
724.32	31.308
724.63	30.769
724.95	31.507
725.27	39.437
725.58	34.247
725.90	26.126
726.22	31.878
726.53	32.787
726.85	33.333
727.16	36.842
727.48	33.468
727.80	30.594
728.11	32.889
728.43	33.333
728.74	31.140
729.06	36.681
729.38	35.271
729.69	31.200
730.01	37.657
730.32	32.271
730.64	30.385
730.96	27.799
731.27	36.680
731.59	29.966
731.90	33.882
732.22	33.887
732.53	26.316
732.85	29.577
733.16	30.769
733.48	31.343
733.80	33.455
734.11	30.142
734.43	37.184
734.74	29.595
735.06	38.585
735.37	34.185
735.69	27.113
736.00	28.148
736.32	33.916
736.63	33.704
736.95	30.739
737.26	31.159
737.58	29.927
737.89	32.075
738.21	33.206
738.52	35.656
738.83	26.068
739.15	29.091
739.46	24.775
739.78	33.591
740.09	28.571
740.41	32.955
740.72	29.482
741.04	30.040
741.35	34.529
741.66	35.484
741.98	26.531
742.29	30.570
742.61	31.214
742.92	27.941
743.23	35.323
743.55	27.979
743.86	30.918
744.18	26.500
744.49	34.444
744.80	32.796
745.12	25.128
745.43	31.551
745.74	27.273
746.06	36.782
746.37	23.889
746.68	29.730
747.00	25.414
747.31	29.319
747.62	35.263
747.94	34.906
748.25	36.453
748.56	30.808
748.88	27.869
749.19	32.642
749.50	32.353
749.82	31.000
750.13	36.408
750.44	30.043
750.75	34.800
751.07	26.778
751.38	26.563
751.69	35.317
752.01	33.193
752.32	32.645
752.63	31.441
752.94	29.200
753.26	24.201
753.57	30.332
753.88	26.512
754.19	25.110
754.51	29.707
754.82	36.667
755.13	30.088
755.44	29.437
755.75	26.908
756.07	30.043
756.38	34.728
756.69	37.358
757.00	31.206
757.31	31.142
757.63	31.373
757.94	28.485
758.25	33.036
758.56	32.162
758.87	30.655
759.18	32.710
759.50	33.808
759.81	29.730
760.12	30.961
760.43	32.558
760.74	30.838
761.05	30.449
761.36	31.454
761.67	29.179
761.99	28.428
762.30	27.273
762.61	31.707
762.92	25.778
763.23	26.047
763.54	35.025
763.85	32.579
764.16	28.696
764.47	26.522
764.78	29.032
765.10	31.102
765.41	30.769
765.72	32.441
766.03	33.779
766.34	30.303
766.65	30.078
766.96	30.222
767.27	32.961
767.58	33.962
767.89	32.468
768.20	20.946
768.51	23.563
768.82	28.750
769.13	34.722
769.44	27.830
769.75	27.941
770.06	27.670
770.37	28.723
770.68	30.769
770.99	29.442
771.30	29.381
771.61	23.767
771.92	29.245
772.23	26.442
772.54	31.176
772.85	26.712
773.16	24.516
773.47	26.752
773.78	34.731
774.09	21.053
774.39	25.000
774.70	24.812
775.01	30.769
775.32	19.048
775.63	25.197
775.94	19.811
776.25	28.889
776.56	14.545
776.87	25.641
777.18	24.000
777.48	26.923
777.79	19.444
778.10	23.585
778.41	29.412
778.72	24.528
779.03	25.439
779.34	21.008
779.65	28.169
779.95	27.338
780.26	16.129
780.57	23.188
780.88	15.596
781.19	15.741
781.50	18.852
781.80	27.007
782.11	30.128
782.42	18.621
782.73	24.476
783.04	27.200
783.34	23.200
783.65	21.138
783.96	23.770
784.27	21.008
784.57	30.841
784.88	11.607
785.19	17.526
785.50	15.789
785.81	28.000
786.11	19.802
786.42	10.588
786.73	13.542
787.04	14.286
787.34	18.519
787.65	33.962
787.96	19.588
788.26	16.832
788.57	25.217
788.88	19.266
789.19	25.620
789.49	17.391
789.80	32.759
790.11	25.610
790.41	19.101
790.72	10.465
791.03	19.767
791.33	12.987
791.64	29.268
791.95	10.976
792.25	7.229
792.56	3.704
792.87	9.859
793.17	31.325
793.48	16.471
793.79	13.750
794.09	20.000
794.40	9.783
794.70	17.391
795.01	21.101
795.32	23.622
795.62	9.804
795.93	16.667
796.23	20.202
796.54	4.651
796.85	-2.899
797.15	9.375
797.46	-6.780
797.76	14.754
798.07	7.895
798.37	8.065
798.68	21.875
798.99	23.077
799.29	-4.545
799.60	20.290
799.90	12.857
800.21	12.281
800.51	10.345
800.82	-3.774
801.12	0.000
801.43	12.903
801.73	8.065
802.04	12.000
802.34	-13.208
802.65	10.526
802.95	20.000
803.26	-13.208
803.56	-8.197
803.87	-12.000
804.17	-14.815
804.48	3.846
804.78	-2.041
805.09	19.149
805.39	-5.085
805.70	-10.417
806.00	-16.071
806.30	11.864
806.61	6.154
806.91	-4.615
807.22	-3.947
807.52	22.857
807.83	10.345
808.13	1.266
808.43	3.279
808.74	13.115
809.04	12.162
809.35	-3.704
809.65	14.286
809.95	25.424
810.26	-10.204
810.56	7.547
810.86	5.882
811.17	-8.108
811.47	-59.259
811.77	-7.843
812.08	-11.364
812.38	-58.333
812.69	17.949
812.99	9.524
813.29	2.174
813.59	0.000
813.90	-16.667
814.20	0.000
814.50	6.122
814.81	-11.765
815.11	-16.667
815.41	-24.390
815.72	-23.077
816.02	-2.128
816.32	-15.625
816.62	15.152
816.93	-36.364
817.23	0.000
817.53	-14.706
817.84	22.500
818.14	-20.588
818.44	12.500
818.74	-47.619
819.04	-17.143
819.35	-40.000
819.65	-2.273
819.95	5.128
820.25	-33.333
820.56	-37.931
820.86	-46.429
821.16	-4.348
821.46	4.762
821.76	-9.259
822.07	21.739
822.37	-20.408
822.67	-16.279
822.97	-21.739
823.27	-50.000
823.57	-29.630
823.88	-32.143
824.18	-28.205
824.48	-28.571
824.78	-6.061
825.08	-180.000
825.38	-5.000
825.69	-116.667
825.99	-29.630
826.29	35.556
826.59	-48.148
826.89	-55.556
827.19	-39.286
827.49	-50.000
827.79	-109.091
828.09	-45.455
828.39	-69.565
828.70	-22.222
829.00	-25.000
829.30	16.667
829.60	-38.710
829.90	-61.538
830.20	-28.205
830.50	-54.545
830.80	-52.381
831.10	-105.556
831.40	-142.857
831.70	-59.259
832.00	-117.647
832.30	-26.087
832.60	0.000
832.90	-145.455
833.20	-94.444
833.50	-15.625
833.80	-26.923
834.10	-12.000
834.40	-45.833
834.70	-31.818
835.00	-26.923
835.30	-80.000
835.60	-70.000
835.90	-10.000
836.20	-57.143
836.50	-13.043
836.80	-72.222
837.10	-60.000
837.40	-80.000
837.70	-43.478
838.00	-100.000
838.30	2600.000
838.60	36.000
838.90	-540.000
839.19	-188.889
839.49	-950.000
839.79	-141.176
840.09	-133.333
840.39	-10.714
840.69	-55.556
840.99	-175.000
841.29	-10.345
841.59	-86.667
841.88	-181.818
842.18	-283.333
842.48	-37.500
842.78	-11.538
843.08	-152.941
843.38	-40.000
843.68	-153.846
843.97	-58.824
844.27	-130.000
844.57	-37.500
844.87	-181.818
845.17	-84.211
845.47	-105.556
845.76	-27.778
846.06	-66.667
846.36	-114.286
846.66	-333.333
846.96	-75.000
847.25	-320.000
847.55	-162.500
847.85	-46.667
848.15	-525.000
848.44	-89.474
848.74	-73.333
849.04	-68.421
849.34	-300.000
849.63	-216.667
849.93	-41.176
850.23	-145.455
850.53	-433.333
850.82	-260.000
851.12	-233.333
851.42	-228.571
851.71	-240.000
852.01	-128.571
852.31	-533.333
852.61	-130.769
852.90	-380.000
853.20	-177.778
853.50	-377.778
853.79	-160.000
854.09	-120.000
854.39	-100.000
854.68	-25.000
854.98	-525.000
855.28	-38.889
855.57	-164.286
855.87	-78.947
856.17	-137.500
856.46	-15.385
856.76	-66.667
857.05	-106.250
857.35	-62.500
857.65	-88.889
857.94	-162.500
858.24	-78.261
858.53	-210.000
858.83	-300.000
859.13	-154.545
859.42	-140.000
859.72	233.333
860.01	-130.769
860.31	-250.000
860.60	-387.500
860.90	-725.000
861.20	-350.000
861.49	-425.000
861.79	750.000
862.08	6.452
862.38	-57.895
862.67	-115.385
862.97	-180.000
863.26	-116.667
863.56	-60.870
863.85	-283.333
864.15	-21.429
864.44	-50.000
864.74	-141.667
865.03	-133.333
865.33	-700.000
865.62	-3100.000
865.92	-750.000
866.21	-450.000
866.51	-27.273
866.80	-533.333
867.10	-300.000
867.39	-266.667
867.69	-175.000
867.98	380.000
868.27	-600.000
868.57	800.000
868.86	-140.000
869.16	-15.385
869.45	1200.000
869.75	-250.000
870.04	-233.333
870.33	0.000
870.63	-185.714
870.92	47.826
871.22	-237.500
871.51	480.000
871.80	-56.250
872.10	-333.333
>>>>>End Processed Spectral Data<<<<<
