SpectraSuite Data File
++++++++++++++++++++++++++++++++++++
Date: Wed May 13 19:37:13 PDT 2015
User: schluterlab
Dark Spectrum Present: Yes
Reference Spectrum Present: Yes
Number of Sampled Component Spectra: 1
Spectrometers: USB2E3373
Integration Time (usec): 3000 (USB2E3373)
Spectra Averaged: 3 (USB2E3373)
Boxcar Smoothing: 0 (USB2E3373)
Correct for Electrical Dark: No (USB2E3373)
Strobe/Lamp Enabled: No (USB2E3373)
Correct for Detector Non-linearity: No (USB2E3373)
Correct for Stray Light: No (USB2E3373)
Number of Pixels in Processed Spectrum: 2048
>>>>>Begin Processed Spectral Data<<<<<
178.53	0.000
178.91	-1400.000
179.29	-1350.000
179.67	-255.556
180.04	-1525.000
180.42	3100.000
180.80	1260.000
181.18	-1675.000
181.56	571.429
181.94	0.000
182.31	-814.286
182.69	1800.000
183.07	-587.500
183.45	-600.000
183.83	590.909
184.20	-450.000
184.58	2700.000
184.96	6100.000
185.34	-960.000
185.72	-600.000
186.09	-2250.000
186.47	2950.000
186.85	2450.000
187.23	4700.000
187.61	-1600.000
187.98	1425.000
188.36	609.091
188.74	554.545
189.12	-880.000
189.49	640.000
189.87	-5200.000
190.25	-1175.000
190.63	507.143
191.00	446.154
191.38	950.000
191.76	-1425.000
192.14	1350.000
192.51	662.500
192.89	1016.667
193.27	587.500
193.65	-1400.000
194.02	590.000
194.40	1080.000
194.78	510.000
195.15	458.333
195.53	670.000
195.91	-2600.000
196.29	325.000
196.66	331.579
197.04	-350.000
197.42	0.000
197.79	680.000
198.17	-5200.000
198.55	757.143
198.92	762.500
199.30	1100.000
199.68	0.000
200.05	388.889
200.43	800.000
200.81	5500.000
201.18	1566.667
201.56	-1600.000
201.94	644.444
202.31	744.444
202.69	425.000
203.07	520.000
203.44	0.000
203.82	1300.000
204.19	957.143
204.57	442.857
204.95	712.500
205.32	1766.667
205.70	500.000
206.08	442.857
206.45	2800.000
206.83	400.000
207.20	900.000
207.58	1060.000
207.96	366.667
208.33	837.500
208.71	-1000.000
209.08	714.286
209.46	677.778
209.84	463.636
210.21	-2066.667
210.59	1825.000
210.96	-637.500
211.34	3000.000
211.71	620.000
212.09	916.667
212.46	0.000
212.84	1900.000
213.22	1550.000
213.59	-5800.000
213.97	1083.333
214.34	828.571
214.72	581.818
215.09	1060.000
215.47	-2000.000
215.84	-2950.000
216.22	1633.333
216.59	435.714
216.97	1550.000
217.34	545.455
217.72	-950.000
218.09	0.000
218.47	-5100.000
218.84	722.222
219.22	800.000
219.59	2066.667
219.97	-714.286
220.34	1120.000
220.72	-1833.333
221.09	435.714
221.47	1700.000
221.84	-916.667
222.22	0.000
222.59	1500.000
222.97	-2300.000
223.34	1340.000
223.72	476.923
224.09	1240.000
224.46	2150.000
224.84	-5200.000
225.21	-1040.000
225.59	-4400.000
225.96	600.000
226.34	345.000
226.71	3050.000
227.08	662.500
227.46	600.000
227.83	-1200.000
228.21	-2550.000
228.58	644.444
228.95	-2900.000
229.33	-2450.000
229.70	1966.667
230.08	900.000
230.45	-1000.000
230.82	508.333
231.20	833.333
231.57	657.143
231.95	541.667
232.32	313.636
232.69	481.818
233.07	828.571
233.44	307.692
233.81	-1366.667
234.19	336.842
234.56	466.667
234.93	483.333
235.31	509.091
235.68	407.692
236.05	492.857
236.43	218.182
236.80	284.211
237.17	6400.000
237.55	266.667
237.92	275.000
238.29	285.714
238.67	200.000
239.04	234.483
239.41	186.111
239.79	158.696
240.16	185.714
240.53	159.091
240.91	137.255
241.28	128.000
241.65	148.000
242.02	117.391
242.40	127.419
242.77	133.333
243.14	95.699
243.51	108.989
243.89	83.529
244.26	101.111
244.63	94.624
245.00	78.723
245.38	95.050
245.75	78.505
246.12	86.239
246.49	88.321
246.87	83.200
247.24	79.231
247.61	73.571
247.98	68.627
248.36	70.946
248.73	64.968
249.10	78.981
249.47	68.362
249.84	66.310
250.22	62.032
250.59	71.598
250.96	66.162
251.33	60.664
251.70	67.327
252.08	62.381
252.45	62.332
252.82	60.000
253.19	66.383
253.56	63.137
253.94	63.900
254.31	58.203
254.68	58.077
255.05	56.458
255.42	57.317
255.79	59.926
256.16	58.484
256.54	56.537
256.91	57.295
257.28	56.835
257.65	57.096
258.02	54.658
258.39	55.205
258.76	54.515
259.14	52.976
259.51	52.888
259.88	50.000
260.25	53.776
260.62	54.335
260.99	54.348
261.36	51.652
261.73	50.143
262.10	52.035
262.47	53.521
262.85	51.811
263.22	49.858
263.59	50.997
263.96	50.000
264.33	49.608
264.70	52.368
265.07	49.361
265.44	52.778
265.81	46.959
266.18	50.251
266.55	51.220
266.92	49.631
267.29	48.611
267.66	44.725
268.03	44.545
268.40	47.897
268.77	48.449
269.14	45.721
269.51	50.113
269.88	48.019
270.25	50.790
270.62	47.416
270.99	48.387
271.36	48.712
271.73	49.533
272.10	48.478
272.47	50.108
272.84	50.000
273.21	47.799
273.58	45.415
273.95	45.283
274.32	46.074
274.69	48.608
275.06	43.701
275.43	45.957
275.80	43.687
276.17	47.251
276.54	45.114
276.91	45.850
277.28	45.508
277.65	45.068
278.02	45.342
278.39	44.336
278.76	42.909
279.13	45.094
279.50	45.251
279.87	44.223
280.23	47.305
280.60	45.068
280.97	43.068
281.34	43.186
281.71	45.273
282.08	44.530
282.45	42.909
282.82	43.162
283.19	44.563
283.56	43.158
283.92	42.978
284.29	41.623
284.66	41.561
285.03	44.304
285.40	40.845
285.77	41.077
286.14	42.314
286.51	44.500
286.87	40.513
287.24	42.834
287.61	41.413
287.98	40.422
288.35	38.352
288.72	38.629
289.08	38.028
289.45	40.362
289.82	40.163
290.19	36.735
290.56	38.897
290.93	36.707
291.29	39.571
291.66	35.693
292.03	38.372
292.40	36.711
292.77	36.982
293.13	38.955
293.50	39.213
293.87	36.148
294.24	33.333
294.60	35.371
294.97	34.012
295.34	38.082
295.71	36.222
296.08	34.330
296.44	34.525
296.81	32.629
297.18	34.688
297.55	32.718
297.91	33.773
298.28	34.672
298.65	32.768
299.02	33.202
299.38	31.740
299.75	30.863
300.12	31.418
300.48	31.625
300.85	30.949
301.22	30.318
301.59	32.197
301.95	31.864
302.32	31.836
302.69	29.510
303.05	30.788
303.42	30.370
303.79	30.691
304.15	29.953
304.52	29.664
304.89	31.127
305.25	29.814
305.62	28.766
305.99	30.460
306.35	29.754
306.72	30.717
307.09	29.745
307.45	29.842
307.82	29.129
308.19	30.574
308.55	29.666
308.92	29.323
309.29	29.145
309.65	30.117
310.02	28.647
310.38	30.000
310.75	28.405
311.12	29.273
311.48	30.094
311.85	29.769
312.22	29.136
312.58	29.626
312.95	27.878
313.31	28.155
313.68	29.938
314.05	29.093
314.41	28.643
314.78	28.802
315.14	27.805
315.51	30.587
315.87	30.099
316.24	29.096
316.61	27.778
316.97	29.452
317.34	29.159
317.70	29.350
318.07	30.606
318.43	28.376
318.80	29.053
319.16	30.414
319.53	30.019
319.89	30.476
320.26	31.500
320.62	31.647
320.99	30.404
321.35	31.313
321.72	30.903
322.08	32.577
322.45	32.637
322.81	31.977
323.18	32.274
323.54	31.818
323.91	32.453
324.27	31.931
324.64	31.687
325.00	31.470
325.37	33.758
325.73	32.944
326.10	33.981
326.46	33.333
326.83	33.822
327.19	33.219
327.56	34.669
327.92	33.333
328.29	34.250
328.65	35.451
329.01	34.747
329.38	34.783
329.74	34.257
330.11	34.307
330.47	35.354
330.84	35.846
331.20	34.608
331.56	33.853
331.93	36.019
332.29	33.984
332.66	33.540
333.02	34.186
333.38	33.424
333.75	35.383
334.11	35.231
334.48	35.226
334.84	35.294
335.20	34.455
335.57	35.630
335.93	34.732
336.29	34.432
336.66	35.347
337.02	34.299
337.38	36.019
337.75	34.492
338.11	35.631
338.47	34.807
338.84	35.747
339.20	34.220
339.56	34.763
339.93	34.727
340.29	35.326
340.65	34.492
341.02	35.079
341.38	34.964
341.74	34.912
342.11	35.808
342.47	34.714
342.83	34.332
343.20	35.238
343.56	35.046
343.92	35.526
344.28	34.694
344.65	36.028
345.01	33.081
345.37	33.019
345.73	35.618
346.10	34.186
346.46	35.085
346.82	34.185
347.19	33.250
347.55	34.565
347.91	34.466
348.27	35.333
348.63	34.281
349.00	33.738
349.36	32.759
349.72	33.520
350.08	35.008
350.45	33.849
350.81	34.525
351.17	34.441
351.53	34.316
351.89	32.921
352.26	35.201
352.62	34.563
352.98	33.712
353.34	34.511
353.70	34.043
354.07	34.032
354.43	34.048
354.79	33.226
355.15	34.238
355.51	34.612
355.87	34.531
356.24	35.098
356.60	32.719
356.96	34.031
357.32	34.751
357.68	34.646
358.04	33.729
358.40	33.729
358.77	34.272
359.13	33.544
359.49	34.039
359.85	32.698
360.21	33.573
360.57	35.175
360.93	34.538
361.29	33.107
361.66	34.365
362.02	34.179
362.38	33.992
362.74	33.780
363.10	34.271
363.46	33.749
363.82	34.467
364.18	34.581
364.54	34.621
364.90	33.924
365.26	34.632
365.62	35.062
365.98	33.017
366.35	32.593
366.71	34.346
367.07	33.358
367.43	34.978
367.79	34.832
368.15	36.135
368.51	34.593
368.87	35.261
369.23	35.187
369.59	35.916
369.95	34.779
370.31	34.829
370.67	34.348
371.03	35.581
371.39	35.641
371.75	35.441
372.11	35.135
372.47	33.798
372.83	36.095
373.19	34.538
373.55	34.885
373.91	36.303
374.27	33.058
374.63	35.564
374.99	36.088
375.35	34.124
375.71	35.161
376.07	34.156
376.42	34.938
376.78	35.984
377.14	35.482
377.50	35.166
377.86	34.574
378.22	35.461
378.58	34.148
378.94	35.889
379.30	34.733
379.66	35.850
380.02	34.889
380.38	34.791
380.74	35.174
381.09	35.513
381.45	34.849
381.81	36.486
382.17	35.414
382.53	35.031
382.89	35.679
383.25	35.647
383.61	34.201
383.97	34.772
384.32	34.872
384.68	35.006
385.04	35.157
385.40	35.232
385.76	34.337
386.12	34.845
386.48	36.123
386.83	35.856
387.19	37.106
387.55	35.869
387.91	35.308
388.27	34.887
388.62	36.447
388.98	35.074
389.34	37.109
389.70	35.438
390.06	36.439
390.42	35.798
390.77	35.814
391.13	36.120
391.49	35.279
391.85	34.500
392.20	35.457
392.56	35.795
392.92	36.198
393.28	34.911
393.64	36.211
393.99	35.614
394.35	35.546
394.71	35.445
395.07	35.140
395.42	37.021
395.78	36.514
396.14	35.506
396.50	36.967
396.85	36.364
397.21	35.943
397.57	34.842
397.92	36.959
398.28	35.034
398.64	35.663
399.00	35.646
399.35	34.687
399.71	37.153
400.07	35.896
400.42	36.564
400.78	36.369
401.14	36.159
401.49	36.478
401.85	36.177
402.21	35.030
402.57	36.089
402.92	35.939
403.28	35.853
403.63	35.644
403.99	35.987
404.35	36.364
404.70	35.312
405.06	35.585
405.42	36.868
405.77	34.914
406.13	34.932
406.49	36.310
406.84	35.558
407.20	35.697
407.55	36.375
407.91	36.667
408.27	36.375
408.62	35.400
408.98	36.581
409.34	36.101
409.69	35.742
410.05	35.626
410.40	35.902
410.76	36.559
411.11	35.464
411.47	36.550
411.83	36.286
412.18	35.745
412.54	36.177
412.89	35.181
413.25	35.655
413.60	36.257
413.96	35.337
414.31	36.270
414.67	36.819
415.03	36.291
415.38	36.662
415.74	36.077
416.09	37.492
416.45	37.483
416.80	37.475
417.16	37.399
417.51	37.757
417.87	36.416
418.22	37.666
418.58	38.218
418.93	36.916
419.29	36.665
419.64	37.343
420.00	37.500
420.35	37.159
420.71	36.940
421.06	37.172
421.42	37.193
421.77	37.500
422.12	36.552
422.48	36.481
422.83	37.333
423.19	38.177
423.54	37.551
423.90	37.681
424.25	38.079
424.61	37.440
424.96	38.076
425.31	37.154
425.67	37.472
426.02	37.600
426.38	38.462
426.73	37.741
427.09	38.663
427.44	38.010
427.79	37.550
428.15	38.929
428.50	37.800
428.85	38.498
429.21	37.548
429.56	37.843
429.92	37.846
430.27	38.481
430.62	37.378
430.98	38.765
431.33	37.629
431.68	39.162
432.04	38.498
432.39	38.492
432.74	38.061
433.10	39.559
433.45	39.184
433.80	38.969
434.16	38.782
434.51	38.684
434.86	39.339
435.22	39.855
435.57	40.547
435.92	39.438
436.28	40.747
436.63	39.128
436.98	39.725
437.34	39.475
437.69	40.548
438.04	39.460
438.39	39.940
438.75	39.919
439.10	40.670
439.45	39.669
439.81	40.483
440.16	39.639
440.51	40.949
440.86	40.706
441.22	40.601
441.57	40.658
441.92	40.532
442.27	41.119
442.63	40.811
442.98	41.352
443.33	40.272
443.68	39.649
444.03	40.166
444.39	39.971
444.74	41.180
445.09	41.240
445.44	41.006
445.79	40.129
446.15	40.656
446.50	40.549
446.85	40.853
447.20	42.478
447.55	41.876
447.91	41.313
448.26	41.458
448.61	42.001
448.96	42.027
449.31	42.238
449.66	40.912
450.02	41.281
450.37	40.930
450.72	41.568
451.07	41.621
451.42	41.155
451.77	42.337
452.12	41.917
452.47	42.164
452.83	41.900
453.18	41.320
453.53	43.043
453.88	42.705
454.23	41.841
454.58	42.762
454.93	42.912
455.28	43.392
455.63	41.444
455.98	42.381
456.34	42.337
456.69	43.644
457.04	43.963
457.39	41.321
457.74	42.310
458.09	42.438
458.44	42.531
458.79	40.184
459.14	41.704
459.49	42.674
459.84	42.604
460.19	41.190
460.54	41.319
460.89	41.909
461.24	42.441
461.59	43.289
461.94	42.047
462.29	41.958
462.64	42.374
462.99	42.160
463.34	43.267
463.69	42.777
464.04	41.507
464.39	42.029
464.74	43.375
465.09	42.642
465.44	41.828
465.79	41.667
466.14	41.051
466.49	41.046
466.84	42.499
467.19	42.607
467.54	42.500
467.89	42.197
468.24	43.048
468.59	42.430
468.94	42.272
469.29	43.766
469.64	43.373
469.99	43.437
470.34	42.734
470.68	43.103
471.03	42.993
471.38	44.406
471.73	43.571
472.08	43.947
472.43	42.337
472.78	43.713
473.13	44.223
473.48	43.009
473.83	42.378
474.17	42.564
474.52	43.052
474.87	43.257
475.22	43.122
475.57	40.892
475.92	41.901
476.27	42.446
476.61	41.919
476.96	42.111
477.31	42.334
477.66	42.834
478.01	42.551
478.36	44.157
478.70	42.108
479.05	42.545
479.40	41.556
479.75	41.790
480.10	41.700
480.45	41.361
480.79	41.376
481.14	42.466
481.49	42.050
481.84	42.112
482.19	42.117
482.53	41.881
482.88	41.740
483.23	42.290
483.58	42.266
483.92	41.753
484.27	40.436
484.62	40.776
484.97	40.717
485.31	41.438
485.66	39.159
486.01	38.375
486.36	36.932
486.70	36.457
487.05	37.686
487.40	38.790
487.75	39.157
488.09	40.127
488.44	40.627
488.79	41.664
489.13	42.017
489.48	41.436
489.83	41.217
490.17	41.166
490.52	41.984
490.87	41.565
491.22	41.337
491.56	40.683
491.91	40.717
492.26	41.112
492.60	41.843
492.95	40.739
493.30	41.402
493.64	41.484
493.99	42.201
494.34	41.304
494.68	41.850
495.03	40.930
495.37	40.763
495.72	41.520
496.07	41.578
496.41	40.177
496.76	40.369
497.11	40.837
497.45	41.174
497.80	41.075
498.14	40.483
498.49	41.122
498.84	40.844
499.18	41.238
499.53	41.453
499.87	40.587
500.22	39.661
500.56	41.699
500.91	40.721
501.26	41.584
501.60	41.386
501.95	40.376
502.29	42.268
502.64	41.899
502.98	40.954
503.33	40.494
503.67	41.021
504.02	40.599
504.36	40.243
504.71	41.573
505.06	40.771
505.40	41.711
505.75	40.501
506.09	40.768
506.44	42.279
506.78	40.916
507.13	41.848
507.47	42.980
507.82	41.439
508.16	42.503
508.51	41.857
508.85	40.963
509.19	41.429
509.54	41.531
509.88	41.886
510.23	42.519
510.57	42.570
510.92	41.844
511.26	41.367
511.61	42.583
511.95	41.754
512.30	41.941
512.64	41.591
512.98	42.605
513.33	42.505
513.67	41.195
514.02	42.154
514.36	43.310
514.70	42.280
515.05	42.945
515.39	42.905
515.74	42.624
516.08	42.370
516.42	43.785
516.77	44.091
517.11	42.286
517.46	43.059
517.80	43.670
518.14	43.312
518.49	45.274
518.83	43.523
519.17	43.533
519.52	43.916
519.86	43.012
520.20	43.699
520.55	45.063
520.89	44.891
521.23	45.416
521.58	44.238
521.92	45.193
522.26	44.417
522.61	44.673
522.95	44.138
523.29	44.248
523.64	45.549
523.98	45.225
524.32	44.572
524.66	43.957
525.01	44.853
525.35	46.159
525.69	44.889
526.04	44.548
526.38	45.760
526.72	45.215
527.06	45.198
527.41	43.626
527.75	44.437
528.09	45.986
528.43	45.698
528.78	45.544
529.12	44.848
529.46	45.928
529.80	45.792
530.15	45.421
530.49	44.554
530.83	45.316
531.17	46.475
531.51	46.304
531.86	45.290
532.20	46.741
532.54	44.715
532.88	46.662
533.22	44.722
533.57	44.815
533.91	44.732
534.25	45.322
534.59	45.577
534.93	44.497
535.27	43.633
535.62	44.261
535.96	45.449
536.30	44.565
536.64	45.654
536.98	46.317
537.32	45.490
537.66	45.267
538.01	45.293
538.35	45.960
538.69	45.820
539.03	44.185
539.37	43.259
539.71	44.588
540.05	45.817
540.39	45.183
540.73	44.179
541.07	45.879
541.42	44.945
541.76	45.097
542.10	45.084
542.44	45.497
542.78	45.652
543.12	43.762
543.46	44.852
543.80	45.934
544.14	44.608
544.48	45.016
544.82	44.901
545.16	44.567
545.50	44.859
545.84	45.228
546.18	45.859
546.52	44.322
546.86	45.498
547.20	45.314
547.54	44.489
547.88	46.173
548.22	44.085
548.56	43.774
548.90	44.110
549.24	45.185
549.58	45.703
549.92	45.673
550.26	45.526
550.60	45.367
550.94	44.930
551.28	45.208
551.62	45.794
551.96	45.684
552.30	45.392
552.64	44.490
552.98	45.695
553.32	44.235
553.66	44.785
554.00	44.544
554.34	44.997
554.68	45.494
555.02	44.993
555.36	45.859
555.69	43.843
556.03	44.549
556.37	43.997
556.71	44.543
557.05	45.168
557.39	44.367
557.73	45.166
558.07	45.975
558.41	44.139
558.75	44.967
559.08	46.160
559.42	47.317
559.76	45.294
560.10	43.969
560.44	44.514
560.78	43.979
561.12	44.789
561.45	43.481
561.79	43.837
562.13	44.802
562.47	44.467
562.81	45.049
563.15	43.344
563.48	43.302
563.82	43.705
564.16	43.427
564.50	43.620
564.84	43.742
565.17	43.501
565.51	43.642
565.85	43.782
566.19	42.956
566.52	43.445
566.86	42.013
567.20	43.337
567.54	42.523
567.88	41.336
568.21	41.958
568.55	40.900
568.89	41.586
569.23	40.285
569.56	39.069
569.90	39.547
570.24	38.967
570.57	38.456
570.91	37.847
571.25	37.739
571.59	37.231
571.92	37.500
572.26	37.464
572.60	37.928
572.93	37.211
573.27	37.297
573.61	37.744
573.95	37.209
574.28	36.156
574.62	36.322
574.96	36.177
575.29	36.081
575.63	36.509
575.97	36.657
576.30	37.334
576.64	36.669
576.98	36.607
577.31	36.414
577.65	36.352
577.98	36.168
578.32	35.226
578.66	35.283
578.99	35.974
579.33	36.262
579.67	35.198
580.00	35.795
580.34	35.524
580.67	35.760
581.01	36.204
581.35	36.183
581.68	35.447
582.02	34.861
582.35	35.425
582.69	35.361
583.02	35.719
583.36	36.500
583.70	36.239
584.03	36.625
584.37	36.364
584.70	37.069
585.04	36.008
585.37	35.951
585.71	35.832
586.04	35.878
586.38	36.338
586.72	37.255
587.05	35.996
587.39	35.910
587.72	36.460
588.06	36.526
588.39	36.296
588.73	36.374
589.06	37.426
589.40	37.542
589.73	38.508
590.07	36.797
590.40	37.669
590.73	38.017
591.07	37.851
591.40	38.844
591.74	39.567
592.07	38.613
592.41	37.784
592.74	37.041
593.08	37.042
593.41	36.444
593.75	36.352
594.08	37.077
594.41	36.833
594.75	37.523
595.08	36.722
595.42	38.249
595.75	36.895
596.09	37.739
596.42	37.878
596.75	37.864
597.09	37.835
597.42	37.437
597.75	37.861
598.09	37.217
598.42	37.672
598.76	36.927
599.09	35.956
599.42	36.536
599.76	37.116
600.09	36.831
600.42	36.486
600.76	35.429
601.09	36.539
601.42	36.872
601.76	36.850
602.09	36.364
602.42	37.540
602.76	37.283
603.09	37.411
603.42	37.602
603.76	36.700
604.09	37.263
604.42	36.771
604.76	37.368
605.09	37.353
605.42	37.452
605.75	36.879
606.09	37.170
606.42	37.515
606.75	36.333
607.09	36.794
607.42	37.056
607.75	36.498
608.08	36.735
608.42	37.472
608.75	37.196
609.08	36.355
609.41	37.220
609.75	36.779
610.08	36.899
610.41	37.244
610.74	37.323
611.07	37.549
611.41	37.242
611.74	37.456
612.07	37.836
612.40	38.195
612.73	37.947
613.07	37.554
613.40	36.704
613.73	36.969
614.06	38.172
614.39	37.074
614.72	36.632
615.06	37.290
615.39	36.359
615.72	35.941
616.05	37.427
616.38	37.243
616.71	39.192
617.05	37.750
617.38	37.462
617.71	38.258
618.04	39.663
618.37	37.552
618.70	38.519
619.03	38.684
619.36	38.425
619.69	38.732
620.03	38.874
620.36	38.503
620.69	39.589
621.02	39.233
621.35	41.190
621.68	40.265
622.01	40.480
622.34	39.864
622.67	40.608
623.00	39.252
623.33	36.383
623.66	38.385
623.99	39.543
624.32	38.445
624.65	37.994
624.99	37.960
625.32	38.088
625.65	38.918
625.98	39.969
626.31	39.969
626.64	41.633
626.97	40.150
627.30	40.399
627.63	39.869
627.96	39.781
628.29	39.633
628.62	38.975
628.95	40.755
629.28	40.785
629.61	40.513
629.94	42.286
630.26	40.515
630.59	40.419
630.92	40.421
631.25	40.079
631.58	40.941
631.91	41.684
632.24	40.717
632.57	41.868
632.90	41.557
633.23	41.946
633.56	42.599
633.89	41.789
634.22	43.814
634.55	43.669
634.88	41.677
635.20	42.891
635.53	43.133
635.86	44.183
636.19	42.824
636.52	42.561
636.85	40.550
637.18	41.014
637.51	42.908
637.83	40.937
638.16	43.350
638.49	43.829
638.82	44.627
639.15	41.000
639.48	43.516
639.81	42.091
640.13	42.969
640.46	43.624
640.79	43.989
641.12	43.329
641.45	43.017
641.77	45.066
642.10	45.029
642.43	44.144
642.76	46.285
643.09	46.779
643.41	43.703
643.74	46.759
644.07	45.579
644.40	45.859
644.73	45.984
645.05	45.166
645.38	43.286
645.71	44.122
646.04	45.017
646.36	49.249
646.69	46.321
647.02	44.388
647.35	45.189
647.67	47.080
648.00	44.715
648.33	42.904
648.66	44.091
648.98	43.778
649.31	43.199
649.64	43.647
649.96	43.666
650.29	43.760
650.62	42.718
650.94	46.029
651.27	45.608
651.60	45.591
651.92	45.527
652.25	41.368
652.58	44.548
652.90	45.182
653.23	39.753
653.56	42.992
653.88	44.849
654.21	43.760
654.54	44.224
654.86	42.991
655.19	42.162
655.52	29.050
655.84	25.764
656.17	33.081
656.49	44.277
656.82	45.179
657.15	33.964
657.47	25.577
657.80	19.527
658.13	20.091
658.45	30.851
658.78	31.320
659.10	33.140
659.43	34.922
659.75	36.222
660.08	39.304
660.41	43.296
660.73	45.235
661.06	44.108
661.38	47.636
661.71	45.769
662.03	46.746
662.36	44.135
662.68	45.582
663.01	46.061
663.33	47.134
663.66	47.689
663.98	47.948
664.31	46.639
664.63	44.534
664.96	41.851
665.28	49.795
665.61	43.080
665.93	44.869
666.26	46.653
666.58	45.397
666.91	47.780
667.23	48.315
667.56	47.300
667.88	47.222
668.21	48.827
668.53	47.072
668.86	44.156
669.18	48.188
669.50	45.000
669.83	49.891
670.15	45.556
670.48	49.455
670.80	45.690
671.13	45.648
671.45	45.319
671.77	46.843
672.10	42.699
672.42	42.049
672.75	42.952
673.07	43.662
673.39	41.953
673.72	42.383
674.04	44.510
674.37	43.883
674.69	44.990
675.01	42.469
675.34	49.076
675.66	46.105
675.98	46.843
676.31	48.109
676.63	46.072
676.95	46.960
677.28	45.794
677.60	42.198
677.92	46.835
678.25	45.175
678.57	43.625
678.89	43.487
679.22	43.026
679.54	40.840
679.86	42.936
680.18	42.218
680.51	43.972
680.83	41.103
681.15	44.717
681.48	44.234
681.80	40.426
682.12	42.337
682.44	42.360
682.77	43.381
683.09	48.283
683.41	47.672
683.73	45.475
684.06	43.182
684.38	45.205
684.70	42.829
685.02	42.026
685.34	41.941
685.67	40.559
685.99	39.347
686.31	40.273
686.63	40.283
686.96	39.107
687.28	39.350
687.60	40.942
687.92	41.133
688.24	40.494
688.56	43.775
688.89	42.946
689.21	46.288
689.53	43.006
689.85	45.455
690.17	42.236
690.49	44.161
690.82	46.729
691.14	41.964
691.46	40.295
691.78	44.177
692.10	45.868
692.42	42.315
692.74	42.739
693.06	45.532
693.39	44.353
693.71	44.105
694.03	44.842
694.35	43.723
694.67	42.105
694.99	45.366
695.31	46.814
695.63	44.019
695.95	48.166
696.27	45.431
696.59	47.927
696.91	47.409
697.23	40.141
697.56	44.563
697.88	38.650
698.20	43.125
698.52	43.441
698.84	44.098
699.16	44.931
699.48	42.993
699.80	41.787
700.12	49.610
700.44	47.745
700.76	47.514
701.08	46.552
701.40	47.486
701.72	48.397
702.04	54.830
702.36	45.326
702.68	49.858
703.00	46.814
703.32	44.149
703.64	45.576
703.96	44.290
704.28	47.093
704.60	49.853
704.91	45.697
705.23	51.613
705.55	50.166
705.87	52.492
706.19	49.470
706.51	46.417
706.83	50.000
707.15	49.580
707.47	46.717
707.79	45.209
708.11	43.151
708.43	43.095
708.74	43.622
709.06	45.195
709.38	43.832
709.70	46.802
710.02	47.181
710.34	48.485
710.66	47.164
710.98	47.159
711.29	50.581
711.61	47.493
711.93	48.077
712.25	50.482
712.57	53.309
712.89	55.017
713.20	47.416
713.52	49.671
713.84	49.684
714.16	45.122
714.48	44.828
714.80	49.544
715.11	44.380
715.43	44.510
715.75	47.536
716.07	49.840
716.39	50.470
716.70	51.495
717.02	50.360
717.34	46.290
717.66	51.493
717.97	53.785
718.29	49.630
718.61	52.555
718.93	48.162
719.24	50.173
719.56	48.814
719.88	49.831
720.20	50.676
720.51	50.871
720.83	50.186
721.15	50.746
721.46	45.745
721.78	45.520
722.10	50.189
722.42	54.135
722.73	50.936
723.05	52.459
723.37	50.202
723.68	52.896
724.00	50.407
724.32	50.403
724.63	51.626
724.95	52.301
725.27	52.227
725.58	49.609
725.90	48.540
726.22	51.321
726.53	51.736
726.85	44.369
727.16	50.534
727.48	47.872
727.80	48.106
728.11	49.275
728.43	46.154
728.74	45.520
729.06	54.745
729.38	53.676
729.69	49.110
730.01	46.758
730.32	50.000
730.64	51.171
730.96	44.884
731.27	47.682
731.59	47.401
731.90	46.939
732.22	46.273
732.53	41.796
732.85	45.192
733.16	47.267
733.48	46.844
733.80	44.156
734.11	44.586
734.43	44.970
734.74	42.286
735.06	42.980
735.37	43.064
735.69	43.631
736.00	51.961
736.32	46.417
736.63	45.048
736.95	45.687
737.26	39.796
737.58	45.161
737.89	44.147
738.21	48.123
738.52	43.929
738.83	47.170
739.15	46.538
739.46	47.810
739.78	51.042
740.09	43.692
740.41	47.419
740.72	41.812
741.04	46.667
741.35	51.250
741.66	61.333
741.98	50.943
742.29	57.416
742.61	52.155
742.92	47.511
743.23	52.991
743.55	51.600
743.86	53.947
744.18	56.637
744.49	53.110
744.80	56.808
745.12	52.727
745.43	55.066
745.74	55.856
746.06	49.541
746.37	54.260
746.68	45.249
747.00	56.481
747.31	54.286
747.62	49.558
747.94	51.982
748.25	48.936
748.56	55.507
748.88	56.436
749.19	62.000
749.50	49.767
749.82	50.407
750.13	51.837
750.44	44.891
750.75	49.123
751.07	46.624
751.38	49.477
751.69	49.458
752.01	47.368
752.32	44.765
752.63	48.582
752.94	50.000
753.26	52.000
753.57	46.341
753.88	50.391
754.19	47.500
754.51	48.264
754.82	41.155
755.13	50.566
755.44	49.248
755.75	43.796
756.07	47.872
756.38	43.431
756.69	44.631
757.00	44.910
757.31	43.323
757.63	39.766
757.94	39.678
758.25	39.216
758.56	40.247
758.87	41.667
759.18	43.030
759.50	41.379
759.81	42.679
760.12	41.250
760.43	42.980
760.74	39.674
761.05	43.503
761.36	38.503
761.67	42.614
761.99	43.168
762.30	45.139
762.61	47.328
762.92	43.750
763.23	47.899
763.54	49.200
763.85	43.750
764.16	50.000
764.47	47.529
764.78	43.816
765.10	42.089
765.41	41.003
765.72	45.808
766.03	42.320
766.34	42.667
766.65	50.213
766.96	54.701
767.27	55.330
767.58	57.292
767.89	58.421
768.20	65.517
768.51	51.777
768.82	53.211
769.13	46.748
769.44	46.559
769.75	48.927
770.06	46.789
770.37	52.489
770.68	54.167
770.99	47.111
771.30	47.541
771.61	52.915
771.92	45.902
772.23	50.420
772.54	52.821
772.85	54.450
773.16	56.383
773.47	51.087
773.78	56.345
774.09	50.000
774.39	61.404
774.70	62.346
775.01	69.565
775.32	71.242
775.63	67.105
775.94	63.309
776.25	71.654
776.56	70.149
776.87	72.131
777.18	71.094
777.48	75.573
777.79	61.364
778.10	65.926
778.41	76.786
778.72	58.394
779.03	57.047
779.34	62.416
779.65	54.730
779.95	62.577
780.26	70.588
780.57	76.552
780.88	76.563
781.19	62.406
781.50	66.216
781.80	62.264
782.11	55.932
782.42	57.595
782.73	58.282
783.04	67.568
783.34	67.606
783.65	72.603
783.96	75.373
784.27	55.245
784.57	56.835
784.88	60.185
785.19	84.127
785.50	79.245
785.81	77.612
786.11	74.590
786.42	68.992
786.73	78.761
787.04	81.132
787.34	69.643
787.65	77.000
787.96	84.685
788.26	72.727
788.57	72.034
788.88	79.339
789.19	66.667
789.49	78.788
789.80	70.229
790.11	80.952
790.41	82.178
790.72	86.747
791.03	72.826
791.33	83.721
791.64	74.227
791.95	85.149
792.25	90.000
792.56	97.403
792.87	114.103
793.17	100.000
793.48	89.655
793.79	85.057
794.09	85.227
794.40	78.992
794.70	69.853
795.01	56.296
795.32	63.309
795.62	69.291
795.93	64.655
796.23	77.876
796.54	90.588
796.85	91.892
797.15	108.451
797.46	112.121
797.76	98.795
798.07	82.278
798.37	107.692
798.68	89.394
798.99	91.549
799.29	98.701
799.60	81.818
799.90	106.849
800.21	107.463
800.51	113.793
800.82	122.807
801.12	103.279
801.43	115.152
801.73	104.054
802.04	123.810
802.34	85.185
802.65	107.812
802.95	118.644
803.26	115.625
803.56	78.571
803.87	112.308
804.17	101.471
804.48	135.185
804.78	100.000
805.09	91.176
805.39	123.077
805.70	110.714
806.00	113.115
806.30	101.515
806.61	91.463
806.91	94.937
807.22	85.526
807.52	100.000
807.83	112.676
808.13	115.625
808.43	111.667
808.74	94.737
809.04	102.899
809.35	116.418
809.65	89.474
809.95	125.806
810.26	118.644
810.56	114.286
810.86	122.727
811.17	147.619
811.47	111.667
811.77	135.185
812.08	110.909
812.38	124.000
812.69	177.778
812.99	136.364
813.29	163.265
813.59	126.190
813.90	136.735
814.20	130.909
814.50	100.000
814.81	114.706
815.11	124.490
815.41	111.475
815.72	180.952
816.02	125.455
816.32	164.286
816.62	155.000
816.93	163.415
817.23	161.905
817.53	150.000
817.84	200.000
818.14	145.652
818.44	144.444
818.74	197.059
819.04	170.000
819.35	182.857
819.65	208.824
819.95	225.000
820.25	275.000
820.56	151.282
820.86	143.182
821.16	181.395
821.46	143.590
821.76	152.000
822.07	208.571
822.37	155.000
822.67	196.970
822.97	131.373
823.27	217.857
823.57	189.189
823.88	185.000
824.18	210.000
824.48	176.190
824.78	244.000
825.08	200.000
825.38	172.973
825.69	160.976
825.99	258.333
826.29	196.552
826.59	165.789
826.89	157.895
827.19	205.882
827.49	219.355
827.79	172.727
828.09	156.818
828.39	123.404
828.70	148.980
829.00	144.444
829.30	180.645
829.60	170.000
829.90	313.333
830.20	214.286
830.50	260.870
830.80	204.348
831.10	223.333
831.40	206.667
831.70	208.696
832.00	253.846
832.30	225.926
832.60	412.500
832.90	220.000
833.20	457.143
833.50	212.903
833.80	186.207
834.10	240.625
834.40	250.000
834.70	316.667
835.00	347.619
835.30	191.429
835.60	384.615
835.90	241.379
836.20	335.714
836.50	227.586
836.80	240.000
837.10	150.000
837.40	276.190
837.70	317.647
838.00	222.222
838.30	233.333
838.60	342.857
838.90	265.385
839.19	320.000
839.49	507.143
839.79	310.000
840.09	270.000
840.39	300.000
840.69	291.304
840.99	355.556
841.29	520.000
841.59	383.333
841.88	362.500
842.18	220.690
842.48	276.190
842.78	233.333
843.08	208.696
843.38	193.750
843.68	933.333
843.97	211.538
844.27	189.655
844.57	361.905
844.87	368.750
845.17	229.630
845.47	1933.333
845.76	544.444
846.06	370.588
846.36	662.500
846.66	428.571
846.96	368.750
847.25	454.545
847.55	409.091
847.85	286.957
848.15	600.000
848.44	400.000
848.74	305.556
849.04	282.353
849.34	600.000
849.63	300.000
849.93	427.273
850.23	940.000
850.53	478.571
850.82	2600.000
851.12	-5300.000
851.42	5500.000
851.71	315.000
852.01	-1333.333
852.31	270.833
852.61	1800.000
852.90	309.524
853.20	252.000
853.50	323.529
853.79	252.381
854.09	225.000
854.39	393.750
854.68	172.973
854.98	216.129
855.28	166.667
855.57	255.172
855.87	225.926
856.17	205.263
856.46	346.667
856.76	300.000
857.05	234.483
857.35	237.500
857.65	386.667
857.94	317.391
858.24	276.923
858.53	255.000
858.83	286.364
859.13	393.333
859.42	0.000
859.72	677.778
860.01	518.182
860.31	240.909
860.60	342.105
860.90	260.870
861.20	566.667
861.49	516.667
861.79	-5400.000
862.08	712.500
862.38	261.905
862.67	346.154
862.97	441.176
863.26	600.000
863.56	327.778
863.85	391.667
864.15	637.500
864.44	440.000
864.74	850.000
865.03	837.500
865.33	326.316
865.62	445.455
865.92	446.154
866.21	475.000
866.51	0.000
866.80	463.636
867.10	1180.000
867.39	530.769
867.69	445.455
867.98	310.526
868.27	509.091
868.57	326.316
868.86	-4700.000
869.16	431.250
869.45	2650.000
869.75	-4300.000
870.04	433.333
870.33	714.286
870.63	1225.000
870.92	2650.000
871.22	800.000
871.51	329.412
871.80	228.571
872.10	414.286
>>>>>End Processed Spectral Data<<<<<
