SpectraSuite Data File
++++++++++++++++++++++++++++++++++++
Date: Wed May 13 19:37:23 PDT 2015
User: schluterlab
Dark Spectrum Present: Yes
Reference Spectrum Present: Yes
Number of Sampled Component Spectra: 1
Spectrometers: USB2E3373
Integration Time (usec): 3000 (USB2E3373)
Spectra Averaged: 3 (USB2E3373)
Boxcar Smoothing: 0 (USB2E3373)
Correct for Electrical Dark: No (USB2E3373)
Strobe/Lamp Enabled: No (USB2E3373)
Correct for Detector Non-linearity: No (USB2E3373)
Correct for Stray Light: No (USB2E3373)
Number of Pixels in Processed Spectrum: 2048
>>>>>Begin Processed Spectral Data<<<<<
178.53	0.000
178.91	-1450.000
179.29	-1450.000
179.67	-244.444
180.04	-1350.000
180.42	2600.000
180.80	1180.000
181.18	-1025.000
181.56	742.857
181.94	0.000
182.31	-671.429
182.69	2000.000
183.07	-712.500
183.45	-577.778
183.83	636.364
184.20	-480.000
184.58	2750.000
184.96	6100.000
185.34	-900.000
185.72	-662.500
186.09	-2550.000
186.47	3200.000
186.85	2350.000
187.23	4800.000
187.61	-1966.667
187.98	1125.000
188.36	536.364
188.74	600.000
189.12	-960.000
189.49	730.000
189.87	-5100.000
190.25	-1300.000
190.63	414.286
191.00	484.615
191.38	933.333
191.76	-1275.000
192.14	1600.000
192.51	762.500
192.89	900.000
193.27	675.000
193.65	-1425.000
194.02	600.000
194.40	1280.000
194.78	530.000
195.15	533.333
195.53	670.000
195.91	-2800.000
196.29	312.500
196.66	326.316
197.04	-400.000
197.42	0.000
197.79	610.000
198.17	-4700.000
198.55	700.000
198.92	825.000
199.30	1040.000
199.68	0.000
200.05	372.222
200.43	857.143
200.81	5500.000
201.18	1633.333
201.56	-1500.000
201.94	511.111
202.31	688.889
202.69	441.667
203.07	520.000
203.44	0.000
203.82	1575.000
204.19	914.286
204.57	464.286
204.95	800.000
205.32	1600.000
205.70	545.455
206.08	407.143
206.45	2850.000
206.83	387.500
207.20	1050.000
207.58	860.000
207.96	383.333
208.33	712.500
208.71	-916.667
209.08	857.143
209.46	611.111
209.84	490.909
210.21	-1433.333
210.59	1650.000
210.96	-600.000
211.34	3100.000
211.71	590.000
212.09	850.000
212.46	0.000
212.84	1900.000
213.22	1400.000
213.59	-4800.000
213.97	950.000
214.34	971.429
214.72	581.818
215.09	1280.000
215.47	-2500.000
215.84	-2900.000
216.22	1733.333
216.59	407.143
216.97	1600.000
217.34	463.636
217.72	-716.667
218.09	0.000
218.47	-5200.000
218.84	733.333
219.22	785.714
219.59	1800.000
219.97	-714.286
220.34	1020.000
220.72	-1866.667
221.09	450.000
221.47	1375.000
221.84	-983.333
222.22	0.000
222.59	1475.000
222.97	-2900.000
223.34	1220.000
223.72	469.231
224.09	1220.000
224.46	2450.000
224.84	-5400.000
225.21	-1040.000
225.59	-5400.000
225.96	680.000
226.34	345.000
226.71	3300.000
227.08	712.500
227.46	630.000
227.83	-1300.000
228.21	-2250.000
228.58	644.444
228.95	-2400.000
229.33	-2550.000
229.70	1900.000
230.08	957.143
230.45	-1040.000
230.82	433.333
231.20	1050.000
231.57	771.429
231.95	458.333
232.32	245.455
232.69	481.818
233.07	657.143
233.44	453.846
233.81	-1733.333
234.19	305.263
234.56	491.667
234.93	458.333
235.31	463.636
235.68	384.615
236.05	400.000
236.43	203.030
236.80	331.579
237.17	5100.000
237.55	285.714
237.92	217.857
238.29	261.905
238.67	167.742
239.04	206.897
239.41	169.444
239.79	139.130
240.16	157.143
240.53	161.364
240.91	113.725
241.28	146.000
241.65	120.000
242.02	101.449
242.40	93.548
242.77	90.000
243.14	73.118
243.51	82.022
243.89	81.176
244.26	72.222
244.63	64.516
245.00	67.021
245.38	70.297
245.75	65.421
246.12	52.294
246.49	58.394
246.87	67.200
247.24	56.154
247.61	55.000
247.98	52.941
248.36	46.622
248.73	47.771
249.10	48.408
249.47	44.068
249.84	48.663
250.22	32.620
250.59	44.379
250.96	48.485
251.33	45.498
251.70	45.545
252.08	41.429
252.45	36.323
252.82	40.000
253.19	36.596
253.56	34.510
253.94	36.515
254.31	41.016
254.68	41.538
255.05	33.210
255.42	36.179
255.79	31.618
256.16	33.935
256.54	31.802
256.91	32.028
257.28	29.496
257.65	31.353
258.02	31.056
258.39	32.177
258.76	32.107
259.14	31.548
259.51	31.611
259.88	31.056
260.25	32.628
260.62	29.769
260.99	29.503
261.36	33.934
261.73	28.367
262.10	26.163
262.47	29.296
262.85	30.084
263.22	27.350
263.59	29.630
263.96	29.396
264.33	28.982
264.70	28.421
265.07	28.389
265.44	29.040
265.81	23.114
266.18	28.894
266.55	24.146
266.92	28.993
267.29	27.083
267.66	27.982
268.03	27.273
268.40	26.402
268.77	22.673
269.14	23.649
269.51	27.314
269.88	27.506
270.25	25.734
270.62	25.618
270.99	27.097
271.36	25.322
271.73	24.299
272.10	24.130
272.47	26.022
272.84	24.892
273.21	26.625
273.58	23.362
273.95	24.319
274.32	23.760
274.69	26.124
275.06	24.016
275.43	27.021
275.80	24.048
276.17	24.440
276.54	24.948
276.91	23.320
277.28	22.070
277.65	24.565
278.02	24.017
278.39	24.023
278.76	22.545
279.13	23.396
279.50	24.767
279.87	23.108
280.23	23.154
280.60	23.211
280.97	20.333
281.34	23.186
281.71	24.727
282.08	21.305
282.45	22.909
282.82	23.801
283.19	21.212
283.56	21.228
283.92	23.858
284.29	24.162
284.66	19.964
285.03	21.700
285.40	22.359
285.77	21.549
286.14	21.071
286.51	21.833
286.87	20.171
287.24	24.104
287.61	20.546
287.98	20.942
288.35	22.187
288.72	20.405
289.08	20.814
289.45	20.923
289.82	20.000
290.19	18.210
290.56	19.296
290.93	19.940
291.29	19.785
291.66	16.814
292.03	20.930
292.40	18.943
292.77	17.012
293.13	20.000
293.50	18.513
293.87	19.111
294.24	17.630
294.60	16.739
294.97	17.878
295.34	18.477
295.71	17.187
296.08	16.809
296.44	18.432
296.81	17.834
297.18	20.325
297.55	15.567
297.91	16.095
298.28	19.545
298.65	17.885
299.02	18.445
299.38	16.999
299.75	15.768
300.12	15.964
300.48	16.125
300.85	16.153
301.22	17.070
301.59	16.035
301.95	17.632
302.32	14.377
302.69	16.129
303.05	15.515
303.42	15.062
303.79	15.515
304.15	14.802
304.52	16.338
304.89	14.866
305.25	15.429
305.62	15.968
305.99	16.883
306.35	15.884
306.72	15.807
307.09	14.872
307.45	16.667
307.82	14.732
308.19	16.115
308.55	17.260
308.92	16.112
309.29	14.889
309.65	15.483
310.02	15.539
310.38	14.731
310.75	14.889
311.12	15.558
311.48	16.719
311.85	15.514
312.22	14.984
312.58	16.112
312.95	15.100
313.31	13.981
313.68	16.944
314.05	17.258
314.41	16.985
314.78	16.012
315.14	15.690
315.51	17.508
315.87	15.644
316.24	18.769
316.61	17.057
316.97	16.341
317.34	16.536
317.70	17.878
318.07	17.421
318.43	17.710
318.80	18.650
319.16	19.397
319.53	19.137
319.89	20.667
320.26	21.300
320.62	21.825
320.99	22.323
321.35	22.222
321.72	21.766
322.08	23.297
322.45	24.577
322.81	24.225
323.18	25.048
323.54	25.232
323.91	25.283
324.27	25.717
324.64	26.561
325.00	26.961
325.37	29.208
325.73	29.443
326.10	29.391
326.46	29.839
326.83	30.026
327.19	31.341
327.56	30.314
327.92	31.671
328.29	34.161
328.65	34.622
329.01	34.567
329.38	34.690
329.74	35.826
330.11	35.721
330.47	35.721
330.84	36.029
331.20	35.519
331.56	36.881
331.93	38.148
332.29	36.912
332.66	38.230
333.02	38.391
333.38	38.482
333.75	38.057
334.11	38.879
334.48	39.485
334.84	38.327
335.20	39.182
335.57	39.347
335.93	38.839
336.29	41.026
336.66	40.036
337.02	39.819
337.38	41.667
337.75	39.037
338.11	39.928
338.47	40.884
338.84	40.972
339.20	39.908
339.56	42.062
339.93	41.455
340.29	39.764
340.65	40.998
341.02	41.274
341.38	40.658
341.74	40.526
342.11	41.397
342.47	40.881
342.83	40.497
343.20	40.952
343.56	40.354
343.92	41.316
344.28	40.816
344.65	42.218
345.01	39.731
345.37	39.537
345.73	41.540
346.10	40.665
346.46	40.424
346.82	39.621
347.19	41.270
347.55	40.230
347.91	41.262
348.27	41.742
348.63	40.719
349.00	39.806
349.36	40.722
349.72	40.337
350.08	39.060
350.45	39.382
350.81	40.861
351.17	41.005
351.53	41.360
351.89	39.769
352.26	41.436
352.62	40.497
352.98	39.708
353.34	40.674
353.70	39.198
354.07	40.726
354.43	38.889
354.79	38.858
355.15	38.388
355.51	41.007
355.87	40.653
356.24	39.821
356.60	39.374
356.96	39.662
357.32	39.902
357.68	40.630
358.04	39.984
358.40	39.588
358.77	39.828
359.13	38.122
359.49	38.745
359.85	39.048
360.21	38.357
360.57	38.988
360.93	41.077
361.29	39.380
361.66	38.932
362.02	39.776
362.38	39.848
362.74	38.616
363.10	38.342
363.46	37.271
363.82	39.078
364.18	38.987
364.54	38.856
364.90	38.527
365.26	39.338
365.62	39.591
365.98	38.568
366.35	36.963
366.71	39.624
367.07	38.893
367.43	39.187
367.79	39.186
368.15	38.434
368.51	38.299
368.87	38.615
369.23	38.552
369.59	38.378
369.95	38.309
370.31	38.034
370.67	37.464
371.03	38.876
371.39	38.557
371.75	38.162
372.11	38.122
372.47	38.123
372.83	39.121
373.19	37.283
373.55	38.137
373.91	39.249
374.27	36.838
374.63	37.091
374.99	38.277
375.35	36.985
375.71	37.423
376.07	37.997
376.42	36.795
376.78	38.105
377.14	37.517
377.50	37.748
377.86	36.902
378.22	37.042
378.58	35.777
378.94	37.398
379.30	37.277
379.66	37.246
380.02	38.022
380.38	36.430
380.74	37.395
381.09	37.897
381.45	36.509
381.81	37.838
382.17	37.197
382.53	38.113
382.89	37.593
383.25	36.398
383.61	38.042
383.97	36.585
384.32	36.307
384.68	35.688
385.04	36.939
385.40	35.604
385.76	36.609
386.12	35.622
386.48	37.004
386.83	36.883
387.19	35.683
387.55	35.807
387.91	34.825
388.27	35.990
388.62	35.403
388.98	35.074
389.34	36.108
389.70	36.235
390.06	35.868
390.42	35.279
390.77	36.260
391.13	36.248
391.49	36.675
391.85	35.837
392.20	35.205
392.56	35.732
392.92	36.139
393.28	34.201
393.64	34.472
393.99	35.675
394.35	35.670
394.71	34.442
395.07	33.645
395.42	35.414
395.78	34.415
396.14	33.892
396.50	34.837
396.85	34.647
397.21	32.922
397.57	34.408
397.92	34.555
398.28	33.184
398.64	33.751
399.00	33.968
399.35	32.713
399.71	34.317
400.07	33.412
400.42	34.294
400.78	34.017
401.14	32.500
401.49	34.507
401.85	32.668
402.21	32.874
402.57	33.004
402.92	34.048
403.28	33.042
403.63	32.054
403.99	33.631
404.35	32.848
404.70	32.734
405.06	32.149
405.42	33.063
405.77	31.429
406.13	32.393
406.49	32.052
406.84	32.191
407.20	31.915
407.55	33.184
407.91	32.333
408.27	31.461
408.62	31.066
408.98	31.066
409.34	31.857
409.69	32.129
410.05	31.103
410.40	31.927
410.76	30.944
411.11	31.665
411.47	32.013
411.83	32.010
412.18	31.293
412.54	31.756
412.89	30.663
413.25	30.815
413.60	31.439
413.96	29.812
414.31	30.316
414.67	32.003
415.03	30.993
415.38	31.121
415.74	31.383
416.09	30.568
416.45	30.857
416.80	30.668
417.16	31.032
417.51	31.254
417.87	29.351
418.22	30.158
418.58	30.536
418.93	31.265
419.29	30.108
419.64	30.479
420.00	29.756
420.35	31.072
420.71	31.022
421.06	30.430
421.42	30.351
421.77	29.821
422.12	29.646
422.48	28.710
422.83	29.586
423.19	29.613
423.54	29.890
423.90	29.739
424.25	29.983
424.61	30.179
424.96	30.496
425.31	29.457
425.67	28.539
426.02	29.943
426.38	28.999
426.73	29.315
427.09	29.544
427.44	30.420
427.79	29.672
428.15	30.714
428.50	29.374
428.85	30.095
429.21	29.376
429.56	28.979
429.92	28.888
430.27	29.047
430.62	28.776
430.98	29.009
431.33	27.938
431.68	28.848
432.04	28.701
432.39	29.012
432.74	29.683
433.10	29.428
433.45	29.854
433.80	29.213
434.16	28.739
434.51	28.737
434.86	28.563
435.22	29.628
435.57	29.848
435.92	29.783
436.28	29.004
436.63	29.305
436.98	29.078
437.34	29.517
437.69	29.405
438.04	28.780
438.39	29.313
438.75	28.414
439.10	29.218
439.45	28.808
439.81	29.547
440.16	28.967
440.51	29.408
440.86	29.241
441.22	28.643
441.57	28.822
441.92	28.506
442.27	28.741
442.63	28.278
442.98	29.296
443.33	28.913
443.68	28.498
444.03	28.843
444.39	27.702
444.74	28.517
445.09	28.086
445.44	27.829
445.79	27.907
446.15	28.428
446.50	27.787
446.85	28.983
447.20	28.353
447.55	29.034
447.91	28.185
448.26	28.436
448.61	27.699
448.96	29.014
449.31	28.178
449.66	28.925
450.02	27.577
450.37	27.324
450.72	28.370
451.07	26.996
451.42	27.720
451.77	28.479
452.12	27.771
452.47	28.296
452.83	28.322
453.18	27.567
453.53	28.077
453.88	27.998
454.23	27.496
454.58	27.680
454.93	29.243
455.28	27.681
455.63	27.670
455.98	28.155
456.34	27.889
456.69	28.428
457.04	27.245
457.39	27.352
457.74	26.930
458.09	27.257
458.44	27.366
458.79	27.061
459.14	27.088
459.49	26.912
459.84	27.091
460.19	26.871
460.54	26.447
460.89	27.921
461.24	27.322
461.59	28.065
461.94	27.127
462.29	26.409
462.64	26.548
462.99	26.415
463.34	27.667
463.69	26.767
464.04	27.246
464.39	27.420
464.74	26.857
465.09	26.055
465.44	26.593
465.79	26.007
466.14	26.108
466.49	25.417
466.84	26.386
467.19	25.769
467.54	26.438
467.89	25.570
468.24	26.003
468.59	26.740
468.94	25.840
469.29	26.864
469.64	26.908
469.99	26.116
470.34	25.495
470.68	27.083
471.03	26.531
471.38	26.963
471.73	26.449
472.08	27.171
472.43	26.193
472.78	26.136
473.13	26.380
473.48	25.780
473.83	25.854
474.17	25.140
474.52	26.675
474.87	26.853
475.22	25.421
475.57	25.148
475.92	25.226
476.27	25.592
476.61	25.207
476.96	24.409
477.31	25.170
477.66	25.164
478.01	25.144
478.36	25.172
478.70	25.493
479.05	25.453
479.40	25.077
479.75	25.165
480.10	25.050
480.45	24.369
480.79	24.224
481.14	24.511
481.49	24.442
481.84	23.960
482.19	24.080
482.53	24.037
482.88	24.337
483.23	24.766
483.58	24.704
483.92	24.274
484.27	22.571
484.62	23.578
484.97	23.374
485.31	23.048
485.66	21.829
486.01	20.726
486.36	20.674
486.70	20.480
487.05	20.591
487.40	22.012
487.75	21.933
488.09	22.839
488.44	22.882
488.79	23.074
489.13	23.300
489.48	23.573
489.83	23.090
490.17	23.498
490.52	23.605
490.87	23.202
491.22	23.420
491.56	23.007
491.91	24.477
492.26	23.059
492.60	23.825
492.95	22.732
493.30	23.551
493.64	23.052
493.99	22.331
494.34	23.682
494.68	23.901
495.03	23.778
495.37	23.685
495.72	23.879
496.07	23.248
496.41	22.168
496.76	22.867
497.11	23.323
497.45	22.357
497.80	22.985
498.14	23.188
498.49	22.976
498.84	22.819
499.18	23.619
499.53	23.219
499.87	22.321
500.22	22.138
500.56	23.641
500.91	22.404
501.26	22.380
501.60	23.968
501.95	22.319
502.29	22.915
502.64	22.579
502.98	22.394
503.33	22.075
503.67	22.042
504.02	22.732
504.36	22.508
504.71	22.228
505.06	22.554
505.40	22.606
505.75	22.420
506.09	22.206
506.44	23.039
506.78	22.991
507.13	23.069
507.47	23.434
507.82	23.354
508.16	22.239
508.51	22.273
508.85	22.443
509.19	22.602
509.54	22.296
509.88	22.926
510.23	22.776
510.57	23.942
510.92	22.320
511.26	22.610
511.61	23.340
511.95	22.286
512.30	22.959
512.64	22.622
512.98	23.151
513.33	22.430
513.67	22.625
514.02	22.944
514.36	22.884
514.70	22.634
515.05	23.034
515.39	23.219
515.74	23.029
516.08	22.974
516.42	23.196
516.77	23.077
517.11	22.087
517.46	22.404
517.80	23.751
518.14	22.235
518.49	23.046
518.83	22.841
519.17	22.633
519.52	22.241
519.86	22.533
520.20	23.410
520.55	23.220
520.89	23.114
521.23	23.040
521.58	22.929
521.92	23.882
522.26	22.758
522.61	22.305
522.95	22.959
523.29	22.702
523.64	23.902
523.98	23.044
524.32	22.437
524.66	23.391
525.01	22.181
525.35	22.553
525.69	22.414
526.04	22.368
526.38	21.843
526.72	22.393
527.06	22.913
527.41	22.153
527.75	23.151
528.09	23.635
528.43	23.773
528.78	23.479
529.12	22.606
529.46	22.719
529.80	22.587
530.15	23.053
530.49	22.031
530.83	22.405
531.17	23.629
531.51	23.346
531.86	23.355
532.20	23.598
532.54	22.806
532.88	22.080
533.22	21.736
533.57	22.593
533.91	21.252
534.25	22.357
534.59	22.392
534.93	22.487
535.27	21.967
535.62	21.490
535.96	22.411
536.30	21.297
536.64	22.988
536.98	22.561
537.32	21.593
537.66	22.800
538.01	21.988
538.35	22.431
538.69	22.974
539.03	21.248
539.37	21.406
539.71	20.220
540.05	22.876
540.39	21.196
540.73	21.539
541.07	21.934
541.42	23.418
541.76	22.645
542.10	22.380
542.44	21.391
542.78	23.781
543.12	21.113
543.46	22.098
543.80	22.316
544.14	21.630
544.48	22.286
544.82	21.424
545.16	21.731
545.50	22.172
545.84	23.387
546.18	22.559
546.52	22.505
546.86	22.131
547.20	22.859
547.54	21.376
547.88	22.194
548.22	21.606
548.56	21.950
548.90	21.511
549.24	21.077
549.58	22.578
549.92	21.841
550.26	22.585
550.60	21.438
550.94	21.901
551.28	21.653
551.62	21.711
551.96	22.035
552.30	22.116
552.64	20.960
552.98	21.898
553.32	22.522
553.66	22.018
554.00	22.306
554.34	22.153
554.68	22.318
555.02	21.932
555.36	21.781
555.69	21.922
556.03	20.794
556.37	21.555
556.71	21.146
557.05	21.218
557.39	23.163
557.73	21.948
558.07	22.263
558.41	21.563
558.75	21.308
559.08	22.968
559.42	21.693
559.76	22.059
560.10	21.056
560.44	21.174
560.78	21.756
561.12	21.504
561.45	20.991
561.79	21.819
562.13	21.261
562.47	21.995
562.81	21.897
563.15	20.936
563.48	21.883
563.82	22.179
564.16	20.733
564.50	20.508
564.84	20.796
565.17	20.077
565.51	20.895
565.85	20.876
566.19	20.601
566.52	20.963
566.86	20.615
567.20	21.226
567.54	20.776
567.88	20.152
568.21	20.000
568.55	19.464
568.89	18.872
569.23	19.430
569.56	18.745
569.90	18.302
570.24	17.976
570.57	17.545
570.91	17.776
571.25	17.634
571.59	17.378
571.92	17.195
572.26	17.707
572.60	17.477
572.93	17.631
573.27	17.480
573.61	17.337
573.95	16.822
574.28	17.286
574.62	16.424
574.96	17.109
575.29	16.731
575.63	16.921
575.97	16.897
576.30	17.339
576.64	16.831
576.98	17.064
577.31	16.959
577.65	16.308
577.98	16.325
578.32	16.203
578.66	16.310
578.99	16.457
579.33	16.606
579.67	16.784
580.00	16.735
580.34	16.469
580.67	16.521
581.01	16.798
581.35	16.016
581.68	16.626
582.02	16.145
582.35	16.275
582.69	16.183
583.02	16.593
583.36	17.109
583.70	17.507
584.03	17.111
584.37	17.549
584.70	17.163
585.04	16.805
585.37	16.589
585.71	16.847
586.04	17.202
586.38	17.268
586.72	17.343
587.05	16.952
587.39	17.203
587.72	16.929
588.06	17.209
588.39	17.421
588.73	17.366
589.06	17.950
589.40	18.316
589.73	18.092
590.07	17.936
590.40	18.268
590.73	18.579
591.07	19.251
591.40	18.389
591.74	18.961
592.07	18.586
592.41	17.941
592.74	17.865
593.08	17.522
593.41	17.621
593.75	16.771
594.08	17.935
594.41	17.356
594.75	17.708
595.08	17.717
595.42	17.478
595.75	17.379
596.09	18.325
596.42	18.389
596.75	18.615
597.09	19.394
597.42	18.297
597.75	18.327
598.09	18.217
598.42	18.514
598.76	17.633
599.09	17.560
599.42	17.431
599.76	17.972
600.09	17.632
600.42	17.421
600.76	16.929
601.09	17.377
601.42	17.998
601.76	18.065
602.09	17.945
602.42	17.954
602.76	18.178
603.09	18.096
603.42	18.196
603.76	17.569
604.09	17.953
604.42	18.100
604.76	18.389
605.09	19.091
605.42	17.529
605.75	17.508
606.09	17.975
606.42	17.695
606.75	18.291
607.09	18.250
607.42	17.715
607.75	17.468
608.08	17.977
608.42	17.795
608.75	18.440
609.08	18.363
609.41	18.801
609.75	18.771
610.08	19.227
610.41	18.063
610.74	18.212
611.07	18.281
611.41	19.185
611.74	19.608
612.07	19.720
612.40	19.203
612.73	19.053
613.07	19.343
613.40	18.799
613.73	18.039
614.06	18.871
614.39	19.140
614.72	19.211
615.06	19.485
615.39	18.684
615.72	18.098
616.05	18.607
616.38	18.899
616.71	19.418
617.05	19.435
617.38	19.182
617.71	19.520
618.04	20.312
618.37	18.451
618.70	20.286
619.03	20.395
619.36	20.095
619.69	20.775
620.03	20.810
620.36	21.123
620.69	20.959
621.02	20.796
621.35	20.047
621.68	20.016
622.01	21.672
622.34	20.651
622.67	20.304
623.00	20.029
623.33	19.657
623.66	20.157
623.99	20.177
624.32	20.185
624.65	19.986
624.99	20.467
625.32	20.710
625.65	20.661
625.98	20.369
626.31	21.151
626.64	21.796
626.97	21.862
627.30	21.114
627.63	21.411
627.96	22.204
628.29	22.047
628.62	21.317
628.95	23.208
629.28	22.719
629.61	22.181
629.94	21.429
630.26	22.021
630.59	22.307
630.92	21.839
631.25	22.211
631.58	21.221
631.91	21.907
632.24	23.207
632.57	23.505
632.90	23.026
633.23	23.714
633.56	24.746
633.89	23.669
634.22	23.042
634.55	24.260
634.88	21.677
635.20	24.134
635.53	23.494
635.86	25.124
636.19	22.471
636.52	22.145
636.85	23.940
637.18	22.581
637.51	23.168
637.83	22.441
638.16	23.785
638.49	24.937
638.82	25.158
639.15	23.750
639.48	25.187
639.81	23.861
640.13	24.349
640.46	24.295
640.79	24.835
641.12	23.521
641.45	24.162
641.77	26.362
642.10	25.000
642.43	25.075
642.76	24.613
643.09	26.840
643.41	24.279
643.74	28.241
644.07	25.762
644.40	26.227
644.73	26.614
645.05	27.100
645.38	25.434
645.71	25.926
646.04	26.578
646.36	27.045
646.69	27.926
647.02	26.190
647.35	28.522
647.67	26.903
648.00	27.967
648.33	24.917
648.66	25.000
648.98	26.387
649.31	24.066
649.64	25.411
649.96	25.931
650.29	25.750
650.62	25.243
650.94	26.094
651.27	28.716
651.60	26.456
651.92	24.441
652.25	24.756
652.58	24.455
652.90	26.698
653.23	23.267
653.56	26.142
653.88	25.990
654.21	27.488
654.54	25.413
654.86	26.791
655.19	22.432
655.52	15.182
655.84	11.734
656.17	14.826
656.49	20.484
656.82	21.295
657.15	16.342
657.47	12.492
657.80	9.670
658.13	10.573
658.45	15.881
658.78	16.319
659.10	17.045
659.43	18.652
659.75	20.366
660.08	22.785
660.41	24.115
660.73	25.921
661.06	28.185
661.38	27.273
661.71	28.462
662.03	29.980
662.36	27.237
662.68	27.510
663.01	27.273
663.33	30.786
663.66	28.571
663.98	30.454
664.31	27.731
664.63	29.352
664.96	26.761
665.28	26.434
665.61	25.926
665.93	30.181
666.26	24.949
666.58	26.360
666.91	29.387
667.23	31.461
667.56	29.158
667.88	27.991
668.21	29.638
668.53	27.332
668.86	26.840
669.18	31.130
669.50	30.217
669.83	31.373
670.15	28.667
670.48	27.451
670.80	29.526
671.13	28.450
671.45	27.234
671.77	28.513
672.10	28.096
672.42	25.088
672.75	25.041
673.07	24.824
673.39	24.593
673.72	24.805
674.04	27.255
674.37	26.019
674.69	26.789
675.01	29.289
675.34	29.158
675.66	30.737
675.98	29.124
676.31	28.571
676.63	28.450
676.95	27.463
677.28	27.570
677.60	28.791
677.92	31.435
678.25	26.694
678.57	26.693
678.89	26.653
679.22	27.112
679.54	27.672
679.86	26.239
680.18	23.614
680.51	24.823
680.83	25.623
681.15	26.792
681.48	28.922
681.80	26.886
682.12	27.395
682.44	26.112
682.77	27.088
683.09	28.755
683.41	29.712
683.73	26.932
684.06	28.306
684.38	26.810
684.70	27.713
685.02	27.205
685.34	26.190
685.67	25.175
685.99	23.368
686.31	22.526
686.63	23.675
686.96	24.464
687.28	25.993
687.60	26.087
687.92	27.239
688.24	26.806
688.56	25.703
688.89	28.423
689.21	29.694
689.53	28.184
689.85	27.273
690.17	28.364
690.49	30.361
690.82	29.907
691.14	26.562
691.46	26.793
691.78	25.301
692.10	30.579
692.42	27.545
692.74	26.971
693.06	26.170
693.39	27.310
693.71	26.201
694.03	26.105
694.35	26.190
694.67	29.748
694.99	26.585
695.31	27.941
695.63	27.273
695.95	28.362
696.27	24.112
696.59	29.534
696.91	29.534
697.23	26.526
697.56	27.932
697.88	22.904
698.20	24.167
698.52	27.097
698.84	27.840
699.16	26.959
699.48	27.316
699.80	28.986
700.12	34.286
700.44	31.565
700.76	32.320
701.08	33.621
701.40	31.844
701.72	36.443
702.04	35.227
702.36	30.595
702.68	30.878
703.00	31.302
703.32	29.521
703.64	30.295
703.96	31.198
704.28	29.070
704.60	33.431
704.91	34.718
705.23	32.551
705.55	37.209
705.87	37.874
706.19	32.862
706.51	33.956
706.83	34.545
707.15	31.653
707.47	29.293
707.79	28.501
708.11	27.626
708.43	29.048
708.74	30.357
709.06	30.649
709.38	29.396
709.70	29.651
710.02	31.157
710.34	30.000
710.66	29.254
710.98	32.386
711.29	30.523
711.61	32.743
711.93	33.333
712.25	33.762
712.57	32.353
712.89	35.986
713.20	29.787
713.52	37.171
713.84	31.962
714.16	31.402
714.48	33.046
714.80	33.131
715.11	29.395
715.43	32.641
715.75	28.696
716.07	31.629
716.39	31.975
716.70	31.229
717.02	37.050
717.34	35.689
717.66	38.806
717.97	37.849
718.29	35.926
718.61	35.766
718.93	36.765
719.24	31.488
719.56	33.220
719.88	35.254
720.20	36.824
720.51	32.753
720.83	34.944
721.15	30.970
721.46	34.397
721.78	36.918
722.10	36.604
722.42	39.098
722.73	33.333
723.05	35.246
723.37	35.223
723.68	37.452
724.00	34.553
724.32	35.887
724.63	33.333
724.95	32.636
725.27	41.296
725.58	38.281
725.90	36.861
726.22	35.094
726.53	31.597
726.85	34.471
727.16	33.096
727.48	34.752
727.80	34.848
728.11	31.884
728.43	36.154
728.74	32.258
729.06	39.781
729.38	37.132
729.69	34.875
730.01	32.765
730.32	34.375
730.64	33.779
730.96	30.033
731.27	31.126
731.59	30.887
731.90	31.195
732.22	30.124
732.53	30.031
732.85	29.487
733.16	29.904
733.48	33.887
733.80	32.792
734.11	33.439
734.43	31.065
734.74	27.143
735.06	30.372
735.37	31.214
735.69	29.936
736.00	32.680
736.32	36.137
736.63	25.559
736.95	30.990
737.26	31.973
737.58	30.645
737.89	32.776
738.21	32.423
738.52	32.857
738.83	30.943
739.15	33.462
739.46	35.036
739.78	36.806
740.09	31.077
740.41	35.806
740.72	32.056
741.04	35.926
741.35	35.417
741.66	37.778
741.98	35.377
742.29	40.191
742.61	39.655
742.92	38.462
743.23	39.744
743.55	39.600
743.86	34.211
744.18	41.150
744.49	34.928
744.80	36.150
745.12	45.909
745.43	42.291
745.74	39.189
746.06	38.991
746.37	44.395
746.68	42.081
747.00	39.815
747.31	40.000
747.62	36.283
747.94	37.885
748.25	38.723
748.56	43.612
748.88	37.624
749.19	42.500
749.50	43.721
749.82	38.618
750.13	35.102
750.44	31.022
750.75	32.632
751.07	35.370
751.38	32.753
751.69	34.296
752.01	31.203
752.32	33.574
752.63	33.333
752.94	40.164
753.26	39.600
753.57	38.211
753.88	36.328
754.19	33.929
754.51	36.458
754.82	36.101
755.13	39.245
755.44	31.955
755.75	35.036
756.07	29.078
756.38	29.562
756.69	32.215
757.00	26.647
757.31	26.706
757.63	29.240
757.94	26.810
758.25	26.471
758.56	26.914
758.87	28.495
759.18	29.697
759.50	29.781
759.81	30.530
760.12	28.438
760.43	30.086
760.74	28.533
761.05	28.249
761.36	27.807
761.67	28.977
761.99	30.124
762.30	30.556
762.61	32.443
762.92	35.937
763.23	34.454
763.54	40.800
763.85	33.984
764.16	38.846
764.47	34.221
764.78	30.035
765.10	27.215
765.41	31.268
765.72	27.844
766.03	29.154
766.34	31.667
766.65	37.447
766.96	38.462
767.27	42.132
767.58	44.792
767.89	46.316
768.20	43.103
768.51	37.563
768.82	38.991
769.13	29.675
769.44	31.984
769.75	39.056
770.06	31.193
770.37	41.176
770.68	38.426
770.99	38.222
771.30	34.016
771.61	40.807
771.92	34.016
772.23	39.496
772.54	39.487
772.85	46.073
773.16	43.085
773.47	45.652
773.78	45.178
774.09	50.595
774.39	47.368
774.70	48.765
775.01	55.797
775.32	48.366
775.63	50.000
775.94	51.799
776.25	58.268
776.56	58.209
776.87	52.459
777.18	60.938
777.48	60.305
777.79	56.061
778.10	62.963
778.41	56.250
778.72	43.066
779.03	46.309
779.34	51.678
779.65	41.892
779.95	45.399
780.26	54.248
780.57	50.345
780.88	61.719
781.19	55.639
781.50	55.405
781.80	47.799
782.11	45.763
782.42	47.468
782.73	45.399
783.04	47.973
783.34	51.408
783.65	62.329
783.96	51.493
784.27	55.245
784.57	50.360
784.88	46.296
785.19	61.111
785.50	54.717
785.81	57.463
786.11	68.852
786.42	61.240
786.73	58.407
787.04	58.491
787.34	62.500
787.65	70.000
787.96	63.964
788.26	49.587
788.57	64.407
788.88	71.074
789.19	54.861
789.49	59.848
789.80	57.252
790.11	79.048
790.41	64.356
790.72	73.494
791.03	68.478
791.33	76.744
791.64	77.320
791.95	64.356
792.25	68.889
792.56	66.234
792.87	105.128
793.17	87.342
793.48	83.908
793.79	59.770
794.09	73.864
794.40	59.664
794.70	63.971
795.01	43.704
795.32	56.115
795.62	52.756
795.93	65.517
796.23	65.487
796.54	76.471
796.85	85.135
797.15	92.958
797.46	115.152
797.76	77.108
798.07	86.076
798.37	83.077
798.68	78.788
798.99	87.324
799.29	83.117
799.60	88.636
799.90	97.260
800.21	101.493
800.51	101.724
800.82	98.246
801.12	100.000
801.43	96.970
801.73	83.784
802.04	87.302
802.34	82.716
802.65	95.312
802.95	120.339
803.26	117.188
803.56	81.429
803.87	87.692
804.17	105.882
804.48	142.593
804.78	103.448
805.09	95.588
805.39	103.846
805.70	112.500
806.00	104.918
806.30	86.364
806.61	91.463
806.91	77.215
807.22	77.632
807.52	82.090
807.83	74.648
808.13	95.312
808.43	103.333
808.74	69.737
809.04	89.855
809.35	100.000
809.65	92.105
809.95	116.129
810.26	103.390
810.56	111.111
810.86	131.818
811.17	147.619
811.47	113.333
811.77	114.815
812.08	110.909
812.38	120.000
812.69	186.111
812.99	161.364
813.29	118.367
813.59	104.762
813.90	138.776
814.20	107.273
814.50	89.231
814.81	94.118
815.11	102.041
815.41	111.475
815.72	135.714
816.02	132.727
816.32	157.143
816.62	142.500
816.93	139.024
817.23	150.000
817.53	125.000
817.84	169.697
818.14	128.261
818.44	135.556
818.74	179.412
819.04	135.000
819.35	174.286
819.65	182.353
819.95	189.286
820.25	250.000
820.56	174.359
820.86	127.273
821.16	141.860
821.46	100.000
821.76	156.000
822.07	177.143
822.37	162.500
822.67	175.758
822.97	119.608
823.27	196.429
823.57	175.676
823.88	162.500
824.18	226.667
824.48	150.000
824.78	200.000
825.08	250.000
825.38	172.973
825.69	158.537
825.99	237.500
826.29	168.966
826.59	173.684
826.89	144.737
827.19	185.294
827.49	216.129
827.79	154.545
828.09	150.000
828.39	114.894
828.70	146.939
829.00	188.889
829.30	177.419
829.60	125.000
829.90	326.667
830.20	217.857
830.50	239.130
830.80	230.435
831.10	186.667
831.40	213.333
831.70	208.696
832.00	257.692
832.30	203.704
832.60	362.500
832.90	200.000
833.20	428.571
833.50	190.323
833.80	227.586
834.10	212.500
834.40	215.385
834.70	305.556
835.00	309.524
835.30	168.571
835.60	415.385
835.90	217.241
836.20	364.286
836.50	179.310
836.80	224.000
837.10	188.889
837.40	271.429
837.70	311.765
838.00	229.630
838.30	266.667
838.60	280.952
838.90	238.462
839.19	290.000
839.49	400.000
839.79	310.000
840.09	305.000
840.39	271.429
840.69	278.261
840.99	327.778
841.29	490.000
841.59	308.333
841.88	337.500
842.18	162.069
842.48	271.429
842.78	216.667
843.08	252.174
843.38	206.250
843.68	883.333
843.97	230.769
844.27	193.103
844.57	323.810
844.87	412.500
845.17	207.407
845.47	1700.000
845.76	588.889
846.06	364.706
846.36	625.000
846.66	392.857
846.96	318.750
847.25	518.182
847.55	409.091
847.85	278.261
848.15	560.000
848.44	514.286
848.74	344.444
849.04	294.118
849.34	590.000
849.63	257.895
849.93	554.545
850.23	1100.000
850.53	421.429
850.82	2700.000
851.12	-4300.000
851.42	4800.000
851.71	280.000
852.01	-1266.667
852.31	275.000
852.61	1733.333
852.90	285.714
853.20	268.000
853.50	358.824
853.79	290.476
854.09	270.833
854.39	356.250
854.68	194.595
854.98	170.968
855.28	203.333
855.57	217.241
855.87	207.407
856.17	231.579
856.46	286.667
856.76	317.647
857.05	213.793
857.35	258.333
857.65	360.000
857.94	265.217
858.24	253.846
858.53	330.000
858.83	236.364
859.13	373.333
859.42	0.000
859.72	611.111
860.01	427.273
860.31	272.727
860.60	315.789
860.90	256.522
861.20	611.111
861.49	575.000
861.79	-5200.000
862.08	787.500
862.38	309.524
862.67	361.538
862.97	347.059
863.26	600.000
863.56	283.333
863.85	425.000
864.15	625.000
864.44	480.000
864.74	900.000
865.03	762.500
865.33	326.316
865.62	500.000
865.92	484.615
866.21	400.000
866.51	0.000
866.80	418.182
867.10	1140.000
867.39	361.538
867.69	445.455
867.98	326.316
868.27	518.182
868.57	321.053
868.86	-4400.000
869.16	393.750
869.45	2300.000
869.75	-3600.000
870.04	408.333
870.33	714.286
870.63	1250.000
870.92	2900.000
871.22	757.143
871.51	305.882
871.80	242.857
872.10	457.143
>>>>>End Processed Spectral Data<<<<<
