SpectraSuite Data File
++++++++++++++++++++++++++++++++++++
Date: Wed May 13 19:14:18 PDT 2015
User: schluterlab
Dark Spectrum Present: Yes
Reference Spectrum Present: Yes
Number of Sampled Component Spectra: 1
Spectrometers: USB2E3373
Integration Time (usec): 3000 (USB2E3373)
Spectra Averaged: 3 (USB2E3373)
Boxcar Smoothing: 0 (USB2E3373)
Correct for Electrical Dark: No (USB2E3373)
Strobe/Lamp Enabled: No (USB2E3373)
Correct for Detector Non-linearity: No (USB2E3373)
Correct for Stray Light: No (USB2E3373)
Number of Pixels in Processed Spectrum: 2048
>>>>>Begin Processed Spectral Data<<<<<
178.53	0.000
178.91	-1500.000
179.29	-1350.000
179.67	-250.000
180.04	-1300.000
180.42	3400.000
180.80	1220.000
181.18	-1275.000
181.56	800.000
181.94	0.000
182.31	-814.286
182.69	1800.000
183.07	-637.500
183.45	-611.111
183.83	627.273
184.20	-410.000
184.58	2550.000
184.96	6500.000
185.34	-1100.000
185.72	-700.000
186.09	-2300.000
186.47	3200.000
186.85	3100.000
187.23	4900.000
187.61	-2066.667
187.98	1550.000
188.36	545.455
188.74	627.273
189.12	-940.000
189.49	660.000
189.87	-5300.000
190.25	-1325.000
190.63	485.714
191.00	438.462
191.38	850.000
191.76	-1275.000
192.14	1825.000
192.51	812.500
192.89	833.333
193.27	637.500
193.65	-1100.000
194.02	560.000
194.40	1200.000
194.78	570.000
195.15	616.667
195.53	710.000
195.91	-2450.000
196.29	368.750
196.66	363.158
197.04	-480.000
197.42	0.000
197.79	660.000
198.17	-5100.000
198.55	728.571
198.92	725.000
199.30	840.000
199.68	0.000
200.05	377.778
200.43	814.286
200.81	4900.000
201.18	1733.333
201.56	-1533.333
201.94	677.778
202.31	700.000
202.69	525.000
203.07	660.000
203.44	0.000
203.82	1400.000
204.19	785.714
204.57	435.714
204.95	725.000
205.32	1933.333
205.70	663.636
206.08	500.000
206.45	2350.000
206.83	387.500
207.20	983.333
207.58	1020.000
207.96	405.556
208.33	800.000
208.71	-850.000
209.08	885.714
209.46	655.556
209.84	472.727
210.21	-1700.000
210.59	1600.000
210.96	-512.500
211.34	2950.000
211.71	710.000
212.09	833.333
212.46	0.000
212.84	2000.000
213.22	1550.000
213.59	-4100.000
213.97	950.000
214.34	842.857
214.72	700.000
215.09	1140.000
215.47	-2500.000
215.84	-2650.000
216.22	1800.000
216.59	478.571
216.97	1350.000
217.34	545.455
217.72	-783.333
218.09	0.000
218.47	-4800.000
218.84	677.778
219.22	900.000
219.59	2133.333
219.97	-742.857
220.34	1240.000
220.72	-2233.333
221.09	478.571
221.47	1600.000
221.84	-1016.667
222.22	0.000
222.59	1500.000
222.97	-3050.000
223.34	1260.000
223.72	446.154
224.09	1380.000
224.46	2600.000
224.84	-5400.000
225.21	-1080.000
225.59	-6000.000
225.96	630.000
226.34	340.000
226.71	3150.000
227.08	712.500
227.46	630.000
227.83	-1325.000
228.21	-2400.000
228.58	666.667
228.95	-2350.000
229.33	-2900.000
229.70	1733.333
230.08	900.000
230.45	-960.000
230.82	558.333
231.20	883.333
231.57	785.714
231.95	516.667
232.32	313.636
232.69	500.000
233.07	842.857
233.44	407.692
233.81	-2033.333
234.19	352.632
234.56	483.333
234.93	516.667
235.31	600.000
235.68	430.769
236.05	485.714
236.43	206.061
236.80	315.789
237.17	5800.000
237.55	319.048
237.92	271.429
238.29	314.286
238.67	235.484
239.04	248.276
239.41	180.556
239.79	176.087
240.16	197.619
240.53	181.818
240.91	137.255
241.28	160.000
241.65	138.000
242.02	118.841
242.40	135.484
242.77	140.000
243.14	110.753
243.51	110.112
243.89	120.000
244.26	111.111
244.63	98.925
245.00	101.064
245.38	111.881
245.75	92.523
246.12	100.000
246.49	94.161
246.87	96.800
247.24	87.692
247.61	93.571
247.98	86.928
248.36	82.432
248.73	84.076
249.10	84.076
249.47	76.836
249.84	73.262
250.22	67.914
250.59	78.698
250.96	78.283
251.33	76.303
251.70	78.218
252.08	75.238
252.45	71.300
252.82	69.130
253.19	72.766
253.56	67.059
253.94	71.784
254.31	67.578
254.68	71.538
255.05	66.052
255.42	69.919
255.79	73.162
256.16	63.538
256.54	69.258
256.91	68.683
257.28	63.309
257.65	65.017
258.02	61.801
258.39	63.091
258.76	66.221
259.14	61.607
259.51	59.574
259.88	55.901
260.25	65.257
260.62	61.561
260.99	62.733
261.36	60.360
261.73	64.470
262.10	62.500
262.47	63.662
262.85	64.903
263.22	59.544
263.59	62.963
263.96	61.264
264.33	58.747
264.70	58.421
265.07	60.614
265.44	58.586
265.81	57.178
266.18	60.050
266.55	57.805
266.92	62.899
267.29	60.185
267.66	59.174
268.03	56.364
268.40	55.374
268.77	57.279
269.14	57.207
269.51	58.691
269.88	60.839
270.25	55.079
270.62	56.404
270.99	55.699
271.36	56.223
271.73	58.411
272.10	58.261
272.47	59.570
272.84	57.143
273.21	54.717
273.58	55.459
273.95	54.507
274.32	54.132
274.69	57.173
275.06	55.709
275.43	57.872
275.80	54.509
276.17	55.601
276.54	56.965
276.91	53.162
277.28	55.273
277.65	54.159
278.02	57.143
278.39	53.711
278.76	53.455
279.13	53.962
279.50	55.493
279.87	55.578
280.23	55.090
280.60	55.319
280.97	54.344
281.34	53.097
281.71	52.727
282.08	56.430
282.45	52.364
282.82	51.332
283.19	51.515
283.56	51.053
283.92	53.976
284.29	54.321
284.66	49.728
285.03	50.452
285.40	52.289
285.77	52.694
286.14	51.295
286.51	52.000
286.87	51.966
287.24	51.792
287.61	49.599
287.98	48.539
288.35	49.762
288.72	48.910
289.08	47.574
289.45	48.929
289.82	47.317
290.19	47.567
290.56	45.482
290.93	45.166
291.29	46.319
291.66	45.133
292.03	47.529
292.40	45.521
292.77	44.970
293.13	44.478
293.50	46.210
293.87	45.630
294.24	44.000
294.60	42.067
294.97	43.169
295.34	43.441
295.71	43.892
296.08	41.595
296.44	41.128
296.81	41.612
297.18	40.921
297.55	40.237
297.91	40.633
298.28	41.499
298.65	40.078
299.02	40.448
299.38	40.637
299.75	39.084
300.12	40.230
300.48	39.000
300.85	40.444
301.22	38.726
301.59	38.384
301.95	39.547
302.32	39.538
302.69	38.590
303.05	37.212
303.42	38.642
303.79	37.712
304.15	37.529
304.52	38.007
304.89	37.050
305.25	37.819
305.62	39.071
305.99	38.725
306.35	37.136
306.72	37.892
307.09	37.181
307.45	38.176
307.82	35.714
308.19	35.210
308.55	36.677
308.92	37.057
309.29	36.114
309.65	34.677
310.02	34.989
310.38	36.667
310.75	36.642
311.12	36.233
311.48	37.095
311.85	36.688
312.22	37.669
312.58	34.719
312.95	37.698
313.31	35.728
313.68	37.526
314.05	37.377
314.41	37.085
314.78	37.160
315.14	37.239
315.51	37.487
315.87	37.426
316.24	36.346
316.61	36.257
316.97	37.182
317.34	37.769
317.70	39.101
318.07	38.114
318.43	38.552
318.80	39.456
319.16	39.077
319.53	38.649
319.89	40.095
320.26	41.200
320.62	40.377
320.99	40.101
321.35	42.727
321.72	42.300
322.08	41.856
322.45	44.478
322.81	41.957
323.18	43.064
323.54	42.672
323.91	43.396
324.27	42.925
324.64	44.734
325.00	44.094
325.37	45.041
325.73	44.973
326.10	45.278
326.46	45.609
326.83	48.576
327.19	46.114
327.56	48.345
327.92	47.332
328.29	48.181
328.65	48.435
329.01	48.466
329.38	49.214
329.74	50.046
330.11	50.330
330.47	49.403
330.84	49.173
331.20	50.911
331.56	48.991
331.93	48.333
332.29	50.311
332.66	49.735
333.02	48.812
333.38	50.587
333.75	51.159
334.11	51.068
334.48	50.399
334.84	51.654
335.20	52.636
335.57	51.587
335.93	50.357
336.29	50.916
336.66	52.299
337.02	49.412
337.38	52.778
337.75	52.139
338.11	50.671
338.47	51.750
338.84	51.512
339.20	50.826
339.56	52.920
339.93	51.727
340.29	52.627
340.65	51.337
341.02	52.792
341.38	53.648
341.74	51.404
342.11	52.751
342.47	53.480
342.83	51.284
343.20	54.113
343.56	52.317
343.92	50.965
344.28	53.401
344.65	53.310
345.01	51.684
345.37	52.144
345.73	53.638
346.10	53.367
346.46	53.390
346.82	52.883
347.19	52.548
347.55	52.627
347.91	53.155
348.27	54.725
348.63	53.428
349.00	52.589
349.36	53.530
349.72	51.965
350.08	52.026
350.45	53.214
350.81	53.371
351.17	53.485
351.53	54.627
351.89	54.455
352.26	53.197
352.62	53.809
352.98	53.404
353.34	54.150
353.70	53.764
354.07	52.984
354.43	53.333
354.79	53.017
355.15	54.030
355.51	54.916
355.87	55.429
356.24	55.863
356.60	55.413
356.96	55.833
357.32	56.419
357.68	55.984
358.04	55.503
358.40	54.711
358.77	55.243
359.13	55.485
359.49	56.627
359.85	55.079
360.21	57.416
360.57	56.109
360.93	57.615
361.29	57.067
361.66	56.656
362.02	56.045
362.38	58.707
362.74	56.696
363.10	56.403
363.46	58.327
363.82	58.655
364.18	57.416
364.54	59.361
364.90	57.649
365.26	58.750
365.62	59.825
365.98	58.437
366.35	57.378
366.71	58.930
367.07	58.412
367.43	60.160
367.79	60.171
368.15	61.422
368.51	59.302
368.87	59.886
369.23	59.693
369.59	60.825
369.95	61.618
370.31	60.541
370.67	59.855
371.03	61.423
371.39	60.350
371.75	61.765
372.11	61.664
372.47	61.950
372.83	64.409
373.19	62.283
373.55	62.454
373.91	63.697
374.27	61.787
374.63	62.545
374.99	62.429
375.35	63.782
375.71	62.371
376.07	62.689
376.42	64.374
376.78	64.016
377.14	63.840
377.50	64.172
377.86	62.500
378.22	64.539
378.58	64.662
378.94	64.173
379.30	65.967
379.66	65.228
380.02	65.111
380.38	64.177
380.74	66.267
381.09	66.565
381.45	66.134
381.81	66.093
382.17	66.752
382.53	66.289
382.89	66.728
383.25	66.854
383.61	68.278
383.97	67.792
384.32	67.623
384.68	67.906
385.04	68.039
385.40	67.740
385.76	68.489
386.12	69.365
386.48	69.037
386.83	68.826
387.19	70.192
387.55	70.192
387.91	69.347
388.27	68.547
388.62	69.392
388.98	68.120
389.34	70.150
389.70	69.160
390.06	69.645
390.42	70.169
390.77	69.338
391.13	72.049
391.49	70.431
391.85	71.101
392.20	70.978
392.56	70.581
392.92	70.865
393.28	70.651
393.64	71.463
393.99	69.395
394.35	70.533
394.71	70.765
395.07	71.028
395.42	71.508
395.78	71.310
396.14	70.701
396.50	71.679
396.85	72.282
397.21	70.777
397.57	72.226
397.92	71.755
398.28	70.628
398.64	71.565
399.00	71.572
399.35	70.953
399.71	72.454
400.07	71.437
400.42	72.638
400.78	70.929
401.14	71.707
401.49	73.433
401.85	71.627
402.21	70.778
402.57	72.116
402.92	72.068
403.28	71.393
403.63	71.597
403.99	72.675
404.35	71.152
404.70	72.542
405.06	72.918
405.42	72.489
405.77	71.886
406.13	71.050
406.49	71.851
406.84	70.289
407.20	70.745
407.55	72.431
407.91	73.067
408.27	73.772
408.62	71.824
408.98	70.833
409.34	72.386
409.69	72.065
410.05	71.499
410.40	72.783
410.76	70.729
411.11	70.929
411.47	69.457
411.83	71.106
412.18	70.315
412.54	71.482
412.89	72.048
413.25	70.543
413.60	70.784
413.96	70.128
414.31	71.385
414.67	71.420
415.03	72.450
415.38	70.812
415.74	70.804
416.09	72.044
416.45	72.155
416.80	72.174
417.16	71.917
417.51	72.196
417.87	70.906
418.22	71.420
418.58	70.239
418.93	71.253
419.29	70.974
419.64	71.914
420.00	71.220
420.35	70.609
420.71	72.146
421.06	69.033
421.42	70.292
421.77	70.011
422.12	70.298
422.48	70.588
422.83	71.229
423.19	70.497
423.54	70.633
423.90	71.188
424.25	70.128
424.61	70.595
424.96	71.837
425.31	69.491
425.67	67.921
426.02	68.571
426.38	72.405
426.73	69.046
427.09	69.544
427.44	69.580
427.79	70.558
428.15	70.238
428.50	69.456
428.85	69.487
429.21	68.250
429.56	69.103
429.92	69.200
430.27	69.712
430.62	69.176
430.98	69.746
431.33	68.557
431.68	69.267
432.04	68.530
432.39	69.674
432.74	69.060
433.10	69.723
433.45	69.738
433.80	68.348
434.16	68.803
434.51	67.474
434.86	69.270
435.22	69.094
435.57	69.058
435.92	69.690
436.28	70.819
436.63	69.316
436.98	69.147
437.34	69.529
437.69	69.953
438.04	69.871
438.39	70.567
438.75	70.598
439.10	68.939
439.45	68.595
439.81	69.668
440.16	68.154
440.51	69.772
440.86	69.948
441.22	69.299
441.57	70.064
441.92	69.652
442.27	70.075
442.63	67.878
442.98	71.268
443.33	69.239
443.68	69.024
444.03	69.253
444.39	68.160
444.74	69.264
445.09	68.895
445.44	68.726
445.79	68.184
446.15	67.284
446.50	68.228
446.85	68.602
447.20	68.129
447.55	69.068
447.91	69.057
448.26	69.115
448.61	68.174
448.96	68.328
449.31	69.573
449.66	67.642
450.02	68.802
450.37	67.347
450.72	67.569
451.07	68.373
451.42	67.234
451.77	67.058
452.12	67.032
452.47	67.289
452.83	68.765
453.18	67.665
453.53	68.584
453.88	67.750
454.23	66.348
454.58	68.262
454.93	69.803
455.28	67.706
455.63	68.143
455.98	69.524
456.34	67.776
456.69	68.378
457.04	66.316
457.39	64.933
457.74	67.150
458.09	66.187
458.44	66.477
458.79	64.859
459.14	67.325
459.49	65.674
459.84	66.205
460.19	67.177
460.54	64.699
460.89	66.210
461.24	65.513
461.59	66.241
461.94	63.933
462.29	65.341
462.64	63.816
462.99	64.671
463.34	64.733
463.69	65.729
464.04	64.116
464.39	63.130
464.74	64.290
465.09	64.415
465.44	62.715
465.79	63.143
466.14	63.164
466.49	62.848
466.84	63.514
467.19	62.462
467.54	63.250
467.89	61.945
468.24	62.304
468.59	62.393
468.94	62.676
469.29	62.404
469.64	62.985
469.99	62.449
470.34	62.550
470.68	62.716
471.03	62.653
471.38	62.335
471.73	61.559
472.08	62.039
472.43	61.558
472.78	59.842
473.13	60.655
473.48	60.799
473.83	60.183
474.17	60.112
474.52	60.422
474.87	60.420
475.22	59.896
475.57	59.323
475.92	59.373
476.27	58.906
476.61	59.735
476.96	58.329
477.31	58.399
477.66	59.902
478.01	57.501
478.36	59.122
478.70	57.944
479.05	58.307
479.40	58.188
479.75	58.821
480.10	57.903
480.45	57.020
480.79	57.334
481.14	56.947
481.49	56.953
481.84	56.104
482.19	56.611
482.53	56.606
482.88	55.142
483.23	56.495
483.58	55.050
483.92	57.029
484.27	53.856
484.62	55.603
484.97	55.302
485.31	56.610
485.66	55.285
486.01	54.864
486.36	53.158
486.70	51.885
487.05	52.323
487.40	53.013
487.75	53.861
488.09	54.565
488.44	53.369
488.79	54.358
489.13	54.622
489.48	54.690
489.83	53.776
490.17	53.968
490.52	53.277
490.87	52.736
491.22	52.933
491.56	51.845
491.91	52.490
492.26	51.125
492.60	52.396
492.95	52.385
493.30	51.402
493.64	51.377
493.99	50.279
494.34	52.128
494.68	51.740
495.03	51.504
495.37	51.047
495.72	51.170
496.07	51.415
496.41	50.442
496.76	51.099
497.11	49.752
497.45	50.210
497.80	49.568
498.14	49.807
498.49	50.341
498.84	50.479
499.18	48.810
499.53	49.098
499.87	48.975
500.22	48.658
500.56	49.806
500.91	48.365
501.26	49.170
501.60	50.308
501.95	48.121
502.29	49.110
502.64	47.719
502.98	48.153
503.33	47.395
503.67	48.445
504.02	46.960
504.36	47.777
504.71	48.559
505.06	47.711
505.40	47.156
505.75	47.348
506.09	46.987
506.44	47.755
506.78	47.199
507.13	47.047
507.47	46.768
507.82	47.214
508.16	47.568
508.51	47.489
508.85	46.177
509.19	45.969
509.54	46.582
509.88	46.625
510.23	45.758
510.57	46.749
510.92	45.676
511.26	46.608
511.61	45.747
511.95	44.833
512.30	45.387
512.64	45.298
512.98	47.642
513.33	45.771
513.67	43.917
514.02	44.751
514.36	45.822
514.70	44.826
515.05	44.228
515.39	45.093
515.74	44.088
516.08	45.165
516.42	45.228
516.77	45.485
517.11	43.785
517.46	44.639
517.80	45.412
518.14	44.296
518.49	45.216
518.83	42.614
519.17	44.804
519.52	43.746
519.86	43.868
520.20	43.584
520.55	43.926
520.89	43.309
521.23	45.175
521.58	44.358
521.92	44.152
522.26	42.892
522.61	43.178
522.95	42.234
523.29	42.848
523.64	44.146
523.98	44.301
524.32	42.461
524.66	42.153
525.01	42.525
525.35	41.884
525.69	42.980
526.04	42.679
526.38	42.709
526.72	42.086
527.06	42.247
527.41	40.903
527.75	42.637
528.09	42.967
528.43	42.256
528.78	42.348
529.12	40.667
529.46	41.825
529.80	42.079
530.15	41.869
530.49	40.985
530.83	40.823
531.17	42.167
531.51	42.477
531.86	41.484
532.20	41.721
532.54	40.807
532.88	40.501
533.22	40.412
533.57	41.296
533.91	40.518
534.25	40.765
534.59	40.574
534.93	40.690
535.27	40.917
535.62	40.842
535.96	40.804
536.30	40.305
536.64	41.533
536.98	40.610
537.32	38.973
537.66	40.067
538.01	39.302
538.35	40.078
538.69	40.779
539.03	39.896
539.37	38.914
539.71	39.598
540.05	40.261
540.39	39.934
540.73	39.651
541.07	40.818
541.42	40.313
541.76	40.258
542.10	39.586
542.44	39.007
542.78	40.448
543.12	38.516
543.46	39.475
543.80	39.623
544.14	38.768
544.48	38.984
544.82	38.486
545.16	40.143
545.50	38.560
545.84	37.702
546.18	39.394
546.52	38.403
546.86	39.519
547.20	39.312
547.54	38.410
547.88	39.541
548.22	38.917
548.56	37.925
548.90	38.540
549.24	38.923
549.58	39.086
549.92	37.912
550.26	37.713
550.60	37.483
550.94	37.887
551.28	37.381
551.62	37.743
551.96	37.123
552.30	38.294
552.64	37.525
552.98	38.102
553.32	37.761
553.66	37.696
554.00	38.229
554.34	36.646
554.68	38.770
555.02	36.742
555.36	38.274
555.69	36.536
556.03	37.012
556.37	37.585
556.71	36.426
557.05	36.765
557.39	36.809
557.73	36.838
558.07	36.983
558.41	36.686
558.75	37.252
559.08	37.136
559.42	36.810
559.76	37.059
560.10	35.261
560.44	37.386
560.78	35.729
561.12	36.675
561.45	36.310
561.79	36.124
562.13	36.016
562.47	35.792
562.81	37.308
563.15	36.722
563.48	35.279
563.82	36.595
564.16	35.383
564.50	35.937
564.84	35.209
565.17	36.680
565.51	36.550
565.85	35.596
566.19	35.567
566.52	35.402
566.86	34.177
567.20	36.144
567.54	36.130
567.88	35.633
568.21	36.931
568.55	35.187
568.89	35.798
569.23	34.759
569.56	35.223
569.90	35.057
570.24	35.486
570.57	34.138
570.91	33.872
571.25	33.972
571.59	35.022
571.92	35.023
572.26	34.200
572.60	35.135
572.93	34.663
573.27	34.753
573.61	34.813
573.95	34.574
574.28	34.749
574.62	34.378
574.96	34.122
575.29	34.311
575.63	33.816
575.97	34.314
576.30	34.599
576.64	34.243
576.98	34.784
577.31	33.826
577.65	34.311
577.98	34.741
578.32	33.360
578.66	33.816
578.99	34.170
579.33	33.914
579.67	33.617
580.00	33.997
580.34	34.385
580.67	33.609
581.01	34.270
581.35	33.995
581.68	33.755
582.02	33.829
582.35	33.870
582.69	33.997
583.02	33.626
583.36	33.871
583.70	34.341
584.03	33.542
584.37	34.572
584.70	34.143
585.04	34.173
585.37	33.947
585.71	33.459
586.04	33.680
586.38	33.960
586.72	33.775
587.05	33.551
587.39	33.720
587.72	33.548
588.06	33.351
588.39	34.047
588.73	33.265
589.06	33.687
589.40	34.343
589.73	34.213
590.07	33.238
590.40	33.138
590.73	33.958
591.07	34.758
591.40	34.163
591.74	34.329
592.07	33.464
592.41	34.353
592.74	33.109
593.08	33.311
593.41	33.724
593.75	32.511
594.08	33.087
594.41	33.722
594.75	33.198
595.08	33.822
595.42	33.625
595.75	34.010
596.09	34.247
596.42	33.556
596.75	33.601
597.09	33.853
597.42	32.462
597.75	32.945
598.09	33.087
598.42	32.732
598.76	32.671
599.09	32.611
599.42	33.151
599.76	33.785
600.09	32.823
600.42	33.272
600.76	32.643
601.09	32.969
601.42	32.725
601.76	32.941
602.09	32.372
602.42	33.758
602.76	33.656
603.09	33.360
603.42	33.190
603.76	32.431
604.09	32.803
604.42	33.347
604.76	33.066
605.09	33.246
605.42	32.920
605.75	32.988
606.09	32.615
606.42	33.224
606.75	32.974
607.09	32.901
607.42	33.119
607.75	32.574
608.08	32.827
608.42	32.407
608.75	32.552
609.08	32.655
609.41	33.079
609.75	32.682
610.08	33.695
610.41	32.588
610.74	33.396
611.07	33.053
611.41	32.188
611.74	32.981
612.07	33.023
612.40	32.739
612.73	31.632
613.07	33.082
613.40	32.543
613.73	32.459
614.06	33.226
614.39	32.092
614.72	32.105
615.06	32.458
615.39	32.166
615.72	31.442
616.05	31.845
616.38	32.518
616.71	33.789
617.05	33.098
617.38	32.471
617.71	31.952
618.04	33.233
618.37	32.289
618.70	33.167
619.03	33.618
619.36	32.247
619.69	33.099
620.03	32.212
620.36	33.289
620.69	33.767
621.02	33.702
621.35	31.480
621.68	31.464
622.01	31.502
622.34	34.115
622.67	32.548
623.00	32.722
623.33	32.595
623.66	32.809
623.99	32.622
624.32	31.455
624.65	32.345
624.99	31.728
625.32	32.151
625.65	32.682
625.98	33.282
626.31	32.893
626.64	32.245
626.97	32.336
627.30	32.003
627.63	33.060
627.96	33.894
628.29	32.283
628.62	32.296
628.95	34.434
629.28	31.296
629.61	34.097
629.94	34.000
630.26	32.126
630.59	32.221
630.92	31.705
631.25	31.194
631.58	32.432
631.91	31.237
632.24	33.122
632.57	32.214
632.90	33.004
633.23	33.110
633.56	32.655
633.89	31.484
634.22	31.669
634.55	33.846
634.88	32.455
635.20	34.289
635.53	34.819
635.86	33.292
636.19	31.647
636.52	32.641
636.85	32.302
637.18	32.028
637.51	33.806
637.83	29.963
638.16	33.887
638.49	33.123
638.82	31.858
639.15	31.750
639.48	34.289
639.81	33.244
640.13	32.552
640.46	32.483
640.79	32.232
641.12	31.774
641.45	33.520
641.77	37.261
642.10	32.895
642.43	30.781
642.76	33.746
643.09	32.822
643.41	33.232
643.74	35.494
644.07	32.165
644.40	33.896
644.73	36.535
645.05	34.073
645.38	34.439
645.71	32.850
646.04	33.887
646.36	36.561
646.69	35.284
647.02	33.503
647.35	33.677
647.67	32.035
648.00	32.683
648.33	34.818
648.66	35.000
648.98	35.382
649.31	32.586
649.64	34.081
649.96	34.873
650.29	33.017
650.62	32.362
650.94	35.656
651.27	33.615
651.60	34.942
651.92	35.942
652.25	32.410
652.58	32.399
652.90	35.861
653.23	31.587
653.56	34.173
653.88	34.073
654.21	34.439
654.54	33.993
654.86	32.399
655.19	32.297
655.52	25.762
655.84	25.867
656.17	35.357
656.49	48.095
656.82	48.914
657.15	36.126
657.47	26.723
657.80	20.477
658.13	20.953
658.45	30.490
658.78	30.485
659.10	31.448
659.43	32.641
659.75	33.542
660.08	35.127
660.41	35.940
660.73	37.611
661.06	33.917
661.38	36.182
661.71	36.346
662.03	35.108
662.36	32.406
662.68	34.137
663.01	34.747
663.33	34.820
663.66	36.345
663.98	34.989
664.31	34.454
664.63	32.186
664.96	33.803
665.28	35.246
665.61	33.333
665.93	33.199
666.26	36.308
666.58	33.891
666.91	36.152
667.23	35.056
667.56	36.717
667.88	35.684
668.21	36.034
668.53	34.924
668.86	34.199
669.18	36.674
669.50	35.000
669.83	35.076
670.15	35.556
670.48	38.562
670.80	37.716
671.13	35.244
671.45	34.468
671.77	34.827
672.10	35.675
672.42	34.276
672.75	33.665
673.07	34.859
673.39	35.443
673.72	34.766
674.04	34.314
674.37	35.922
674.69	34.765
675.01	32.427
675.34	36.140
675.66	37.474
675.98	34.216
676.31	35.714
676.63	37.792
676.95	35.430
677.28	36.215
677.60	33.187
677.92	39.451
678.25	34.497
678.57	35.857
678.89	36.473
679.22	34.185
679.54	35.305
679.86	34.312
680.18	33.810
680.51	35.993
680.83	33.986
681.15	33.396
681.48	36.106
681.80	33.462
682.12	34.291
682.44	34.236
682.77	36.049
683.09	37.124
683.41	32.816
683.73	34.437
684.06	35.744
684.38	33.855
684.70	33.721
685.02	36.210
685.34	33.516
685.67	32.692
685.99	34.880
686.31	33.276
686.63	31.449
686.96	33.214
687.28	30.866
687.60	34.783
687.92	37.843
688.24	34.791
688.56	36.145
688.89	38.382
689.21	38.865
689.53	35.699
689.85	38.803
690.17	33.747
690.49	35.881
690.82	37.150
691.14	38.393
691.46	31.857
691.78	32.932
692.10	34.711
692.42	35.928
692.74	34.647
693.06	36.170
693.39	35.934
693.71	36.245
694.03	38.526
694.35	34.416
694.67	34.096
694.99	35.122
695.31	34.804
695.63	39.713
695.95	36.430
696.27	35.533
696.59	37.565
696.91	37.047
697.23	35.915
697.56	33.902
697.88	33.129
698.20	37.292
698.52	38.710
698.84	38.976
699.16	35.714
699.48	37.767
699.80	36.957
700.12	41.299
700.44	38.992
700.76	38.950
701.08	38.506
701.40	35.754
701.72	40.525
702.04	41.193
702.36	37.677
702.68	38.527
703.00	39.058
703.32	36.702
703.64	38.338
703.96	38.440
704.28	39.244
704.60	37.830
704.91	43.027
705.23	38.123
705.55	42.193
705.87	43.189
706.19	43.463
706.51	41.745
706.83	39.091
707.15	40.056
707.47	38.131
707.79	40.049
708.11	36.301
708.43	36.190
708.74	34.184
709.06	40.260
709.38	38.845
709.70	40.116
710.02	42.730
710.34	36.970
710.66	41.493
710.98	39.205
711.29	41.570
711.61	36.873
711.93	38.462
712.25	40.514
712.57	45.588
712.89	41.522
713.20	40.426
713.52	43.092
713.84	42.722
714.16	37.195
714.48	39.655
714.80	44.377
715.11	42.075
715.43	39.466
715.75	39.130
716.07	43.131
716.39	37.304
716.70	40.864
717.02	37.770
717.34	42.756
717.66	44.776
717.97	45.020
718.29	42.963
718.61	40.876
718.93	41.912
719.24	44.291
719.56	39.661
719.88	40.339
720.20	43.243
720.51	45.993
720.83	41.264
721.15	41.045
721.46	42.199
721.78	47.312
722.10	46.792
722.42	40.977
722.73	43.071
723.05	44.262
723.37	43.725
723.68	44.015
724.00	43.496
724.32	46.371
724.63	39.837
724.95	41.004
725.27	43.725
725.58	47.656
725.90	47.445
726.22	46.792
726.53	40.625
726.85	41.638
727.16	45.196
727.48	43.972
727.80	43.182
728.11	39.493
728.43	43.462
728.74	42.652
729.06	47.080
729.38	44.853
729.69	43.416
730.01	37.201
730.32	38.889
730.64	39.465
730.96	37.624
731.27	45.033
731.59	40.673
731.90	42.274
732.22	41.304
732.53	38.700
732.85	43.269
733.16	35.048
733.48	40.532
733.80	42.857
734.11	40.446
734.43	40.533
734.74	43.429
735.06	40.401
735.37	41.618
735.69	40.127
736.00	47.059
736.32	42.056
736.63	40.575
736.95	44.409
737.26	39.796
737.58	43.226
737.89	38.127
738.21	43.003
738.52	41.429
738.83	42.264
739.15	43.846
739.46	48.175
739.78	42.014
740.09	41.538
740.41	47.097
740.72	42.160
741.04	44.815
741.35	44.167
741.66	52.000
741.98	42.453
742.29	45.933
742.61	49.569
742.92	48.416
743.23	45.299
743.55	43.200
743.86	46.053
744.18	47.788
744.49	52.153
744.80	56.808
745.12	50.000
745.43	45.815
745.74	49.550
746.06	49.541
746.37	42.601
746.68	48.869
747.00	44.907
747.31	55.238
747.62	40.265
747.94	49.780
748.25	38.298
748.56	46.256
748.88	45.050
749.19	56.000
749.50	51.628
749.82	50.000
750.13	40.408
750.44	42.701
750.75	45.263
751.07	41.158
751.38	46.341
751.69	43.682
752.01	37.594
752.32	42.960
752.63	42.908
752.94	45.492
753.26	46.800
753.57	41.463
753.88	50.000
754.19	39.643
754.51	50.000
754.82	40.794
755.13	43.774
755.44	43.985
755.75	43.431
756.07	42.908
756.38	42.701
756.69	44.631
757.00	39.820
757.31	40.059
757.63	39.181
757.94	41.019
758.25	39.216
758.56	37.531
758.87	42.204
759.18	40.303
759.50	37.931
759.81	38.006
760.12	35.625
760.43	40.974
760.74	42.120
761.05	45.198
761.36	42.513
761.67	42.330
761.99	40.373
762.30	43.750
762.61	41.985
762.92	41.406
763.23	49.160
763.54	45.600
763.85	45.312
764.16	43.462
764.47	47.909
764.78	41.343
765.10	40.506
765.41	43.363
765.72	44.311
766.03	41.693
766.34	38.000
766.65	50.638
766.96	46.581
767.27	54.315
767.58	50.000
767.89	56.842
768.20	60.345
768.51	54.822
768.82	46.789
769.13	47.967
769.44	44.130
769.75	46.781
770.06	40.826
770.37	47.964
770.68	49.537
770.99	49.778
771.30	45.082
771.61	53.363
771.92	48.361
772.23	57.143
772.54	55.385
772.85	52.880
773.16	55.851
773.47	52.717
773.78	52.792
774.09	54.762
774.39	51.462
774.70	55.556
775.01	62.319
775.32	65.359
775.63	69.737
775.94	53.957
776.25	70.079
776.56	64.179
776.87	76.230
777.18	64.844
777.48	61.832
777.79	65.909
778.10	66.667
778.41	62.500
778.72	56.934
779.03	61.745
779.34	55.034
779.65	56.757
779.95	62.577
780.26	62.092
780.57	64.138
780.88	75.781
781.19	62.406
781.50	70.270
781.80	59.119
782.11	55.367
782.42	58.228
782.73	53.374
783.04	65.541
783.34	57.746
783.65	66.438
783.96	67.910
784.27	66.434
784.57	65.468
784.88	76.852
785.19	57.143
785.50	66.981
785.81	73.134
786.11	70.492
786.42	65.891
786.73	63.717
787.04	80.189
787.34	71.429
787.65	92.000
787.96	76.577
788.26	69.421
788.57	80.508
788.88	69.421
789.19	66.667
789.49	70.455
789.80	68.702
790.11	85.714
790.41	84.158
790.72	81.928
791.03	76.087
791.33	82.558
791.64	72.165
791.95	81.188
792.25	92.222
792.56	92.208
792.87	106.410
793.17	110.127
793.48	90.805
793.79	82.759
794.09	70.455
794.40	72.269
794.70	69.853
795.01	64.444
795.32	57.554
795.62	70.079
795.93	75.862
796.23	69.027
796.54	75.294
796.85	98.649
797.15	95.775
797.46	98.485
797.76	93.976
798.07	87.342
798.37	100.000
798.68	95.455
798.99	84.507
799.29	94.805
799.60	76.136
799.90	112.329
800.21	110.448
800.51	113.793
800.82	121.053
801.12	121.311
801.43	112.121
801.73	81.081
802.04	130.159
802.34	100.000
802.65	118.750
802.95	115.254
803.26	109.375
803.56	98.571
803.87	100.000
804.17	97.059
804.48	114.815
804.78	110.345
805.09	98.529
805.39	130.769
805.70	101.786
806.00	139.344
806.30	86.364
806.61	87.805
806.91	89.873
807.22	103.947
807.52	95.522
807.83	102.817
808.13	120.313
808.43	111.667
808.74	107.895
809.04	108.696
809.35	117.910
809.65	96.053
809.95	109.677
810.26	120.339
810.56	107.937
810.86	147.727
811.17	166.667
811.47	120.000
811.77	116.667
812.08	140.000
812.38	144.000
812.69	155.556
812.99	131.818
813.29	144.898
813.59	119.048
813.90	153.061
814.20	114.545
814.50	96.923
814.81	135.294
815.11	136.735
815.41	109.836
815.72	145.238
816.02	130.909
816.32	157.143
816.62	157.500
816.93	143.902
817.23	154.762
817.53	159.091
817.84	163.636
818.14	143.478
818.44	146.667
818.74	188.235
819.04	157.500
819.35	177.143
819.65	197.059
819.95	203.571
820.25	285.000
820.56	166.667
820.86	159.091
821.16	176.744
821.46	169.231
821.76	144.000
822.07	191.429
822.37	165.000
822.67	196.970
822.97	135.294
823.27	235.714
823.57	170.270
823.88	165.000
824.18	206.667
824.48	164.286
824.78	236.000
825.08	245.833
825.38	164.865
825.69	148.780
825.99	237.500
826.29	203.448
826.59	194.737
826.89	176.316
827.19	220.588
827.49	222.581
827.79	161.364
828.09	143.182
828.39	151.064
828.70	134.694
829.00	200.000
829.30	187.097
829.60	150.000
829.90	393.333
830.20	196.429
830.50	243.478
830.80	221.739
831.10	223.333
831.40	203.333
831.70	226.087
832.00	226.923
832.30	211.111
832.60	368.750
832.90	196.667
833.20	392.857
833.50	212.903
833.80	224.138
834.10	218.750
834.40	276.923
834.70	311.111
835.00	314.286
835.30	174.286
835.60	361.538
835.90	244.828
836.20	378.571
836.50	186.207
836.80	256.000
837.10	213.889
837.40	290.476
837.70	358.824
838.00	244.444
838.30	285.714
838.60	328.571
838.90	269.231
839.19	280.000
839.49	435.714
839.79	385.000
840.09	300.000
840.39	280.952
840.69	269.565
840.99	316.667
841.29	570.000
841.59	466.667
841.88	362.500
842.18	210.345
842.48	323.810
842.78	203.333
843.08	291.304
843.38	165.625
843.68	1033.333
843.97	219.231
844.27	217.241
844.57	295.238
844.87	362.500
845.17	240.741
845.47	1466.667
845.76	444.444
846.06	329.412
846.36	600.000
846.66	442.857
846.96	275.000
847.25	518.182
847.55	445.455
847.85	234.783
848.15	500.000
848.44	392.857
848.74	311.111
849.04	347.059
849.34	540.000
849.63	247.368
849.93	509.091
850.23	1140.000
850.53	507.143
850.82	2700.000
851.12	-4400.000
851.42	5400.000
851.71	305.000
852.01	-1400.000
852.31	254.167
852.61	1900.000
852.90	276.190
853.20	264.000
853.50	329.412
853.79	304.762
854.09	220.833
854.39	362.500
854.68	189.189
854.98	203.226
855.28	166.667
855.57	217.241
855.87	251.852
856.17	278.947
856.46	346.667
856.76	317.647
857.05	227.586
857.35	254.167
857.65	313.333
857.94	282.609
858.24	288.462
858.53	320.000
858.83	268.182
859.13	406.667
859.42	0.000
859.72	577.778
860.01	454.545
860.31	295.455
860.60	315.789
860.90	239.130
861.20	611.111
861.49	525.000
861.79	-4900.000
862.08	637.500
862.38	300.000
862.67	315.385
862.97	347.059
863.26	655.556
863.56	355.556
863.85	441.667
864.15	700.000
864.44	453.333
864.74	966.667
865.03	675.000
865.33	315.789
865.62	518.182
865.92	507.692
866.21	491.667
866.51	0.000
866.80	572.727
867.10	1020.000
867.39	469.231
867.69	527.273
867.98	278.947
868.27	563.636
868.57	363.158
868.86	-4900.000
869.16	368.750
869.45	2250.000
869.75	-5300.000
870.04	500.000
870.33	771.429
870.63	1250.000
870.92	3100.000
871.22	871.429
871.51	382.353
871.80	261.905
872.10	421.429
>>>>>End Processed Spectral Data<<<<<
