SpectraSuite Data File
++++++++++++++++++++++++++++++++++++
Date: Wed May 13 19:48:20 PDT 2015
User: schluterlab
Dark Spectrum Present: Yes
Reference Spectrum Present: Yes
Number of Sampled Component Spectra: 1
Spectrometers: USB2E3373
Integration Time (usec): 3000 (USB2E3373)
Spectra Averaged: 3 (USB2E3373)
Boxcar Smoothing: 0 (USB2E3373)
Correct for Electrical Dark: No (USB2E3373)
Strobe/Lamp Enabled: No (USB2E3373)
Correct for Detector Non-linearity: No (USB2E3373)
Correct for Stray Light: No (USB2E3373)
Number of Pixels in Processed Spectrum: 2048
>>>>>Begin Processed Spectral Data<<<<<
178.53	0.000
178.91	-1300.000
179.29	-1350.000
179.67	-261.111
180.04	-1275.000
180.42	2650.000
180.80	1020.000
181.18	-1175.000
181.56	714.286
181.94	0.000
182.31	-671.429
182.69	1833.333
183.07	-637.500
183.45	-588.889
183.83	563.636
184.20	-390.000
184.58	2550.000
184.96	5400.000
185.34	-960.000
185.72	-650.000
186.09	-2550.000
186.47	2150.000
186.85	2400.000
187.23	4600.000
187.61	-1766.667
187.98	1325.000
188.36	527.273
188.74	545.455
189.12	-1260.000
189.49	630.000
189.87	-5200.000
190.25	-1075.000
190.63	428.571
191.00	453.846
191.38	883.333
191.76	-1200.000
192.14	1425.000
192.51	662.500
192.89	1016.667
193.27	562.500
193.65	-1275.000
194.02	580.000
194.40	960.000
194.78	580.000
195.15	558.333
195.53	540.000
195.91	-2650.000
196.29	368.750
196.66	352.632
197.04	-460.000
197.42	0.000
197.79	560.000
198.17	-4900.000
198.55	657.143
198.92	625.000
199.30	980.000
199.68	0.000
200.05	388.889
200.43	671.429
200.81	4300.000
201.18	1400.000
201.56	-1400.000
201.94	544.444
202.31	511.111
202.69	450.000
203.07	550.000
203.44	0.000
203.82	1100.000
204.19	700.000
204.57	471.429
204.95	550.000
205.32	1866.667
205.70	400.000
206.08	342.857
206.45	2850.000
206.83	350.000
207.20	816.667
207.58	920.000
207.96	366.667
208.33	625.000
208.71	-933.333
209.08	714.286
209.46	666.667
209.84	554.545
210.21	-1600.000
210.59	1650.000
210.96	-550.000
211.34	3000.000
211.71	630.000
212.09	733.333
212.46	0.000
212.84	1400.000
213.22	1375.000
213.59	-6500.000
213.97	916.667
214.34	742.857
214.72	581.818
215.09	1020.000
215.47	-2250.000
215.84	-2300.000
216.22	1500.000
216.59	421.429
216.97	1300.000
217.34	472.727
217.72	-733.333
218.09	0.000
218.47	-4200.000
218.84	711.111
219.22	800.000
219.59	1800.000
219.97	-642.857
220.34	920.000
220.72	-2000.000
221.09	435.714
221.47	1600.000
221.84	-866.667
222.22	0.000
222.59	1400.000
222.97	-2500.000
223.34	1300.000
223.72	453.846
224.09	1020.000
224.46	2350.000
224.84	-5300.000
225.21	-1160.000
225.59	-4900.000
225.96	540.000
226.34	295.000
226.71	2600.000
227.08	775.000
227.46	520.000
227.83	-1125.000
228.21	-2400.000
228.58	622.222
228.95	-2550.000
229.33	-2700.000
229.70	1500.000
230.08	885.714
230.45	-740.000
230.82	458.333
231.20	816.667
231.57	714.286
231.95	416.667
232.32	272.727
232.69	372.727
233.07	728.571
233.44	353.846
233.81	-1600.000
234.19	331.579
234.56	516.667
234.93	441.667
235.31	472.727
235.68	353.846
236.05	350.000
236.43	178.788
236.80	268.421
237.17	5100.000
237.55	233.333
237.92	221.429
238.29	247.619
238.67	154.839
239.04	220.690
239.41	158.333
239.79	110.870
240.16	126.190
240.53	154.545
240.91	98.039
241.28	102.000
241.65	90.000
242.02	97.101
242.40	93.548
242.77	90.000
243.14	66.667
243.51	71.910
243.89	71.765
244.26	61.111
244.63	59.140
245.00	56.383
245.38	68.317
245.75	42.056
246.12	47.706
246.49	59.854
246.87	56.000
247.24	44.615
247.61	41.429
247.98	46.405
248.36	37.162
248.73	45.223
249.10	44.586
249.47	38.418
249.84	46.524
250.22	38.503
250.59	37.870
250.96	40.404
251.33	40.758
251.70	39.109
252.08	38.571
252.45	33.184
252.82	30.870
253.19	28.936
253.56	32.941
253.94	30.705
254.31	29.297
254.68	36.154
255.05	30.996
255.42	29.675
255.79	27.941
256.16	31.769
256.54	27.208
256.91	28.826
257.28	25.899
257.65	26.403
258.02	29.503
258.39	25.552
258.76	24.749
259.14	25.595
259.51	23.708
259.88	23.602
260.25	25.982
260.62	25.145
260.99	22.671
261.36	24.324
261.73	24.642
262.10	26.744
262.47	26.197
262.85	22.284
263.22	20.513
263.59	23.647
263.96	22.802
264.33	26.893
264.70	24.211
265.07	23.785
265.44	24.495
265.81	22.141
266.18	23.618
266.55	23.171
266.92	23.587
267.29	24.306
267.66	20.872
268.03	19.773
268.40	22.664
268.77	22.673
269.14	20.721
269.51	24.379
269.88	19.580
270.25	20.767
270.62	20.674
270.99	23.656
271.36	22.532
271.73	20.794
272.10	21.739
272.47	20.645
272.84	21.212
273.21	20.964
273.58	16.594
273.95	18.868
274.32	20.248
274.69	20.985
275.06	20.079
275.43	19.574
275.80	20.240
276.17	20.978
276.54	22.245
276.91	18.775
277.28	18.164
277.65	19.923
278.02	19.255
278.39	20.312
278.76	18.909
279.13	20.566
279.50	21.601
279.87	19.522
280.23	19.960
280.60	17.408
280.97	18.854
281.34	21.062
281.71	21.091
282.08	19.194
282.45	19.273
282.82	17.229
283.19	16.043
283.56	18.596
283.92	17.936
284.29	18.342
284.66	17.060
285.03	15.732
285.40	17.958
285.77	17.845
286.14	17.098
286.51	17.333
286.87	17.778
287.24	16.775
287.61	18.459
287.98	17.857
288.35	16.165
288.72	17.913
289.08	17.214
289.45	15.486
289.82	17.724
290.19	15.856
290.56	15.467
290.93	14.502
291.29	16.258
291.66	16.814
292.03	17.733
292.40	17.621
292.77	15.680
293.13	16.866
293.50	14.140
293.87	15.556
294.24	16.000
294.60	14.410
294.97	12.645
295.34	17.348
295.71	15.057
296.08	12.393
296.44	12.655
296.81	14.927
297.18	16.667
297.55	12.665
297.91	13.193
298.28	14.859
298.65	14.360
299.02	14.888
299.38	13.679
299.75	12.803
300.12	13.282
300.48	13.125
300.85	14.303
301.22	12.484
301.59	13.131
301.95	14.232
302.32	14.506
302.69	12.545
303.05	14.061
303.42	11.975
303.79	12.005
304.15	12.587
304.52	12.167
304.89	12.195
305.25	12.877
305.62	14.609
305.99	13.932
306.35	13.758
306.72	12.444
307.09	13.873
307.45	13.626
307.82	11.384
308.19	12.472
308.55	13.269
308.92	11.923
309.29	11.721
309.65	11.771
310.02	12.685
310.38	11.720
310.75	12.249
311.12	13.204
311.48	12.853
311.85	13.522
312.22	13.111
312.58	12.682
312.95	14.044
313.31	12.330
313.68	13.410
314.05	14.497
314.41	14.673
314.78	14.703
315.14	13.307
315.51	14.624
315.87	13.564
316.24	14.896
316.61	14.815
316.97	14.579
317.34	13.894
317.70	15.583
318.07	16.073
318.43	15.753
318.80	17.245
319.16	16.573
319.53	16.417
319.89	17.810
320.26	19.300
320.62	18.849
320.99	19.192
321.35	18.182
321.72	20.329
322.08	20.237
322.45	21.692
322.81	20.833
323.18	21.676
323.54	20.594
323.91	22.547
324.27	22.180
324.64	21.062
325.00	22.092
325.37	23.294
325.73	24.147
326.10	23.124
326.46	25.627
326.83	26.402
327.19	25.705
327.56	26.394
327.92	26.334
328.29	28.217
328.65	28.637
329.01	27.166
329.38	28.400
329.74	29.363
330.11	29.123
330.47	28.742
330.84	28.952
331.20	29.508
331.56	28.807
331.93	29.907
332.29	29.104
332.66	30.000
333.02	30.073
333.38	30.172
333.75	30.392
334.11	30.872
334.48	30.701
334.84	32.996
335.20	32.182
335.57	31.188
335.93	29.643
336.29	30.678
336.66	33.363
337.02	32.398
337.38	33.056
337.75	31.996
338.11	33.303
338.47	32.873
338.84	34.280
339.20	32.294
339.56	34.580
339.93	32.455
340.29	33.786
340.65	33.690
341.02	33.682
341.38	33.541
341.74	33.333
342.11	35.371
342.47	34.802
342.83	34.932
343.20	35.325
343.56	35.468
343.92	35.877
344.28	36.054
344.65	36.285
345.01	35.943
345.37	35.334
345.73	35.533
346.10	36.147
346.46	36.102
346.82	35.338
347.19	36.508
347.55	37.028
347.91	36.570
348.27	38.127
348.63	37.207
349.00	36.893
349.36	36.782
349.72	37.771
350.08	37.115
350.45	38.487
350.81	37.937
351.17	39.060
351.53	39.066
351.89	37.541
352.26	39.621
352.62	39.054
352.98	37.439
353.34	39.359
353.70	38.789
354.07	38.710
354.43	37.857
354.79	37.007
355.15	38.627
355.51	38.209
355.87	39.184
356.24	39.739
356.60	38.653
356.96	40.386
357.32	39.493
357.68	39.055
358.04	38.401
358.40	39.667
358.77	39.593
359.13	40.016
359.49	39.529
359.85	37.302
360.21	39.234
360.57	41.012
360.93	39.385
361.29	38.851
361.66	38.777
362.02	40.075
362.38	40.304
362.74	40.030
363.10	39.526
363.46	40.059
363.82	40.967
364.18	40.602
364.54	40.565
364.90	40.297
365.26	40.588
365.62	39.591
365.98	40.467
366.35	39.900
366.71	40.419
367.07	40.714
367.43	41.437
367.79	40.257
368.15	41.379
368.51	41.424
368.87	42.113
369.23	41.478
369.59	43.012
369.95	41.250
370.31	41.168
370.67	40.000
371.03	42.322
371.39	40.671
371.75	42.132
372.11	41.465
372.47	42.082
372.83	42.795
373.19	41.113
373.55	42.794
373.91	42.489
374.27	40.962
374.63	41.891
374.99	42.726
375.35	40.544
375.71	41.672
376.07	42.524
376.42	42.572
376.78	43.274
377.14	42.673
377.50	43.311
377.86	41.423
378.22	43.805
378.58	41.165
378.94	42.300
379.30	43.321
379.66	44.416
380.02	44.103
380.38	42.927
380.74	43.157
381.09	43.949
381.45	43.700
381.81	44.226
382.17	43.822
382.53	43.774
382.89	44.506
383.25	44.340
383.61	44.672
383.97	44.278
384.32	44.541
384.68	43.494
385.04	44.130
385.40	43.963
385.76	44.779
386.12	44.948
386.48	45.312
386.83	45.542
387.19	46.135
387.55	45.145
387.91	45.345
388.27	44.451
388.62	46.097
388.98	44.410
389.34	45.932
389.70	44.697
390.06	46.641
390.42	45.590
390.77	45.802
391.13	47.160
391.49	46.256
391.85	44.812
392.20	45.804
392.56	46.654
392.92	46.380
393.28	44.675
393.64	44.844
393.99	44.899
394.35	45.968
394.71	45.797
395.07	44.361
395.42	47.157
395.78	46.628
396.14	45.438
396.50	47.494
396.85	46.917
397.21	45.684
397.57	45.877
397.92	45.853
398.28	45.908
398.64	44.803
399.00	46.223
399.35	44.839
399.71	45.486
400.07	45.240
400.42	45.092
400.78	45.175
401.14	45.915
401.49	45.791
401.85	46.098
402.21	44.671
402.57	44.602
402.92	45.776
403.28	46.159
403.63	45.111
403.99	44.395
404.35	45.455
404.70	43.645
405.06	44.729
405.42	46.226
405.77	43.943
406.13	44.526
406.49	43.406
406.84	45.186
407.20	44.208
407.55	45.054
407.91	44.533
408.27	44.544
408.62	43.588
408.98	43.689
409.34	44.465
409.69	44.645
410.05	44.300
410.40	44.159
410.76	44.205
411.11	43.064
411.47	42.875
411.83	44.349
412.18	42.919
412.54	44.334
412.89	43.072
413.25	42.562
413.60	43.854
413.96	41.834
414.31	43.256
414.67	42.649
415.03	43.709
415.38	43.557
415.74	42.765
416.09	44.611
416.45	43.842
416.80	43.688
417.16	43.633
417.51	42.800
417.87	42.710
418.22	42.965
418.58	43.447
418.93	43.120
419.29	42.075
419.64	42.443
420.00	42.683
420.35	42.609
420.71	42.499
421.06	41.527
421.42	40.819
421.77	41.816
422.12	40.595
422.48	40.475
422.83	41.526
423.19	41.768
423.54	41.730
423.90	41.333
424.25	40.704
424.61	39.702
424.96	40.875
425.31	40.421
425.67	39.831
426.02	40.114
426.38	40.781
426.73	39.848
427.09	39.757
427.44	40.196
427.79	39.505
428.15	40.119
428.50	39.789
428.85	39.631
429.21	39.260
429.56	39.191
429.92	39.305
430.27	39.424
430.62	37.481
430.98	39.076
431.33	37.526
431.68	38.220
432.04	37.593
432.39	37.921
432.74	38.540
433.10	38.936
433.45	38.251
433.80	38.027
434.16	37.447
434.51	37.474
434.86	39.111
435.22	37.966
435.57	37.508
435.92	37.741
436.28	38.849
436.63	38.631
436.98	37.321
437.34	37.984
437.69	37.631
438.04	36.256
438.39	36.716
438.75	37.711
439.10	37.207
439.45	37.072
439.81	35.952
440.16	37.098
440.51	37.141
440.86	37.580
441.22	35.651
441.57	37.049
441.92	36.182
442.27	36.168
442.63	35.703
442.98	35.775
443.33	35.543
443.68	35.157
444.03	35.871
444.39	35.102
444.74	34.848
445.09	34.933
445.44	34.500
445.79	34.785
446.15	34.251
446.50	33.926
446.85	34.841
447.20	33.656
447.55	34.562
447.91	34.859
448.26	33.278
448.61	34.539
448.96	34.330
449.31	34.364
449.66	33.483
450.02	32.535
450.37	32.937
450.72	33.277
451.07	32.358
451.42	33.252
451.77	33.588
452.12	32.621
452.47	31.779
452.83	33.100
453.18	32.213
453.53	33.024
453.88	32.310
454.23	32.337
454.58	32.041
454.93	32.422
455.28	31.796
455.63	31.553
455.98	31.429
456.34	30.967
456.69	32.436
457.04	32.012
457.39	30.158
457.74	30.702
458.09	31.340
458.44	30.787
458.79	30.260
459.14	30.982
459.49	31.407
459.84	30.526
460.19	30.053
460.54	29.977
460.89	29.896
461.24	30.115
461.59	30.680
461.94	30.456
462.29	30.920
462.64	30.121
462.99	30.059
463.34	30.000
463.69	29.206
464.04	29.449
464.39	29.333
464.74	29.174
465.09	29.674
465.44	28.255
465.79	28.188
466.14	27.915
466.49	28.254
466.84	28.780
467.19	28.304
467.54	29.438
467.89	28.451
468.24	28.330
468.59	29.121
468.94	27.734
469.29	27.571
469.64	28.983
469.99	28.620
470.34	27.543
470.68	28.520
471.03	28.503
471.38	27.797
471.73	27.648
472.08	29.079
472.43	26.822
472.78	27.716
473.13	27.214
473.48	26.342
473.83	27.256
474.17	26.509
474.52	26.427
474.87	26.620
475.22	26.524
475.57	26.330
475.92	26.129
476.27	26.550
476.61	26.420
476.96	25.399
477.31	25.536
477.66	25.821
478.01	25.039
478.36	25.859
478.70	24.247
479.05	24.814
479.40	25.333
479.75	24.657
480.10	24.602
480.45	25.226
480.79	24.128
481.14	25.245
481.49	24.822
481.84	25.103
482.19	24.307
482.53	25.046
482.88	24.523
483.23	24.953
483.58	24.067
483.92	24.274
484.27	23.573
484.62	24.009
484.97	23.059
485.31	23.356
485.66	22.591
486.01	21.260
486.36	20.561
486.70	20.900
487.05	21.177
487.40	21.629
487.75	21.659
488.09	21.929
488.44	21.948
488.79	22.604
489.13	22.536
489.48	22.675
489.83	22.615
490.17	22.139
490.52	22.232
490.87	21.755
491.22	22.556
491.56	21.686
491.91	22.755
492.26	22.003
492.60	22.396
492.95	22.217
493.30	21.495
493.64	21.699
493.99	21.959
494.34	21.970
494.68	22.756
495.03	22.274
495.37	22.289
495.72	22.271
496.07	22.506
496.41	21.814
496.76	22.164
497.11	21.657
497.45	21.751
497.80	21.305
498.14	21.546
498.49	21.512
498.84	21.524
499.18	21.286
499.53	21.083
499.87	21.528
500.22	20.961
500.56	21.748
500.91	21.538
501.26	21.147
501.60	21.357
501.95	20.440
502.29	21.368
502.64	21.322
502.98	20.290
503.33	20.338
503.67	21.067
504.02	20.954
504.36	20.590
504.71	20.664
505.06	20.771
505.40	20.661
505.75	20.588
506.09	20.700
506.44	21.312
506.78	21.140
507.13	20.697
507.47	20.808
507.82	20.669
508.16	20.314
508.51	20.751
508.85	20.407
509.19	20.102
509.54	20.714
509.88	19.990
510.23	19.897
510.57	21.156
510.92	20.715
511.26	20.504
511.61	20.902
511.95	20.251
512.30	20.308
512.64	21.386
512.98	20.793
513.33	20.878
513.67	19.317
514.02	20.400
514.36	20.153
514.70	21.195
515.05	19.799
515.39	21.368
515.74	19.932
516.08	20.514
516.42	21.088
516.77	20.736
517.11	19.922
517.46	20.316
517.80	19.803
518.14	19.745
518.49	20.770
518.83	20.398
519.17	19.284
519.52	19.977
519.86	20.365
520.20	21.329
520.55	20.586
520.89	20.073
521.23	20.748
521.58	20.708
521.92	20.331
522.26	19.951
522.61	20.374
522.95	19.890
523.29	20.268
523.64	20.488
523.98	20.394
524.32	20.567
524.66	20.986
525.01	19.669
525.35	20.756
525.69	19.828
526.04	20.187
526.38	20.195
526.72	19.571
527.06	20.402
527.41	19.059
527.75	20.257
528.09	20.295
528.43	20.268
528.78	19.975
529.12	19.455
529.46	20.208
529.80	20.668
530.15	20.312
530.49	19.446
530.83	19.937
531.17	21.214
531.51	20.493
531.86	19.806
532.20	20.209
532.54	21.332
532.88	20.026
533.22	20.487
533.57	19.938
533.91	19.326
534.25	19.623
534.59	18.609
534.93	18.917
535.27	19.614
535.62	19.231
535.96	20.402
536.30	19.390
536.64	19.768
536.98	19.774
537.32	19.355
537.66	19.333
538.01	20.276
538.35	19.780
538.69	19.847
539.03	19.363
539.37	18.275
539.71	17.758
540.05	18.824
540.39	19.269
540.73	19.470
541.07	20.052
541.42	18.787
541.76	19.806
542.10	18.823
542.44	19.404
542.78	20.356
543.12	19.834
543.46	19.148
543.80	20.169
544.14	17.908
544.48	19.048
544.82	18.089
545.16	19.388
545.50	18.445
545.84	19.892
546.18	18.316
546.52	19.477
546.86	19.313
547.20	19.757
547.54	19.305
547.88	19.388
548.22	19.240
548.56	18.491
548.90	17.798
549.24	18.653
549.58	18.759
549.92	18.887
550.26	19.318
550.60	18.603
550.94	19.014
551.28	17.776
551.62	19.698
551.96	19.088
552.30	19.044
552.64	18.864
552.98	19.186
553.32	19.420
553.66	18.405
554.00	18.600
554.34	17.943
554.68	19.099
555.02	18.336
555.36	18.580
555.69	19.147
556.03	17.968
556.37	18.076
556.71	18.349
557.05	18.557
557.39	19.314
557.73	18.207
558.07	18.709
558.41	18.234
558.75	19.471
559.08	18.494
559.42	18.594
559.76	17.574
560.10	18.701
560.44	18.099
560.78	17.898
561.12	18.008
561.45	19.100
561.79	18.260
562.13	18.645
562.47	17.760
562.81	18.061
563.15	18.127
563.48	17.772
563.82	17.873
564.16	16.874
564.50	17.253
564.84	16.814
565.17	16.988
565.51	17.891
565.85	18.084
566.19	16.969
566.52	18.113
566.86	17.179
567.20	17.925
567.54	17.180
567.88	16.404
568.21	16.825
568.55	16.886
568.89	15.905
569.23	16.845
569.56	15.628
569.90	15.358
570.24	15.752
570.57	15.437
570.91	14.964
571.25	15.009
571.59	15.258
571.92	14.660
572.26	14.847
572.60	15.165
572.93	15.472
573.27	14.877
573.61	14.740
573.95	14.703
574.28	14.095
574.62	14.261
574.96	14.241
575.29	14.355
575.63	14.101
575.97	14.215
576.30	14.418
576.64	14.304
576.98	13.977
577.31	14.233
577.65	14.093
577.98	13.530
578.32	13.642
578.66	14.025
578.99	13.901
579.33	14.040
579.67	14.084
580.00	14.289
580.34	14.001
580.67	13.968
581.01	14.167
581.35	13.766
581.68	14.190
582.02	13.381
582.35	13.779
582.69	13.549
583.02	13.810
583.36	13.811
583.70	13.936
584.03	14.420
584.37	14.862
584.70	13.976
585.04	14.114
585.37	14.096
585.71	14.051
586.04	14.061
586.38	13.741
586.72	14.941
587.05	14.235
587.39	13.588
587.72	14.326
588.06	13.474
588.39	14.540
588.73	14.168
589.06	14.740
589.40	14.545
589.73	14.748
590.07	14.662
590.40	14.870
590.73	14.598
591.07	15.222
591.40	14.846
591.74	15.281
592.07	15.314
592.41	15.006
592.74	13.970
593.08	14.657
593.41	13.730
593.75	13.741
594.08	14.583
594.41	14.634
594.75	14.307
595.08	14.495
595.42	14.571
595.75	14.459
596.09	14.870
596.42	15.285
596.75	15.112
597.09	15.455
597.42	14.713
597.75	15.006
598.09	15.522
598.42	14.433
598.76	14.390
599.09	14.443
599.42	14.410
599.76	14.898
600.09	14.171
600.42	14.061
600.76	14.143
601.09	13.807
601.42	14.536
601.76	14.725
602.09	14.387
602.42	14.252
602.76	14.833
603.09	15.028
603.42	14.291
603.76	14.520
604.09	13.959
604.42	14.472
604.76	14.762
605.09	14.679
605.42	14.493
605.75	14.901
606.09	14.559
606.42	14.181
606.75	14.517
607.09	14.860
607.42	14.206
607.75	14.304
608.08	13.895
608.42	14.254
608.75	14.427
609.08	14.986
609.41	15.040
609.75	14.483
610.08	15.127
610.41	14.758
610.74	14.333
611.07	14.575
611.41	14.818
611.74	15.033
612.07	14.752
612.40	15.373
612.73	15.684
613.07	14.817
613.40	15.640
613.73	14.945
614.06	15.215
614.39	15.102
614.72	15.211
615.06	15.966
615.39	14.968
615.72	14.928
616.05	14.514
616.38	15.675
616.71	15.796
617.05	15.371
617.38	15.394
617.71	15.796
618.04	16.346
618.37	15.376
618.70	15.681
619.03	16.250
619.36	16.022
619.69	15.915
620.03	17.033
620.36	16.176
620.69	17.260
621.02	16.888
621.35	15.740
621.68	16.199
622.01	16.331
622.34	16.868
622.67	16.198
623.00	15.847
623.33	15.797
623.66	16.869
623.99	15.390
624.32	15.621
624.65	16.384
624.99	16.360
625.32	16.437
625.65	16.454
625.98	16.679
626.31	17.885
626.64	16.898
626.97	16.459
627.30	17.041
627.63	16.817
627.96	16.484
628.29	16.885
628.62	17.841
628.95	18.208
629.28	17.062
629.61	18.973
629.94	18.286
630.26	17.159
630.59	18.112
630.92	16.858
631.25	17.966
631.58	16.416
631.91	17.850
632.24	18.249
632.57	18.573
632.90	18.092
633.23	18.233
633.56	20.565
633.89	18.573
634.22	18.388
634.55	19.763
634.88	17.365
635.20	19.235
635.53	18.916
635.86	18.812
636.19	19.765
636.52	18.685
636.85	18.099
637.18	18.664
637.51	19.858
637.83	16.400
638.16	17.903
638.49	20.025
638.82	19.469
639.15	20.500
639.48	20.698
639.81	20.509
640.13	19.661
640.46	18.255
640.79	19.155
641.12	17.882
641.45	19.693
641.77	20.913
642.10	19.006
642.43	19.069
642.76	19.814
643.09	20.399
643.41	17.906
643.74	21.296
644.07	20.884
644.40	22.546
644.73	21.417
645.05	22.187
645.38	20.537
645.71	21.739
646.04	22.591
646.36	22.705
646.69	23.579
647.02	21.088
647.35	21.306
647.67	21.770
648.00	21.301
648.33	19.802
648.66	22.576
648.98	20.090
649.31	18.386
649.64	18.685
649.96	18.182
650.29	21.801
650.62	19.903
650.94	22.690
651.27	21.453
651.60	21.464
651.92	21.406
652.25	19.218
652.58	19.938
652.90	20.537
653.23	18.952
653.56	18.898
653.88	22.029
654.21	19.905
654.54	20.792
654.86	19.626
655.19	19.324
655.52	12.612
655.84	9.671
656.17	12.626
656.49	17.056
656.82	17.569
657.15	13.382
657.47	9.963
657.80	7.804
658.13	8.019
658.45	11.835
658.78	11.970
659.10	12.632
659.43	12.832
659.75	14.649
660.08	15.443
660.41	17.877
660.73	20.076
661.06	20.541
661.38	23.091
661.71	22.500
662.03	22.682
662.36	21.869
662.68	22.289
663.01	22.222
663.33	23.355
663.66	23.109
663.98	22.030
664.31	20.588
664.63	21.457
664.96	20.926
665.28	23.975
665.61	22.612
665.93	23.541
666.26	20.690
666.58	25.314
666.91	24.947
667.23	20.225
667.56	23.110
667.88	22.650
668.21	24.733
668.53	23.861
668.86	22.078
669.18	24.947
669.50	22.391
669.83	26.144
670.15	24.000
670.48	22.004
670.80	23.060
671.13	23.567
671.45	23.617
671.77	21.589
672.10	21.811
672.42	20.495
672.75	20.896
673.07	20.599
673.39	20.253
673.72	19.531
674.04	21.176
674.37	22.330
674.69	22.699
675.01	19.874
675.34	23.614
675.66	25.895
675.98	21.792
676.31	24.580
676.63	22.930
676.95	22.222
677.28	21.028
677.60	22.198
677.92	24.895
678.25	23.203
678.57	21.713
678.89	19.840
679.22	20.236
679.54	22.710
679.86	23.303
680.18	21.646
680.51	21.099
680.83	21.886
681.15	22.642
681.48	22.873
681.80	21.083
682.12	21.264
682.44	19.923
682.77	23.422
683.09	25.322
683.41	23.060
683.73	23.179
684.06	25.000
684.38	22.896
684.70	21.705
685.02	22.702
685.34	22.161
685.67	19.930
685.99	20.962
686.31	19.454
686.63	19.965
686.96	18.929
687.28	20.939
687.60	21.014
687.92	23.400
688.24	21.103
688.56	21.084
688.89	23.859
689.21	24.017
689.53	22.756
689.85	24.834
690.17	20.290
690.49	25.478
690.82	23.832
691.14	20.982
691.46	20.042
691.78	23.695
692.10	23.554
692.42	21.756
692.74	23.029
693.06	18.723
693.39	22.587
693.71	25.109
694.03	21.684
694.35	24.892
694.67	23.341
694.99	22.439
695.31	22.549
695.63	25.837
695.95	27.139
696.27	22.081
696.59	24.870
696.91	25.907
697.23	20.892
697.56	23.028
697.88	20.654
698.20	22.083
698.52	22.581
698.84	24.944
699.16	24.654
699.48	23.515
699.80	26.812
700.12	27.532
700.44	25.995
700.76	24.586
701.08	23.563
701.40	24.302
701.72	25.364
702.04	31.250
702.36	24.363
702.68	23.796
703.00	24.931
703.32	24.202
703.64	26.005
703.96	24.234
704.28	25.000
704.60	25.513
704.91	27.596
705.23	29.326
705.55	30.897
705.87	32.890
706.19	30.389
706.51	28.349
706.83	27.879
707.15	28.011
707.47	25.253
707.79	27.518
708.11	23.744
708.43	25.476
708.74	24.745
709.06	23.896
709.38	27.297
709.70	27.035
710.02	28.783
710.34	23.939
710.66	27.463
710.98	26.989
711.29	24.128
711.61	28.319
711.93	28.526
712.25	28.296
712.57	30.515
712.89	26.644
713.20	28.571
713.52	27.303
713.84	25.000
714.16	26.220
714.48	26.149
714.80	31.003
715.11	25.648
715.43	27.003
715.75	25.797
716.07	25.879
716.39	26.646
716.70	29.236
717.02	26.978
717.34	31.449
717.66	32.463
717.97	38.247
718.29	32.963
718.61	33.577
718.93	29.044
719.24	27.336
719.56	30.169
719.88	29.831
720.20	33.108
720.51	27.178
720.83	31.599
721.15	27.239
721.46	30.496
721.78	31.183
722.10	33.585
722.42	30.075
722.73	31.086
723.05	30.738
723.37	31.984
723.68	33.205
724.00	31.707
724.32	31.855
724.63	32.927
724.95	30.126
725.27	34.413
725.58	31.641
725.90	31.387
726.22	30.189
726.53	31.250
726.85	32.082
727.16	29.537
727.48	28.723
727.80	34.091
728.11	31.522
728.43	25.385
728.74	30.824
729.06	35.036
729.38	32.721
729.69	30.249
730.01	28.669
730.32	26.042
730.64	30.435
730.96	29.373
731.27	26.490
731.59	30.275
731.90	29.738
732.22	27.640
732.53	27.554
732.85	27.564
733.16	30.225
733.48	26.578
733.80	28.571
734.11	28.981
734.43	24.852
734.74	27.143
735.06	24.642
735.37	28.035
735.69	24.841
736.00	29.739
736.32	28.972
736.63	27.157
736.95	27.476
737.26	21.429
737.58	23.871
737.89	28.763
738.21	29.352
738.52	32.143
738.83	30.566
739.15	29.615
739.46	30.292
739.78	27.778
740.09	26.154
740.41	27.742
740.72	23.345
741.04	25.926
741.35	29.583
741.66	39.111
741.98	35.849
742.29	40.670
742.61	33.621
742.92	36.652
743.23	32.906
743.55	32.800
743.86	37.281
744.18	37.611
744.49	36.364
744.80	35.681
745.12	40.000
745.43	35.683
745.74	36.937
746.06	35.780
746.37	34.978
746.68	32.579
747.00	39.352
747.31	39.048
747.62	31.416
747.94	31.278
748.25	31.064
748.56	33.480
748.88	33.663
749.19	40.000
749.50	34.884
749.82	32.520
750.13	28.571
750.44	32.847
750.75	32.281
751.07	32.476
751.38	30.662
751.69	26.354
752.01	27.820
752.32	29.603
752.63	29.433
752.94	33.197
753.26	32.400
753.57	28.049
753.88	31.641
754.19	28.571
754.51	30.208
754.82	24.188
755.13	30.566
755.44	28.571
755.75	32.117
756.07	28.723
756.38	22.993
756.69	27.181
757.00	29.042
757.31	26.706
757.63	22.222
757.94	25.469
758.25	20.833
758.56	24.938
758.87	27.688
759.18	24.242
759.50	27.586
759.81	28.037
760.12	21.562
760.43	26.648
760.74	25.272
761.05	26.836
761.36	28.075
761.67	25.568
761.99	26.087
762.30	28.472
762.61	31.679
762.92	31.641
763.23	28.992
763.54	33.600
763.85	31.250
764.16	37.308
764.47	28.137
764.78	26.855
765.10	22.468
765.41	27.434
765.72	25.749
766.03	27.273
766.34	28.000
766.65	33.191
766.96	35.470
767.27	40.609
767.58	40.625
767.89	40.526
768.20	36.207
768.51	40.102
768.82	33.945
769.13	30.488
769.44	31.579
769.75	33.906
770.06	25.229
770.37	36.199
770.68	33.796
770.99	31.111
771.30	23.770
771.61	30.942
771.92	36.475
772.23	39.916
772.54	40.000
772.85	35.079
773.16	39.362
773.47	39.674
773.78	37.563
774.09	38.095
774.39	43.275
774.70	42.593
775.01	45.652
775.32	48.366
775.63	46.711
775.94	44.604
776.25	51.181
776.56	50.746
776.87	46.721
777.18	50.000
777.48	58.779
777.79	58.333
778.10	49.630
778.41	52.679
778.72	38.686
779.03	46.309
779.34	48.993
779.65	39.865
779.95	47.853
780.26	47.059
780.57	48.966
780.88	55.469
781.19	51.880
781.50	44.595
781.80	44.025
782.11	35.593
782.42	44.937
782.73	39.264
783.04	51.351
783.34	49.296
783.65	48.630
783.96	49.254
784.27	47.552
784.57	44.604
784.88	47.222
785.19	57.937
785.50	54.717
785.81	56.716
786.11	54.918
786.42	53.488
786.73	47.788
787.04	59.434
787.34	55.357
787.65	57.000
787.96	58.559
788.26	44.628
788.57	60.169
788.88	60.331
789.19	54.167
789.49	56.061
789.80	58.779
790.11	54.286
790.41	52.475
790.72	55.422
791.03	70.652
791.33	83.721
791.64	67.010
791.95	59.406
792.25	70.000
792.56	83.117
792.87	83.333
793.17	77.215
793.48	81.609
793.79	62.069
794.09	70.455
794.40	49.580
794.70	50.000
795.01	43.704
795.32	36.691
795.62	47.244
795.93	50.862
796.23	54.867
796.54	68.235
796.85	75.676
797.15	84.507
797.46	74.242
797.76	83.133
798.07	65.823
798.37	72.308
798.68	78.788
798.99	67.606
799.29	58.442
799.60	71.591
799.90	83.562
800.21	70.149
800.51	89.655
800.82	107.018
801.12	96.721
801.43	80.303
801.73	90.541
802.04	84.127
802.34	85.185
802.65	81.250
802.95	105.085
803.26	118.750
803.56	84.286
803.87	86.154
804.17	98.529
804.48	101.852
804.78	98.276
805.09	83.824
805.39	103.846
805.70	76.786
806.00	90.164
806.30	78.788
806.61	79.268
806.91	67.089
807.22	92.105
807.52	71.642
807.83	69.014
808.13	100.000
808.43	85.000
808.74	84.211
809.04	89.855
809.35	85.075
809.65	63.158
809.95	96.774
810.26	120.339
810.56	106.349
810.86	150.000
811.17	128.571
811.47	105.000
811.77	107.407
812.08	134.545
812.38	120.000
812.69	141.667
812.99	163.636
813.29	104.082
813.59	85.714
813.90	116.327
814.20	100.000
814.50	96.923
814.81	94.118
815.11	114.286
815.41	103.279
815.72	145.238
816.02	121.818
816.32	128.571
816.62	117.500
816.93	151.220
817.23	121.429
817.53	134.091
817.84	175.758
818.14	134.783
818.44	131.111
818.74	167.647
819.04	140.000
819.35	157.143
819.65	147.059
819.95	189.286
820.25	185.000
820.56	151.282
820.86	140.909
821.16	137.209
821.46	120.513
821.76	118.000
822.07	154.286
822.37	150.000
822.67	184.848
822.97	111.765
823.27	175.000
823.57	127.027
823.88	145.000
824.18	180.000
824.48	154.762
824.78	192.000
825.08	175.000
825.38	137.838
825.69	131.707
825.99	245.833
826.29	179.310
826.59	186.842
826.89	165.789
827.19	161.765
827.49	200.000
827.79	143.182
828.09	140.909
828.39	117.021
828.70	122.449
829.00	159.259
829.30	164.516
829.60	135.000
829.90	240.000
830.20	178.571
830.50	191.304
830.80	213.043
831.10	173.333
831.40	193.333
831.70	195.652
832.00	246.154
832.30	196.296
832.60	343.750
832.90	200.000
833.20	392.857
833.50	209.677
833.80	227.586
834.10	193.750
834.40	207.692
834.70	355.556
835.00	333.333
835.30	180.000
835.60	376.923
835.90	179.310
836.20	342.857
836.50	193.103
836.80	208.000
837.10	136.111
837.40	247.619
837.70	323.529
838.00	229.630
838.30	257.143
838.60	290.476
838.90	223.077
839.19	295.000
839.49	428.571
839.79	330.000
840.09	300.000
840.39	266.667
840.69	260.870
840.99	283.333
841.29	500.000
841.59	383.333
841.88	375.000
842.18	179.310
842.48	247.619
842.78	183.333
843.08	208.696
843.38	190.625
843.68	1033.333
843.97	250.000
844.27	206.897
844.57	276.190
844.87	375.000
845.17	214.815
845.47	1300.000
845.76	644.444
846.06	264.706
846.36	612.500
846.66	450.000
846.96	312.500
847.25	354.545
847.55	363.636
847.85	260.870
848.15	490.000
848.44	385.714
848.74	244.444
849.04	329.412
849.34	540.000
849.63	252.632
849.93	445.455
850.23	780.000
850.53	407.143
850.82	2600.000
851.12	-4500.000
851.42	4300.000
851.71	285.000
852.01	-1133.333
852.31	275.000
852.61	1566.667
852.90	266.667
853.20	208.000
853.50	382.353
853.79	261.905
854.09	254.167
854.39	393.750
854.68	191.892
854.98	190.323
855.28	163.333
855.57	234.483
855.87	207.407
856.17	257.895
856.46	260.000
856.76	352.941
857.05	172.414
857.35	237.500
857.65	326.667
857.94	230.435
858.24	238.462
858.53	340.000
858.83	263.636
859.13	420.000
859.42	0.000
859.72	600.000
860.01	490.909
860.31	281.818
860.60	326.316
860.90	234.783
861.20	555.556
861.49	458.333
861.79	-4700.000
862.08	675.000
862.38	285.714
862.67	315.385
862.97	311.765
863.26	577.778
863.56	327.778
863.85	425.000
864.15	662.500
864.44	380.000
864.74	883.333
865.03	637.500
865.33	352.632
865.62	500.000
865.92	453.846
866.21	333.333
866.51	0.000
866.80	409.091
867.10	1080.000
867.39	423.077
867.69	509.091
867.98	294.737
868.27	509.091
868.57	347.368
868.86	-5000.000
869.16	312.500
869.45	2200.000
869.75	-3300.000
870.04	458.333
870.33	714.286
870.63	1000.000
870.92	2700.000
871.22	742.857
871.51	370.588
871.80	228.571
872.10	414.286
>>>>>End Processed Spectral Data<<<<<
