SpectraSuite Data File
++++++++++++++++++++++++++++++++++++
Date: Tue May 12 19:41:04 PDT 2015
User: schluterlab
Dark Spectrum Present: Yes
Reference Spectrum Present: Yes
Number of Sampled Component Spectra: 1
Spectrometers: USB2E3373
Integration Time (usec): 3000 (USB2E3373)
Spectra Averaged: 3 (USB2E3373)
Boxcar Smoothing: 0 (USB2E3373)
Correct for Electrical Dark: No (USB2E3373)
Strobe/Lamp Enabled: No (USB2E3373)
Correct for Detector Non-linearity: No (USB2E3373)
Correct for Stray Light: No (USB2E3373)
Number of Pixels in Processed Spectrum: 2048
>>>>>Begin Processed Spectral Data<<<<<
178.53	0.000
178.91	-80.000
179.29	-183.333
179.67	333.333
180.04	0.000
180.42	-120.000
180.80	-166.667
181.18	800.000
181.56	-150.000
181.94	16.667
182.31	1600.000
182.69	-71.429
183.07	0.000
183.45	191.667
183.83	240.000
184.20	316.667
184.58	150.000
184.96	266.667
185.34	-266.667
185.72	-100.000
186.09	-50.000
186.47	-1300.000
186.85	40.000
187.23	108.333
187.61	-157.143
187.98	-180.000
188.36	400.000
188.74	-75.000
189.12	-11.111
189.49	40.000
189.87	150.000
190.25	122.222
190.63	400.000
191.00	180.000
191.38	-566.667
191.76	380.000
192.14	85.714
192.51	-30.000
192.89	-100.000
193.27	-20.000
193.65	-200.000
194.02	-216.667
194.40	200.000
194.78	-75.000
195.15	-171.429
195.53	233.333
195.91	180.000
196.29	-350.000
196.66	-100.000
197.04	-71.429
197.42	200.000
197.79	-87.500
198.17	-16.667
198.55	-300.000
198.92	-100.000
199.30	300.000
199.68	75.000
200.05	-650.000
200.43	5.556
200.81	-33.333
201.18	233.333
201.56	-100.000
201.94	-1000.000
202.31	16.667
202.69	0.000
203.07	58.333
203.44	-400.000
203.82	0.000
204.19	187.500
204.57	-266.667
204.95	100.000
205.32	100.000
205.70	200.000
206.08	-700.000
206.45	-120.000
206.83	1100.000
207.20	-88.889
207.58	38.462
207.96	33.333
208.33	466.667
208.71	500.000
209.08	350.000
209.46	-66.667
209.84	166.667
210.21	-533.333
210.59	-50.000
210.96	244.444
211.34	-250.000
211.71	600.000
212.09	120.000
212.46	-137.500
212.84	-125.000
213.22	100.000
213.59	-25.000
213.97	0.000
214.34	-50.000
214.72	-1300.000
215.09	500.000
215.47	-20.000
215.84	37.500
216.22	-200.000
216.59	-0.000
216.97	8.333
217.34	150.000
217.72	11.111
218.09	300.000
218.47	-31.579
218.84	-100.000
219.22	7.143
219.59	-150.000
219.97	-50.000
220.34	200.000
220.72	81.818
221.09	-100.000
221.47	0.000
221.84	-0.000
222.22	-175.000
222.59	-50.000
222.97	-34.783
223.34	120.000
223.72	142.857
224.09	-66.667
224.46	92.308
224.84	-20.000
225.21	-100.000
225.59	0.000
225.96	35.000
226.34	250.000
226.71	100.000
227.08	84.615
227.46	-57.143
227.83	0.000
228.21	-550.000
228.58	-0.000
228.95	26.316
229.33	6.250
229.70	-66.667
230.08	-88.889
230.45	-400.000
230.82	-1000.000
231.20	76.190
231.57	-220.000
231.95	-100.000
232.32	200.000
232.69	-450.000
233.07	31.250
233.44	-37.500
233.81	25.806
234.19	-20.000
234.56	11.111
234.93	-150.000
235.31	62.963
235.68	14.815
236.05	61.538
236.43	-10.526
236.80	9.091
237.17	0.000
237.55	-20.000
237.92	55.814
238.29	45.161
238.67	57.143
239.04	77.143
239.41	58.824
239.79	42.000
240.16	70.000
240.53	44.828
240.91	47.945
241.28	40.845
241.65	56.250
242.02	57.895
242.40	37.333
242.77	48.421
243.14	62.353
243.51	47.312
243.89	52.381
244.26	46.296
244.63	58.163
245.00	43.750
245.38	41.176
245.75	56.780
246.12	52.344
246.49	54.400
246.87	50.820
247.24	45.775
247.61	52.980
247.98	44.944
248.36	59.119
248.73	50.568
249.10	57.778
249.47	55.729
249.84	51.777
250.22	52.083
250.59	56.742
250.96	54.545
251.33	62.736
251.70	57.339
252.08	58.874
252.45	50.204
252.82	56.540
253.19	55.253
253.56	58.824
253.94	58.130
254.31	62.230
254.68	53.819
255.05	56.291
255.42	59.273
255.79	61.258
256.16	58.333
256.54	52.424
256.91	58.974
257.28	56.494
257.65	60.656
258.02	55.856
258.39	55.589
258.76	55.352
259.14	56.471
259.51	56.620
259.88	58.501
260.25	57.955
260.62	53.371
260.99	58.496
261.36	62.069
261.73	58.400
262.10	59.946
262.47	59.229
262.85	56.555
263.22	57.796
263.59	62.198
263.96	61.619
264.33	54.987
264.70	57.494
265.07	56.404
265.44	60.656
265.81	59.759
266.18	60.890
266.55	64.048
266.92	56.920
267.29	58.667
267.66	55.455
268.03	59.355
268.40	61.327
268.77	57.238
269.14	56.092
269.51	57.466
269.88	57.051
270.25	52.954
270.62	60.504
270.99	57.263
271.36	58.720
271.73	55.208
272.10	57.676
272.47	56.800
272.84	56.263
273.21	54.697
273.58	55.306
273.95	54.980
274.32	55.513
274.69	53.033
275.06	54.972
275.43	54.000
275.80	58.509
276.17	56.719
276.54	57.034
276.91	58.349
277.28	58.607
277.65	56.522
278.02	55.682
278.39	58.439
278.76	57.914
279.13	61.181
279.50	56.318
279.87	56.604
280.23	57.377
280.60	54.947
280.97	56.591
281.34	53.898
281.71	53.819
282.08	54.383
282.45	55.556
282.82	54.040
283.19	54.714
283.56	57.338
283.92	54.502
284.29	55.161
284.66	54.513
285.03	53.173
285.40	53.333
285.77	55.008
286.14	50.713
286.51	52.572
286.87	53.160
287.24	50.801
287.61	51.543
287.98	54.930
288.35	52.558
288.72	52.141
289.08	52.358
289.45	51.482
289.82	49.224
290.19	52.121
290.56	50.362
290.93	50.960
291.29	50.071
291.66	50.281
292.03	50.215
292.40	49.496
292.77	48.834
293.13	45.815
293.50	49.174
293.87	48.405
294.24	47.191
294.60	46.858
294.97	45.568
295.34	46.849
295.71	46.463
296.08	44.945
296.44	44.928
296.81	45.408
297.18	47.348
297.55	45.854
297.91	44.797
298.28	45.652
298.65	42.691
299.02	43.650
299.38	43.112
299.75	45.560
300.12	42.686
300.48	41.197
300.85	42.176
301.22	42.788
301.59	42.944
301.95	41.585
302.32	43.256
302.69	39.952
303.05	41.795
303.42	42.029
303.79	39.775
304.15	42.356
304.52	40.335
304.89	40.586
305.25	41.628
305.62	41.477
305.99	39.530
306.35	41.275
306.72	41.068
307.09	38.955
307.45	40.129
307.82	40.128
308.19	39.494
308.55	39.979
308.92	41.419
309.29	40.900
309.65	39.628
310.02	39.099
310.38	41.151
310.75	40.779
311.12	39.776
311.48	41.007
311.85	40.122
312.22	40.702
312.58	39.074
312.95	40.041
313.31	38.446
313.68	39.523
314.05	40.814
314.41	38.998
314.78	39.799
315.14	38.394
315.51	39.722
315.87	42.383
316.24	40.455
316.61	40.777
316.97	40.392
317.34	40.766
317.70	40.710
318.07	40.984
318.43	40.926
318.80	38.889
319.16	39.609
319.53	40.943
319.89	41.761
320.26	41.396
320.62	42.926
320.99	42.551
321.35	40.711
321.72	42.222
322.08	42.079
322.45	42.702
322.81	42.956
323.18	42.090
323.54	42.275
323.91	42.694
324.27	41.562
324.64	42.268
325.00	41.310
325.37	42.086
325.73	40.785
326.10	40.368
326.46	42.520
326.83	45.383
327.19	44.279
327.56	46.154
327.92	42.795
328.29	43.459
328.65	44.256
329.01	43.578
329.38	43.067
329.74	44.290
330.11	43.243
330.47	43.203
330.84	43.703
331.20	42.976
331.56	43.302
331.93	41.720
332.29	44.681
332.66	44.304
333.02	41.411
333.38	43.658
333.75	44.190
334.11	42.857
334.48	42.039
334.84	44.131
335.20	42.435
335.57	43.869
335.93	43.721
336.29	44.516
336.66	43.716
337.02	43.608
337.38	43.585
337.75	43.545
338.11	45.214
338.47	44.475
338.84	44.107
339.20	45.188
339.56	45.760
339.93	43.243
340.29	44.424
340.65	44.384
341.02	43.490
341.38	45.190
341.74	44.751
342.11	45.447
342.47	44.668
342.83	45.707
343.20	45.447
343.56	46.503
343.92	46.194
344.28	44.854
344.65	44.949
345.01	45.993
345.37	47.009
345.73	47.028
346.10	47.623
346.46	47.541
346.82	48.343
347.19	48.612
347.55	48.895
347.91	48.731
348.27	49.874
348.63	49.092
349.00	49.583
349.36	48.063
349.72	48.686
350.08	49.509
350.45	50.041
350.81	49.546
351.17	49.918
351.53	50.161
351.89	50.604
352.26	49.756
352.62	51.594
352.98	50.962
353.34	50.376
353.70	50.700
354.07	52.306
354.43	50.751
354.79	52.541
355.15	51.009
355.51	53.056
355.87	53.539
356.24	52.696
356.60	52.838
356.96	50.869
357.32	53.663
357.68	53.063
358.04	52.512
358.40	53.191
358.77	53.092
359.13	53.574
359.49	53.200
359.85	52.758
360.21	53.688
360.57	53.509
360.93	53.365
361.29	54.050
361.66	53.943
362.02	54.631
362.38	54.235
362.74	54.804
363.10	53.017
363.46	53.424
363.82	54.135
364.18	53.369
364.54	53.969
364.90	54.296
365.26	56.557
365.62	55.034
365.98	56.297
366.35	55.673
366.71	56.535
367.07	55.793
367.43	54.152
367.79	54.869
368.15	55.967
368.51	56.929
368.87	57.636
369.23	57.456
369.59	56.103
369.95	55.589
370.31	57.879
370.67	56.015
371.03	56.656
371.39	58.233
371.75	55.646
372.11	57.630
372.47	56.347
372.83	57.268
373.19	58.434
373.55	57.859
373.91	58.788
374.27	58.352
374.63	59.205
374.99	58.785
375.35	58.345
375.71	58.895
376.07	57.173
376.42	58.506
376.78	58.815
377.14	59.218
377.50	59.166
377.86	59.262
378.22	59.709
378.58	60.724
378.94	60.380
379.30	60.103
379.66	58.899
380.02	60.521
380.38	60.941
380.74	60.162
381.09	61.753
381.45	61.143
381.81	61.480
382.17	61.629
382.53	63.577
382.89	61.450
383.25	60.748
383.61	61.920
383.97	62.313
384.32	61.677
384.68	62.644
385.04	61.871
385.40	61.661
385.76	64.200
386.12	62.970
386.48	64.057
386.83	63.924
387.19	65.453
387.55	64.508
387.91	63.427
388.27	63.532
388.62	65.479
388.98	65.967
389.34	65.192
389.70	65.705
390.06	64.686
390.42	66.599
390.77	65.594
391.13	66.168
391.49	66.914
391.85	66.401
392.20	66.601
392.56	65.095
392.92	67.285
393.28	65.829
393.64	68.398
393.99	66.753
394.35	68.332
394.71	66.159
395.07	68.369
395.42	67.683
395.78	67.809
396.14	68.155
396.50	67.982
396.85	67.944
397.21	67.206
397.57	68.993
397.92	69.148
398.28	70.084
398.64	69.143
399.00	68.601
399.35	68.406
399.71	68.443
400.07	69.673
400.42	71.410
400.78	71.529
401.14	69.634
401.49	70.831
401.85	70.984
402.21	72.145
402.57	69.736
402.92	71.315
403.28	70.481
403.63	70.705
403.99	71.136
404.35	69.172
404.70	71.881
405.06	72.288
405.42	71.893
405.77	70.452
406.13	71.087
406.49	71.609
406.84	71.918
407.20	70.508
407.55	71.209
407.91	73.077
408.27	73.271
408.62	70.997
408.98	72.844
409.34	71.127
409.69	71.237
410.05	72.215
410.40	71.869
410.76	72.354
411.11	72.657
411.47	72.245
411.83	71.024
412.18	71.662
412.54	71.151
412.89	72.539
413.25	72.727
413.60	73.087
413.96	72.492
414.31	72.467
414.67	74.814
415.03	71.438
415.38	73.816
415.74	72.330
416.09	72.433
416.45	74.522
416.80	72.531
417.16	72.920
417.51	73.768
417.87	74.692
418.22	72.861
418.58	74.015
418.93	73.694
419.29	73.406
419.64	75.206
420.00	74.460
420.35	73.949
420.71	75.096
421.06	75.276
421.42	73.902
421.77	75.396
422.12	72.357
422.48	74.415
422.83	74.468
423.19	73.353
423.54	74.282
423.90	75.031
424.25	76.314
424.61	73.871
424.96	74.140
425.31	75.121
425.67	74.303
426.02	74.099
426.38	75.547
426.73	73.333
427.09	75.903
427.44	76.173
427.79	75.619
428.15	74.889
428.50	74.874
428.85	73.894
429.21	76.330
429.56	74.365
429.92	73.770
430.27	74.720
430.62	74.094
430.98	74.637
431.33	75.306
431.68	75.547
432.04	76.007
432.39	73.678
432.74	75.269
433.10	75.985
433.45	76.694
433.80	74.464
434.16	74.684
434.51	74.582
434.86	76.073
435.22	75.320
435.57	76.913
435.92	75.418
436.28	74.720
436.63	76.744
436.98	76.914
437.34	77.095
437.69	75.864
438.04	76.562
438.39	75.065
438.75	74.708
439.10	77.738
439.45	76.958
439.81	74.095
440.16	76.933
440.51	74.969
440.86	77.399
441.22	75.342
441.57	76.296
441.92	78.189
442.27	75.200
442.63	76.072
442.98	77.812
443.33	76.968
443.68	75.652
444.03	74.794
444.39	75.794
444.74	74.299
445.09	75.266
445.44	75.452
445.79	76.321
446.15	76.327
446.50	75.130
446.85	75.303
447.20	75.875
447.55	74.578
447.91	75.544
448.26	75.193
448.61	75.166
448.96	75.577
449.31	74.985
449.66	74.274
450.02	73.373
450.37	75.820
450.72	75.404
451.07	75.808
451.42	76.877
451.77	75.536
452.12	74.499
452.47	77.236
452.83	75.093
453.18	74.679
453.53	76.682
453.88	76.324
454.23	75.016
454.58	75.000
454.93	74.319
455.28	75.356
455.63	75.179
455.98	75.952
456.34	75.218
456.69	75.085
457.04	75.394
457.39	74.594
457.74	75.790
458.09	74.611
458.44	76.395
458.79	75.501
459.14	73.226
459.49	75.987
459.84	74.435
460.19	74.171
460.54	72.348
460.89	74.000
461.24	74.481
461.59	75.899
461.94	74.885
462.29	73.810
462.64	75.557
462.99	74.547
463.34	74.579
463.69	75.789
464.04	75.176
464.39	75.498
464.74	72.875
465.09	73.055
465.44	72.406
465.79	73.406
466.14	72.196
466.49	73.052
466.84	73.219
467.19	72.775
467.54	71.154
467.89	72.110
468.24	72.412
468.59	71.531
468.94	73.705
469.29	72.941
469.64	72.356
469.99	73.324
470.34	71.146
470.68	72.000
471.03	69.854
471.38	71.204
471.73	71.221
472.08	72.384
472.43	73.306
472.78	70.558
473.13	71.789
473.48	71.300
473.83	71.202
474.17	72.181
474.52	72.271
474.87	70.013
475.22	72.300
475.57	71.739
475.92	69.642
476.27	70.524
476.61	69.799
476.96	71.429
477.31	72.032
477.66	70.715
478.01	69.806
478.36	69.628
478.70	70.535
479.05	69.588
479.40	70.978
479.75	71.060
480.10	70.671
480.45	70.942
480.79	69.331
481.14	69.109
481.49	69.357
481.84	70.808
482.19	68.585
482.53	69.706
482.88	68.582
483.23	68.593
483.58	68.762
483.92	68.090
484.27	68.587
484.62	68.600
484.97	67.091
485.31	68.020
485.66	68.491
486.01	67.765
486.36	68.024
486.70	68.075
487.05	67.461
487.40	67.223
487.75	66.075
488.09	65.257
488.44	66.160
488.79	65.864
489.13	68.953
489.48	65.283
489.83	66.343
490.17	66.995
490.52	67.113
490.87	68.002
491.22	65.976
491.56	66.156
491.91	66.014
492.26	67.976
492.60	65.816
492.95	66.170
493.30	66.963
493.64	65.720
493.99	65.452
494.34	65.839
494.68	66.204
495.03	65.365
495.37	64.622
495.72	64.821
496.07	64.909
496.41	64.526
496.76	64.852
497.11	64.943
497.45	64.591
497.80	64.434
498.14	64.203
498.49	65.350
498.84	63.627
499.18	63.985
499.53	64.538
499.87	64.158
500.22	64.987
500.56	65.254
500.91	63.922
501.26	64.252
501.60	63.303
501.95	64.739
502.29	64.802
502.64	62.220
502.98	62.241
503.33	62.007
503.67	63.502
504.02	63.534
504.36	62.712
504.71	62.447
505.06	63.524
505.40	63.592
505.75	61.243
506.09	63.272
506.44	62.983
506.78	62.741
507.13	62.704
507.47	63.047
507.82	61.719
508.16	61.693
508.51	61.871
508.85	61.813
509.19	61.437
509.54	63.059
509.88	62.543
510.23	61.404
510.57	60.704
510.92	61.905
511.26	61.804
511.61	61.073
511.95	59.514
512.30	60.696
512.64	59.824
512.98	62.256
513.33	59.672
513.67	59.162
514.02	60.757
514.36	60.261
514.70	60.595
515.05	59.756
515.39	61.982
515.74	60.965
516.08	59.761
516.42	61.342
516.77	60.870
517.11	59.817
517.46	60.150
517.80	60.179
518.14	59.709
518.49	60.673
518.83	60.636
519.17	60.540
519.52	60.275
519.86	60.798
520.20	58.535
520.55	59.073
520.89	59.447
521.23	58.250
521.58	58.730
521.92	58.278
522.26	58.763
522.61	59.249
522.95	58.014
523.29	58.097
523.64	58.616
523.98	57.863
524.32	57.778
524.66	58.804
525.01	61.237
525.35	58.687
525.69	58.293
526.04	59.901
526.38	57.916
526.72	58.194
527.06	59.212
527.41	59.674
527.75	59.512
528.09	56.223
528.43	56.414
528.78	57.093
529.12	57.945
529.46	56.744
529.80	57.318
530.15	58.235
530.49	56.904
530.83	58.713
531.17	56.073
531.51	58.030
531.86	56.653
532.20	56.566
532.54	57.266
532.88	55.564
533.22	56.322
533.57	56.345
533.91	56.986
534.25	56.415
534.59	57.703
534.93	56.279
535.27	55.084
535.62	54.760
535.96	55.897
536.30	55.254
536.64	55.651
536.98	55.900
537.32	56.176
537.66	53.739
538.01	55.965
538.35	55.055
538.69	54.494
539.03	55.011
539.37	55.635
539.71	55.580
540.05	54.993
540.39	55.338
540.73	55.385
541.07	54.191
541.42	54.312
541.76	55.036
542.10	53.802
542.44	54.191
542.78	53.886
543.12	52.563
543.46	55.291
543.80	53.538
544.14	53.978
544.48	52.842
544.82	54.436
545.16	54.275
545.50	55.531
545.84	54.060
546.18	53.558
546.52	53.882
546.86	53.940
547.20	53.712
547.54	52.767
547.88	52.991
548.22	53.586
548.56	52.784
548.90	53.263
549.24	52.412
549.58	52.235
549.92	53.233
550.26	53.050
550.60	52.657
550.94	53.651
551.28	52.358
551.62	53.235
551.96	52.875
552.30	52.636
552.64	51.690
552.98	52.526
553.32	52.348
553.66	52.731
554.00	53.050
554.34	52.969
554.68	52.073
555.02	51.190
555.36	50.755
555.69	52.421
556.03	50.924
556.37	53.038
556.71	51.207
557.05	51.719
557.39	51.968
557.73	50.708
558.07	51.252
558.41	51.636
558.75	51.286
559.08	53.532
559.42	52.425
559.76	50.295
560.10	51.589
560.44	51.386
560.78	51.165
561.12	51.165
561.45	51.414
561.79	49.486
562.13	50.185
562.47	50.535
562.81	49.583
563.15	49.202
563.48	50.637
563.82	50.218
564.16	49.274
564.50	49.857
564.84	50.177
565.17	49.642
565.51	49.543
565.85	50.634
566.19	50.870
566.52	51.900
566.86	50.068
567.20	50.299
567.54	50.351
567.88	49.454
568.21	50.117
568.55	49.972
568.89	49.945
569.23	50.050
569.56	51.218
569.90	49.979
570.24	49.330
570.57	49.925
570.91	50.036
571.25	50.551
571.59	49.902
571.92	48.403
572.26	48.750
572.60	48.942
572.93	48.232
573.27	47.761
573.61	48.901
573.95	48.289
574.28	48.248
574.62	47.992
574.96	48.240
575.29	48.322
575.63	47.772
575.97	47.472
576.30	48.178
576.64	47.712
576.98	48.173
577.31	48.412
577.65	48.598
577.98	48.047
578.32	47.908
578.66	47.982
578.99	48.512
579.33	47.175
579.67	47.626
580.00	46.755
580.34	47.331
580.67	47.152
581.01	47.148
581.35	47.666
581.68	47.572
582.02	47.917
582.35	47.732
582.69	47.391
583.02	47.065
583.36	46.795
583.70	47.123
584.03	47.162
584.37	47.531
584.70	46.950
585.04	46.918
585.37	47.202
585.71	46.224
586.04	46.349
586.38	46.500
586.72	46.835
587.05	46.732
587.39	46.454
587.72	46.985
588.06	45.921
588.39	47.122
588.73	46.627
589.06	45.964
589.40	45.899
589.73	46.111
590.07	45.606
590.40	46.105
590.73	46.814
591.07	45.411
591.40	46.688
591.74	45.942
592.07	46.227
592.41	46.111
592.74	46.826
593.08	45.605
593.41	45.835
593.75	46.646
594.08	46.800
594.41	46.496
594.75	45.576
595.08	45.890
595.42	45.175
595.75	46.439
596.09	45.476
596.42	46.004
596.75	46.273
597.09	45.429
597.42	45.753
597.75	45.732
598.09	45.225
598.42	45.338
598.76	44.945
599.09	44.706
599.42	43.430
599.76	45.430
600.09	45.196
600.42	43.359
600.76	44.149
601.09	44.745
601.42	43.599
601.76	44.683
602.09	45.119
602.42	44.116
602.76	43.892
603.09	44.648
603.42	45.017
603.76	44.188
604.09	45.739
604.42	44.483
604.76	45.002
605.09	43.741
605.42	45.118
605.75	44.130
606.09	44.444
606.42	44.182
606.75	44.361
607.09	44.543
607.42	43.965
607.75	43.067
608.08	43.826
608.42	43.889
608.75	44.072
609.08	43.160
609.41	42.976
609.75	43.707
610.08	43.618
610.41	43.919
610.74	43.377
611.07	43.628
611.41	42.934
611.74	43.580
612.07	43.025
612.40	44.011
612.73	42.708
613.07	44.451
613.40	43.818
613.73	44.158
614.06	43.033
614.39	42.648
614.72	43.211
615.06	43.226
615.39	42.783
615.72	43.281
616.05	41.913
616.38	43.535
616.71	42.164
617.05	42.274
617.38	42.387
617.71	43.240
618.04	43.890
618.37	43.623
618.70	43.750
619.03	43.800
619.36	42.047
619.69	41.602
620.03	42.639
620.36	42.101
620.69	42.646
621.02	41.964
621.35	42.383
621.68	42.304
622.01	42.513
622.34	43.132
622.67	41.737
623.00	42.588
623.33	41.339
623.66	43.108
623.99	42.026
624.32	42.812
624.65	40.625
624.99	42.656
625.32	42.417
625.65	41.393
625.98	43.000
626.31	41.732
626.64	41.261
626.97	42.831
627.30	42.037
627.63	42.233
627.96	41.341
628.29	41.587
628.62	41.237
628.95	41.711
629.28	40.496
629.61	40.857
629.94	41.701
630.26	40.481
630.59	42.932
630.92	40.780
631.25	41.453
631.58	40.000
631.91	40.888
632.24	39.645
632.57	41.974
632.90	42.312
633.23	42.839
633.56	40.252
633.89	39.710
634.22	40.769
634.55	40.736
634.88	39.357
635.20	41.233
635.53	42.318
635.86	39.266
636.19	39.291
636.52	41.779
636.85	40.026
637.18	40.026
637.51	40.786
637.83	41.061
638.16	41.536
638.49	39.914
638.82	40.647
639.15	40.429
639.48	38.865
639.81	41.580
640.13	40.735
640.46	40.315
640.79	39.380
641.12	41.085
641.45	39.969
641.77	37.898
642.10	41.205
642.43	40.067
642.76	41.219
643.09	38.927
643.41	39.964
643.74	38.542
644.07	36.861
644.40	39.170
644.73	38.122
645.05	42.557
645.38	39.615
645.71	39.504
646.04	40.520
646.36	39.015
646.69	42.747
647.02	42.383
647.35	40.600
647.67	41.683
648.00	41.165
648.33	38.536
648.66	40.260
648.98	38.814
649.31	41.136
649.64	39.759
649.96	38.851
650.29	39.115
650.62	38.776
650.94	39.741
651.27	37.187
651.60	35.755
651.92	39.122
652.25	34.990
652.58	36.984
652.90	36.655
653.23	36.929
653.56	37.326
653.88	37.409
654.21	38.563
654.54	37.711
654.86	41.727
655.19	39.032
655.52	42.094
655.84	42.076
656.17	42.453
656.49	57.600
656.82	66.888
657.15	53.202
657.47	39.392
657.80	28.487
658.13	23.773
658.45	39.974
658.78	39.619
659.10	39.232
659.43	39.691
659.75	38.117
660.08	39.843
660.41	38.500
660.73	37.535
661.06	39.091
661.38	38.508
661.71	38.293
662.03	38.426
662.36	35.322
662.68	33.094
663.01	38.702
663.33	38.679
663.66	39.234
663.98	40.587
664.31	33.902
664.63	35.550
664.96	36.342
665.28	36.643
665.61	36.916
665.93	36.866
666.26	38.190
666.58	37.385
666.91	38.407
667.23	34.975
667.56	34.074
667.88	38.847
668.21	36.294
668.53	33.503
668.86	34.949
669.18	35.533
669.50	36.504
669.83	34.250
670.15	36.250
670.48	37.594
670.80	36.041
671.13	33.253
671.45	38.265
671.77	39.372
672.10	36.923
672.42	36.255
672.75	37.087
673.07	37.009
673.39	37.160
673.72	37.603
674.04	37.447
674.37	37.644
674.69	36.916
675.01	40.233
675.34	34.069
675.66	34.762
675.98	36.364
676.31	37.280
676.63	34.536
676.95	34.053
677.28	35.149
677.60	36.341
677.92	37.845
678.25	36.427
678.57	36.659
678.89	36.468
679.22	37.844
679.54	35.412
679.86	37.473
680.18	34.310
680.51	35.318
680.83	35.000
681.15	40.305
681.48	35.319
681.80	34.783
682.12	36.831
682.44	34.267
682.77	34.318
683.09	37.990
683.41	37.845
683.73	36.683
684.06	36.041
684.38	36.930
684.70	40.416
685.02	36.147
685.34	32.636
685.67	37.747
685.99	36.128
686.31	35.075
686.63	36.699
686.96	35.366
687.28	36.550
687.60	32.444
687.92	36.498
688.24	35.158
688.56	32.527
688.89	36.301
689.21	34.186
689.53	36.573
689.85	37.215
690.17	37.745
690.49	33.176
690.82	38.329
691.14	37.076
691.46	36.500
691.78	35.407
692.10	36.239
692.42	32.110
692.74	36.019
693.06	33.976
693.39	36.207
693.71	35.116
694.03	35.266
694.35	35.644
694.67	36.132
694.99	37.197
695.31	36.261
695.63	33.784
695.95	35.955
696.27	33.428
696.59	32.344
696.91	31.909
697.23	33.524
697.56	34.715
697.88	34.895
698.20	34.625
698.52	33.173
698.84	36.341
699.16	35.356
699.48	37.958
699.80	37.088
700.12	34.435
700.44	31.563
700.76	35.962
701.08	33.333
701.40	34.539
701.72	38.667
702.04	32.653
702.36	30.492
702.68	40.268
703.00	31.861
703.32	34.731
703.64	33.754
703.96	34.810
704.28	28.169
704.60	39.384
704.91	29.934
705.23	31.228
705.55	36.431
705.87	33.813
706.19	30.677
706.51	27.734
706.83	32.601
707.15	34.576
707.47	35.629
707.79	34.384
708.11	33.598
708.43	36.267
708.74	36.612
709.06	34.663
709.38	33.531
709.70	33.117
710.02	38.112
710.34	31.560
710.66	38.202
710.98	33.217
711.29	32.302
711.61	33.688
711.93	37.828
712.25	32.830
712.57	34.766
712.89	33.061
713.20	35.081
713.52	29.268
713.84	33.577
714.16	32.770
714.48	34.471
714.80	29.966
715.11	39.863
715.43	35.836
715.75	34.737
716.07	34.909
716.39	41.980
716.70	34.000
717.02	31.048
717.34	36.364
717.66	31.364
717.97	31.019
718.29	31.111
718.61	32.432
718.93	31.513
719.24	35.146
719.56	33.482
719.88	32.157
720.20	27.778
720.51	33.333
720.83	38.912
721.15	31.429
721.46	40.928
721.78	33.333
722.10	31.395
722.42	37.826
722.73	28.507
723.05	34.562
723.37	30.317
723.68	39.810
724.00	27.778
724.32	33.645
724.63	33.937
724.95	31.963
725.27	33.333
725.58	36.530
725.90	38.288
726.22	37.555
726.53	37.705
726.85	34.444
727.16	33.603
727.48	33.871
727.80	27.854
728.11	33.778
728.43	30.864
728.74	37.281
729.06	37.118
729.38	34.109
729.69	28.800
730.01	38.075
730.32	35.857
730.64	34.615
730.96	31.660
731.27	37.452
731.59	35.354
731.90	29.605
732.22	36.545
732.53	31.930
732.85	30.986
733.16	37.729
733.48	32.836
733.80	29.818
734.11	33.688
734.43	41.155
734.74	31.776
735.06	34.727
735.37	35.463
735.69	32.746
736.00	33.333
736.32	31.469
736.63	27.407
736.95	29.183
737.26	33.333
737.58	33.942
737.89	34.340
738.21	35.878
738.52	39.754
738.83	34.615
739.15	37.727
739.46	30.180
739.78	29.344
740.09	34.524
740.41	37.500
740.72	35.857
741.04	30.435
741.35	35.426
741.66	32.796
741.98	30.102
742.29	35.751
742.61	29.480
742.92	32.353
743.23	36.816
743.55	29.534
743.86	31.401
744.18	33.000
744.49	33.333
744.80	29.032
745.12	29.744
745.43	30.481
745.74	25.668
746.06	34.483
746.37	33.889
746.68	35.676
747.00	32.597
747.31	36.126
747.62	40.526
747.94	29.717
748.25	38.916
748.56	30.808
748.88	29.508
749.19	34.197
749.50	30.588
749.82	33.000
750.13	33.010
750.44	35.193
750.75	37.200
751.07	33.054
751.38	25.391
751.69	36.111
752.01	34.034
752.32	36.364
752.63	33.188
752.94	31.200
753.26	28.767
753.57	31.754
753.88	32.093
754.19	30.396
754.51	30.126
754.82	37.917
755.13	29.204
755.44	29.870
755.75	36.546
756.07	30.043
756.38	39.749
756.69	32.453
757.00	36.879
757.31	33.218
757.63	30.392
757.94	30.606
758.25	36.310
758.56	34.054
758.87	33.036
759.18	36.137
759.50	31.317
759.81	29.730
760.12	34.875
760.43	34.884
760.74	34.431
761.05	31.731
761.36	37.685
761.67	31.915
761.99	37.124
762.30	32.727
762.61	30.488
762.92	35.556
763.23	33.488
763.54	36.041
763.85	33.937
764.16	27.391
764.47	36.087
764.78	30.242
765.10	33.465
765.41	37.458
765.72	35.452
766.03	31.773
766.34	32.955
766.65	35.156
766.96	33.333
767.27	35.196
767.58	34.591
767.89	31.169
768.20	22.973
768.51	34.483
768.82	32.500
769.13	32.407
769.44	32.075
769.75	31.863
770.06	28.155
770.37	34.043
770.68	31.282
770.99	26.904
771.30	39.175
771.61	29.596
771.92	28.774
772.23	30.769
772.54	34.706
772.85	22.603
773.16	29.032
773.47	26.752
773.78	40.120
774.09	31.579
774.39	38.235
774.70	33.083
775.01	28.462
775.32	31.746
775.63	33.858
775.94	33.019
776.25	30.370
776.56	31.818
776.87	29.915
777.18	29.000
777.48	25.000
777.79	37.037
778.10	28.302
778.41	32.353
778.72	26.415
779.03	28.070
779.34	26.050
779.65	29.577
779.95	34.532
780.26	25.000
780.57	25.362
780.88	31.193
781.19	35.185
781.50	29.508
781.80	31.387
782.11	30.128
782.42	31.034
782.73	40.559
783.04	31.200
783.34	42.400
783.65	25.203
783.96	20.492
784.27	35.294
784.57	28.972
784.88	30.357
785.19	26.804
785.50	32.632
785.81	19.000
786.11	29.703
786.42	14.118
786.73	31.250
787.04	24.490
787.34	30.556
787.65	38.679
787.96	22.680
788.26	34.653
788.57	39.130
788.88	25.688
789.19	20.661
789.49	26.087
789.80	36.207
790.11	31.707
790.41	35.955
790.72	15.116
791.03	33.721
791.33	11.688
791.64	29.268
791.95	25.610
792.25	18.072
792.56	28.395
792.87	25.352
793.17	31.325
793.48	27.059
793.79	17.500
794.09	-5.000
794.40	30.435
794.70	28.696
795.01	22.936
795.32	30.709
795.62	23.529
795.93	29.412
796.23	33.333
796.54	22.093
796.85	28.986
797.15	32.812
797.46	8.475
797.76	31.148
798.07	26.316
798.37	35.484
798.68	18.750
798.99	35.385
799.29	15.152
799.60	15.942
799.90	28.571
800.21	24.561
800.51	15.517
800.82	1.887
801.12	23.529
801.43	29.032
801.73	33.871
802.04	18.000
802.34	32.075
802.65	-7.895
802.95	10.909
803.26	13.208
803.56	16.393
803.87	14.000
804.17	25.926
804.48	23.077
804.78	18.367
805.09	34.043
805.39	37.288
805.70	-12.500
806.00	1.786
806.30	28.814
806.61	7.692
806.91	15.385
807.22	11.842
807.52	24.286
807.83	12.069
808.13	41.772
808.43	26.230
808.74	27.869
809.04	22.973
809.35	27.778
809.65	28.571
809.95	23.729
810.26	12.245
810.56	28.302
810.86	41.176
811.17	21.622
811.47	-25.926
811.77	15.686
812.08	-2.273
812.38	8.333
812.69	25.641
812.99	40.476
813.29	15.217
813.59	-8.571
813.90	30.952
814.20	25.455
814.50	10.204
814.81	25.490
815.11	14.583
815.41	26.829
815.72	11.538
816.02	27.660
816.32	34.375
816.62	6.061
816.93	3.030
817.23	18.919
817.53	0.000
817.84	52.500
818.14	-20.588
818.44	25.000
818.74	-76.190
819.04	-5.714
819.35	-5.714
819.65	11.364
819.95	23.077
820.25	38.889
820.56	6.897
820.86	7.143
821.16	-8.696
821.46	9.524
821.76	33.333
822.07	4.348
822.37	10.204
822.67	6.977
822.97	26.087
823.27	26.923
823.57	-25.926
823.88	-3.571
824.18	-2.564
824.48	25.000
824.78	15.152
825.08	-26.667
825.38	30.000
825.69	-61.111
825.99	14.815
826.29	46.667
826.59	-18.519
826.89	3.704
827.19	7.143
827.49	13.636
827.79	0.000
828.09	22.727
828.39	-17.391
828.70	18.519
829.00	14.286
829.30	14.286
829.60	22.581
829.90	-15.385
830.20	5.128
830.50	13.636
830.80	-14.286
831.10	-22.222
831.40	7.143
831.70	-22.222
832.00	-23.529
832.30	30.435
832.60	33.333
832.90	-9.091
833.20	0.000
833.50	12.500
833.80	11.538
834.10	52.000
834.40	25.000
834.70	9.091
835.00	38.462
835.30	-20.000
835.60	-30.000
835.90	-20.000
836.20	-50.000
836.50	56.522
836.80	5.556
837.10	-66.667
837.40	-170.000
837.70	17.391
838.00	7.143
838.30	900.000
838.60	44.000
838.90	-140.000
839.19	33.333
839.49	-700.000
839.79	11.765
840.09	22.222
840.39	17.857
840.69	-50.000
840.99	-141.667
841.29	34.483
841.59	-26.667
841.88	-18.182
842.18	-200.000
842.48	62.500
842.78	7.692
843.08	-23.529
843.38	15.000
843.68	-46.154
843.97	-76.471
844.27	-10.000
844.57	8.333
844.87	-63.636
845.17	-52.632
845.47	11.111
845.76	-2.778
846.06	-9.524
846.36	21.429
846.66	-144.444
846.96	20.000
847.25	-100.000
847.55	0.000
847.85	-73.333
848.15	-25.000
848.44	-15.789
848.74	-46.667
849.04	21.053
849.34	400.000
849.63	16.667
849.93	41.176
850.23	-81.818
850.53	66.667
850.82	80.000
851.12	-55.556
851.42	0.000
851.71	-160.000
852.01	-42.857
852.31	-200.000
852.61	23.077
852.90	-360.000
853.20	55.556
853.50	-33.333
853.79	-30.000
854.09	-25.000
854.39	-15.789
854.68	10.000
854.98	25.000
855.28	61.111
855.57	-78.571
855.87	-10.526
856.17	31.250
856.46	15.385
856.76	-26.667
857.05	-18.750
857.35	41.667
857.65	27.778
857.94	12.500
858.24	-21.739
858.53	-70.000
858.83	-166.667
859.13	-127.273
859.42	-140.000
859.72	166.667
860.01	-7.692
860.31	-110.000
860.60	-250.000
860.90	-100.000
861.20	-150.000
861.49	0.000
861.79	400.000
862.08	45.161
862.38	26.316
862.67	-7.692
862.97	-150.000
863.26	-25.000
863.56	-21.739
863.85	-150.000
864.15	-64.286
864.44	12.500
864.74	-50.000
865.03	55.556
865.33	-266.667
865.62	-1500.000
865.92	-350.000
866.21	-133.333
866.51	-54.545
866.80	-433.333
867.10	-100.000
867.39	0.000
867.69	-100.000
867.98	240.000
868.27	-275.000
868.57	300.000
868.86	-13.333
869.16	38.462
869.45	800.000
869.75	-100.000
870.04	-100.000
870.33	41.176
870.63	-128.571
870.92	91.304
871.22	-50.000
871.51	300.000
871.80	-25.000
872.10	-233.333
>>>>>End Processed Spectral Data<<<<<
