SpectraSuite Data File
++++++++++++++++++++++++++++++++++++
Date: Wed May 13 19:48:26 PDT 2015
User: schluterlab
Dark Spectrum Present: Yes
Reference Spectrum Present: Yes
Number of Sampled Component Spectra: 1
Spectrometers: USB2E3373
Integration Time (usec): 3000 (USB2E3373)
Spectra Averaged: 3 (USB2E3373)
Boxcar Smoothing: 0 (USB2E3373)
Correct for Electrical Dark: No (USB2E3373)
Strobe/Lamp Enabled: No (USB2E3373)
Correct for Detector Non-linearity: No (USB2E3373)
Correct for Stray Light: No (USB2E3373)
Number of Pixels in Processed Spectrum: 2048
>>>>>Begin Processed Spectral Data<<<<<
178.53	0.000
178.91	-1100.000
179.29	-1400.000
179.67	-194.444
180.04	-1300.000
180.42	3350.000
180.80	1200.000
181.18	-1225.000
181.56	671.429
181.94	0.000
182.31	-814.286
182.69	2066.667
183.07	-587.500
183.45	-522.222
183.83	518.182
184.20	-390.000
184.58	2450.000
184.96	5800.000
185.34	-920.000
185.72	-537.500
186.09	-2150.000
186.47	2600.000
186.85	2400.000
187.23	4500.000
187.61	-1533.333
187.98	1400.000
188.36	572.727
188.74	509.091
189.12	-1000.000
189.49	660.000
189.87	-4100.000
190.25	-1150.000
190.63	450.000
191.00	461.538
191.38	900.000
191.76	-1075.000
192.14	1475.000
192.51	700.000
192.89	933.333
193.27	687.500
193.65	-1350.000
194.02	560.000
194.40	900.000
194.78	530.000
195.15	591.667
195.53	630.000
195.91	-2550.000
196.29	337.500
196.66	331.579
197.04	-440.000
197.42	0.000
197.79	680.000
198.17	-4500.000
198.55	685.714
198.92	737.500
199.30	700.000
199.68	0.000
200.05	327.778
200.43	928.571
200.81	4300.000
201.18	1800.000
201.56	-1800.000
201.94	622.222
202.31	688.889
202.69	441.667
203.07	570.000
203.44	0.000
203.82	1225.000
204.19	742.857
204.57	507.143
204.95	587.500
205.32	1833.333
205.70	545.455
206.08	414.286
206.45	2400.000
206.83	325.000
207.20	983.333
207.58	700.000
207.96	316.667
208.33	725.000
208.71	-850.000
209.08	814.286
209.46	688.889
209.84	536.364
210.21	-1500.000
210.59	1400.000
210.96	-512.500
211.34	2850.000
211.71	620.000
212.09	833.333
212.46	0.000
212.84	1566.667
213.22	1375.000
213.59	-4300.000
213.97	900.000
214.34	742.857
214.72	590.909
215.09	1120.000
215.47	-2450.000
215.84	-2500.000
216.22	2033.333
216.59	378.571
216.97	1100.000
217.34	390.909
217.72	-783.333
218.09	0.000
218.47	-4700.000
218.84	666.667
219.22	814.286
219.59	1633.333
219.97	-685.714
220.34	780.000
220.72	-1933.333
221.09	478.571
221.47	1400.000
221.84	-883.333
222.22	0.000
222.59	1300.000
222.97	-2650.000
223.34	1080.000
223.72	476.923
224.09	1100.000
224.46	2500.000
224.84	-4500.000
225.21	-1160.000
225.59	-4900.000
225.96	500.000
226.34	355.000
226.71	2850.000
227.08	712.500
227.46	600.000
227.83	-1350.000
228.21	-2500.000
228.58	711.111
228.95	-2450.000
229.33	-2250.000
229.70	2000.000
230.08	557.143
230.45	-940.000
230.82	400.000
231.20	883.333
231.57	685.714
231.95	458.333
232.32	268.182
232.69	481.818
233.07	685.714
233.44	361.538
233.81	-1700.000
234.19	273.684
234.56	466.667
234.93	383.333
235.31	418.182
235.68	338.462
236.05	278.571
236.43	172.727
236.80	273.684
237.17	4200.000
237.55	195.238
237.92	217.857
238.29	209.524
238.67	167.742
239.04	200.000
239.41	152.778
239.79	93.478
240.16	128.571
240.53	95.455
240.91	90.196
241.28	94.000
241.65	96.000
242.02	76.812
242.40	74.194
242.77	70.000
243.14	72.043
243.51	68.539
243.89	62.353
244.26	51.111
244.63	51.613
245.00	46.809
245.38	51.485
245.75	46.729
246.12	44.037
246.49	52.555
246.87	49.600
247.24	41.538
247.61	40.000
247.98	38.562
248.36	32.432
248.73	34.395
249.10	38.217
249.47	34.463
249.84	38.503
250.22	32.620
250.59	30.178
250.96	28.788
251.33	33.175
251.70	28.218
252.08	30.000
252.45	24.215
252.82	19.565
253.19	23.404
253.56	23.529
253.94	22.822
254.31	23.437
254.68	21.923
255.05	22.878
255.42	23.171
255.79	19.853
256.16	19.495
256.54	16.961
256.91	20.996
257.28	14.748
257.65	19.472
258.02	18.634
258.39	18.297
258.76	14.381
259.14	16.071
259.51	19.453
259.88	12.422
260.25	16.918
260.62	17.630
260.99	15.528
261.36	16.817
261.73	14.040
262.10	15.698
262.47	16.056
262.85	16.156
263.22	10.541
263.59	15.100
263.96	13.462
264.33	13.055
264.70	12.632
265.07	14.322
265.44	14.899
265.81	14.842
266.18	15.327
266.55	14.146
266.92	12.039
267.29	13.426
267.66	12.615
268.03	14.091
268.40	13.551
268.77	10.740
269.14	13.063
269.51	11.964
269.88	14.219
270.25	13.318
270.62	12.584
270.99	14.624
271.36	12.876
271.73	13.318
272.10	11.739
272.47	15.914
272.84	12.338
273.21	12.998
273.58	9.607
273.95	11.111
274.32	10.950
274.69	12.206
275.06	12.402
275.43	12.128
275.80	12.024
276.17	12.424
276.54	11.435
276.91	11.067
277.28	11.133
277.65	13.153
278.02	10.352
278.39	12.695
278.76	13.273
279.13	11.698
279.50	11.732
279.87	11.155
280.23	7.984
280.60	10.445
280.97	10.351
281.34	13.274
281.71	11.273
282.08	12.476
282.45	10.000
282.82	11.545
283.19	9.091
283.56	10.351
283.92	10.321
284.29	10.053
284.66	9.074
285.03	9.946
285.40	9.331
285.77	8.923
286.14	8.117
286.51	9.167
286.87	12.479
287.24	11.401
287.61	9.149
287.98	11.364
288.35	7.448
288.72	7.632
289.08	9.703
289.45	7.578
289.82	8.943
290.19	8.948
290.56	9.648
290.93	7.704
291.29	7.515
291.66	8.702
292.03	10.610
292.40	11.601
292.77	7.544
293.13	8.955
293.50	8.017
293.87	8.444
294.24	8.593
294.60	7.715
294.97	9.448
295.34	9.309
295.71	8.949
296.08	8.120
296.44	7.153
296.81	8.587
297.18	9.756
297.55	5.937
297.91	7.256
298.28	8.434
298.65	9.008
299.02	7.905
299.38	6.640
299.75	5.930
300.12	7.152
300.48	7.250
300.85	7.152
301.22	7.006
301.59	7.197
301.95	7.305
302.32	7.702
302.69	7.646
303.05	7.636
303.42	5.802
303.79	8.607
304.15	5.944
304.52	7.416
304.89	6.852
305.25	7.657
305.62	7.814
305.99	8.146
306.35	6.376
306.72	6.726
307.09	7.436
307.45	8.108
307.82	6.250
308.19	7.837
308.55	7.551
308.92	5.371
309.29	5.069
309.65	5.938
310.02	7.294
310.38	6.774
310.75	6.125
311.12	7.677
311.48	6.270
311.85	7.338
312.22	6.660
312.58	6.445
312.95	6.758
313.31	5.922
313.68	6.133
314.05	8.679
314.41	7.337
314.78	8.258
315.14	7.051
315.51	7.209
315.87	7.723
316.24	7.845
316.61	7.895
316.97	8.415
317.34	6.849
317.70	9.273
318.07	8.470
318.43	8.023
318.80	9.747
319.16	8.569
319.53	9.006
319.89	9.714
320.26	10.600
320.62	9.127
320.99	11.212
321.35	10.202
321.72	10.780
322.08	11.550
322.45	11.443
322.81	12.500
323.18	12.524
323.54	12.616
323.91	13.208
324.27	12.906
324.64	11.743
325.00	13.796
325.37	14.286
325.73	14.811
326.10	14.122
326.46	15.323
326.83	15.013
327.19	15.542
327.56	15.679
327.92	14.873
328.29	16.149
328.65	16.114
329.01	16.245
329.38	17.299
329.74	15.697
330.11	16.588
330.47	15.519
330.84	17.647
331.20	16.940
331.56	17.431
331.93	16.759
332.29	17.214
332.66	17.876
333.02	17.916
333.38	17.435
333.75	18.360
334.11	18.683
334.48	18.190
334.84	17.923
335.20	18.182
335.57	18.495
335.93	16.518
336.29	17.582
336.66	18.846
337.02	18.371
337.38	19.167
337.75	18.627
338.11	18.711
338.47	19.061
338.84	19.065
339.20	18.716
339.56	19.617
339.93	17.455
340.29	18.388
340.65	19.162
341.02	19.634
341.38	19.039
341.74	18.596
342.11	20.000
342.47	18.943
342.83	20.034
343.20	19.394
343.56	19.966
343.92	19.035
344.28	18.622
344.65	20.378
345.01	20.034
345.37	19.125
345.73	19.797
346.10	20.119
346.46	20.339
346.82	19.687
347.19	19.382
347.55	20.361
347.91	20.955
348.27	19.885
348.63	20.234
349.00	19.579
349.36	20.361
349.72	19.888
350.08	19.854
350.45	21.237
350.81	20.065
351.17	20.421
351.53	20.311
351.89	19.719
352.26	20.521
352.62	21.091
352.98	21.232
353.34	21.364
353.70	19.967
354.07	21.290
354.43	21.270
354.79	18.986
355.15	20.511
355.51	20.863
355.87	20.653
356.24	20.928
356.60	21.572
356.96	21.480
357.32	20.523
357.68	21.575
358.04	21.615
358.40	21.536
358.77	21.283
359.13	20.758
359.49	21.647
359.85	20.556
360.21	21.212
360.57	20.934
360.93	22.231
361.29	20.862
361.66	21.594
362.02	21.194
362.38	21.825
362.74	21.205
363.10	22.354
363.46	21.937
363.82	21.769
364.18	21.512
364.54	22.437
364.90	21.388
365.26	21.985
365.62	22.279
365.98	22.279
366.35	20.917
366.71	22.993
367.07	21.777
367.43	22.932
367.79	21.770
368.15	23.348
368.51	22.529
368.87	22.056
369.23	22.677
369.59	22.592
369.95	21.544
370.31	22.792
370.67	22.319
371.03	23.670
371.39	23.397
371.75	23.309
372.11	22.902
372.47	23.680
372.83	24.063
373.19	23.049
373.55	23.208
373.91	23.196
374.27	23.230
374.63	23.200
374.99	23.870
375.35	22.401
375.71	23.167
376.07	22.977
376.42	24.278
376.78	23.658
377.14	23.881
377.50	24.768
377.86	23.670
378.22	24.463
378.58	22.995
378.94	22.439
379.30	23.028
379.66	24.175
380.02	23.956
380.38	23.497
380.74	24.010
381.09	24.511
381.45	25.200
381.81	25.246
382.17	24.586
382.53	24.214
382.89	25.741
383.25	24.015
383.61	25.155
383.97	24.828
384.32	25.016
384.68	24.721
385.04	24.216
385.40	24.706
385.76	25.000
386.12	25.065
386.48	25.551
386.83	25.337
387.19	25.665
387.55	25.417
387.91	25.695
388.27	25.628
388.62	26.060
388.98	24.079
389.34	26.846
389.70	25.690
390.06	26.616
390.42	25.551
390.77	26.336
391.13	27.058
391.49	26.459
391.85	25.652
392.20	25.174
392.56	26.452
392.92	26.486
393.28	25.325
393.64	25.959
393.99	25.901
394.35	27.481
394.71	25.659
395.07	25.607
395.42	26.143
395.78	25.827
396.14	25.450
396.50	26.504
396.85	27.018
397.21	25.524
397.57	26.906
397.92	26.683
398.28	25.000
398.64	26.404
399.00	26.021
399.35	25.494
399.71	25.231
400.07	25.843
400.42	26.810
400.78	26.900
401.14	26.098
401.49	26.149
401.85	26.013
402.21	25.868
402.57	26.527
402.92	26.608
403.28	26.796
403.63	26.176
403.99	25.796
404.35	26.364
404.70	25.600
405.06	25.743
405.42	26.638
405.77	25.771
406.13	25.451
406.49	25.902
406.84	24.690
407.20	25.768
407.55	25.846
407.91	26.800
408.27	24.952
408.62	26.731
408.98	25.429
409.34	26.138
409.69	26.387
410.05	26.208
410.40	25.382
410.76	24.910
411.11	26.478
411.47	26.070
411.83	25.412
412.18	24.737
412.54	26.090
412.89	25.241
413.25	25.443
413.60	26.127
413.96	25.137
414.31	25.699
414.67	26.172
415.03	25.629
415.38	26.160
415.74	26.238
416.09	26.519
416.45	24.967
416.80	25.843
417.16	25.804
417.51	25.813
417.87	24.984
418.22	25.615
418.58	26.275
418.93	26.229
419.29	25.589
419.64	25.252
420.00	26.646
420.35	25.971
420.71	25.762
421.06	25.239
421.42	26.023
421.77	25.056
422.12	24.424
422.48	24.555
422.83	25.160
423.19	24.696
423.54	25.015
423.90	25.681
424.25	25.237
424.61	24.643
424.96	25.306
425.31	25.138
425.67	24.213
426.02	24.971
426.38	25.458
426.73	23.581
427.09	24.863
427.44	24.554
427.79	25.474
428.15	25.714
428.50	25.336
428.85	24.672
429.21	23.854
429.56	24.054
429.92	24.006
430.27	24.280
430.62	23.605
430.98	24.494
431.33	23.660
431.68	24.450
432.04	24.281
432.39	23.529
432.74	24.117
433.10	24.052
433.45	24.198
433.80	24.446
434.16	24.519
434.51	23.526
434.86	23.888
435.22	23.569
435.57	23.587
435.92	23.171
436.28	24.555
436.63	24.338
436.98	23.469
437.34	23.256
437.69	24.737
438.04	22.990
438.39	24.060
438.75	24.346
439.10	23.128
439.45	24.498
439.81	23.323
440.16	23.207
440.51	23.492
440.86	24.030
441.22	23.693
441.57	23.726
441.92	23.695
442.27	23.305
442.63	23.117
442.98	24.225
443.33	23.587
443.68	23.283
444.03	22.840
444.39	22.055
444.74	23.214
445.09	22.803
445.44	22.690
445.79	23.157
446.15	23.399
446.50	23.156
446.85	22.816
447.20	22.845
447.55	23.506
447.91	22.725
448.26	22.705
448.61	22.725
448.96	23.034
449.31	23.735
449.66	23.748
450.02	22.897
450.37	21.939
450.72	22.955
451.07	21.633
451.42	21.398
451.77	23.547
452.12	22.864
452.47	22.077
452.83	22.494
453.18	22.922
453.53	23.129
453.88	22.091
454.23	22.355
454.58	22.714
454.93	23.776
455.28	21.820
455.63	21.966
455.98	23.095
456.34	22.048
456.69	22.292
457.04	22.663
457.39	21.625
457.74	22.693
458.09	22.197
458.44	21.608
458.79	22.126
459.14	22.178
459.49	22.067
459.84	21.440
460.19	21.921
460.54	21.354
460.89	21.558
461.24	21.979
461.59	22.313
461.94	21.332
462.29	21.187
462.64	20.868
462.99	21.731
463.34	22.267
463.69	21.263
464.04	21.449
464.39	20.870
464.74	21.272
465.09	20.808
465.44	20.388
465.79	20.358
466.14	20.142
466.49	21.023
466.84	20.665
467.19	21.485
467.54	21.438
467.89	21.248
468.24	19.604
468.59	20.879
468.94	20.098
469.29	21.337
469.64	21.419
469.99	20.907
470.34	20.211
470.68	20.474
471.03	19.932
471.38	21.404
471.73	19.920
472.08	20.461
472.43	20.038
472.78	19.750
473.13	20.411
473.48	19.975
473.83	19.573
474.17	19.415
474.52	20.409
474.87	20.198
475.22	19.559
475.57	19.398
475.92	19.437
476.27	19.448
476.61	18.533
476.96	18.857
477.31	18.786
477.66	18.654
478.01	19.080
478.36	19.196
478.70	17.549
479.05	18.371
479.40	19.294
479.75	18.302
480.10	17.793
480.45	17.563
480.79	17.487
481.14	17.906
481.49	18.320
481.84	18.061
482.19	17.674
482.53	17.615
482.88	18.148
483.23	18.037
483.58	17.880
483.92	18.229
484.27	16.427
484.62	17.241
484.97	16.516
485.31	17.568
485.66	16.667
486.01	15.807
486.36	15.549
486.70	15.428
487.05	15.629
487.40	15.705
487.75	15.498
488.09	15.499
488.44	15.811
488.79	16.275
489.13	16.234
489.48	16.354
489.83	15.926
490.17	16.484
490.52	16.519
490.87	16.101
491.22	16.189
491.56	15.399
491.91	16.007
492.26	16.261
492.60	15.991
492.95	15.622
493.30	15.561
493.64	15.539
493.99	15.367
494.34	15.865
494.68	16.392
495.03	16.165
495.37	15.449
495.72	15.789
496.07	16.009
496.41	15.708
496.76	16.095
497.11	15.128
497.45	15.417
497.80	15.739
498.14	15.459
498.49	15.317
498.84	15.676
499.18	15.286
499.53	15.195
499.87	15.564
500.22	14.932
500.56	15.680
500.91	14.712
501.26	14.841
501.60	15.140
501.95	14.895
502.29	15.183
502.64	15.177
502.98	14.493
503.33	14.808
503.67	14.896
504.02	15.435
504.36	14.693
504.71	14.656
505.06	15.133
505.40	15.168
505.75	13.790
506.09	13.751
506.44	14.110
506.78	14.467
507.13	14.690
507.47	15.253
507.82	14.843
508.16	14.387
508.51	14.409
508.85	14.449
509.19	14.133
509.54	14.694
509.88	14.374
510.23	14.396
510.57	14.809
510.92	14.863
511.26	14.183
511.61	14.419
511.95	13.831
512.30	14.316
512.64	14.562
512.98	14.309
513.33	15.043
513.67	14.088
514.02	13.312
514.36	14.255
514.70	14.056
515.05	14.278
515.39	14.414
515.74	13.345
516.08	14.086
516.42	15.261
516.77	14.604
517.11	13.319
517.46	13.544
517.80	14.344
518.14	13.550
518.49	13.594
518.83	14.943
519.17	12.875
519.52	14.375
519.86	14.432
520.20	13.988
520.55	14.363
520.89	13.990
521.23	15.199
521.58	13.926
521.92	13.778
522.26	12.813
522.61	13.645
522.95	13.935
523.29	13.208
523.64	14.085
523.98	14.541
524.32	13.209
524.66	13.349
525.01	14.461
525.35	13.445
525.69	14.039
526.04	13.022
526.38	13.606
526.72	13.313
527.06	13.873
527.41	12.933
527.75	13.055
528.09	13.231
528.43	13.066
528.78	14.136
529.12	13.758
529.46	13.411
529.80	13.243
530.15	13.707
530.49	13.231
530.83	12.722
531.17	13.642
531.51	13.813
531.86	13.419
532.20	14.081
532.54	13.709
532.88	13.736
533.22	13.554
533.57	13.395
533.91	12.342
534.25	12.697
534.59	12.813
534.93	13.206
535.27	12.734
535.62	13.370
535.96	13.057
536.30	11.825
536.64	13.780
536.98	13.205
537.32	12.969
537.66	13.000
538.01	13.232
538.35	12.540
538.69	14.231
539.03	12.736
539.37	12.204
539.71	11.471
540.05	13.268
540.39	12.226
540.73	13.325
541.07	12.784
541.42	12.916
541.76	13.484
542.10	12.484
542.44	12.252
542.78	14.493
543.12	12.092
543.46	13.049
543.80	12.817
544.14	12.901
544.48	12.825
544.82	12.123
545.16	11.776
545.50	12.661
545.84	12.366
546.18	12.525
546.52	12.251
546.86	11.478
547.20	13.351
547.54	11.824
547.88	13.393
548.22	11.644
548.56	12.390
548.90	12.484
549.24	11.582
549.58	12.688
549.92	12.706
550.26	12.713
550.60	11.757
550.94	12.183
551.28	10.827
551.62	13.084
551.96	12.491
552.30	12.765
552.64	12.779
552.98	12.203
553.32	12.542
553.66	12.679
554.00	12.766
554.34	11.663
554.68	13.519
555.02	11.989
555.36	13.083
555.69	11.976
556.03	11.844
556.37	12.347
556.71	11.255
557.05	11.905
557.39	11.477
557.73	11.785
558.07	11.240
558.41	10.999
558.75	11.536
559.08	12.752
559.42	12.623
559.76	11.985
560.10	11.563
560.44	11.810
560.78	12.309
561.12	11.807
561.45	12.386
561.79	11.074
562.13	11.469
562.47	11.885
562.81	11.088
563.15	11.371
563.48	12.202
563.82	10.894
564.16	11.315
564.50	10.938
564.84	11.188
565.17	10.811
565.51	11.438
565.85	11.168
566.19	10.520
566.52	12.223
566.86	11.272
567.20	10.731
567.54	10.388
567.88	10.049
568.21	11.481
568.55	10.819
568.89	10.506
569.23	10.071
569.56	10.283
569.90	9.962
570.24	9.831
570.57	9.793
570.91	9.373
571.25	9.358
571.59	9.426
571.92	9.015
572.26	9.243
572.60	9.309
572.93	8.966
573.27	9.494
573.61	9.464
573.95	9.251
574.28	8.995
574.62	9.086
574.96	8.937
575.29	8.754
575.63	8.816
575.97	9.138
576.30	9.214
576.64	8.618
576.98	8.994
577.31	8.734
577.65	8.339
577.98	8.484
578.32	8.539
578.66	8.721
578.99	8.651
579.33	8.545
579.67	8.538
580.00	8.679
580.34	8.614
580.67	8.769
581.01	8.837
581.35	8.550
581.68	8.536
582.02	8.116
582.35	8.065
582.69	8.357
583.02	8.642
583.36	8.877
583.70	8.941
584.03	8.490
584.37	8.986
584.70	8.804
585.04	8.488
585.37	8.551
585.71	8.835
586.04	9.036
586.38	8.673
586.72	9.224
587.05	8.476
587.39	8.443
587.72	8.503
588.06	8.458
588.39	9.026
588.73	8.712
589.06	8.788
589.40	9.192
589.73	8.729
590.07	9.217
590.40	8.878
590.73	9.094
591.07	9.972
591.40	9.616
591.74	9.524
592.07	9.948
592.41	9.425
592.74	9.176
593.08	8.728
593.41	8.605
593.75	8.776
594.08	9.085
594.41	8.978
594.75	8.651
595.08	9.019
595.42	9.177
595.75	8.796
596.09	9.125
596.42	9.077
596.75	9.878
597.09	10.087
597.42	8.853
597.75	8.969
598.09	9.522
598.42	9.450
598.76	8.796
599.09	9.084
599.42	8.770
599.76	8.858
600.09	8.780
600.42	8.546
600.76	8.821
601.09	9.107
601.42	8.752
601.76	9.260
602.09	8.735
602.42	9.475
602.76	9.674
603.09	8.812
603.42	9.059
603.76	9.070
604.09	8.608
604.42	8.928
604.76	9.574
605.09	9.480
605.42	9.320
605.75	9.561
606.09	8.703
606.42	8.991
606.75	8.503
607.09	9.167
607.42	8.858
607.75	8.987
608.08	8.684
608.42	9.413
608.75	9.468
609.08	9.297
609.41	9.329
609.75	9.147
610.08	9.896
610.41	8.706
610.74	8.846
611.07	9.437
611.41	9.225
611.74	9.703
612.07	9.679
612.40	9.391
612.73	9.474
613.07	9.213
613.40	10.479
613.73	9.491
614.06	9.194
614.39	9.334
614.72	9.947
615.06	9.874
615.39	9.395
615.72	9.202
616.05	8.719
616.38	9.561
616.71	9.382
617.05	10.130
617.38	10.222
617.71	9.910
618.04	10.096
618.37	10.171
618.70	9.023
619.03	10.592
619.36	10.659
619.69	10.352
620.03	10.714
620.36	10.829
620.69	11.233
621.02	10.619
621.35	10.493
621.68	10.592
622.01	9.830
622.34	9.834
622.67	10.494
623.00	9.905
623.33	10.079
623.66	10.793
623.99	10.088
624.32	10.128
624.65	10.240
624.99	9.915
625.32	9.848
625.65	10.293
625.98	10.146
626.31	10.187
626.64	11.102
626.97	11.222
627.30	9.643
627.63	11.403
627.96	11.775
628.29	11.374
628.62	12.443
628.95	13.208
629.28	10.858
629.61	11.824
629.94	10.286
630.26	10.677
630.59	11.249
630.92	11.877
631.25	10.661
631.58	11.612
631.91	11.055
632.24	11.181
632.57	13.431
632.90	11.513
633.23	11.633
633.56	12.542
633.89	11.891
634.22	12.486
634.55	12.781
634.88	12.096
635.20	13.023
635.53	13.494
635.86	13.861
636.19	11.294
636.52	11.880
636.85	12.257
637.18	11.521
637.51	12.411
637.83	11.591
638.16	12.916
638.49	13.476
638.82	14.033
639.15	13.500
639.48	13.716
639.81	13.539
640.13	13.021
640.46	12.886
640.79	14.663
641.12	11.829
641.45	12.570
641.77	14.580
642.10	11.988
642.43	13.964
642.76	12.539
643.09	12.423
643.41	12.595
643.74	14.352
644.07	13.567
644.40	15.184
644.73	15.118
645.05	14.580
645.38	14.060
645.71	13.688
646.04	15.615
646.36	15.025
646.69	14.047
647.02	14.286
647.35	16.151
647.67	14.159
648.00	15.935
648.33	13.861
648.66	13.333
648.98	15.442
649.31	12.257
649.64	13.004
649.96	14.158
650.29	13.112
650.62	14.887
650.94	15.073
651.27	16.047
651.60	15.973
651.92	12.939
652.25	13.681
652.58	12.773
652.90	15.008
653.23	14.176
653.56	12.598
653.88	15.214
654.21	15.956
654.54	14.026
654.86	15.265
655.19	11.351
655.52	8.488
655.84	5.777
656.17	7.345
656.49	9.801
656.82	9.863
657.15	7.768
657.47	5.788
657.80	4.640
658.13	4.689
658.45	7.048
658.78	7.336
659.10	7.558
659.43	8.237
659.75	8.397
660.08	10.000
660.41	12.384
660.73	14.104
661.06	11.624
661.38	14.727
661.71	15.769
662.03	16.765
662.36	12.127
662.68	18.876
663.01	15.758
663.33	15.074
663.66	16.387
663.98	15.983
664.31	17.647
664.63	12.955
664.96	14.487
665.28	15.779
665.61	15.400
665.93	14.889
666.26	16.633
666.58	17.364
666.91	17.970
667.23	17.978
667.56	14.687
667.88	16.239
668.21	16.631
668.53	14.100
668.86	13.420
669.18	17.058
669.50	17.174
669.83	22.004
670.15	14.444
670.48	15.686
670.80	16.164
671.13	16.348
671.45	14.255
671.77	16.497
672.10	15.157
672.42	15.724
672.75	16.418
673.07	13.028
673.39	13.201
673.72	12.891
674.04	15.686
674.37	13.204
674.69	14.724
675.01	15.063
675.34	17.454
675.66	15.789
675.98	15.071
676.31	15.546
676.63	16.985
676.95	15.514
677.28	14.953
677.60	14.725
677.92	17.511
678.25	16.427
678.57	16.135
678.89	15.030
679.22	16.503
679.54	13.931
679.86	15.596
680.18	14.848
680.51	14.894
680.83	15.658
681.15	15.660
681.48	17.958
681.80	13.733
682.12	14.559
682.44	13.540
682.77	16.497
683.09	19.742
683.41	15.299
683.73	16.998
684.06	16.942
684.38	14.677
684.70	17.248
685.02	14.822
685.34	15.568
685.67	13.462
685.99	13.574
686.31	14.676
686.63	12.898
686.96	14.107
687.28	13.899
687.60	14.493
687.92	15.539
688.24	13.878
688.56	16.867
688.89	19.295
689.21	18.996
689.53	15.449
689.85	18.404
690.17	14.700
690.49	19.321
690.82	17.523
691.14	16.741
691.46	17.300
691.78	15.060
692.10	15.909
692.42	15.369
692.74	13.693
693.06	17.234
693.39	17.248
693.71	16.594
694.03	17.474
694.35	17.100
694.67	18.078
694.99	19.024
695.31	16.422
695.63	18.182
695.95	20.049
696.27	14.975
696.59	16.321
696.91	19.948
697.23	15.258
697.56	15.991
697.88	14.724
698.20	16.250
698.52	18.280
698.84	17.372
699.16	17.051
699.48	15.677
699.80	17.874
700.12	22.078
700.44	21.485
700.76	19.061
701.08	20.690
701.40	18.994
701.72	18.950
702.04	23.864
702.36	18.414
702.68	20.113
703.00	21.330
703.32	15.426
703.64	18.767
703.96	18.663
704.28	20.640
704.60	19.941
704.91	21.958
705.23	19.648
705.55	25.249
705.87	24.585
706.19	19.788
706.51	20.249
706.83	19.394
707.15	19.608
707.47	19.192
707.79	19.165
708.11	18.721
708.43	17.143
708.74	17.857
709.06	22.338
709.38	19.685
709.70	20.349
710.02	22.255
710.34	20.606
710.66	19.104
710.98	22.727
711.29	20.058
711.61	22.124
711.93	19.231
712.25	22.830
712.57	19.118
712.89	19.723
713.20	20.669
713.52	23.355
713.84	21.519
714.16	20.427
714.48	19.828
714.80	23.708
715.11	21.902
715.43	18.991
715.75	20.290
716.07	22.364
716.39	23.511
716.70	28.239
717.02	24.101
717.34	24.735
717.66	23.507
717.97	26.295
718.29	26.296
718.61	24.453
718.93	22.794
719.24	25.952
719.56	23.390
719.88	25.763
720.20	24.662
720.51	22.648
720.83	25.651
721.15	21.642
721.46	22.695
721.78	28.315
722.10	26.038
722.42	26.316
722.73	25.468
723.05	26.230
723.37	22.267
723.68	25.097
724.00	24.390
724.32	24.597
724.63	26.423
724.95	27.615
725.27	26.316
725.58	30.078
725.90	22.628
726.22	24.528
726.53	24.653
726.85	23.891
727.16	23.488
727.48	25.532
727.80	26.894
728.11	28.623
728.43	27.692
728.74	22.939
729.06	28.832
729.38	28.676
729.69	28.114
730.01	22.184
730.32	20.139
730.64	21.405
730.96	23.432
731.27	25.828
731.59	19.572
731.90	22.157
732.22	21.429
732.53	20.124
732.85	20.513
733.16	23.151
733.48	23.256
733.80	22.078
734.11	20.064
734.43	20.710
734.74	17.429
735.06	20.344
735.37	20.809
735.69	20.064
736.00	26.144
736.32	20.561
736.63	21.725
736.95	23.642
737.26	21.429
737.58	20.323
737.89	23.077
738.21	21.502
738.52	23.214
738.83	20.755
739.15	30.000
739.46	26.642
739.78	23.611
740.09	24.000
740.41	23.871
740.72	18.815
741.04	25.926
741.35	24.167
741.66	26.667
741.98	28.302
742.29	32.057
742.61	33.621
742.92	27.602
743.23	26.496
743.55	22.400
743.86	29.825
744.18	29.204
744.49	33.493
744.80	29.577
745.12	32.273
745.43	30.837
745.74	29.279
746.06	27.982
746.37	29.596
746.68	26.697
747.00	29.167
747.31	27.619
747.62	24.779
747.94	29.515
748.25	24.681
748.56	30.837
748.88	23.762
749.19	35.500
749.50	28.372
749.82	27.642
750.13	22.041
750.44	23.358
750.75	24.211
751.07	23.794
751.38	22.997
751.69	24.549
752.01	23.308
752.32	20.939
752.63	25.887
752.94	25.000
753.26	24.400
753.57	23.984
753.88	29.297
754.19	25.357
754.51	26.736
754.82	23.105
755.13	26.415
755.44	20.677
755.75	22.628
756.07	22.695
756.38	22.993
756.69	22.148
757.00	19.760
757.31	21.662
757.63	20.468
757.94	18.499
758.25	19.853
758.56	16.790
758.87	18.817
759.18	23.030
759.50	21.317
759.81	20.561
760.12	20.000
760.43	19.484
760.74	20.652
761.05	20.621
761.36	21.390
761.67	20.455
761.99	18.012
762.30	23.958
762.61	25.954
762.92	25.000
763.23	28.151
763.54	28.000
763.85	21.875
764.16	28.077
764.47	24.335
764.78	21.555
765.10	20.886
765.41	23.304
765.72	23.353
766.03	22.571
766.34	21.333
766.65	25.957
766.96	26.923
767.27	31.980
767.58	33.854
767.89	39.474
768.20	32.184
768.51	29.949
768.82	26.147
769.13	21.545
769.44	25.506
769.75	24.464
770.06	19.725
770.37	29.864
770.68	29.630
770.99	30.222
771.30	22.541
771.61	24.664
771.92	28.279
772.23	34.874
772.54	28.718
772.85	36.126
773.16	36.702
773.47	34.783
773.78	38.579
774.09	40.476
774.39	33.333
774.70	32.099
775.01	39.130
775.32	47.712
775.63	40.789
775.94	43.165
776.25	49.606
776.56	44.776
776.87	42.623
777.18	43.750
777.48	48.092
777.79	50.000
778.10	42.222
778.41	44.643
778.72	35.766
779.03	38.255
779.34	34.228
779.65	33.108
779.95	37.423
780.26	49.020
780.57	48.966
780.88	50.000
781.19	50.376
781.50	41.216
781.80	37.107
782.11	32.768
782.42	36.709
782.73	33.129
783.04	39.189
783.34	33.803
783.65	49.315
783.96	47.761
784.27	36.364
784.57	41.007
784.88	39.815
785.19	61.111
785.50	55.660
785.81	44.776
786.11	46.721
786.42	40.310
786.73	47.788
787.04	50.943
787.34	58.036
787.65	66.000
787.96	58.559
788.26	39.669
788.57	56.780
788.88	53.719
789.19	47.917
789.49	47.727
789.80	44.275
790.11	58.095
790.41	62.376
790.72	56.627
791.03	65.217
791.33	62.791
791.64	58.763
791.95	49.505
792.25	62.222
792.56	76.623
792.87	78.205
793.17	79.747
793.48	70.115
793.79	66.667
794.09	70.455
794.40	49.580
794.70	54.412
795.01	46.667
795.32	36.691
795.62	44.094
795.93	44.828
796.23	54.867
796.54	64.706
796.85	66.216
797.15	83.099
797.46	60.606
797.76	74.699
798.07	75.949
798.37	66.154
798.68	65.152
798.99	64.789
799.29	71.429
799.60	69.318
799.90	75.342
800.21	98.507
800.51	82.759
800.82	91.228
801.12	88.525
801.43	81.818
801.73	60.811
802.04	88.889
802.34	71.605
802.65	89.062
802.95	93.220
803.26	96.875
803.56	80.000
803.87	84.615
804.17	94.118
804.48	114.815
804.78	96.552
805.09	92.647
805.39	88.462
805.70	98.214
806.00	91.803
806.30	77.273
806.61	67.073
806.91	60.759
807.22	67.105
807.52	61.194
807.83	84.507
808.13	98.437
808.43	88.333
808.74	61.842
809.04	78.261
809.35	80.597
809.65	85.526
809.95	106.452
810.26	93.220
810.56	95.238
810.86	138.636
811.17	135.714
811.47	96.667
811.77	103.704
812.08	110.909
812.38	120.000
812.69	127.778
812.99	145.455
813.29	118.367
813.59	123.810
813.90	140.816
814.20	96.364
814.50	78.462
814.81	95.588
815.11	108.163
815.41	96.721
815.72	140.476
816.02	110.909
816.32	114.286
816.62	120.000
816.93	117.073
817.23	152.381
817.53	129.545
817.84	148.485
818.14	119.565
818.44	133.333
818.74	138.235
819.04	157.500
819.35	160.000
819.65	170.588
819.95	167.857
820.25	170.000
820.56	156.410
820.86	131.818
821.16	148.837
821.46	120.513
821.76	124.000
822.07	145.714
822.37	127.500
822.67	178.788
822.97	105.882
823.27	196.429
823.57	140.541
823.88	135.000
824.18	203.333
824.48	142.857
824.78	168.000
825.08	187.500
825.38	181.081
825.69	117.073
825.99	208.333
826.29	172.414
826.59	157.895
826.89	152.632
827.19	170.588
827.49	167.742
827.79	150.000
828.09	129.545
828.39	89.362
828.70	112.245
829.00	174.074
829.30	170.968
829.60	137.500
829.90	246.667
830.20	196.429
830.50	186.957
830.80	230.435
831.10	190.000
831.40	186.667
831.70	221.739
832.00	211.538
832.30	207.407
832.60	300.000
832.90	203.333
833.20	307.143
833.50	164.516
833.80	193.103
834.10	175.000
834.40	207.692
834.70	288.889
835.00	285.714
835.30	142.857
835.60	346.154
835.90	182.759
836.20	321.429
836.50	200.000
836.80	196.000
837.10	155.556
837.40	261.905
837.70	282.353
838.00	200.000
838.30	242.857
838.60	276.190
838.90	242.308
839.19	260.000
839.49	407.143
839.79	270.000
840.09	270.000
840.39	266.667
840.69	239.130
840.99	238.889
841.29	430.000
841.59	375.000
841.88	368.750
842.18	179.310
842.48	300.000
842.78	193.333
843.08	239.130
843.38	200.000
843.68	816.667
843.97	230.769
844.27	196.552
844.57	276.190
844.87	337.500
845.17	218.519
845.47	1500.000
845.76	411.111
846.06	276.471
846.36	712.500
846.66	421.429
846.96	268.750
847.25	400.000
847.55	354.545
847.85	243.478
848.15	570.000
848.44	300.000
848.74	300.000
849.04	364.706
849.34	510.000
849.63	294.737
849.93	481.818
850.23	920.000
850.53	364.286
850.82	2450.000
851.12	-4200.000
851.42	4200.000
851.71	250.000
852.01	-1200.000
852.31	212.500
852.61	1366.667
852.90	290.476
853.20	244.000
853.50	294.118
853.79	233.333
854.09	154.167
854.39	325.000
854.68	178.378
854.98	190.323
855.28	163.333
855.57	217.241
855.87	196.296
856.17	294.737
856.46	226.667
856.76	329.412
857.05	224.138
857.35	233.333
857.65	346.667
857.94	256.522
858.24	261.538
858.53	270.000
858.83	259.091
859.13	273.333
859.42	0.000
859.72	622.222
860.01	472.727
860.31	254.545
860.60	273.684
860.90	243.478
861.20	611.111
861.49	475.000
861.79	-4600.000
862.08	675.000
862.38	295.238
862.67	384.615
862.97	376.471
863.26	577.778
863.56	255.556
863.85	391.667
864.15	575.000
864.44	366.667
864.74	833.333
865.03	675.000
865.33	252.632
865.62	409.091
865.92	400.000
866.21	491.667
866.51	0.000
866.80	581.818
867.10	1200.000
867.39	446.154
867.69	509.091
867.98	310.526
868.27	409.091
868.57	305.263
868.86	-4700.000
869.16	375.000
869.45	2300.000
869.75	-4400.000
870.04	483.333
870.33	657.143
870.63	1000.000
870.92	2250.000
871.22	857.143
871.51	305.882
871.80	209.524
872.10	385.714
>>>>>End Processed Spectral Data<<<<<
