SpectraSuite Data File
++++++++++++++++++++++++++++++++++++
Date: Fri May 15 20:57:07 PDT 2015
User: schluterlab
Dark Spectrum Present: Yes
Reference Spectrum Present: Yes
Number of Sampled Component Spectra: 1
Spectrometers: USB2E3373
Integration Time (usec): 3000 (USB2E3373)
Spectra Averaged: 3 (USB2E3373)
Boxcar Smoothing: 0 (USB2E3373)
Correct for Electrical Dark: No (USB2E3373)
Strobe/Lamp Enabled: No (USB2E3373)
Correct for Detector Non-linearity: No (USB2E3373)
Correct for Stray Light: No (USB2E3373)
Number of Pixels in Processed Spectrum: 2048
>>>>>Begin Processed Spectral Data<<<<<
178.53	0.000
178.91	0.000
179.29	25.000
179.67	-600.000
180.04	-14.286
180.42	75.000
180.80	-500.000
181.18	300.000
181.56	250.000
181.94	-250.000
182.31	1100.000
182.69	100.000
183.07	-300.000
183.45	-220.000
183.83	250.000
184.20	9.091
184.58	144.444
184.96	-225.000
185.34	66.667
185.72	-250.000
186.09	69.231
186.47	-700.000
186.85	-0.000
187.23	122.222
187.61	900.000
187.98	-200.000
188.36	55.556
188.74	-266.667
189.12	64.706
189.49	38.889
189.87	0.000
190.25	-14.286
190.63	100.000
191.00	-166.667
191.38	-26.316
191.76	400.000
192.14	-0.000
192.51	-350.000
192.89	-11.111
193.27	-14.286
193.65	200.000
194.02	90.909
194.40	-10.000
194.78	-162.500
195.15	-66.667
195.53	-75.000
195.91	175.000
196.29	-100.000
196.66	146.154
197.04	157.143
197.42	-66.667
197.79	-300.000
198.17	-69.231
198.55	1600.000
198.92	-466.667
199.30	-800.000
199.68	0.000
200.05	-200.000
200.43	0.000
200.81	-233.333
201.18	33.333
201.56	900.000
201.94	-300.000
202.31	-300.000
202.69	-20.000
203.07	75.000
203.44	100.000
203.82	0.000
204.19	28.571
204.57	-33.333
204.95	-12.500
205.32	-30.000
205.70	28.571
206.08	-75.000
206.45	177.778
206.83	64.286
207.20	-14.286
207.58	800.000
207.96	133.333
208.33	-10.000
208.71	250.000
209.08	-250.000
209.46	-1500.000
209.84	-180.000
210.21	-300.000
210.59	100.000
210.96	-66.667
211.34	0.000
211.71	13.333
212.09	-114.286
212.46	-600.000
212.84	0.000
213.22	30.000
213.59	600.000
213.97	-30.769
214.34	-27.273
214.72	-133.333
215.09	400.000
215.47	46.154
215.84	-9.091
216.22	-300.000
216.59	-62.500
216.97	350.000
217.34	50.000
217.72	-120.000
218.09	50.000
218.47	125.000
218.84	-700.000
219.22	-33.333
219.59	-100.000
219.97	300.000
220.34	300.000
220.72	-57.143
221.09	-250.000
221.47	300.000
221.84	-750.000
222.22	-450.000
222.59	72.727
222.97	25.000
223.34	-400.000
223.72	-42.857
224.09	23.810
224.46	17.857
224.84	433.333
225.21	40.000
225.59	40.000
225.96	-350.000
226.34	225.000
226.71	-114.286
227.08	-100.000
227.46	0.000
227.83	-550.000
228.21	-44.444
228.58	0.000
228.95	-50.000
229.33	140.000
229.70	-12.500
230.08	-25.000
230.45	-14.286
230.82	-57.143
231.20	6.667
231.57	21.429
231.95	0.000
232.32	-100.000
232.69	64.286
233.07	100.000
233.44	0.000
233.81	-80.000
234.19	-22.222
234.56	11.765
234.93	400.000
235.31	50.000
235.68	-220.000
236.05	-84.615
236.43	-15.000
236.80	-82.353
237.17	3.125
237.55	60.000
237.92	-14.815
238.29	0.000
238.67	10.000
239.04	0.000
239.41	-29.268
239.79	20.000
240.16	14.634
240.53	7.895
240.91	15.217
241.28	20.635
241.65	17.857
242.02	26.027
242.40	30.000
242.77	1.695
243.14	3.030
243.51	11.250
243.89	37.931
244.26	22.989
244.63	17.857
245.00	15.464
245.38	18.557
245.75	13.483
246.12	14.655
246.49	10.744
246.87	15.385
247.24	14.286
247.61	2.632
247.98	16.260
248.36	17.500
248.73	17.763
249.10	18.182
249.47	12.658
249.84	15.686
250.22	20.588
250.59	18.301
250.96	15.493
251.33	12.209
251.70	20.588
252.08	20.305
252.45	18.317
252.82	20.603
253.19	24.424
253.56	13.084
253.94	20.270
254.31	23.478
254.68	24.123
255.05	19.685
255.42	17.904
255.79	19.305
256.16	22.568
256.54	21.269
256.91	23.954
257.28	20.818
257.65	19.476
258.02	18.440
258.39	18.855
258.76	20.147
259.14	18.937
259.51	17.476
259.88	17.526
260.25	20.915
260.62	20.139
260.99	20.678
261.36	17.466
261.73	17.089
262.10	22.796
262.47	20.552
262.85	17.555
263.22	20.615
263.59	19.938
263.96	19.876
264.33	20.606
264.70	18.452
265.07	19.048
265.44	20.680
265.81	19.492
266.18	15.847
266.55	20.823
266.92	19.171
267.29	21.149
267.66	17.647
268.03	19.634
268.40	18.538
268.77	21.658
269.14	21.343
269.51	21.851
269.88	17.706
270.25	18.878
270.62	20.976
270.99	18.414
271.36	18.093
271.73	15.728
272.10	20.438
272.47	20.567
272.84	18.564
273.21	21.810
273.58	21.446
273.95	20.366
274.32	18.938
274.69	19.683
275.06	19.643
275.43	20.862
275.80	19.426
276.17	18.851
276.54	18.201
276.91	19.298
277.28	21.179
277.65	19.835
278.02	20.213
278.39	19.256
278.76	20.964
279.13	18.050
279.50	19.958
279.87	21.382
280.23	19.140
280.60	19.883
280.97	19.596
281.34	18.846
281.71	20.329
282.08	16.564
282.45	18.004
282.82	19.691
283.19	17.795
283.56	19.075
283.92	17.837
284.29	20.192
284.66	18.411
285.03	16.896
285.40	18.147
285.77	15.817
286.14	17.329
286.51	18.450
286.87	18.282
287.24	17.680
287.61	18.695
287.98	20.526
288.35	17.504
288.72	17.688
289.08	16.840
289.45	19.332
289.82	17.657
290.19	16.382
290.56	17.496
290.93	16.835
291.29	17.874
291.66	17.323
292.03	17.703
292.40	16.613
292.77	15.470
293.13	15.747
293.50	15.478
293.87	15.267
294.24	14.838
294.60	15.052
294.97	16.815
295.34	15.031
295.71	14.605
296.08	15.994
296.44	13.371
296.81	14.306
297.18	13.188
297.55	16.802
297.91	14.795
298.28	15.303
298.65	13.569
299.02	13.342
299.38	12.038
299.75	15.724
300.12	12.958
300.48	13.834
300.85	14.449
301.22	13.117
301.59	13.289
301.95	13.924
302.32	14.527
302.69	13.308
303.05	14.109
303.42	12.204
303.79	14.836
304.15	13.142
304.52	12.010
304.89	13.333
305.25	12.712
305.62	13.069
305.99	13.918
306.35	11.329
306.72	12.148
307.09	13.341
307.45	13.203
307.82	13.079
308.19	14.634
308.55	12.541
308.92	14.379
309.29	11.508
309.65	12.056
310.02	13.641
310.38	12.733
310.75	13.880
311.12	13.132
311.48	12.619
311.85	12.042
312.22	11.076
312.58	12.951
312.95	11.953
313.31	12.422
313.68	12.251
314.05	12.245
314.41	13.918
314.78	12.268
315.14	13.566
315.51	12.422
315.87	13.832
316.24	12.235
316.61	15.256
316.97	12.897
317.34	13.477
317.70	13.480
318.07	14.808
318.43	12.843
318.80	13.542
319.16	14.063
319.53	14.530
319.89	13.976
320.26	13.866
320.62	14.845
320.99	12.839
321.35	14.594
321.72	14.330
322.08	14.703
322.45	15.736
322.81	14.440
323.18	14.033
323.54	12.741
323.91	14.898
324.27	15.039
324.64	14.794
325.00	15.420
325.37	15.886
325.73	14.325
326.10	14.623
326.46	16.771
326.83	15.748
327.19	15.780
327.56	16.855
327.92	16.021
328.29	15.536
328.65	16.698
329.01	15.441
329.38	17.143
329.74	15.297
330.11	17.146
330.47	14.935
330.84	14.904
331.20	17.586
331.56	15.185
331.93	16.712
332.29	16.865
332.66	15.566
333.02	15.985
333.38	16.224
333.75	17.674
334.11	16.204
334.48	16.319
334.84	17.308
335.20	15.737
335.57	15.594
335.93	16.531
336.29	16.943
336.66	16.530
337.02	15.613
337.38	15.926
337.75	17.000
338.11	17.313
338.47	15.967
338.84	17.098
339.20	15.814
339.56	16.330
339.93	17.010
340.29	16.239
340.65	17.204
341.02	16.578
341.38	16.372
341.74	15.548
342.11	16.464
342.47	15.836
342.83	17.128
343.20	15.331
343.56	16.348
343.92	16.298
344.28	17.421
344.65	17.185
345.01	14.693
345.37	16.484
345.73	16.318
346.10	15.703
346.46	16.484
346.82	16.612
347.19	15.960
347.55	17.293
347.91	16.586
348.27	16.492
348.63	16.951
349.00	15.094
349.36	16.043
349.72	16.501
350.08	15.656
350.45	16.999
350.81	15.449
351.17	15.879
351.53	16.571
351.89	16.433
352.26	15.760
352.62	16.613
352.98	15.823
353.34	15.620
353.70	16.748
354.07	15.565
354.43	17.214
354.79	16.598
355.15	17.143
355.51	16.139
355.87	15.291
356.24	14.845
356.60	15.764
356.96	16.587
357.32	14.936
357.68	15.950
358.04	14.701
358.40	17.042
358.77	16.029
359.13	16.253
359.49	15.100
359.85	14.977
360.21	16.268
360.57	16.450
360.93	15.658
361.29	14.653
361.66	16.693
362.02	16.061
362.38	15.537
362.74	15.140
363.10	16.704
363.46	14.900
363.82	16.078
364.18	16.605
364.54	14.485
364.90	15.699
365.26	14.993
365.62	16.715
365.98	16.202
366.35	16.387
366.71	15.817
367.07	15.312
367.43	15.528
367.79	15.265
368.15	15.865
368.51	16.096
368.87	16.009
369.23	15.884
369.59	14.723
369.95	16.202
370.31	15.824
370.67	15.896
371.03	15.459
371.39	15.828
371.75	15.971
372.11	15.763
372.47	15.902
372.83	15.188
373.19	16.334
373.55	15.162
373.91	15.839
374.27	15.946
374.63	16.655
374.99	15.532
375.35	15.460
375.71	16.014
376.07	16.222
376.42	15.306
376.78	16.107
377.14	15.572
377.50	15.471
377.86	15.863
378.22	15.699
378.58	15.769
378.94	15.501
379.30	16.032
379.66	16.364
380.02	14.899
380.38	15.277
380.74	15.081
381.09	16.196
381.45	15.719
381.81	15.793
382.17	15.990
382.53	14.866
382.89	15.443
383.25	16.428
383.61	16.646
383.97	15.492
384.32	15.322
384.68	14.799
385.04	15.135
385.40	14.686
385.76	15.346
386.12	15.136
386.48	16.156
386.83	15.663
387.19	16.422
387.55	16.311
387.91	15.587
388.27	15.263
388.62	15.796
388.98	15.470
389.34	15.490
389.70	15.600
390.06	14.978
390.42	16.062
390.77	15.893
391.13	15.322
391.49	14.166
391.85	16.439
392.20	14.564
392.56	15.512
392.92	14.915
393.28	15.566
393.64	14.775
393.99	16.301
394.35	15.244
394.71	15.517
395.07	16.279
395.42	14.633
395.78	15.505
396.14	15.637
396.50	16.233
396.85	15.776
397.21	15.727
397.57	15.987
397.92	15.398
398.28	14.943
398.64	14.699
399.00	16.084
399.35	14.334
399.71	15.393
400.07	16.203
400.42	14.871
400.78	15.554
401.14	14.943
401.49	15.664
401.85	15.783
402.21	15.542
402.57	15.500
402.92	15.056
403.28	15.664
403.63	16.267
403.99	14.860
404.35	14.616
404.70	15.476
405.06	15.629
405.42	15.103
405.77	14.701
406.13	14.785
406.49	15.512
406.84	15.220
407.20	15.774
407.55	14.102
407.91	14.238
408.27	15.233
408.62	15.692
408.98	15.157
409.34	15.675
409.69	15.245
410.05	15.456
410.40	15.185
410.76	15.139
411.11	14.687
411.47	15.648
411.83	14.187
412.18	14.479
412.54	13.983
412.89	14.717
413.25	15.644
413.60	15.155
413.96	14.663
414.31	14.939
414.67	15.074
415.03	14.714
415.38	15.144
415.74	15.114
416.09	15.545
416.45	15.327
416.80	15.532
417.16	14.986
417.51	16.123
417.87	13.885
418.22	14.767
418.58	14.515
418.93	16.050
419.29	13.700
419.64	14.517
420.00	14.987
420.35	14.925
420.71	14.459
421.06	14.365
421.42	15.264
421.77	14.509
422.12	15.153
422.48	14.564
422.83	14.559
423.19	15.406
423.54	14.462
423.90	14.488
424.25	15.270
424.61	14.749
424.96	14.286
425.31	14.789
425.67	14.730
426.02	15.312
426.38	14.402
426.73	15.678
427.09	15.000
427.44	15.882
427.79	15.085
428.15	15.170
428.50	13.992
428.85	14.435
429.21	14.714
429.56	14.447
429.92	14.741
430.27	14.887
430.62	13.957
430.98	13.694
431.33	14.879
431.68	14.704
432.04	14.645
432.39	14.147
432.74	14.793
433.10	15.230
433.45	14.217
433.80	14.858
434.16	14.072
434.51	15.269
434.86	13.937
435.22	14.302
435.57	14.410
435.92	14.431
436.28	14.192
436.63	14.147
436.98	13.499
437.34	14.035
437.69	14.073
438.04	14.074
438.39	13.500
438.75	14.997
439.10	14.092
439.45	14.181
439.81	13.823
440.16	14.133
440.51	14.925
440.86	15.166
441.22	13.971
441.57	13.576
441.92	14.428
442.27	14.690
442.63	14.722
442.98	14.762
443.33	14.469
443.68	14.164
444.03	14.555
444.39	14.412
444.74	14.548
445.09	14.588
445.44	14.302
445.79	15.369
446.15	14.537
446.50	13.533
446.85	13.921
447.20	13.712
447.55	14.955
447.91	13.649
448.26	15.083
448.61	14.450
448.96	14.400
449.31	14.798
449.66	14.692
450.02	14.775
450.37	14.286
450.72	13.975
451.07	14.367
451.42	13.920
451.77	13.924
452.12	14.115
452.47	13.780
452.83	13.840
453.18	13.852
453.53	14.539
453.88	14.208
454.23	13.706
454.58	13.917
454.93	14.755
455.28	13.651
455.63	14.135
455.98	14.612
456.34	13.921
456.69	14.422
457.04	15.123
457.39	14.642
457.74	14.087
458.09	13.891
458.44	14.102
458.79	13.501
459.14	15.103
459.49	14.388
459.84	14.664
460.19	14.078
460.54	14.181
460.89	13.693
461.24	13.540
461.59	13.955
461.94	13.899
462.29	14.596
462.64	15.548
462.99	14.895
463.34	13.908
463.69	14.286
464.04	13.862
464.39	13.705
464.74	14.601
465.09	14.286
465.44	14.599
465.79	13.265
466.14	13.740
466.49	13.456
466.84	13.980
467.19	14.643
467.54	13.538
467.89	14.150
468.24	13.564
468.59	14.222
468.94	14.349
469.29	13.705
469.64	13.944
469.99	14.576
470.34	13.447
470.68	14.691
471.03	13.942
471.38	13.695
471.73	13.796
472.08	13.433
472.43	13.557
472.78	13.228
473.13	14.082
473.48	13.681
473.83	12.827
474.17	13.860
474.52	13.593
474.87	13.636
475.22	13.118
475.57	14.003
475.92	13.659
476.27	14.726
476.61	13.889
476.96	12.995
477.31	13.737
477.66	13.090
478.01	13.363
478.36	13.072
478.70	14.084
479.05	14.341
479.40	14.414
479.75	13.712
480.10	13.108
480.45	13.250
480.79	14.602
481.14	14.498
481.49	12.906
481.84	13.900
482.19	13.190
482.53	14.005
482.88	13.652
483.23	13.676
483.58	13.774
483.92	12.730
484.27	13.309
484.62	13.088
484.97	12.604
485.31	13.186
485.66	13.219
486.01	13.298
486.36	13.420
486.70	13.820
487.05	14.005
487.40	13.857
487.75	13.408
488.09	13.535
488.44	14.271
488.79	13.784
489.13	13.862
489.48	12.997
489.83	13.453
490.17	13.483
490.52	13.025
490.87	12.633
491.22	13.372
491.56	13.425
491.91	13.145
492.26	13.709
492.60	13.148
492.95	14.707
493.30	13.141
493.64	12.770
493.99	13.430
494.34	12.864
494.68	13.143
495.03	12.749
495.37	13.395
495.72	13.327
496.07	13.659
496.41	12.925
496.76	12.943
497.11	12.576
497.45	13.413
497.80	13.471
498.14	12.916
498.49	13.306
498.84	13.623
499.18	12.801
499.53	12.946
499.87	12.597
500.22	12.611
500.56	13.565
500.91	12.048
501.26	11.913
501.60	12.346
501.95	13.295
502.29	12.930
502.64	13.658
502.98	13.123
503.33	12.824
503.67	12.771
504.02	12.757
504.36	13.211
504.71	12.677
505.06	13.488
505.40	13.452
505.75	13.144
506.09	12.620
506.44	13.090
506.78	13.724
507.13	13.133
507.47	12.428
507.82	12.607
508.16	12.995
508.51	13.484
508.85	12.716
509.19	12.294
509.54	12.332
509.88	12.621
510.23	12.856
510.57	12.186
510.92	11.940
511.26	12.220
511.61	13.696
511.95	12.712
512.30	12.528
512.64	12.855
512.98	12.072
513.33	13.430
513.67	12.678
514.02	13.501
514.36	13.314
514.70	12.646
515.05	13.337
515.39	12.692
515.74	13.593
516.08	11.835
516.42	13.310
516.77	13.692
517.11	13.175
517.46	12.507
517.80	13.051
518.14	12.002
518.49	12.981
518.83	12.637
519.17	12.068
519.52	12.315
519.86	11.645
520.20	12.515
520.55	12.320
520.89	13.300
521.23	11.780
521.58	13.565
521.92	12.885
522.26	12.362
522.61	12.857
522.95	12.715
523.29	13.151
523.64	12.516
523.98	12.962
524.32	12.436
524.66	12.612
525.01	13.182
525.35	13.221
525.69	11.717
526.04	12.434
526.38	14.462
526.72	12.034
527.06	13.294
527.41	14.116
527.75	12.466
528.09	12.425
528.43	13.302
528.78	12.541
529.12	13.097
529.46	12.346
529.80	13.870
530.15	12.343
530.49	12.256
530.83	13.953
531.17	12.089
531.51	13.475
531.86	12.780
532.20	11.900
532.54	13.002
532.88	12.799
533.22	12.500
533.57	12.910
533.91	12.859
534.25	13.672
534.59	12.893
534.93	12.020
535.27	12.119
535.62	12.767
535.96	13.503
536.30	13.259
536.64	12.130
536.98	12.962
537.32	12.945
537.66	13.815
538.01	13.357
538.35	12.205
538.69	12.983
539.03	12.577
539.37	13.661
539.71	12.543
540.05	13.306
540.39	12.604
540.73	14.365
541.07	12.983
541.42	13.642
541.76	12.595
542.10	12.526
542.44	12.370
542.78	11.425
543.12	11.195
543.46	13.282
543.80	12.630
544.14	12.417
544.48	12.392
544.82	12.714
545.16	13.115
545.50	12.884
545.84	12.890
546.18	12.553
546.52	12.329
546.86	12.868
547.20	12.732
547.54	11.873
547.88	12.840
548.22	11.571
548.56	12.137
548.90	13.679
549.24	11.915
549.58	13.047
549.92	11.508
550.26	12.381
550.60	12.639
550.94	12.845
551.28	12.287
551.62	12.385
551.96	13.459
552.30	12.135
552.64	11.566
552.98	12.025
553.32	12.553
553.66	11.466
554.00	11.825
554.34	12.851
554.68	12.463
555.02	12.202
555.36	12.715
555.69	11.868
556.03	12.063
556.37	11.815
556.71	11.552
557.05	11.633
557.39	11.896
557.73	11.319
558.07	13.198
558.41	11.868
558.75	12.315
559.08	11.742
559.42	11.349
559.76	11.689
560.10	12.691
560.44	11.839
560.78	12.168
561.12	11.213
561.45	13.141
561.79	12.325
562.13	12.491
562.47	11.871
562.81	12.248
563.15	12.130
563.48	12.659
563.82	11.805
564.16	12.047
564.50	12.838
564.84	12.517
565.17	11.066
565.51	13.183
565.85	12.346
566.19	13.329
566.52	12.466
566.86	13.046
567.20	12.453
567.54	11.861
567.88	13.240
568.21	13.009
568.55	12.609
568.89	12.988
569.23	13.240
569.56	12.391
569.90	13.114
570.24	12.914
570.57	12.582
570.91	13.454
571.25	13.121
571.59	13.236
571.92	12.593
572.26	12.772
572.60	12.403
572.93	12.520
573.27	12.163
573.61	12.530
573.95	13.026
574.28	12.791
574.62	12.713
574.96	12.815
575.29	12.771
575.63	12.542
575.97	12.713
576.30	12.764
576.64	12.424
576.98	12.999
577.31	12.509
577.65	13.119
577.98	13.039
578.32	12.826
578.66	12.594
578.99	13.056
579.33	12.516
579.67	12.238
580.00	12.987
580.34	12.687
580.67	12.611
581.01	12.752
581.35	12.769
581.68	12.970
582.02	12.865
582.35	12.721
582.69	12.894
583.02	12.989
583.36	12.704
583.70	13.266
584.03	13.094
584.37	13.439
584.70	12.912
585.04	12.358
585.37	12.752
585.71	12.540
586.04	12.506
586.38	12.563
586.72	12.855
587.05	13.027
587.39	12.357
587.72	12.849
588.06	13.009
588.39	13.045
588.73	12.912
589.06	13.144
589.40	13.031
589.73	12.742
590.07	13.029
590.40	13.119
590.73	13.015
591.07	13.062
591.40	12.378
591.74	12.534
592.07	12.848
592.41	13.118
592.74	12.386
593.08	12.120
593.41	12.685
593.75	12.856
594.08	12.633
594.41	12.482
594.75	11.985
595.08	12.940
595.42	12.624
595.75	12.843
596.09	12.823
596.42	12.939
596.75	13.144
597.09	13.121
597.42	12.918
597.75	12.964
598.09	12.947
598.42	12.184
598.76	12.613
599.09	12.179
599.42	12.391
599.76	12.566
600.09	12.745
600.42	12.547
600.76	12.147
601.09	12.099
601.42	12.103
601.76	12.664
602.09	12.665
602.42	12.637
602.76	13.158
603.09	12.583
603.42	12.834
603.76	12.097
604.09	12.191
604.42	13.029
604.76	12.951
605.09	12.706
605.42	12.867
605.75	12.303
606.09	12.569
606.42	12.469
606.75	12.814
607.09	13.055
607.42	12.229
607.75	12.522
608.08	12.084
608.42	12.974
608.75	13.060
609.08	12.706
609.41	12.183
609.75	12.198
610.08	12.182
610.41	12.222
610.74	12.628
611.07	12.403
611.41	12.766
611.74	13.593
612.07	11.456
612.40	11.980
612.73	12.655
613.07	12.317
613.40	13.239
613.73	11.975
614.06	11.909
614.39	11.957
614.72	12.045
615.06	12.235
615.39	12.009
615.72	12.271
616.05	12.849
616.38	12.023
616.71	12.049
617.05	12.724
617.38	12.319
617.71	12.893
618.04	11.619
618.37	13.619
618.70	13.003
619.03	12.847
619.36	13.097
619.69	11.676
620.03	13.221
620.36	12.947
620.69	12.491
621.02	12.920
621.35	12.531
621.68	11.990
622.01	13.000
622.34	11.413
622.67	12.224
623.00	12.481
623.33	12.652
623.66	11.444
623.99	12.632
624.32	11.939
624.65	11.955
624.99	12.415
625.32	11.676
625.65	13.119
625.98	12.571
626.31	11.638
626.64	11.872
626.97	12.827
627.30	13.573
627.63	11.958
627.96	11.950
628.29	13.321
628.62	11.799
628.95	12.525
629.28	11.794
629.61	11.565
629.94	13.196
630.26	12.451
630.59	11.967
630.92	11.692
631.25	11.795
631.58	11.674
631.91	12.500
632.24	12.156
632.57	12.159
632.90	11.151
633.23	12.706
633.56	12.091
633.89	11.097
634.22	13.827
634.55	11.182
634.88	10.089
635.20	10.769
635.53	12.400
635.86	12.484
636.19	12.807
636.52	11.224
636.85	10.546
637.18	11.321
637.51	12.075
637.83	12.089
638.16	12.415
638.49	9.946
638.82	13.289
639.15	10.991
639.48	12.930
639.81	10.181
640.13	9.380
640.46	11.808
640.79	12.077
641.12	11.965
641.45	10.811
641.77	12.741
642.10	13.586
642.43	11.093
642.76	12.376
643.09	11.632
643.41	10.356
643.74	11.203
644.07	11.987
644.40	13.345
644.73	10.683
645.05	12.248
645.38	11.640
645.71	10.993
646.04	12.926
646.36	10.106
646.69	12.590
647.02	10.586
647.35	10.634
647.67	10.786
648.00	12.873
648.33	11.433
648.66	11.864
648.98	10.720
649.31	9.091
649.64	8.791
649.96	9.562
650.29	10.733
650.62	12.650
650.94	9.444
651.27	10.615
651.60	12.613
651.92	11.713
652.25	11.901
652.58	9.500
652.90	10.806
653.23	11.092
653.56	10.829
653.88	12.199
654.21	10.508
654.54	9.508
654.86	12.054
655.19	9.942
655.52	14.164
655.84	12.918
656.17	14.076
656.49	19.799
656.82	20.741
657.15	15.984
657.47	12.086
657.80	8.913
658.13	8.967
658.45	13.507
658.78	13.841
659.10	13.272
659.43	13.128
659.75	13.715
660.08	12.759
660.41	12.257
660.73	13.812
661.06	13.865
661.38	10.568
661.71	10.678
662.03	12.446
662.36	11.209
662.68	10.841
663.01	11.354
663.33	10.673
663.66	10.698
663.98	11.163
664.31	12.154
664.63	9.677
664.96	8.043
665.28	11.258
665.61	11.688
665.93	12.609
666.26	11.931
666.58	10.067
666.91	11.059
667.23	12.500
667.56	13.744
667.88	8.393
668.21	12.411
668.53	11.584
668.86	12.264
669.18	9.434
669.50	10.896
669.83	10.233
670.15	11.422
670.48	11.722
670.80	11.982
671.13	10.291
671.45	9.589
671.77	14.163
672.10	12.277
672.42	11.610
672.75	14.387
673.07	13.596
673.39	13.394
673.72	8.679
674.04	10.625
674.37	11.017
674.69	12.420
675.01	10.667
675.34	12.162
675.66	12.500
675.98	10.421
676.31	12.615
676.63	9.739
676.95	9.318
677.28	11.765
677.60	12.289
677.92	8.945
678.25	13.348
678.57	7.143
678.89	14.076
679.22	12.975
679.54	11.847
679.86	9.145
680.18	11.456
680.51	11.553
680.83	9.344
681.15	11.800
681.48	13.730
681.80	13.017
682.12	11.492
682.44	12.552
682.77	10.817
683.09	9.611
683.41	10.000
683.73	8.295
684.06	11.283
684.38	12.043
684.70	12.200
685.02	10.166
685.34	10.079
685.67	11.445
685.99	12.116
686.31	11.858
686.63	11.688
686.96	9.506
687.28	9.293
687.60	12.738
687.92	15.556
688.24	11.492
688.56	12.445
688.89	11.384
689.21	14.000
689.53	11.601
689.85	10.465
690.17	11.161
690.49	9.220
690.82	9.223
691.14	12.381
691.46	10.981
691.78	11.486
692.10	12.473
692.42	10.606
692.74	11.538
693.06	14.189
693.39	11.312
693.71	8.824
694.03	9.931
694.35	11.916
694.67	13.636
694.99	9.922
695.31	12.272
695.63	11.500
695.95	11.616
696.27	9.067
696.59	12.222
696.91	11.204
697.23	11.311
697.56	8.168
697.88	13.763
698.20	12.528
698.52	12.706
698.84	9.809
699.16	10.250
699.48	10.276
699.80	12.903
700.12	6.739
700.44	14.006
700.76	11.047
701.08	9.394
701.40	7.530
701.72	13.272
702.04	8.911
702.36	11.037
702.68	13.514
703.00	11.212
703.32	9.677
703.64	9.322
703.96	11.014
704.28	10.429
704.60	9.206
704.91	7.571
705.23	7.641
705.55	9.894
705.87	12.635
706.19	8.889
706.51	11.684
706.83	12.219
707.15	7.477
707.47	10.644
707.79	9.375
708.11	13.750
708.43	11.500
708.74	14.470
709.06	14.366
709.38	10.398
709.70	16.272
710.02	9.554
710.34	12.384
710.66	10.577
710.98	10.265
711.29	11.475
711.61	8.475
711.93	14.007
712.25	14.777
712.57	15.385
712.89	7.463
713.20	14.187
713.52	4.878
713.84	11.263
714.16	7.560
714.48	11.935
714.80	11.218
715.11	11.854
715.43	7.524
715.75	9.667
716.07	12.625
716.39	13.087
716.70	7.011
717.02	8.397
717.34	12.955
717.66	11.504
717.97	12.609
718.29	10.042
718.61	13.780
718.93	11.628
719.24	9.886
719.56	8.835
719.88	15.464
720.20	11.364
720.51	8.429
720.83	14.286
721.15	10.924
721.46	8.065
721.78	3.953
722.10	11.152
722.42	8.714
722.73	11.837
723.05	10.612
723.37	12.288
723.68	14.414
724.00	9.829
724.32	8.889
724.63	8.182
724.95	9.607
725.27	8.295
725.58	11.017
725.90	9.127
726.22	12.741
726.53	12.881
726.85	11.610
727.16	18.491
727.48	11.741
727.80	14.575
728.11	12.288
728.43	16.078
728.74	6.048
729.06	11.600
729.38	16.165
729.69	11.554
730.01	3.077
730.32	11.194
730.64	15.194
730.96	7.925
731.27	11.333
731.59	8.475
731.90	10.828
732.22	14.826
732.53	14.286
732.85	16.312
733.16	12.121
733.48	7.914
733.80	8.696
734.11	12.203
734.43	9.966
734.74	12.424
735.06	12.052
735.37	10.876
735.69	14.141
736.00	10.801
736.32	13.758
736.63	13.732
736.95	15.358
737.26	9.609
737.58	9.060
737.89	10.989
738.21	9.023
738.52	11.523
738.83	9.607
739.15	4.367
739.46	12.992
739.78	10.256
740.09	9.477
740.41	10.870
740.72	4.724
741.04	10.121
741.35	8.085
741.66	10.427
741.98	6.633
742.29	8.911
742.61	10.471
742.92	2.844
743.23	3.241
743.55	14.027
743.86	8.612
744.18	11.483
744.49	5.851
744.80	7.609
745.12	13.904
745.43	5.854
745.74	10.417
746.06	11.220
746.37	8.901
746.68	13.270
747.00	10.638
747.31	11.940
747.62	10.194
747.94	10.526
748.25	10.396
748.56	8.743
748.88	4.188
749.19	15.426
749.50	15.764
749.82	6.132
750.13	9.174
750.44	16.541
750.75	10.821
751.07	15.328
751.38	12.644
751.69	8.627
752.01	10.853
752.32	7.968
752.63	7.905
752.94	9.052
753.26	20.921
753.57	9.050
753.88	5.752
754.19	9.583
754.51	5.785
754.82	8.907
755.13	15.417
755.44	10.887
755.75	8.984
756.07	14.008
756.38	11.321
756.69	8.046
757.00	12.000
757.31	12.092
757.63	11.280
757.94	14.167
758.25	11.507
758.56	10.106
758.87	10.198
759.18	13.084
759.50	11.273
759.81	16.054
760.12	12.581
760.43	8.788
760.74	13.889
761.05	12.000
761.36	14.205
761.67	15.758
761.99	16.327
762.30	8.000
762.61	14.229
762.92	7.692
763.23	7.658
763.54	8.411
763.85	13.983
764.16	12.448
764.47	9.274
764.78	9.890
765.10	16.835
765.41	11.041
765.72	11.746
766.03	6.767
766.34	12.044
766.65	17.928
766.96	10.606
767.27	13.830
767.58	12.069
767.89	4.965
768.20	14.205
768.51	3.846
768.82	9.852
769.13	7.834
769.44	6.867
769.75	9.132
770.06	8.190
770.37	11.538
770.68	7.107
770.99	17.195
771.30	13.725
771.61	11.312
771.92	15.517
772.23	9.852
772.54	13.978
772.85	12.346
773.16	11.236
773.47	12.418
773.78	10.458
774.09	8.383
774.39	9.333
774.70	12.739
775.01	13.793
775.32	10.000
775.63	3.306
775.94	8.397
776.25	14.173
776.56	7.500
776.87	3.846
777.18	3.419
777.48	10.345
777.79	8.696
778.10	7.619
778.41	1.802
778.72	11.905
779.03	17.293
779.34	18.440
779.65	13.699
779.95	1.370
780.26	10.345
780.57	1.626
780.88	1.575
781.19	15.517
781.50	6.977
781.80	7.692
782.11	7.547
782.42	3.846
782.73	0.000
783.04	10.370
783.34	11.806
783.65	-6.838
783.96	5.738
784.27	13.103
784.57	12.195
784.88	13.281
785.19	15.000
785.50	16.000
785.81	7.759
786.11	5.172
786.42	5.825
786.73	18.182
787.04	1.020
787.34	2.679
787.65	8.571
787.96	7.965
788.26	5.455
788.57	7.692
788.88	14.844
789.19	13.492
789.49	6.087
789.80	-3.061
790.11	5.051
790.41	5.455
790.72	11.957
791.03	21.591
791.33	18.750
791.64	-7.500
791.95	22.093
792.25	9.574
792.56	4.494
792.87	5.479
793.17	18.841
793.48	6.667
793.79	-2.500
794.09	23.750
794.40	0.943
794.70	7.767
795.01	-1.626
795.32	2.564
795.62	0.952
795.93	13.725
796.23	11.321
796.54	9.375
796.85	7.353
797.15	0.000
797.46	4.167
797.76	10.606
798.07	5.814
798.37	17.105
798.68	0.000
798.99	0.000
799.29	8.571
799.60	11.594
799.90	2.667
800.21	0.000
800.51	10.769
800.82	-10.169
801.12	2.899
801.43	27.869
801.73	20.635
802.04	12.000
802.34	10.448
802.65	11.538
802.95	-16.071
803.26	3.846
803.56	13.725
803.87	-26.087
804.17	14.667
804.48	3.175
804.78	9.259
805.09	4.348
805.39	0.000
805.70	0.000
806.00	-19.298
806.30	0.000
806.61	1.429
806.91	0.000
807.22	19.737
807.52	5.333
807.83	-7.273
808.13	15.278
808.43	14.706
808.74	7.463
809.04	0.000
809.35	9.615
809.65	18.750
809.95	-40.541
810.26	-4.545
810.56	2.740
810.86	19.048
811.17	6.000
811.47	2.041
811.77	-15.789
812.08	2.273
812.38	1.887
812.69	10.000
812.99	-24.242
813.29	15.789
813.59	-51.429
813.90	6.818
814.20	-33.333
814.50	-3.846
814.81	7.547
815.11	-2.128
815.41	13.559
815.72	-7.143
816.02	11.765
816.32	0.000
816.62	7.317
816.93	-13.514
817.23	-34.286
817.53	22.917
817.84	0.000
818.14	25.000
818.44	-2.632
818.74	21.739
819.04	-27.500
819.35	8.108
819.65	-5.882
819.95	2.778
820.25	-11.905
820.56	22.500
820.86	-51.724
821.16	5.000
821.46	19.149
821.76	25.000
822.07	9.302
822.37	-27.027
822.67	-37.500
822.97	19.048
823.27	-35.714
823.57	-36.000
823.88	-14.815
824.18	7.143
824.48	8.824
824.78	-9.677
825.08	-47.826
825.38	-9.091
825.69	-25.000
825.99	10.526
826.29	11.111
826.59	6.667
826.89	-42.857
827.19	28.261
827.49	-5.000
827.79	20.000
828.09	-28.571
828.39	-3.030
828.70	18.919
829.00	39.286
829.30	-33.333
829.60	-10.000
829.90	3.125
830.20	-7.895
830.50	-40.741
830.80	13.043
831.10	-22.727
831.40	12.121
831.70	29.032
832.00	-14.286
832.30	-38.095
832.60	-108.333
832.90	-24.138
833.20	15.000
833.50	21.212
833.80	-22.222
834.10	7.692
834.40	28.125
834.70	44.444
835.00	-26.316
835.30	30.769
835.60	6.667
835.90	-9.677
836.20	-27.273
836.50	-10.714
836.80	-26.923
837.10	17.857
837.40	-133.333
837.70	-59.091
838.00	-63.636
838.30	-17.391
838.60	-76.923
838.90	22.727
839.19	14.286
839.49	3.333
839.79	-61.538
840.09	-150.000
840.39	35.714
840.69	-32.143
840.99	-23.077
841.29	-47.368
841.59	-110.000
841.88	-9.091
842.18	-10.000
842.48	0.000
842.78	20.000
843.08	0.000
843.38	-120.000
843.68	-13.043
843.97	0.000
844.27	-26.667
844.57	0.000
844.87	5.556
845.17	23.810
845.47	-20.000
845.76	-4.762
846.06	-64.706
846.36	-100.000
846.66	-42.857
846.96	-13.333
847.25	-187.500
847.55	42.857
847.85	0.000
848.15	-36.364
848.44	-333.333
848.74	40.000
849.04	77.778
849.34	-90.909
849.63	-50.000
849.93	-120.000
850.23	11.111
850.53	80.000
850.82	-92.308
851.12	0.000
851.42	-6.667
851.71	-42.308
852.01	-7.143
852.31	-100.000
852.61	-18.182
852.90	20.000
853.20	-31.579
853.50	-33.333
853.79	21.739
854.09	16.667
854.39	-15.789
854.68	12.500
854.98	32.258
855.28	11.538
855.57	45.000
855.87	11.111
856.17	-14.815
856.46	-42.857
856.76	6.667
857.05	-44.444
857.35	20.000
857.65	61.111
857.94	15.385
858.24	13.793
858.53	-50.000
858.83	22.222
859.13	18.182
859.42	-4.348
859.72	-150.000
860.01	-200.000
860.31	-44.000
860.60	0.000
860.90	-133.333
861.20	-73.333
861.49	-650.000
861.79	-20.000
862.08	-25.000
862.38	33.333
862.67	-220.000
862.97	-116.667
863.26	-8.333
863.56	27.778
863.85	-366.667
864.15	27.778
864.44	-40.000
864.74	7.143
865.03	275.000
865.33	-220.000
865.62	-66.667
865.92	-100.000
866.21	-266.667
866.51	-18.750
866.80	-163.636
867.10	-550.000
867.39	50.000
867.69	0.000
867.98	46.154
868.27	-300.000
868.57	-100.000
868.86	-16.667
869.16	-38.462
869.45	-20.000
869.75	-1400.000
870.04	0.000
870.33	-57.143
870.63	52.381
870.92	633.333
871.22	-120.000
871.51	-400.000
871.80	111.111
872.10	966.667
>>>>>End Processed Spectral Data<<<<<
