SpectraSuite Data File
++++++++++++++++++++++++++++++++++++
Date: Fri May 15 20:46:32 PDT 2015
User: schluterlab
Dark Spectrum Present: Yes
Reference Spectrum Present: Yes
Number of Sampled Component Spectra: 1
Spectrometers: USB2E3373
Integration Time (usec): 3000 (USB2E3373)
Spectra Averaged: 3 (USB2E3373)
Boxcar Smoothing: 0 (USB2E3373)
Correct for Electrical Dark: No (USB2E3373)
Strobe/Lamp Enabled: No (USB2E3373)
Correct for Detector Non-linearity: No (USB2E3373)
Correct for Stray Light: No (USB2E3373)
Number of Pixels in Processed Spectrum: 2048
>>>>>Begin Processed Spectral Data<<<<<
178.53	0.000
178.91	0.000
179.29	12.500
179.67	-1000.000
180.04	-28.571
180.42	-25.000
180.80	-500.000
181.18	100.000
181.56	600.000
181.94	-500.000
182.31	-400.000
182.69	140.000
183.07	-300.000
183.45	-240.000
183.83	83.333
184.20	-9.091
184.58	122.222
184.96	-175.000
185.34	166.667
185.72	-350.000
186.09	84.615
186.47	-1100.000
186.85	300.000
187.23	188.889
187.61	-0.000
187.98	-300.000
188.36	-33.333
188.74	-266.667
189.12	47.059
189.49	38.889
189.87	0.000
190.25	-14.286
190.63	0.000
191.00	-400.000
191.38	-26.316
191.76	300.000
192.14	325.000
192.51	-150.000
192.89	-33.333
193.27	-85.714
193.65	50.000
194.02	163.636
194.40	-40.000
194.78	-162.500
195.15	-50.000
195.53	-162.500
195.91	50.000
196.29	-150.000
196.66	84.615
197.04	157.143
197.42	0.000
197.79	-333.333
198.17	-161.538
198.55	2500.000
198.92	-366.667
199.30	500.000
199.68	-260.000
200.05	-466.667
200.43	0.000
200.81	-200.000
201.18	-266.667
201.56	600.000
201.94	-400.000
202.31	333.333
202.69	-200.000
203.07	25.000
203.44	0.000
203.82	0.000
204.19	-14.286
204.57	-566.667
204.95	112.500
205.32	-60.000
205.70	14.286
206.08	-75.000
206.45	122.222
206.83	71.429
207.20	-14.286
207.58	200.000
207.96	-333.333
208.33	-140.000
208.71	50.000
209.08	-116.667
209.46	-1200.000
209.84	-140.000
210.21	-1300.000
210.59	-85.714
210.96	-133.333
211.34	75.000
211.71	13.333
212.09	-171.429
212.46	-1900.000
212.84	0.000
213.22	50.000
213.59	-0.000
213.97	-38.462
214.34	9.091
214.72	66.667
215.09	650.000
215.47	15.385
215.84	0.000
216.22	-200.000
216.59	-150.000
216.97	-150.000
217.34	-275.000
217.72	-140.000
218.09	-125.000
218.47	137.500
218.84	-300.000
219.22	-11.111
219.59	-40.000
219.97	366.667
220.34	425.000
220.72	-128.571
221.09	-100.000
221.47	100.000
221.84	-400.000
222.22	-450.000
222.59	36.364
222.97	66.667
223.34	-200.000
223.72	-35.714
224.09	9.524
224.46	-3.571
224.84	466.667
225.21	-70.000
225.59	6.667
225.96	0.000
226.34	250.000
226.71	-57.143
227.08	-83.333
227.46	-137.500
227.83	-500.000
228.21	-100.000
228.58	-90.909
228.95	-37.500
229.33	170.000
229.70	-31.250
230.08	-162.500
230.45	-142.857
230.82	-114.286
231.20	-26.667
231.57	35.714
231.95	0.000
232.32	-40.000
232.69	-21.429
233.07	-266.667
233.44	-60.000
233.81	-50.000
234.19	33.333
234.56	-23.529
234.93	50.000
235.31	-75.000
235.68	40.000
236.05	-69.231
236.43	-25.000
236.80	52.941
237.17	15.625
237.55	-70.000
237.92	0.000
238.29	38.889
238.67	23.333
239.04	5.882
239.41	-9.756
239.79	6.667
240.16	19.512
240.53	-10.526
240.91	17.391
241.28	17.460
241.65	17.857
242.02	19.178
242.40	28.333
242.77	15.254
243.14	22.727
243.51	35.000
243.89	26.437
244.26	13.793
244.63	25.000
245.00	18.557
245.38	26.804
245.75	14.607
246.12	22.414
246.49	23.967
246.87	29.808
247.24	16.807
247.61	14.912
247.98	29.268
248.36	18.750
248.73	21.053
249.10	25.974
249.47	27.848
249.84	26.797
250.22	30.588
250.59	23.529
250.96	31.455
251.33	20.349
251.70	25.294
252.08	22.335
252.45	23.267
252.82	24.121
253.19	26.728
253.56	17.757
253.94	28.378
254.31	23.478
254.68	26.754
255.05	25.984
255.42	23.581
255.79	30.888
256.16	28.794
256.54	30.224
256.91	29.658
257.28	25.279
257.65	24.719
258.02	24.468
258.39	26.599
258.76	26.007
259.14	27.907
259.51	23.948
259.88	23.024
260.25	24.510
260.62	27.431
260.99	27.119
261.36	25.342
261.73	25.000
262.10	28.875
262.47	26.687
262.85	26.019
263.22	25.231
263.59	27.414
263.96	26.087
264.33	30.000
264.70	26.488
265.07	25.000
265.44	28.329
265.81	24.576
266.18	28.962
266.55	26.735
266.92	28.497
267.29	28.198
267.66	28.645
268.03	24.869
268.40	24.543
268.77	29.412
269.14	23.501
269.51	28.278
269.88	25.935
270.25	26.786
270.62	25.366
270.99	24.041
271.36	24.450
271.73	28.873
272.10	28.224
272.47	26.241
272.84	26.238
273.21	27.146
273.58	27.952
273.95	28.604
274.32	26.328
274.69	23.756
275.06	25.000
275.43	26.757
275.80	25.166
276.17	26.437
276.54	26.981
276.91	27.412
277.28	24.017
277.65	29.545
278.02	26.170
278.39	24.289
278.76	29.140
279.13	23.651
279.50	28.571
279.87	25.918
280.23	25.376
280.60	25.731
280.97	27.475
281.34	24.423
281.71	31.006
282.08	25.767
282.45	24.266
282.82	23.938
283.19	25.725
283.56	26.782
283.92	26.186
284.29	25.962
284.66	25.388
285.03	24.754
285.40	21.928
285.77	23.902
286.14	26.354
286.51	27.122
286.87	24.497
287.24	25.967
287.61	23.986
287.98	25.088
288.35	22.877
288.72	24.343
289.08	23.611
289.45	24.605
289.82	24.126
290.19	22.526
290.56	21.955
290.93	22.054
291.29	22.958
291.66	22.992
292.03	22.488
292.40	23.226
292.77	21.531
293.13	20.292
293.50	20.637
293.87	21.679
294.24	19.474
294.60	21.162
294.97	22.619
295.34	21.166
295.71	20.715
296.08	20.030
296.44	18.634
296.81	20.278
297.18	20.145
297.55	21.680
297.91	19.863
298.28	21.504
298.65	18.860
299.02	19.811
299.38	18.057
299.75	20.276
300.12	19.634
300.48	17.918
300.85	20.279
301.22	17.532
301.59	18.816
301.95	19.114
302.32	21.530
302.69	19.900
303.05	18.069
303.42	18.680
303.79	19.626
304.15	18.280
304.52	16.885
304.89	17.076
305.25	17.797
305.62	18.086
305.99	16.842
306.35	17.457
306.72	17.098
307.09	17.674
307.45	18.714
307.82	17.245
308.19	19.048
308.55	17.775
308.92	17.647
309.29	16.089
309.65	17.653
310.02	17.602
310.38	18.990
310.75	18.907
311.12	18.192
311.48	18.558
311.85	17.696
312.22	17.405
312.58	17.516
312.95	16.862
313.31	17.081
313.68	17.696
314.05	16.735
314.41	17.938
314.78	17.320
315.14	18.294
315.51	18.841
315.87	17.623
316.24	17.189
316.61	18.602
316.97	18.254
317.34	18.457
317.70	18.164
318.07	19.135
318.43	19.412
318.80	18.561
319.16	20.703
319.53	20.513
319.89	18.307
320.26	19.231
320.62	20.461
320.99	19.207
321.35	20.452
321.72	20.976
322.08	22.457
322.45	21.421
322.81	22.102
323.18	22.080
323.54	22.780
323.91	22.201
324.27	22.266
324.64	23.783
325.00	24.635
325.37	24.610
325.73	23.481
326.10	24.886
326.46	25.830
326.83	27.122
327.19	26.765
327.56	25.630
327.92	27.641
328.29	26.339
328.65	28.679
329.01	28.125
329.38	28.387
329.74	27.856
330.11	28.452
330.47	28.571
330.84	27.885
331.20	30.133
331.56	29.167
331.93	29.680
332.29	28.689
332.66	28.869
333.02	28.439
333.38	29.331
333.75	30.952
334.11	29.096
334.48	31.006
334.84	30.128
335.20	30.833
335.57	29.737
335.93	30.804
336.29	31.123
336.66	30.609
337.02	31.227
337.38	32.130
337.75	31.727
338.11	31.921
338.47	31.752
338.84	32.625
339.20	32.541
339.56	31.376
339.93	31.961
340.29	31.101
340.65	32.079
341.02	31.383
341.38	30.708
341.74	31.095
342.11	30.416
342.47	32.384
342.83	31.055
343.20	31.185
343.56	30.957
343.92	32.152
344.28	31.682
344.65	31.434
345.01	32.325
345.37	30.950
345.73	32.134
346.10	32.873
346.46	32.548
346.82	31.588
347.19	31.255
347.55	31.328
347.91	31.472
348.27	31.205
348.63	31.516
349.00	31.501
349.36	32.170
349.72	33.831
350.08	31.311
350.45	31.445
350.81	30.482
351.17	30.782
351.53	31.755
351.89	32.453
352.26	32.400
352.62	32.742
352.98	31.245
353.34	31.965
353.70	32.039
354.07	32.016
354.43	32.346
354.79	32.287
355.15	32.857
355.51	32.199
355.87	33.576
356.24	31.321
356.60	32.417
356.96	32.698
357.32	32.907
357.68	31.587
358.04	33.037
358.40	31.511
358.77	32.695
359.13	32.666
359.49	30.894
359.85	33.775
360.21	33.413
360.57	31.829
360.93	33.510
361.29	32.251
361.66	34.169
362.02	32.803
362.38	33.435
362.74	33.535
363.10	33.409
363.46	32.913
363.82	33.659
364.18	31.808
364.54	33.309
364.90	32.903
365.26	32.533
365.62	33.723
365.98	33.358
366.35	34.086
366.71	33.629
367.07	35.051
367.43	33.717
367.79	33.216
368.15	33.381
368.51	34.887
368.87	33.525
369.23	33.430
369.59	33.965
369.95	35.264
370.31	33.960
370.67	34.254
371.03	33.682
371.39	34.063
371.75	33.846
372.11	33.310
372.47	34.246
372.83	34.280
373.19	33.951
373.55	34.079
373.91	34.125
374.27	33.806
374.63	34.386
374.99	34.397
375.35	35.724
375.71	36.154
376.07	34.340
376.42	34.422
376.78	35.302
377.14	36.831
377.50	35.259
377.86	35.007
378.22	34.780
378.58	34.231
378.94	34.342
379.30	35.059
379.66	35.486
380.02	35.806
380.38	35.545
380.74	34.231
381.09	36.380
381.45	35.841
381.81	36.952
382.17	35.977
382.53	34.978
382.89	36.284
383.25	35.968
383.61	36.098
383.97	35.746
384.32	35.022
384.68	35.108
385.04	35.662
385.40	35.905
385.76	37.987
386.12	36.287
386.48	37.356
386.83	36.145
387.19	37.179
387.55	37.829
387.91	37.592
388.27	36.325
388.62	37.067
388.98	36.894
389.34	37.664
389.70	37.725
390.06	36.564
390.42	36.788
390.77	36.887
391.13	36.444
391.49	36.934
391.85	36.582
392.20	37.351
392.56	37.826
392.92	38.109
393.28	37.913
393.64	37.538
393.99	37.743
394.35	37.508
394.71	39.336
395.07	37.209
395.42	38.009
395.78	37.785
396.14	38.020
396.50	38.491
396.85	37.669
397.21	38.409
397.57	38.307
397.92	37.627
398.28	38.218
398.64	36.687
399.00	39.221
399.35	37.641
399.71	37.277
400.07	38.755
400.42	38.494
400.78	38.947
401.14	38.355
401.49	38.297
401.85	37.782
402.21	39.337
402.57	39.312
402.92	38.959
403.28	39.599
403.63	38.966
403.99	38.393
404.35	39.475
404.70	38.333
405.06	38.543
405.42	39.403
405.77	37.071
406.13	39.581
406.49	39.491
406.84	38.386
407.20	39.856
407.55	38.506
407.91	39.706
408.27	38.305
408.62	39.815
408.98	39.618
409.34	38.166
409.69	39.729
410.05	38.300
410.40	40.185
410.76	39.988
411.11	39.312
411.47	40.237
411.83	39.046
412.18	40.219
412.54	39.950
412.89	39.532
413.25	40.915
413.60	39.876
413.96	39.018
414.31	39.207
414.67	39.513
415.03	38.682
415.38	38.381
415.74	38.762
416.09	41.019
416.45	39.635
416.80	39.128
417.16	40.470
417.51	39.907
417.87	40.156
418.22	40.285
418.58	40.602
418.93	41.191
419.29	38.924
419.64	40.570
420.00	41.625
420.35	39.284
420.71	39.611
421.06	39.288
421.42	39.724
421.77	39.364
422.12	39.330
422.48	40.173
422.83	39.327
423.19	40.745
423.54	40.506
423.90	39.812
424.25	41.447
424.61	41.432
424.96	39.663
425.31	40.670
425.67	40.434
426.02	40.754
426.38	41.578
426.73	41.283
427.09	40.633
427.44	41.765
427.79	41.014
428.15	40.655
428.50	41.248
428.85	40.049
429.21	41.426
429.56	40.863
429.92	41.500
430.27	39.549
430.62	40.355
430.98	40.393
431.33	40.852
431.68	40.607
432.04	41.643
432.39	41.072
432.74	39.928
433.10	40.920
433.45	41.039
433.80	41.846
434.16	40.609
434.51	40.645
434.86	41.812
435.22	41.447
435.57	42.046
435.92	42.036
436.28	41.801
436.63	41.757
436.98	40.324
437.34	42.105
437.69	42.755
438.04	41.880
438.39	42.211
438.75	42.441
439.10	41.879
439.45	41.631
439.81	41.713
440.16	42.933
440.51	42.806
440.86	44.230
441.22	42.477
441.57	41.832
441.92	42.970
442.27	42.627
442.63	43.362
442.98	42.562
443.33	41.848
443.68	42.016
444.03	42.772
444.39	42.696
444.74	44.314
445.09	43.207
445.44	43.305
445.79	43.682
446.15	42.621
446.50	43.372
446.85	43.092
447.20	43.691
447.55	43.359
447.91	42.809
448.26	43.256
448.61	43.926
448.96	44.062
449.31	42.428
449.66	43.264
450.02	43.811
450.37	43.154
450.72	43.070
451.07	44.114
451.42	43.134
451.77	43.219
452.12	42.105
452.47	43.078
452.83	43.463
453.18	43.960
453.53	43.173
453.88	43.352
454.23	44.069
454.58	44.962
454.93	44.523
455.28	42.476
455.63	44.017
455.98	43.836
456.34	43.934
456.69	44.282
457.04	44.171
457.39	43.135
457.74	43.652
458.09	42.496
458.44	43.008
458.79	43.137
459.14	43.879
459.49	44.060
459.84	43.711
460.19	43.811
460.54	44.071
460.89	44.148
461.24	44.658
461.59	44.121
461.94	44.277
462.29	44.692
462.64	45.714
462.99	44.617
463.34	43.811
463.69	44.981
464.04	44.068
464.39	43.299
464.74	44.785
465.09	44.417
465.44	44.374
465.79	43.027
466.14	43.273
466.49	44.796
466.84	45.628
467.19	45.494
467.54	43.678
467.89	44.788
468.24	45.195
468.59	45.016
468.94	45.270
469.29	44.984
469.64	46.480
469.99	46.671
470.34	46.553
470.68	46.532
471.03	46.285
471.38	44.864
471.73	46.148
472.08	45.794
472.43	45.436
472.78	45.099
473.13	44.558
473.48	46.124
473.83	45.205
474.17	46.438
474.52	45.884
474.87	45.212
475.22	45.272
475.57	44.156
475.92	46.462
476.27	46.042
476.61	46.586
476.96	44.283
477.31	46.025
477.66	46.124
478.01	45.649
478.36	45.915
478.70	46.058
479.05	47.033
479.40	45.946
479.75	44.891
480.10	45.520
480.45	45.750
480.79	46.928
481.14	47.131
481.49	46.010
481.84	46.187
482.19	44.902
482.53	46.379
482.88	45.680
483.23	45.681
483.58	46.274
483.92	45.450
484.27	45.397
484.62	45.495
484.97	44.320
485.31	43.678
485.66	41.967
486.01	42.094
486.36	42.364
486.70	42.811
487.05	44.583
487.40	44.416
487.75	44.000
488.09	44.623
488.44	44.670
488.79	45.387
489.13	46.314
489.48	45.532
489.83	45.022
490.17	45.034
490.52	46.697
490.87	45.072
491.22	46.275
491.56	45.778
491.91	44.503
492.26	45.892
492.60	45.106
492.95	47.024
493.30	45.970
493.64	46.513
493.99	45.990
494.34	45.340
494.68	46.762
495.03	46.034
495.37	46.369
495.72	46.896
496.07	46.634
496.41	45.991
496.76	45.785
497.11	44.760
497.45	47.255
497.80	47.124
498.14	47.442
498.49	46.978
498.84	46.158
499.18	47.641
499.53	46.825
499.87	46.790
500.22	46.983
500.56	48.764
500.91	47.289
501.26	46.169
501.60	47.024
501.95	47.210
502.29	46.295
502.64	47.346
502.98	46.769
503.33	45.581
503.67	47.036
504.02	46.676
504.36	46.907
504.71	46.465
505.06	47.157
505.40	47.056
505.75	48.299
506.09	46.731
506.44	47.382
506.78	47.602
507.13	47.570
507.47	46.893
507.82	48.291
508.16	48.230
508.51	48.216
508.85	48.927
509.19	47.951
509.54	48.686
509.88	48.436
510.23	48.359
510.57	48.958
510.92	47.228
511.26	48.227
511.61	49.780
511.95	47.836
512.30	49.279
512.64	49.082
512.98	48.568
513.33	49.301
513.67	49.801
514.02	49.714
514.36	50.400
514.70	50.758
515.05	50.764
515.39	50.413
515.74	50.838
516.08	49.851
516.42	51.178
516.77	51.551
517.11	50.564
517.46	51.167
517.80	51.669
518.14	50.949
518.49	50.901
518.83	50.304
519.17	51.243
519.52	49.497
519.86	50.480
520.20	51.701
520.55	51.157
520.89	52.133
521.23	51.552
521.58	52.618
521.92	52.308
522.26	51.919
522.61	53.182
522.95	52.252
523.29	51.652
523.64	51.906
523.98	52.430
524.32	50.966
524.66	52.881
525.01	52.987
525.35	52.560
525.69	52.323
526.04	52.116
526.38	52.659
526.72	51.014
527.06	52.075
527.41	51.583
527.75	53.150
528.09	52.226
528.43	53.545
528.78	52.541
529.12	52.452
529.46	51.592
529.80	51.678
530.15	53.465
530.49	53.131
530.83	53.283
531.17	51.578
531.51	52.599
531.86	52.617
532.20	52.192
532.54	52.144
532.88	52.156
533.22	52.890
533.57	52.621
533.91	53.003
534.25	53.451
534.59	51.828
534.93	51.919
535.27	51.142
535.62	51.523
535.96	52.185
536.30	52.045
536.64	52.240
536.98	51.498
537.32	53.556
537.66	53.015
538.01	52.168
538.35	52.150
538.69	51.132
539.03	51.401
539.37	51.009
539.71	50.170
540.05	52.071
540.39	52.285
540.73	51.325
541.07	51.450
541.42	51.613
541.76	51.755
542.10	53.131
542.44	51.494
542.78	50.241
543.12	51.099
543.46	51.878
543.80	52.047
544.14	49.466
544.48	50.899
544.82	51.333
545.16	52.459
545.50	51.535
545.84	50.850
546.18	51.277
546.52	51.550
546.86	50.971
547.20	51.717
547.54	50.459
547.88	52.514
548.22	49.770
548.56	50.792
548.90	52.561
549.24	51.171
549.58	50.423
549.92	51.251
550.26	49.817
550.60	51.896
550.94	51.680
551.28	53.091
551.62	52.846
551.96	50.977
552.30	52.339
552.64	48.872
552.98	50.774
553.32	50.571
553.66	51.089
554.00	50.073
554.34	52.290
554.68	50.811
555.02	51.116
555.36	49.738
555.69	49.670
556.03	49.893
556.37	51.174
556.71	51.191
557.05	51.081
557.39	50.632
557.73	50.075
558.07	51.357
558.41	50.689
558.75	51.364
559.08	51.064
559.42	52.460
559.76	53.403
560.10	50.000
560.44	50.558
560.78	50.140
561.12	50.353
561.45	51.651
561.79	51.120
562.13	49.681
562.47	49.568
562.81	50.937
563.15	49.647
563.48	50.424
563.82	49.691
564.16	49.373
564.50	48.243
564.84	50.268
565.17	49.564
565.51	51.366
565.85	51.852
566.19	50.464
566.52	51.005
566.86	49.679
567.20	47.758
567.54	48.966
567.88	49.033
568.21	49.152
568.55	49.402
568.89	48.255
569.23	47.376
569.56	46.103
569.90	47.259
570.24	44.548
570.57	45.964
570.91	46.218
571.25	44.525
571.59	44.348
571.92	43.348
572.26	43.629
572.60	44.248
572.93	43.991
573.27	43.574
573.61	43.735
573.95	43.692
574.28	43.379
574.62	42.232
574.96	42.882
575.29	42.655
575.63	41.332
575.97	42.315
576.30	42.929
576.64	42.331
576.98	43.089
577.31	42.738
577.65	42.706
577.98	42.033
578.32	42.002
578.66	42.016
578.99	42.302
579.33	41.819
579.67	42.342
580.00	42.987
580.34	43.234
580.67	41.939
581.01	43.276
581.35	41.408
581.68	41.429
582.02	41.219
582.35	41.300
582.69	42.072
583.02	41.765
583.36	42.252
583.70	43.380
584.03	43.675
584.37	44.410
584.70	42.830
585.04	41.865
585.37	41.769
585.71	41.940
586.04	41.906
586.38	41.851
586.72	42.382
587.05	42.692
587.39	42.382
587.72	43.302
588.06	42.762
588.39	42.410
588.73	42.766
589.06	44.097
589.40	43.208
589.73	43.702
590.07	43.995
590.40	43.963
590.73	44.934
591.07	44.190
591.40	44.123
591.74	45.068
592.07	44.712
592.41	43.772
592.74	43.011
593.08	41.530
593.41	42.603
593.75	42.231
594.08	42.465
594.41	42.322
594.75	43.206
595.08	42.906
595.42	42.510
595.75	42.959
596.09	43.941
596.42	43.985
596.75	43.961
597.09	43.280
597.42	43.722
597.75	44.159
598.09	43.096
598.42	42.374
598.76	43.286
599.09	42.228
599.42	41.948
599.76	41.685
600.09	41.817
600.42	40.902
600.76	40.936
601.09	41.565
601.42	41.285
601.76	42.676
602.09	42.162
602.42	43.387
602.76	43.166
603.09	42.857
603.42	42.768
603.76	41.694
604.09	42.001
604.42	42.343
604.76	44.192
605.09	43.099
605.42	41.851
605.75	42.601
606.09	41.274
606.42	42.661
606.75	41.645
607.09	42.681
607.42	42.268
607.75	41.696
608.08	42.408
608.42	41.343
608.75	42.651
609.08	43.697
609.41	42.741
609.75	42.188
610.08	43.185
610.41	42.222
610.74	42.808
611.07	42.842
611.41	43.539
611.74	43.443
612.07	42.987
612.40	44.092
612.73	44.463
613.07	42.632
613.40	43.818
613.73	42.977
614.06	43.461
614.39	42.583
614.72	42.073
615.06	42.849
615.39	42.467
615.72	42.411
616.05	42.291
616.38	42.792
616.71	43.609
617.05	43.422
617.38	43.935
617.71	43.711
618.04	44.762
618.37	44.830
618.70	43.564
619.03	45.903
619.36	43.705
619.69	45.034
620.03	45.362
620.36	43.562
620.69	44.968
621.02	43.578
621.35	46.390
621.68	45.493
622.01	46.000
622.34	45.251
622.67	43.849
623.00	44.870
623.33	44.207
623.66	44.428
623.99	45.386
624.32	44.335
624.65	42.707
624.99	45.071
625.32	44.276
625.65	45.640
625.98	45.608
626.31	44.223
626.64	46.794
626.97	45.812
627.30	45.884
627.63	44.714
627.96	46.002
628.29	45.791
628.62	47.788
628.95	47.996
629.28	45.766
629.61	47.059
629.94	46.628
630.26	46.542
630.59	47.763
630.92	47.385
631.25	45.128
631.58	49.670
631.91	48.355
632.24	47.477
632.57	47.159
632.90	48.161
633.23	49.059
633.56	47.733
633.89	48.829
634.22	50.494
634.55	48.793
634.88	48.404
635.20	46.538
635.53	49.600
635.86	46.164
636.19	46.960
636.52	46.301
636.85	47.767
637.18	47.296
637.51	47.799
637.83	47.306
638.16	48.295
638.49	47.003
638.82	49.079
639.15	47.897
639.48	48.281
639.81	48.396
640.13	50.072
640.46	48.980
640.79	49.190
641.12	48.744
641.45	51.502
641.77	49.037
642.10	49.605
642.43	51.608
642.76	49.175
643.09	51.373
643.41	46.602
643.74	50.247
644.07	50.739
644.40	50.845
644.73	53.415
645.05	49.664
645.38	48.325
645.71	49.823
646.04	52.065
646.36	51.596
646.69	50.000
647.02	53.308
647.35	49.067
647.67	50.640
648.00	50.560
648.33	50.341
648.66	48.814
648.98	46.734
649.31	45.950
649.64	47.567
649.96	47.326
650.29	49.233
650.62	48.889
650.94	49.259
651.27	51.024
651.60	50.811
651.92	47.028
652.25	46.536
652.58	47.000
652.90	50.257
653.23	47.227
653.56	46.531
653.88	48.625
654.21	47.285
654.54	47.538
654.86	45.671
655.19	43.129
655.52	42.957
655.84	35.905
656.17	38.346
656.49	51.467
656.82	53.535
657.15	41.672
657.47	31.616
657.80	23.304
658.13	23.120
658.45	36.364
658.78	36.530
659.10	37.374
659.43	38.481
659.75	39.023
660.08	39.724
660.41	43.207
660.73	44.199
661.06	46.274
661.38	46.380
661.71	46.612
662.03	48.712
662.36	48.791
662.68	48.451
663.01	51.528
663.33	47.796
663.66	49.535
663.98	47.674
664.31	48.614
664.63	46.544
664.96	45.870
665.28	45.475
665.61	46.753
665.93	48.043
666.26	47.289
666.58	46.309
666.91	48.235
667.23	48.821
667.56	53.318
667.88	49.161
668.21	50.358
668.53	51.537
668.86	47.170
669.18	48.585
669.50	46.973
669.83	47.674
670.15	49.650
670.48	53.349
670.80	48.848
671.13	44.519
671.45	43.836
671.77	44.850
672.10	47.525
672.42	45.693
672.75	46.181
673.07	48.301
673.39	46.055
673.72	42.998
674.04	43.542
674.37	44.068
674.69	44.325
675.01	48.222
675.34	48.874
675.66	49.074
675.98	48.337
676.31	47.706
676.63	45.843
676.95	46.364
677.28	48.471
677.60	51.084
677.92	45.413
678.25	46.608
678.57	47.186
678.89	44.118
679.22	48.546
679.54	44.177
679.86	41.750
680.18	42.524
680.51	43.750
680.83	44.135
681.15	40.600
681.48	45.492
681.80	46.074
682.12	43.145
682.44	45.607
682.77	43.046
683.09	46.682
683.41	44.091
683.73	46.083
684.06	42.257
684.38	40.430
684.70	46.623
685.02	43.361
685.34	43.281
685.67	43.340
685.99	42.134
686.31	41.416
686.63	43.043
686.96	40.114
687.28	42.424
687.60	40.114
687.92	44.848
688.24	44.355
688.56	44.105
688.89	43.080
689.21	45.333
689.53	44.780
689.85	42.326
690.17	41.071
690.49	44.917
690.82	44.175
691.14	42.143
691.46	42.056
691.78	43.018
692.10	42.796
692.42	41.991
692.74	44.231
693.06	43.243
693.39	42.760
693.71	42.081
694.03	39.723
694.35	43.458
694.67	41.162
694.99	43.081
695.31	45.431
695.63	44.250
695.95	43.434
696.27	41.710
696.59	42.500
696.91	42.577
697.23	39.846
697.56	43.812
697.88	40.860
698.20	39.180
698.52	42.588
698.84	38.756
699.16	39.250
699.48	43.358
699.80	40.943
700.12	43.127
700.44	42.017
700.76	41.279
701.08	43.939
701.40	42.771
701.72	46.605
702.04	41.584
702.36	46.488
702.68	43.243
703.00	44.545
703.32	40.762
703.64	42.938
703.96	42.609
704.28	42.945
704.60	43.492
704.91	42.271
705.23	41.860
705.55	46.290
705.87	42.238
706.19	44.815
706.51	42.955
706.83	42.765
707.15	38.006
707.47	38.936
707.79	39.063
708.11	41.750
708.43	38.750
708.74	39.793
709.06	40.000
709.38	40.367
709.70	40.828
710.02	42.038
710.34	43.034
710.66	38.141
710.98	45.364
711.29	46.557
711.61	35.932
711.93	42.345
712.25	46.048
712.57	43.956
712.89	38.060
713.20	41.522
713.52	38.328
713.84	39.590
714.16	40.550
714.48	41.613
714.80	41.026
715.11	41.033
715.43	38.558
715.75	41.000
716.07	39.535
716.39	41.611
716.70	39.483
717.02	35.115
717.34	42.915
717.66	44.248
717.97	44.783
718.29	39.331
718.61	42.126
718.93	44.961
719.24	41.825
719.56	44.177
719.88	40.206
720.20	39.394
720.51	38.314
720.83	39.382
721.15	40.756
721.46	37.903
721.78	42.688
722.10	37.918
722.42	34.025
722.73	37.143
723.05	44.082
723.37	42.797
723.68	38.739
724.00	45.726
724.32	38.667
724.63	36.818
724.95	44.978
725.27	38.249
725.58	39.831
725.90	35.317
726.22	37.066
726.53	38.644
726.85	39.326
727.16	42.264
727.48	37.652
727.80	38.866
728.11	38.983
728.43	37.255
728.74	31.452
729.06	38.800
729.38	40.977
729.69	40.239
730.01	33.846
730.32	40.299
730.64	42.403
730.96	38.491
731.27	33.667
731.59	35.593
731.90	35.987
732.22	37.855
732.53	38.538
732.85	37.943
733.16	37.374
733.48	32.014
733.80	37.681
734.11	34.915
734.43	34.708
734.74	36.970
735.06	35.831
735.37	33.233
735.69	36.700
736.00	30.314
736.32	38.255
736.63	40.141
736.95	38.908
737.26	35.587
737.58	40.604
737.89	30.403
738.21	39.850
738.52	38.272
738.83	37.118
739.15	34.934
739.46	36.220
739.78	32.234
740.09	36.275
740.41	36.957
740.72	35.827
741.04	37.247
741.35	32.340
741.66	37.441
741.98	36.224
742.29	40.594
742.61	35.602
742.92	32.227
743.23	36.111
743.55	37.104
743.86	34.450
744.18	35.885
744.49	37.766
744.80	39.130
745.12	45.455
745.43	38.049
745.74	40.625
746.06	39.512
746.37	45.026
746.68	36.493
747.00	35.638
747.31	46.269
747.62	35.437
747.94	37.799
748.25	35.644
748.56	40.437
748.88	40.838
749.19	40.426
749.50	40.394
749.82	32.075
750.13	35.780
750.44	33.459
750.75	36.940
751.07	37.956
751.38	35.249
751.69	32.549
752.01	40.698
752.32	34.263
752.63	37.549
752.94	34.052
753.26	40.586
753.57	33.032
753.88	35.398
754.19	32.917
754.51	34.298
754.82	30.769
755.13	40.417
755.44	39.113
755.75	39.453
756.07	37.743
756.38	35.472
756.69	32.184
757.00	31.667
757.31	30.392
757.63	32.927
757.94	29.722
758.25	30.685
758.56	32.181
758.87	33.144
759.18	30.841
759.50	29.091
759.81	34.114
760.12	32.903
760.43	31.818
760.74	38.580
761.05	33.846
761.36	34.943
761.67	32.424
761.99	31.973
762.30	28.727
762.61	33.202
762.92	36.652
763.23	29.730
763.54	31.308
763.85	32.627
764.16	32.780
764.47	37.500
764.78	32.967
765.10	33.670
765.41	32.177
765.72	29.524
766.03	31.955
766.34	32.117
766.65	33.068
766.96	40.404
767.27	29.787
767.58	35.057
767.89	29.787
768.20	34.659
768.51	35.165
768.82	32.020
769.13	29.954
769.44	27.897
769.75	31.507
770.06	34.052
770.37	38.942
770.68	33.503
770.99	29.412
771.30	35.784
771.61	31.222
771.92	32.328
772.23	35.468
772.54	39.785
772.85	32.099
773.16	33.146
773.47	47.712
773.78	28.105
774.09	34.731
774.39	36.667
774.70	37.580
775.01	42.069
775.32	35.714
775.63	36.364
775.94	33.588
776.25	38.583
776.56	25.833
776.87	37.500
777.18	34.188
777.48	36.207
777.79	33.043
778.10	33.333
778.41	22.523
778.72	31.746
779.03	38.346
779.34	37.589
779.65	39.726
779.95	31.507
780.26	31.724
780.57	25.203
780.88	33.071
781.19	36.207
781.50	41.860
781.80	31.953
782.11	22.013
782.42	31.538
782.73	33.813
783.04	31.852
783.34	29.167
783.65	23.077
783.96	27.049
784.27	34.483
784.57	27.642
784.88	38.281
785.19	39.000
785.50	38.000
785.81	35.345
786.11	29.310
786.42	34.951
786.73	38.182
787.04	29.592
787.34	33.036
787.65	19.048
787.96	26.549
788.26	25.455
788.57	26.496
788.88	34.375
789.19	22.222
789.49	33.043
789.80	34.694
790.11	31.313
790.41	30.000
790.72	38.043
791.03	29.545
791.33	33.750
791.64	33.750
791.95	36.047
792.25	28.723
792.56	35.955
792.87	28.767
793.17	28.986
793.48	20.000
793.79	27.500
794.09	37.500
794.40	28.302
794.70	25.243
795.01	25.203
795.32	26.496
795.62	24.762
795.93	40.196
796.23	23.585
796.54	37.500
796.85	35.294
797.15	25.352
797.46	38.889
797.76	40.909
798.07	32.558
798.37	17.105
798.68	22.727
798.99	35.802
799.29	37.143
799.60	23.188
799.90	28.000
800.21	40.984
800.51	30.769
800.82	1.695
801.12	27.536
801.43	26.230
801.73	41.270
802.04	28.000
802.34	17.910
802.65	34.615
802.95	12.500
803.26	19.231
803.56	37.255
803.87	15.217
804.17	29.333
804.48	31.746
804.78	20.370
805.09	43.478
805.39	13.333
805.70	27.778
806.00	14.035
806.30	30.986
806.61	37.143
806.91	22.222
807.22	40.789
807.52	33.333
807.83	20.000
808.13	23.611
808.43	36.765
808.74	29.851
809.04	11.864
809.35	9.615
809.65	25.000
809.95	0.000
810.26	6.818
810.56	27.397
810.86	16.667
811.17	30.000
811.47	28.571
811.77	-2.632
812.08	31.818
812.38	18.868
812.69	15.000
812.99	15.152
813.29	36.842
813.59	20.000
813.90	6.818
814.20	7.692
814.50	28.846
814.81	43.396
815.11	8.511
815.41	32.203
815.72	14.286
816.02	33.333
816.32	6.250
816.62	-12.195
816.93	0.000
817.23	14.286
817.53	35.417
817.84	-4.348
818.14	23.077
818.44	0.000
818.74	50.000
819.04	-5.000
819.35	18.919
819.65	35.294
819.95	19.444
820.25	33.333
820.56	55.000
820.86	-10.345
821.16	52.500
821.46	23.404
821.76	27.500
822.07	16.279
822.37	16.216
822.67	3.125
822.97	35.714
823.27	-10.714
823.57	-20.000
823.88	-3.704
824.18	17.857
824.48	17.647
824.78	25.806
825.08	-30.435
825.38	18.182
825.69	41.667
825.99	36.842
826.29	25.000
826.59	6.667
826.89	-42.857
827.19	8.696
827.49	-2.500
827.79	22.857
828.09	14.286
828.39	9.091
828.70	37.838
829.00	-3.571
829.30	-14.286
829.60	23.333
829.90	28.125
830.20	5.263
830.50	14.815
830.80	21.739
831.10	22.727
831.40	12.121
831.70	38.710
832.00	42.857
832.30	19.048
832.60	-8.333
832.90	20.690
833.20	-20.000
833.50	60.606
833.80	0.000
834.10	7.692
834.40	43.750
834.70	-66.667
835.00	-15.789
835.30	19.231
835.60	73.333
835.90	41.935
836.20	63.636
836.50	57.143
836.80	-57.692
837.10	10.714
837.40	-300.000
837.70	31.818
838.00	9.091
838.30	39.130
838.60	-84.615
838.90	72.727
839.19	14.286
839.49	46.667
839.79	7.692
840.09	-100.000
840.39	17.857
840.69	14.286
840.99	-15.385
841.29	-52.632
841.59	-10.000
841.88	72.727
842.18	-90.000
842.48	-6.250
842.78	13.333
843.08	18.519
843.38	-20.000
843.68	-30.435
843.97	33.333
844.27	-53.333
844.57	10.000
844.87	22.222
845.17	4.762
845.47	-20.000
845.76	-19.048
846.06	100.000
846.36	100.000
846.66	-21.429
846.96	20.000
847.25	-100.000
847.55	57.143
847.85	-50.000
848.15	18.182
848.44	-233.333
848.74	10.000
849.04	44.444
849.34	-18.182
849.63	-66.667
849.93	-280.000
850.23	0.000
850.53	130.000
850.82	-7.692
851.12	-11.111
851.42	-13.333
851.71	-34.615
852.01	-35.714
852.31	-125.000
852.61	-27.273
852.90	-25.000
853.20	-10.526
853.50	-75.000
853.79	34.783
854.09	41.667
854.39	-15.789
854.68	16.667
854.98	32.258
855.28	30.769
855.57	35.000
855.87	0.000
856.17	37.037
856.46	-50.000
856.76	6.667
857.05	77.778
857.35	12.000
857.65	-16.667
857.94	7.692
858.24	44.828
858.53	22.222
858.83	-14.815
859.13	27.273
859.42	4.348
859.72	50.000
860.01	-633.333
860.31	32.000
860.60	4.762
860.90	-200.000
861.20	6.667
861.49	-300.000
861.79	-26.667
862.08	40.000
862.38	-26.667
862.67	-180.000
862.97	50.000
863.26	0.000
863.56	38.889
863.85	-366.667
864.15	-11.111
864.44	-10.000
864.74	64.286
865.03	275.000
865.33	-140.000
865.62	33.333
865.92	58.333
866.21	-133.333
866.51	25.000
866.80	-27.273
867.10	200.000
867.39	116.667
867.69	0.000
867.98	-7.692
868.27	-200.000
868.57	13.333
868.86	66.667
869.16	-69.231
869.45	-6.667
869.75	-1600.000
870.04	0.000
870.33	-42.857
870.63	28.571
870.92	366.667
871.22	-200.000
871.51	-800.000
871.80	44.444
872.10	266.667
>>>>>End Processed Spectral Data<<<<<
