SpectraSuite Data File
++++++++++++++++++++++++++++++++++++
Date: Fri May 15 20:59:42 PDT 2015
User: schluterlab
Dark Spectrum Present: Yes
Reference Spectrum Present: Yes
Number of Sampled Component Spectra: 1
Spectrometers: USB2E3373
Integration Time (usec): 3000 (USB2E3373)
Spectra Averaged: 3 (USB2E3373)
Boxcar Smoothing: 0 (USB2E3373)
Correct for Electrical Dark: No (USB2E3373)
Strobe/Lamp Enabled: No (USB2E3373)
Correct for Detector Non-linearity: No (USB2E3373)
Correct for Stray Light: No (USB2E3373)
Number of Pixels in Processed Spectrum: 2048
>>>>>Begin Processed Spectral Data<<<<<
178.53	0.000
178.91	0.000
179.29	37.500
179.67	-350.000
180.04	57.143
180.42	-100.000
180.80	-600.000
181.18	100.000
181.56	50.000
181.94	-450.000
182.31	500.000
182.69	-40.000
183.07	-400.000
183.45	20.000
183.83	100.000
184.20	-18.182
184.58	211.111
184.96	175.000
185.34	333.333
185.72	-800.000
186.09	76.923
186.47	0.000
186.85	166.667
187.23	233.333
187.61	-300.000
187.98	-433.333
188.36	0.000
188.74	-166.667
189.12	41.176
189.49	0.000
189.87	0.000
190.25	57.143
190.63	200.000
191.00	-600.000
191.38	-21.053
191.76	0.000
192.14	175.000
192.51	-450.000
192.89	-77.778
193.27	-100.000
193.65	83.333
194.02	145.455
194.40	-60.000
194.78	-100.000
195.15	-33.333
195.53	-162.500
195.91	250.000
196.29	-450.000
196.66	161.538
197.04	57.143
197.42	-77.778
197.79	-566.667
198.17	-76.923
198.55	1600.000
198.92	-433.333
199.30	-900.000
199.68	-180.000
200.05	-166.667
200.43	0.000
200.81	-166.667
201.18	-33.333
201.56	400.000
201.94	-300.000
202.31	166.667
202.69	-120.000
203.07	350.000
203.44	900.000
203.82	0.000
204.19	14.286
204.57	-300.000
204.95	-0.000
205.32	-40.000
205.70	-100.000
206.08	-325.000
206.45	166.667
206.83	42.857
207.20	-71.429
207.58	1700.000
207.96	-466.667
208.33	-120.000
208.71	-50.000
209.08	-283.333
209.46	-900.000
209.84	-180.000
210.21	-1100.000
210.59	-85.714
210.96	-100.000
211.34	-175.000
211.71	20.000
212.09	-14.286
212.46	-1500.000
212.84	0.000
213.22	80.000
213.59	600.000
213.97	84.615
214.34	0.000
214.72	-133.333
215.09	625.000
215.47	-23.077
215.84	54.545
216.22	-366.667
216.59	-37.500
216.97	-150.000
217.34	-175.000
217.72	-160.000
218.09	-62.500
218.47	250.000
218.84	-1000.000
219.22	-122.222
219.59	-60.000
219.97	600.000
220.34	200.000
220.72	-114.286
221.09	-400.000
221.47	-350.000
221.84	-500.000
222.22	-700.000
222.59	-27.273
222.97	-41.667
223.34	-233.333
223.72	14.286
224.09	-4.762
224.46	39.286
224.84	366.667
225.21	30.000
225.59	-20.000
225.96	100.000
226.34	150.000
226.71	-142.857
227.08	-250.000
227.46	-37.500
227.83	-600.000
228.21	-88.889
228.58	9.091
228.95	-75.000
229.33	190.000
229.70	-31.250
230.08	-37.500
230.45	-200.000
230.82	-71.429
231.20	-106.667
231.57	42.857
231.95	-42.857
232.32	-110.000
232.69	28.571
233.07	-100.000
233.44	-80.000
233.81	20.000
234.19	-77.778
234.56	-35.294
234.93	800.000
235.31	-50.000
235.68	-220.000
236.05	-46.154
236.43	-50.000
236.80	-70.588
237.17	-3.125
237.55	-15.000
237.92	-11.111
238.29	-5.556
238.67	6.667
239.04	-11.765
239.41	-46.341
239.79	-30.000
240.16	9.756
240.53	-5.263
240.91	-2.174
241.28	-1.587
241.65	7.143
242.02	23.288
242.40	-1.667
242.77	-6.780
243.14	-22.727
243.51	7.500
243.89	12.644
244.26	12.644
244.63	-2.381
245.00	3.093
245.38	13.402
245.75	-7.865
246.12	-4.310
246.49	4.959
246.87	14.423
247.24	-1.681
247.61	3.509
247.98	-1.626
248.36	10.000
248.73	10.526
249.10	-1.299
249.47	3.165
249.84	3.922
250.22	8.235
250.59	5.882
250.96	9.859
251.33	0.581
251.70	1.765
252.08	11.675
252.45	6.931
252.82	7.035
253.19	9.677
253.56	0.000
253.94	10.360
254.31	7.826
254.68	8.772
255.05	10.630
255.42	8.297
255.79	8.880
256.16	11.284
256.54	9.701
256.91	5.323
257.28	5.576
257.65	4.869
258.02	6.738
258.39	8.418
258.76	11.722
259.14	8.638
259.51	8.414
259.88	6.186
260.25	9.477
260.62	9.028
260.99	3.390
261.36	6.507
261.73	5.696
262.10	8.207
262.47	5.215
262.85	8.777
263.22	7.077
263.59	8.723
263.96	9.938
264.33	12.121
264.70	7.440
265.07	6.845
265.44	6.799
265.81	8.757
266.18	7.923
266.55	10.797
266.92	10.104
267.29	9.138
267.66	8.951
268.03	8.639
268.40	5.483
268.77	12.032
269.14	8.393
269.51	11.311
269.88	7.481
270.25	6.122
270.62	6.585
270.99	4.859
271.36	6.112
271.73	8.451
272.10	10.706
272.47	10.638
272.84	9.158
273.21	10.673
273.58	8.916
273.95	10.755
274.32	7.852
274.69	6.109
275.06	10.491
275.43	7.029
275.80	7.506
276.17	8.506
276.54	8.994
276.91	9.211
277.28	6.550
277.65	9.298
278.02	8.085
278.39	6.127
278.76	7.757
279.13	4.772
279.50	9.664
279.87	10.799
280.23	5.376
280.60	10.331
280.97	9.293
281.34	7.885
281.71	12.526
282.08	7.771
282.45	7.828
282.82	7.336
283.19	8.897
283.56	6.166
283.92	6.452
284.29	6.346
284.66	8.140
285.03	7.662
285.40	7.940
285.77	7.030
286.14	6.859
286.51	10.332
286.87	8.410
287.24	5.525
287.61	7.584
287.98	9.474
288.35	9.705
288.72	8.581
289.08	9.549
289.45	6.678
289.82	8.217
290.19	6.997
290.56	7.547
290.93	8.081
291.29	6.780
291.66	7.087
292.03	7.815
292.40	9.032
292.77	6.061
293.13	6.006
293.50	5.918
293.87	8.244
294.24	7.110
294.60	7.899
294.97	5.952
295.34	6.902
295.71	6.110
296.08	5.979
296.44	5.548
296.81	7.500
297.18	7.246
297.55	8.943
297.91	8.082
298.28	8.707
298.65	5.970
299.02	7.143
299.38	4.104
299.75	7.310
300.12	7.330
300.48	6.061
300.85	6.591
301.22	6.623
301.59	7.105
301.95	8.354
302.32	7.134
302.69	7.090
303.05	6.931
303.42	7.721
303.79	7.477
304.15	8.124
304.52	4.756
304.89	6.433
305.25	6.538
305.62	6.184
305.99	5.965
306.35	6.243
306.72	6.187
307.09	6.499
307.45	8.381
307.82	6.019
308.19	6.272
308.55	6.870
308.92	7.952
309.29	7.039
309.65	7.643
310.02	7.921
310.38	7.245
310.75	9.399
311.12	7.427
311.48	7.317
311.85	7.435
312.22	8.017
312.58	8.174
312.95	7.684
313.31	7.143
313.68	8.796
314.05	8.163
314.41	9.381
314.78	8.763
315.14	9.455
315.51	9.938
315.87	9.631
316.24	10.516
316.61	9.646
316.97	10.615
317.34	9.375
317.70	10.421
318.07	10.481
318.43	10.000
318.80	10.322
319.16	11.230
319.53	11.681
319.89	11.614
320.26	12.854
320.62	12.939
320.99	11.482
321.35	12.744
321.72	14.746
322.08	13.696
322.45	14.822
322.81	14.440
323.18	12.954
323.54	15.251
323.91	15.385
324.27	15.723
324.64	16.760
325.00	17.518
325.37	18.549
325.73	17.316
326.10	18.256
326.46	18.655
326.83	19.423
327.19	20.488
327.56	20.417
327.92	20.775
328.29	20.268
328.65	21.792
329.01	22.518
329.38	22.120
329.74	22.474
330.11	24.652
330.47	22.171
330.84	22.596
331.20	26.141
331.56	25.093
331.93	27.123
332.29	25.848
332.66	24.796
333.02	25.743
333.38	25.023
333.75	27.930
334.11	25.157
334.48	27.471
334.84	26.923
335.20	27.081
335.57	26.201
335.93	28.455
336.29	28.453
336.66	26.703
337.02	27.323
337.38	27.222
337.75	28.364
338.11	28.855
338.47	28.011
338.84	28.373
339.20	29.342
339.56	28.073
339.93	27.842
340.29	27.890
340.65	28.495
341.02	26.596
341.38	28.850
341.74	28.004
342.11	27.470
342.47	27.135
342.83	29.066
343.20	28.397
343.56	28.087
343.92	29.052
344.28	28.437
344.65	29.188
345.01	27.571
345.37	28.175
345.73	28.536
346.10	29.422
346.46	28.259
346.82	27.414
347.19	26.766
347.55	28.571
347.91	28.398
348.27	28.618
348.63	28.961
349.00	28.958
349.36	29.593
349.72	29.270
350.08	29.262
350.45	28.970
350.81	26.993
351.17	28.013
351.53	28.327
351.89	27.746
352.26	27.440
352.62	29.194
352.98	27.871
353.34	28.422
353.70	29.369
354.07	28.306
354.43	27.462
354.79	28.324
355.15	29.603
355.51	28.560
355.87	28.641
356.24	28.059
356.60	27.728
356.96	28.730
357.32	28.435
357.68	28.225
358.04	28.595
358.40	28.859
358.77	29.506
359.13	28.743
359.49	27.504
359.85	28.705
360.21	28.309
360.57	28.003
360.93	28.139
361.29	27.568
361.66	28.762
362.02	27.803
362.38	27.875
362.74	28.312
363.10	28.367
363.46	28.391
363.82	28.700
364.18	27.232
364.54	28.162
364.90	27.097
365.26	28.530
365.62	29.343
365.98	28.812
366.35	29.425
366.71	29.194
367.07	28.955
367.43	27.462
367.79	29.117
368.15	28.571
368.51	28.769
368.87	28.571
369.23	28.448
369.59	29.082
369.95	30.205
370.31	29.335
370.67	29.254
371.03	28.305
371.39	27.425
371.75	27.473
372.11	28.388
372.47	28.550
372.83	29.028
373.19	28.602
373.55	27.437
373.91	28.222
374.27	29.695
374.63	29.576
374.99	27.730
375.35	28.343
375.71	28.811
376.07	28.722
376.42	30.204
376.78	28.792
377.14	28.368
377.50	27.756
377.86	28.849
378.22	28.590
378.58	28.141
378.94	27.599
379.30	28.260
379.66	29.154
380.02	29.246
380.38	28.728
380.74	28.247
381.09	29.877
381.45	27.829
381.81	28.378
382.17	28.617
382.53	28.357
382.89	28.751
383.25	30.056
383.61	29.512
383.97	28.444
384.32	28.393
384.68	28.235
385.04	27.880
385.40	28.376
385.76	28.868
386.12	28.849
386.48	29.630
386.83	28.662
387.19	29.792
387.55	29.360
387.91	28.667
388.27	27.656
388.62	28.508
388.98	28.238
389.34	28.670
389.70	28.527
390.06	27.753
390.42	27.979
390.77	29.235
391.13	27.932
391.49	27.814
391.85	28.395
392.20	28.939
392.56	28.544
392.92	28.127
393.28	28.479
393.64	28.288
393.99	28.589
394.35	27.830
394.71	28.161
395.07	27.781
395.42	27.930
395.78	28.339
396.14	28.625
396.50	29.042
396.85	28.976
397.21	28.446
397.57	28.777
397.92	28.760
398.28	28.678
398.64	27.229
399.00	27.991
399.35	28.217
399.71	27.628
400.07	29.081
400.42	27.662
400.78	28.108
401.14	28.675
401.49	28.529
401.85	28.458
402.21	27.711
402.57	27.938
402.92	27.541
403.28	28.822
403.63	28.121
403.99	27.679
404.35	27.795
404.70	27.321
405.06	28.085
405.42	28.092
405.77	27.833
406.13	27.590
406.49	27.649
406.84	28.423
407.20	28.477
407.55	28.075
407.91	27.406
408.27	27.533
408.62	28.246
408.98	29.082
409.34	28.686
409.69	27.649
410.05	27.401
410.40	28.086
410.76	28.951
411.11	28.062
411.47	28.928
411.83	27.433
412.18	28.378
412.54	27.778
412.89	27.525
413.25	29.001
413.60	28.075
413.96	27.239
414.31	28.049
414.67	26.876
415.03	27.696
415.38	27.285
415.74	27.818
416.09	27.302
416.45	28.089
416.80	27.892
417.16	27.417
417.51	26.382
417.87	27.314
418.22	28.821
418.58	27.291
418.93	27.085
419.29	26.569
419.64	27.609
420.00	27.960
420.35	27.284
420.71	28.190
421.06	27.870
421.42	27.103
421.77	27.746
422.12	27.469
422.48	28.533
422.83	27.320
423.19	27.709
423.54	27.572
423.90	27.621
424.25	27.325
424.61	27.968
424.96	28.281
425.31	28.769
425.67	28.521
426.02	28.740
426.38	28.303
426.73	29.177
427.09	28.924
427.44	29.000
427.79	28.521
428.15	28.519
428.50	28.892
428.85	27.334
429.21	28.297
429.56	29.057
429.92	27.940
430.27	27.268
430.62	26.921
430.98	27.017
431.33	27.603
431.68	28.414
432.04	28.563
432.39	28.351
432.74	28.382
433.10	28.966
433.45	29.032
433.80	27.974
434.16	26.925
434.51	28.118
434.86	29.675
435.22	28.660
435.57	29.694
435.92	28.443
436.28	28.563
436.63	27.838
436.98	28.447
437.34	27.949
437.69	28.145
438.04	28.262
438.39	27.611
438.75	29.083
439.10	29.259
439.45	29.337
439.81	29.052
440.16	28.741
440.51	28.716
440.86	30.091
441.22	28.450
441.57	29.360
441.92	29.801
442.27	29.545
442.63	30.032
442.98	29.810
443.33	28.548
443.68	28.859
444.03	29.260
444.39	28.726
444.74	29.877
445.09	30.011
445.44	29.060
445.79	29.654
446.15	29.020
446.50	29.506
446.85	30.074
447.20	28.676
447.55	29.408
447.91	28.990
448.26	29.141
448.61	30.512
448.96	29.719
449.31	28.613
449.66	29.617
450.02	29.949
450.37	30.113
450.72	30.641
451.07	29.810
451.42	29.963
451.77	29.837
452.12	28.828
452.47	29.169
452.83	29.918
453.18	29.538
453.53	29.962
453.88	29.447
454.23	30.178
454.58	30.290
454.93	30.992
455.28	29.460
455.63	30.006
455.98	30.126
456.34	30.140
456.69	30.432
457.04	31.128
457.39	29.405
457.74	30.109
458.09	29.253
458.44	30.720
458.79	30.420
459.14	29.863
459.49	30.627
459.84	29.949
460.19	28.883
460.54	30.440
460.89	30.057
461.24	30.373
461.59	30.523
461.94	29.748
462.29	31.242
462.64	31.960
462.99	30.061
463.34	30.459
463.69	29.537
464.04	29.843
464.39	29.776
464.74	29.080
465.09	29.819
465.44	30.006
465.79	29.308
466.14	29.418
466.49	28.752
466.84	29.268
467.19	30.225
467.54	30.843
467.89	28.869
468.24	30.474
468.59	30.921
468.94	30.159
469.29	30.033
469.64	30.485
469.99	31.675
470.34	29.625
470.68	31.320
471.03	31.635
471.38	30.385
471.73	30.812
472.08	30.529
472.43	29.933
472.78	29.815
473.13	31.837
473.48	29.837
473.83	30.262
474.17	31.282
474.52	31.206
474.87	30.242
475.22	30.384
475.57	30.152
475.92	30.115
476.27	30.792
476.61	31.424
476.96	30.284
477.31	31.368
477.66	30.449
478.01	31.331
478.36	30.937
478.70	30.016
479.05	30.879
479.40	30.790
479.75	30.240
480.10	31.336
480.45	31.000
480.79	31.470
481.14	31.096
481.49	31.232
481.84	30.695
482.19	30.589
482.53	30.839
482.88	30.406
483.23	29.894
483.58	30.377
483.92	29.961
484.27	29.535
484.62	30.480
484.97	30.058
485.31	29.118
485.66	27.808
486.01	28.148
486.36	28.109
486.70	28.523
487.05	29.171
487.40	29.137
487.75	29.296
488.09	29.203
488.44	29.333
488.79	29.436
489.13	29.527
489.48	30.184
489.83	30.269
490.17	30.562
490.52	29.885
490.87	29.570
491.22	31.328
491.56	30.693
491.91	29.637
492.26	31.648
492.60	30.710
492.95	31.628
493.30	30.630
493.64	31.139
493.99	30.580
494.34	30.340
494.68	30.286
495.03	30.657
495.37	30.962
495.72	30.793
496.07	31.171
496.41	30.142
496.76	30.585
497.11	29.762
497.45	30.979
497.80	31.282
498.14	30.402
498.49	29.914
498.84	30.389
499.18	30.622
499.53	30.754
499.87	29.718
500.22	30.613
500.56	30.661
500.91	30.773
501.26	29.609
501.60	30.054
501.95	31.150
502.29	30.460
502.64	31.178
502.98	31.327
503.33	30.163
503.67	30.410
504.02	30.108
504.36	30.233
504.71	30.000
505.06	30.347
505.40	30.812
505.75	30.773
506.09	30.664
506.44	30.801
506.78	30.969
507.13	30.869
507.47	30.496
507.82	30.609
508.16	31.062
508.51	31.427
508.85	31.136
509.19	30.814
509.54	31.582
509.88	30.852
510.23	31.791
510.57	30.625
510.92	29.797
511.26	30.878
511.61	32.233
511.95	31.233
512.30	30.931
512.64	30.996
512.98	32.004
513.33	31.673
513.67	31.381
514.02	32.895
514.36	32.514
514.70	32.984
515.05	32.374
515.39	32.822
515.74	32.754
516.08	32.218
516.42	32.744
516.77	31.890
517.11	32.522
517.46	32.795
517.80	33.313
518.14	31.904
518.49	32.873
518.83	32.685
519.17	32.262
519.52	32.504
519.86	32.473
520.20	33.718
520.55	31.270
520.89	33.250
521.23	32.679
521.58	32.555
521.92	31.538
522.26	33.767
522.61	33.766
522.95	33.709
523.29	32.973
523.64	33.227
523.98	34.219
524.32	32.990
524.66	33.931
525.01	33.766
525.35	32.858
525.69	32.795
526.04	32.077
526.38	34.630
526.72	32.243
527.06	32.101
527.41	33.311
527.75	32.641
528.09	33.887
528.43	35.111
528.78	32.607
529.12	32.258
529.46	32.943
529.80	33.439
530.15	33.597
530.49	32.997
530.83	33.721
531.17	34.117
531.51	33.311
531.86	33.447
532.20	33.681
532.54	32.131
532.88	34.497
533.22	33.333
533.57	32.307
533.91	31.136
534.25	33.854
534.59	31.944
534.93	32.284
535.27	32.931
535.62	32.016
535.96	32.811
536.30	33.311
536.64	33.012
536.98	31.986
537.32	33.073
537.66	33.450
538.01	32.937
538.35	32.802
538.69	32.823
539.03	31.784
539.37	33.109
539.71	32.038
540.05	32.247
540.39	32.964
540.73	32.287
541.07	32.873
541.42	33.737
541.76	32.278
542.10	32.691
542.44	33.287
542.78	32.209
543.12	31.593
543.46	32.476
543.80	32.894
544.14	31.375
544.48	32.245
544.82	32.468
545.16	33.265
545.50	32.310
545.84	32.790
546.18	32.837
546.52	33.021
546.86	32.423
547.20	31.831
547.54	32.297
547.88	31.793
548.22	31.690
548.56	31.596
548.90	32.817
549.24	31.887
549.58	31.523
549.92	31.165
550.26	32.454
550.60	33.532
550.94	32.711
551.28	32.844
551.62	32.846
551.96	32.481
552.30	31.433
552.64	30.324
552.98	31.224
553.32	31.384
553.66	30.769
554.00	32.117
554.34	32.570
554.68	31.637
555.02	32.292
555.36	30.965
555.69	31.722
556.03	31.335
556.37	30.890
556.71	31.625
557.05	31.767
557.39	31.078
557.73	31.484
558.07	32.428
558.41	31.011
558.75	31.956
559.08	32.388
559.42	31.508
559.76	32.026
560.10	30.734
560.44	31.571
560.78	31.678
561.12	30.748
561.45	31.413
561.79	30.742
562.13	31.086
562.47	31.295
562.81	30.980
563.15	31.241
563.48	31.400
563.82	31.160
564.16	30.223
564.50	30.203
564.84	30.254
565.17	30.986
565.51	32.787
565.85	30.658
566.19	30.371
566.52	31.434
566.86	31.234
567.20	30.075
567.54	31.387
567.88	30.639
568.21	29.525
568.55	29.239
568.89	28.747
569.23	29.080
569.56	29.072
569.90	28.745
570.24	27.763
570.57	27.855
570.91	27.849
571.25	27.195
571.59	26.721
571.92	26.756
572.26	26.570
572.60	26.357
572.93	26.608
573.27	26.489
573.61	26.551
573.95	26.461
574.28	26.377
574.62	26.036
574.96	25.754
575.29	26.073
575.63	25.447
575.97	25.779
576.30	25.583
576.64	25.139
576.98	26.152
577.31	25.829
577.65	25.757
577.98	25.951
578.32	25.652
578.66	25.038
578.99	25.714
579.33	25.681
579.67	25.309
580.00	26.177
580.34	25.796
580.67	25.272
581.01	25.432
581.35	25.194
581.68	25.133
582.02	24.849
582.35	24.773
582.69	25.282
583.02	25.593
583.36	25.290
583.70	26.220
584.03	26.633
584.37	26.454
584.70	25.192
585.04	24.560
585.37	25.971
585.71	25.056
586.04	24.962
586.38	25.313
586.72	25.280
587.05	25.794
587.39	25.356
587.72	25.998
588.06	25.381
588.39	25.776
588.73	26.007
589.06	26.027
589.40	26.478
589.73	26.798
590.07	26.133
590.40	26.858
590.73	27.430
591.07	27.142
591.40	26.981
591.74	26.833
592.07	26.855
592.41	27.164
592.74	25.568
593.08	25.568
593.41	25.700
593.75	25.384
594.08	26.330
594.41	26.019
594.75	25.802
595.08	26.334
595.42	25.432
595.75	26.249
596.09	25.997
596.42	26.292
596.75	27.087
597.09	26.697
597.42	26.513
597.75	26.890
598.09	25.849
598.42	26.715
598.76	26.469
599.09	25.721
599.42	25.199
599.76	25.508
600.09	24.962
600.42	25.398
600.76	25.371
601.09	25.496
601.42	25.617
601.76	25.208
602.09	25.124
602.42	26.116
602.76	26.019
603.09	26.163
603.42	26.672
603.76	25.323
604.09	26.002
604.42	25.465
604.76	26.035
605.09	25.914
605.42	26.546
605.75	25.657
606.09	25.520
606.42	24.812
606.75	25.584
607.09	25.846
607.42	25.166
607.75	26.021
608.08	25.067
608.42	26.176
608.75	26.265
609.08	27.005
609.41	25.990
609.75	25.806
610.08	26.261
610.41	25.459
610.74	25.500
611.07	26.563
611.41	25.739
611.74	26.439
612.07	25.910
612.40	26.039
612.73	26.836
613.07	27.109
613.40	25.875
613.73	25.741
614.06	25.765
614.39	25.945
614.72	26.555
615.06	25.475
615.39	25.491
615.72	25.404
616.05	26.201
616.38	24.900
616.71	25.627
617.05	26.251
617.38	26.021
617.71	26.855
618.04	27.302
618.37	27.301
618.70	27.195
619.03	28.750
619.36	27.786
619.69	28.052
620.03	28.123
620.36	27.969
620.69	27.195
621.02	27.905
621.35	28.299
621.68	28.061
622.01	29.250
622.34	28.492
622.67	28.549
623.00	27.259
623.33	26.982
623.66	27.150
623.99	27.156
624.32	28.213
624.65	26.466
624.99	28.141
625.32	26.459
625.65	27.651
625.98	28.525
626.31	27.348
626.64	28.250
626.97	29.407
627.30	28.459
627.63	29.463
627.96	28.931
628.29	28.862
628.62	29.400
628.95	29.760
629.28	29.738
629.61	30.608
629.94	28.935
630.26	28.755
630.59	29.761
630.92	29.436
631.25	29.333
631.58	29.736
631.91	29.167
632.24	30.963
632.57	29.773
632.90	29.537
633.23	30.000
633.56	30.730
633.89	29.593
634.22	30.741
634.55	31.258
634.88	31.162
635.20	30.256
635.53	29.867
635.86	27.828
636.19	32.730
636.52	30.485
636.85	28.908
637.18	29.057
637.51	28.805
637.83	31.800
638.16	32.879
638.49	31.335
638.82	31.053
639.15	31.072
639.48	30.124
639.81	31.520
640.13	32.756
640.46	32.507
640.79	29.897
641.12	31.315
641.45	31.381
641.77	32.000
642.10	33.807
642.43	30.868
642.76	31.518
643.09	30.210
643.41	31.715
643.74	30.972
644.07	32.348
644.40	33.446
644.73	35.727
645.05	30.705
645.38	34.392
645.71	32.447
646.04	31.957
646.36	31.560
646.69	31.655
647.02	35.539
647.35	34.701
647.67	32.724
648.00	34.888
648.33	31.399
648.66	33.559
648.98	28.978
649.31	30.413
649.64	28.257
649.96	30.146
650.29	31.516
650.62	32.137
650.94	30.000
651.27	30.912
651.60	32.793
651.92	32.168
652.25	31.972
652.58	29.833
652.90	30.703
653.23	30.084
653.56	28.934
653.88	31.271
654.21	28.371
654.54	29.542
654.86	31.749
655.19	29.094
655.52	26.703
655.84	21.216
656.17	22.797
656.49	30.636
656.82	31.934
657.15	24.265
657.47	18.593
657.80	13.838
658.13	13.709
658.45	20.947
658.78	21.389
659.10	21.100
659.43	21.266
659.75	21.756
660.08	22.345
660.41	25.128
660.73	25.414
661.06	29.983
661.38	29.354
661.71	31.828
662.03	33.476
662.36	33.846
662.68	31.416
663.01	32.751
663.33	29.698
663.66	31.163
663.98	29.070
664.31	34.328
664.63	31.336
664.96	27.826
665.28	29.139
665.61	32.035
665.93	31.957
666.26	32.972
666.58	30.425
666.91	34.118
667.23	33.019
667.56	33.412
667.88	31.894
668.21	33.652
668.53	35.225
668.86	31.368
669.18	32.547
669.50	27.845
669.83	32.791
670.15	31.702
670.48	31.579
670.80	32.258
671.13	29.083
671.45	27.397
671.77	33.476
672.10	29.703
672.42	28.839
672.75	28.952
673.07	28.623
673.39	26.239
673.72	26.627
674.04	28.333
674.37	32.203
674.69	28.694
675.01	30.000
675.34	29.505
675.66	31.019
675.98	28.825
676.31	33.486
676.63	29.929
676.95	30.682
677.28	33.412
677.60	32.530
677.92	29.128
678.25	27.790
678.57	29.437
678.89	28.782
679.22	28.188
679.54	27.309
679.86	27.237
680.18	29.515
680.51	29.545
680.83	26.441
681.15	28.600
681.48	29.098
681.80	28.099
682.12	29.032
682.44	26.987
682.77	32.671
683.09	27.460
683.41	25.682
683.73	29.954
684.06	30.752
684.38	29.677
684.70	30.937
685.02	26.763
685.34	25.099
685.67	24.578
685.99	26.221
686.31	27.611
686.63	28.015
686.96	24.525
687.28	25.657
687.60	26.806
687.92	31.717
688.24	29.234
688.56	27.948
688.89	27.902
689.21	29.333
689.53	27.378
689.85	28.837
690.17	31.473
690.49	28.369
690.82	30.583
691.14	26.667
691.46	25.935
691.78	28.378
692.10	27.957
692.42	27.922
692.74	27.778
693.06	26.802
693.39	26.244
693.71	24.434
694.03	24.249
694.35	25.234
694.67	29.040
694.99	24.543
695.31	27.154
695.63	25.750
695.95	26.010
696.27	27.202
696.59	32.222
696.91	28.011
697.23	28.021
697.56	26.485
697.88	27.527
698.20	28.018
698.52	27.294
698.84	24.402
699.16	22.750
699.48	30.326
699.80	29.032
700.12	27.224
700.44	27.451
700.76	27.035
701.08	23.939
701.40	27.711
701.72	32.099
702.04	31.353
702.36	30.100
702.68	25.225
703.00	26.667
703.32	29.619
703.64	22.599
703.96	24.348
704.28	27.301
704.60	28.254
704.91	25.237
705.23	29.236
705.55	29.329
705.87	31.769
706.19	30.370
706.51	25.430
706.83	27.653
707.15	21.807
707.47	29.412
707.79	23.958
708.11	24.250
708.43	23.000
708.74	25.323
709.06	27.887
709.38	26.911
709.70	24.556
710.02	26.752
710.34	27.864
710.66	24.038
710.98	27.483
711.29	30.492
711.61	25.424
711.93	28.013
712.25	28.179
712.57	29.670
712.89	24.254
713.20	25.260
713.52	28.920
713.84	27.645
714.16	22.337
714.48	25.161
714.80	24.038
715.11	23.708
715.43	21.317
715.75	26.333
716.07	27.907
716.39	25.503
716.70	25.092
717.02	30.916
717.34	29.150
717.66	26.106
717.97	26.957
718.29	28.870
718.61	26.378
718.93	25.194
719.24	28.517
719.56	26.506
719.88	28.179
720.20	23.485
720.51	23.755
720.83	29.344
721.15	23.109
721.46	26.210
721.78	21.344
722.10	21.933
722.42	18.672
722.73	26.122
723.05	28.980
723.37	27.966
723.68	27.928
724.00	25.214
724.32	24.889
724.63	20.455
724.95	25.328
725.27	27.189
725.58	27.966
725.90	21.429
726.22	24.710
726.53	26.780
726.85	24.345
727.16	28.302
727.48	21.862
727.80	23.077
728.11	22.458
728.43	24.706
728.74	20.161
729.06	27.200
729.38	25.564
729.69	21.514
730.01	16.923
730.32	27.239
730.64	26.855
730.96	26.415
731.27	20.333
731.59	21.356
731.90	21.975
732.22	24.290
732.53	26.578
732.85	24.113
733.16	27.273
733.48	24.460
733.80	23.913
734.11	24.068
734.43	23.368
734.74	19.091
735.06	23.127
735.37	20.544
735.69	25.253
736.00	24.390
736.32	19.799
736.63	23.944
736.95	24.232
737.26	22.064
737.58	18.792
737.89	22.711
738.21	25.188
738.52	23.045
738.83	28.821
739.15	19.651
739.46	29.134
739.78	21.612
740.09	18.954
740.41	18.116
740.72	22.441
741.04	27.530
741.35	23.404
741.66	21.327
741.98	26.020
742.29	30.693
742.61	20.942
742.92	18.957
743.23	21.296
743.55	22.624
743.86	24.880
744.18	22.967
744.49	21.277
744.80	23.913
745.12	31.016
745.43	23.415
745.74	27.083
746.06	26.341
746.37	26.178
746.68	23.697
747.00	22.340
747.31	27.861
747.62	17.961
747.94	25.837
748.25	19.307
748.56	22.404
748.88	22.513
749.19	35.638
749.50	27.586
749.82	18.396
750.13	19.725
750.44	25.564
750.75	27.239
751.07	27.372
751.38	24.521
751.69	22.353
752.01	25.581
752.32	23.506
752.63	15.810
752.94	17.672
753.26	25.941
753.57	22.172
753.88	25.221
754.19	18.750
754.51	21.074
754.82	21.457
755.13	28.750
755.44	24.597
755.75	26.562
756.07	21.790
756.38	22.642
756.69	15.709
757.00	19.333
757.31	20.588
757.63	17.988
757.94	20.000
758.25	18.904
758.56	18.085
758.87	19.547
759.18	19.938
759.50	20.000
759.81	20.401
760.12	18.387
760.43	20.909
760.74	20.370
761.05	22.154
761.36	17.330
761.67	23.333
761.99	21.088
762.30	18.545
762.61	22.530
762.92	22.172
763.23	22.072
763.54	23.832
763.85	19.068
764.16	22.822
764.47	25.000
764.78	19.780
765.10	20.202
765.41	16.719
765.72	20.000
766.03	14.662
766.34	14.599
766.65	24.701
766.96	18.182
767.27	17.553
767.58	19.540
767.89	21.277
768.20	21.591
768.51	15.934
768.82	22.167
769.13	18.894
769.44	18.884
769.75	21.918
770.06	23.707
770.37	13.462
770.68	20.305
770.99	14.932
771.30	22.059
771.61	21.267
771.92	19.828
772.23	22.660
772.54	17.742
772.85	18.519
773.16	21.910
773.47	25.490
773.78	18.301
774.09	24.551
774.39	18.667
774.70	26.115
775.01	26.897
775.32	20.714
775.63	22.314
775.94	20.611
776.25	23.622
776.56	24.167
776.87	25.962
777.18	29.915
777.48	14.655
777.79	24.348
778.10	8.571
778.41	13.514
778.72	19.048
779.03	32.331
779.34	27.660
779.65	10.274
779.95	17.123
780.26	26.897
780.57	17.886
780.88	20.472
781.19	23.276
781.50	14.729
781.80	17.751
782.11	17.610
782.42	25.385
782.73	20.144
783.04	11.111
783.34	19.444
783.65	16.239
783.96	27.869
784.27	20.690
784.57	23.577
784.88	21.875
785.19	8.000
785.50	32.000
785.81	26.724
786.11	23.276
786.42	23.301
786.73	20.909
787.04	19.388
787.34	13.393
787.65	12.381
787.96	13.274
788.26	27.273
788.57	14.530
788.88	27.344
789.19	14.286
789.49	20.870
789.80	14.286
790.11	17.172
790.41	13.636
790.72	16.304
791.03	19.318
791.33	18.750
791.64	25.000
791.95	33.721
792.25	19.149
792.56	21.348
792.87	5.479
793.17	13.043
793.48	13.333
793.79	22.500
794.09	18.750
794.40	16.981
794.70	9.709
795.01	21.138
795.32	13.675
795.62	17.143
795.93	11.765
796.23	17.925
796.54	20.833
796.85	19.118
797.15	23.944
797.46	27.778
797.76	12.121
798.07	8.140
798.37	13.158
798.68	0.000
798.99	20.988
799.29	7.143
799.60	27.536
799.90	28.000
800.21	31.148
800.51	30.769
800.82	22.034
801.12	28.986
801.43	14.754
801.73	31.746
802.04	0.000
802.34	17.910
802.65	32.692
802.95	3.571
803.26	15.385
803.56	9.804
803.87	8.696
804.17	22.667
804.48	28.571
804.78	20.370
805.09	8.696
805.39	13.333
805.70	38.889
806.00	-7.018
806.30	5.634
806.61	11.429
806.91	1.389
807.22	25.000
807.52	20.000
807.83	12.727
808.13	19.444
808.43	25.000
808.74	2.985
809.04	-15.254
809.35	11.538
809.65	0.000
809.95	-27.027
810.26	18.182
810.56	16.438
810.86	35.714
811.17	0.000
811.47	30.612
811.77	-13.158
812.08	34.091
812.38	11.321
812.69	-15.000
812.99	-6.061
813.29	26.316
813.59	0.000
813.90	6.818
814.20	25.641
814.50	21.154
814.81	28.302
815.11	-2.128
815.41	25.424
815.72	23.810
816.02	33.333
816.32	8.333
816.62	4.878
816.93	-5.405
817.23	0.000
817.53	43.750
817.84	15.217
818.14	11.538
818.44	-13.158
818.74	41.304
819.04	12.500
819.35	13.514
819.65	11.765
819.95	11.111
820.25	9.524
820.56	30.000
820.86	-20.690
821.16	17.500
821.46	14.894
821.76	47.500
822.07	30.233
822.37	-35.135
822.67	0.000
822.97	33.333
823.27	0.000
823.57	4.000
823.88	7.407
824.18	21.429
824.48	5.882
824.78	3.226
825.08	-4.348
825.38	27.273
825.69	-20.833
825.99	28.947
826.29	16.667
826.59	0.000
826.89	9.524
827.19	17.391
827.49	10.000
827.79	20.000
828.09	14.286
828.39	3.030
828.70	35.135
829.00	-3.571
829.30	4.762
829.60	10.000
829.90	15.625
830.20	13.158
830.50	-3.704
830.80	-4.348
831.10	13.636
831.40	45.455
831.70	12.903
832.00	-4.762
832.30	4.762
832.60	-8.333
832.90	17.241
833.20	-50.000
833.50	21.212
833.80	11.111
834.10	0.000
834.40	18.750
834.70	-111.111
835.00	-36.842
835.30	42.308
835.60	-6.667
835.90	12.903
836.20	-22.727
836.50	53.571
836.80	-23.077
837.10	-25.000
837.40	100.000
837.70	-4.545
838.00	-109.091
838.30	8.696
838.60	7.692
838.90	63.636
839.19	57.143
839.49	-3.333
839.79	0.000
840.09	-41.667
840.39	42.857
840.69	7.143
840.99	-30.769
841.29	-26.316
841.59	-80.000
841.88	-27.273
842.18	60.000
842.48	-68.750
842.78	-40.000
843.08	-3.704
843.38	-70.000
843.68	13.043
843.97	6.667
844.27	-120.000
844.57	-30.000
844.87	16.667
845.17	-14.286
845.47	-33.333
845.76	0.000
846.06	-35.294
846.36	-50.000
846.66	-42.857
846.96	-6.667
847.25	-150.000
847.55	50.000
847.85	-100.000
848.15	-9.091
848.44	-366.667
848.74	20.000
849.04	22.222
849.34	0.000
849.63	-200.000
849.93	-460.000
850.23	-5.556
850.53	60.000
850.82	38.462
851.12	-111.111
851.42	-13.333
851.71	-23.077
852.01	-50.000
852.31	-75.000
852.61	-27.273
852.90	10.000
853.20	-36.842
853.50	-16.667
853.79	4.348
854.09	8.333
854.39	-57.895
854.68	-50.000
854.98	-12.903
855.28	19.231
855.57	-50.000
855.87	22.222
856.17	33.333
856.46	-28.571
856.76	-33.333
857.05	-22.222
857.35	20.000
857.65	11.111
857.94	-69.231
858.24	34.483
858.53	5.556
858.83	0.000
859.13	22.727
859.42	-34.783
859.72	-275.000
860.01	-400.000
860.31	-24.000
860.60	4.762
860.90	-600.000
861.20	-86.667
861.49	-600.000
861.79	6.667
862.08	-30.000
862.38	73.333
862.67	0.000
862.97	33.333
863.26	0.000
863.56	5.556
863.85	-300.000
864.15	27.778
864.44	-90.000
864.74	28.571
865.03	500.000
865.33	-380.000
865.62	16.667
865.92	-100.000
866.21	-200.000
866.51	0.000
866.80	-45.455
867.10	-250.000
867.39	16.667
867.69	0.000
867.98	38.462
868.27	-133.333
868.57	20.000
868.86	38.889
869.16	-53.846
869.45	20.000
869.75	-100.000
870.04	0.000
870.33	-28.571
870.63	23.810
870.92	500.000
871.22	-100.000
871.51	-500.000
871.80	-22.222
872.10	366.667
>>>>>End Processed Spectral Data<<<<<
