SpectraSuite Data File
++++++++++++++++++++++++++++++++++++
Date: Fri May 15 20:45:40 PDT 2015
User: schluterlab
Dark Spectrum Present: Yes
Reference Spectrum Present: Yes
Number of Sampled Component Spectra: 1
Spectrometers: USB2E3373
Integration Time (usec): 3000 (USB2E3373)
Spectra Averaged: 3 (USB2E3373)
Boxcar Smoothing: 0 (USB2E3373)
Correct for Electrical Dark: No (USB2E3373)
Strobe/Lamp Enabled: No (USB2E3373)
Correct for Detector Non-linearity: No (USB2E3373)
Correct for Stray Light: No (USB2E3373)
Number of Pixels in Processed Spectrum: 2048
>>>>>Begin Processed Spectral Data<<<<<
178.53	0.000
178.91	0.000
179.29	62.500
179.67	-750.000
180.04	42.857
180.42	-325.000
180.80	-1800.000
181.18	66.667
181.56	200.000
181.94	-550.000
182.31	800.000
182.69	-120.000
183.07	-433.333
183.45	40.000
183.83	233.333
184.20	-109.091
184.58	155.556
184.96	-100.000
185.34	66.667
185.72	-500.000
186.09	76.923
186.47	-500.000
186.85	250.000
187.23	111.111
187.61	-200.000
187.98	100.000
188.36	-100.000
188.74	0.000
189.12	-23.529
189.49	-44.444
189.87	0.000
190.25	7.143
190.63	-150.000
191.00	-400.000
191.38	-5.263
191.76	-250.000
192.14	225.000
192.51	-100.000
192.89	-55.556
193.27	-142.857
193.65	233.333
194.02	163.636
194.40	10.000
194.78	-62.500
195.15	-8.333
195.53	-25.000
195.91	425.000
196.29	-425.000
196.66	130.769
197.04	142.857
197.42	-11.111
197.79	-600.000
198.17	-130.769
198.55	2900.000
198.92	-433.333
199.30	-1000.000
199.68	-200.000
200.05	66.667
200.43	0.000
200.81	-200.000
201.18	-200.000
201.56	700.000
201.94	-800.000
202.31	-33.333
202.69	-160.000
203.07	75.000
203.44	300.000
203.82	0.000
204.19	42.857
204.57	-166.667
204.95	125.000
205.32	50.000
205.70	0.000
206.08	-75.000
206.45	144.444
206.83	50.000
207.20	-171.429
207.58	1000.000
207.96	-500.000
208.33	-90.000
208.71	-25.000
209.08	-250.000
209.46	-900.000
209.84	-20.000
210.21	-700.000
210.59	-42.857
210.96	-83.333
211.34	-325.000
211.71	46.667
212.09	-171.429
212.46	-1900.000
212.84	0.000
213.22	30.000
213.59	150.000
213.97	-23.077
214.34	0.000
214.72	-100.000
215.09	425.000
215.47	46.154
215.84	-45.455
216.22	-266.667
216.59	-37.500
216.97	-50.000
217.34	75.000
217.72	-260.000
218.09	0.000
218.47	175.000
218.84	-1000.000
219.22	-133.333
219.59	-180.000
219.97	400.000
220.34	300.000
220.72	-71.429
221.09	-175.000
221.47	-600.000
221.84	-500.000
222.22	-550.000
222.59	-36.364
222.97	41.667
223.34	-133.333
223.72	-42.857
224.09	0.000
224.46	25.000
224.84	533.333
225.21	20.000
225.59	26.667
225.96	-150.000
226.34	275.000
226.71	-42.857
227.08	-100.000
227.46	-62.500
227.83	-550.000
228.21	0.000
228.58	-36.364
228.95	-87.500
229.33	150.000
229.70	12.500
230.08	-187.500
230.45	-128.571
230.82	14.286
231.20	26.667
231.57	0.000
231.95	-100.000
232.32	-140.000
232.69	21.429
233.07	-66.667
233.44	-200.000
233.81	-50.000
234.19	-44.444
234.56	-5.882
234.93	550.000
235.31	-25.000
235.68	-200.000
236.05	-130.769
236.43	-60.000
236.80	-47.059
237.17	0.000
237.55	-5.000
237.92	-37.037
238.29	5.556
238.67	-13.333
239.04	-5.882
239.41	-21.951
239.79	-16.667
240.16	17.073
240.53	-7.895
240.91	-4.348
241.28	-1.587
241.65	17.857
242.02	19.178
242.40	13.333
242.77	20.339
243.14	-3.030
243.51	12.500
243.89	33.333
244.26	-4.598
244.63	9.524
245.00	10.309
245.38	8.247
245.75	-3.371
246.12	5.172
246.49	8.264
246.87	5.769
247.24	5.042
247.61	2.632
247.98	12.195
248.36	13.750
248.73	7.237
249.10	11.688
249.47	11.392
249.84	14.379
250.22	8.824
250.59	5.882
250.96	12.207
251.33	6.395
251.70	13.529
252.08	11.168
252.45	11.386
252.82	9.045
253.19	12.442
253.56	6.075
253.94	10.360
254.31	10.435
254.68	10.965
255.05	7.087
255.42	8.297
255.79	11.969
256.16	17.899
256.54	14.552
256.91	11.407
257.28	10.409
257.65	9.738
258.02	10.284
258.39	11.785
258.76	12.821
259.14	17.608
259.51	11.327
259.88	9.278
260.25	9.477
260.62	11.806
260.99	7.797
261.36	9.589
261.73	11.709
262.10	10.942
262.47	10.123
262.85	7.837
263.22	8.308
263.59	10.903
263.96	15.217
264.33	10.606
264.70	9.226
265.07	8.036
265.44	13.598
265.81	11.017
266.18	12.295
266.55	12.596
266.92	13.990
267.29	12.010
267.66	10.997
268.03	13.089
268.40	11.227
268.77	14.439
269.14	11.271
269.51	10.540
269.88	13.466
270.25	8.163
270.62	9.268
270.99	9.207
271.36	14.670
271.73	9.624
272.10	11.922
272.47	11.584
272.84	11.881
273.21	13.457
273.58	12.048
273.95	9.382
274.32	13.395
274.69	8.371
275.06	14.955
275.43	9.751
275.80	13.466
276.17	11.724
276.54	13.704
276.91	11.184
277.28	9.607
277.65	13.430
278.02	12.128
278.39	12.910
278.76	12.159
279.13	8.921
279.50	11.975
279.87	12.959
280.23	10.538
280.60	13.255
280.97	11.111
281.34	10.769
281.71	13.758
282.08	11.861
282.45	10.568
282.82	11.390
283.19	11.025
283.56	10.983
283.92	11.575
284.29	9.615
284.66	9.690
285.03	9.627
285.40	11.720
285.77	11.072
286.14	12.455
286.51	11.439
286.87	9.324
287.24	13.996
287.61	8.113
287.98	11.754
288.35	9.185
288.72	12.785
289.08	9.896
289.45	11.951
289.82	11.538
290.19	8.874
290.56	9.262
290.93	8.586
291.29	10.015
291.66	9.764
292.03	9.569
292.40	10.161
292.77	9.250
293.13	8.117
293.50	9.863
293.87	10.992
294.24	8.655
294.60	9.985
294.97	11.905
295.34	7.822
295.71	9.985
296.08	10.015
296.44	8.677
296.81	9.306
297.18	10.000
297.55	10.840
297.91	8.082
298.28	11.082
298.65	8.412
299.02	8.895
299.38	6.293
299.75	8.966
300.12	8.770
300.48	8.564
300.85	10.520
301.22	8.052
301.59	8.816
301.95	9.747
302.32	11.025
302.69	10.199
303.05	9.158
303.42	8.966
303.79	9.930
304.15	9.558
304.52	7.610
304.89	9.123
305.25	9.685
305.62	8.168
305.99	8.187
306.35	8.439
306.72	8.211
307.09	9.350
307.45	9.989
307.82	8.218
308.19	9.292
308.55	9.051
308.92	10.131
309.29	8.939
309.65	9.150
310.02	7.481
310.38	9.879
310.75	8.962
311.12	9.903
311.48	9.120
311.85	8.901
312.22	8.861
312.58	10.510
312.95	10.245
313.31	8.903
313.68	9.110
314.05	10.918
314.41	9.794
314.78	10.825
315.14	12.025
315.51	12.422
315.87	11.475
316.24	12.538
316.61	12.106
316.97	12.500
317.34	11.719
317.70	13.002
318.07	13.365
318.43	12.843
318.80	14.015
319.16	12.109
319.53	15.005
319.89	13.287
320.26	15.283
320.62	15.547
320.99	13.987
321.35	15.725
321.72	16.303
322.08	16.113
322.45	15.431
322.81	17.092
323.18	16.389
323.54	16.699
323.91	16.456
324.27	17.480
324.64	17.416
325.00	18.066
325.37	17.815
325.73	17.135
326.10	19.346
326.46	18.386
326.83	19.510
327.19	20.663
327.56	21.025
327.92	20.423
328.29	19.732
328.65	20.755
329.01	21.507
329.38	20.553
329.74	20.113
330.11	21.131
330.47	19.759
330.84	20.962
331.20	22.814
331.56	20.926
331.93	21.553
332.29	22.456
332.66	20.724
333.02	21.747
333.38	21.815
333.75	22.711
334.11	21.576
334.48	20.671
334.84	21.886
335.20	20.860
335.57	21.396
335.93	22.945
336.29	21.639
336.66	21.708
337.02	19.703
337.38	21.389
337.75	22.364
338.11	22.723
338.47	22.719
338.84	22.551
339.20	22.029
339.56	21.284
339.93	21.755
340.29	21.743
340.65	21.595
341.02	22.429
341.38	22.478
341.74	22.085
342.11	22.097
342.47	22.331
342.83	22.751
343.20	21.777
343.56	22.087
343.92	22.498
344.28	22.801
344.65	22.280
345.01	22.040
345.37	21.783
345.73	21.172
346.10	23.210
346.46	22.288
346.82	21.931
347.19	20.698
347.55	22.139
347.91	21.683
348.27	21.665
348.63	21.806
349.00	22.067
349.36	23.192
349.72	21.559
350.08	22.705
350.45	21.708
350.81	21.927
351.17	20.765
351.53	21.714
351.89	21.222
352.26	22.000
352.62	21.129
352.98	20.803
353.34	21.659
353.70	22.735
354.07	22.097
354.43	21.617
354.79	21.718
355.15	21.984
355.51	22.152
355.87	21.764
356.24	21.697
356.60	20.857
356.96	22.619
357.32	21.965
357.68	21.032
358.04	19.871
358.40	20.016
358.77	22.568
359.13	21.697
359.49	20.955
359.85	21.919
360.21	22.010
360.57	20.735
360.93	21.256
361.29	21.375
361.66	22.571
362.02	21.742
362.38	21.021
362.74	22.256
363.10	22.649
363.46	20.904
363.82	21.563
364.18	20.369
364.54	21.176
364.90	21.434
365.26	21.470
365.62	22.190
365.98	21.334
366.35	21.631
366.71	21.508
367.07	21.771
367.43	21.208
367.79	21.343
368.15	21.608
368.51	22.360
368.87	20.531
369.23	20.939
369.59	21.866
369.95	21.261
370.31	22.399
370.67	22.164
371.03	21.434
371.39	22.684
371.75	21.905
372.11	21.612
372.47	22.189
372.83	21.505
373.19	21.683
373.55	20.650
373.91	21.454
374.27	22.112
374.63	22.111
374.99	21.631
375.35	21.797
375.71	22.517
376.07	22.823
376.42	21.156
376.78	22.081
377.14	22.410
377.50	22.975
377.86	23.226
378.22	21.506
378.58	21.731
378.94	22.180
379.30	22.645
379.66	22.132
380.02	23.421
380.38	21.242
380.74	21.903
381.09	22.638
381.45	22.997
381.81	22.764
382.17	22.589
382.53	22.736
382.89	22.662
383.25	23.584
383.61	23.963
383.97	23.746
384.32	22.952
384.68	22.724
385.04	21.507
385.40	22.029
385.76	23.585
386.12	23.545
386.48	23.052
386.83	23.653
387.19	23.199
387.55	24.090
387.91	22.372
388.27	24.115
388.62	23.600
388.98	23.450
389.34	23.298
389.70	23.617
390.06	23.914
390.42	24.223
390.77	23.218
391.13	23.140
391.49	23.545
391.85	23.132
392.20	24.105
392.56	22.759
392.92	24.016
393.28	23.644
393.64	23.363
393.99	24.326
394.35	23.087
394.71	23.819
395.07	23.444
395.42	23.497
395.78	24.104
396.14	23.770
396.50	23.209
396.85	24.404
397.21	22.870
397.57	23.009
397.92	23.547
398.28	23.563
398.64	22.169
399.00	23.589
399.35	22.291
399.71	23.779
400.07	24.607
400.42	23.378
400.78	23.454
401.14	23.291
401.49	22.990
401.85	23.218
402.21	23.554
402.57	24.312
402.92	23.149
403.28	24.123
403.63	23.392
403.99	23.151
404.35	23.610
404.70	23.155
405.06	23.267
405.42	23.493
405.77	22.777
406.13	22.934
406.49	23.031
406.84	22.922
407.20	23.660
407.55	22.666
407.91	22.861
408.27	23.008
408.62	23.446
408.98	22.859
409.34	23.048
409.69	22.416
410.05	22.291
410.40	22.407
410.76	23.341
411.11	23.563
411.47	23.471
411.83	21.469
412.18	23.681
412.54	22.846
412.89	22.414
413.25	22.623
413.60	23.168
413.96	22.393
414.31	24.085
414.67	23.284
415.03	22.437
415.38	23.042
415.74	23.322
416.09	23.253
416.45	22.957
416.80	23.001
417.16	22.652
417.51	23.051
417.87	22.295
418.22	22.733
418.58	23.278
418.93	23.574
419.29	22.471
419.64	22.229
420.00	24.055
420.35	22.209
420.71	22.904
421.06	22.038
421.42	23.678
421.77	22.659
422.12	22.361
422.48	21.711
422.83	22.680
423.19	22.630
423.54	22.340
423.90	22.674
424.25	22.273
424.61	22.950
424.96	21.835
425.31	22.704
425.67	22.066
426.02	23.557
426.38	23.231
426.73	23.366
427.09	24.051
427.44	22.824
427.79	22.451
428.15	21.966
428.50	22.350
428.85	22.052
429.21	22.581
429.56	23.612
429.92	22.907
430.27	22.607
430.62	22.426
430.98	21.444
431.33	22.871
431.68	22.187
432.04	22.750
432.39	22.476
432.74	21.828
433.10	23.046
433.45	22.521
433.80	21.938
434.16	22.216
434.51	22.903
434.86	22.474
435.22	22.322
435.57	22.583
435.92	22.754
436.28	22.600
436.63	22.875
436.98	22.654
437.34	22.081
437.69	22.898
438.04	22.108
438.39	21.381
438.75	22.647
439.10	22.581
439.45	22.581
439.81	22.446
440.16	23.219
440.51	22.925
440.86	24.411
441.22	22.342
441.57	22.351
441.92	23.400
442.27	22.783
442.63	23.876
442.98	22.401
443.33	22.371
443.68	22.228
444.03	22.454
444.39	22.577
444.74	23.579
445.09	23.274
445.44	22.792
445.79	23.878
446.15	22.577
446.50	21.242
446.85	22.476
447.20	22.680
447.55	23.437
447.91	23.519
448.26	23.335
448.61	23.086
448.96	23.351
449.31	23.121
449.66	22.125
450.02	22.647
450.37	22.822
450.72	21.993
451.07	23.418
451.42	21.973
451.77	22.785
452.12	22.488
452.47	22.923
452.83	22.261
453.18	22.328
453.53	22.630
453.88	22.465
454.23	23.356
454.58	23.866
454.93	23.389
455.28	22.032
455.63	23.435
455.98	22.489
456.34	22.797
456.69	22.872
457.04	23.377
457.39	22.539
457.74	22.249
458.09	21.836
458.44	22.001
458.79	22.185
459.14	23.227
459.49	23.104
459.84	22.955
460.19	22.027
460.54	22.616
460.89	23.011
461.24	22.236
461.59	22.862
461.94	22.453
462.29	22.859
462.64	24.252
462.99	22.275
463.34	23.296
463.69	22.136
464.04	23.184
464.39	23.105
464.74	22.638
465.09	22.832
465.44	23.139
465.79	22.052
466.14	23.147
466.49	22.197
466.84	22.070
467.19	22.340
467.54	21.520
467.89	22.426
468.24	22.567
468.59	22.667
468.94	22.222
469.29	21.836
469.64	22.830
469.99	23.616
470.34	22.457
470.68	24.012
471.03	23.071
471.38	21.184
471.73	22.829
472.08	22.117
472.43	21.745
472.78	21.110
473.13	21.701
473.48	22.150
473.83	21.731
474.17	23.057
474.52	22.144
474.87	22.424
475.22	22.087
475.57	22.247
475.92	21.887
476.27	22.119
476.61	22.801
476.96	21.472
477.31	23.039
477.66	21.685
478.01	22.179
478.36	21.895
478.70	23.165
479.05	23.407
479.40	21.940
479.75	21.637
480.10	21.659
480.45	21.600
480.79	22.608
481.14	22.234
481.49	21.379
481.84	21.863
482.19	21.796
482.53	21.631
482.88	21.480
483.23	21.305
483.58	21.651
483.92	21.249
484.27	21.604
484.62	21.739
484.97	21.103
485.31	21.496
485.66	20.392
486.01	20.566
486.36	21.232
486.70	21.477
487.05	21.733
487.40	21.329
487.75	21.437
488.09	21.384
488.44	21.939
488.79	21.367
489.13	21.915
489.48	21.719
489.83	20.987
490.17	21.124
490.52	21.155
490.87	21.518
491.22	21.251
491.56	21.110
491.91	20.220
492.26	21.633
492.60	21.449
492.95	21.840
493.30	21.299
493.64	21.955
493.99	21.787
494.34	20.291
494.68	20.762
495.03	20.779
495.37	21.001
495.72	21.706
496.07	21.463
496.41	20.236
496.76	20.359
497.11	21.099
497.45	21.909
497.80	21.191
498.14	21.113
498.49	20.315
498.84	21.058
499.18	20.884
499.53	20.585
499.87	20.671
500.22	21.167
500.56	20.474
500.91	21.135
501.26	20.761
501.60	20.462
501.95	20.670
502.29	21.356
502.64	20.994
502.98	20.819
503.33	20.797
503.67	20.867
504.02	21.261
504.36	21.376
504.71	20.253
505.06	21.087
505.40	20.863
505.75	21.546
506.09	20.933
506.44	21.715
506.78	21.480
507.13	21.303
507.47	20.940
507.82	20.299
508.16	21.183
508.51	21.144
508.85	20.931
509.19	20.490
509.54	21.662
509.88	20.119
510.23	20.764
510.57	21.112
510.92	20.576
511.26	20.895
511.61	21.782
511.95	21.151
512.30	21.175
512.64	20.590
512.98	21.056
513.33	21.768
513.67	21.546
514.02	21.453
514.36	21.771
514.70	22.086
515.05	21.269
515.39	21.251
515.74	21.796
516.08	22.056
516.42	22.320
516.77	21.826
517.11	21.246
517.46	22.083
517.80	22.050
518.14	21.249
518.49	21.394
518.83	21.507
519.17	21.164
519.52	21.788
519.86	21.008
520.20	21.628
520.55	21.263
520.89	23.024
521.23	21.913
521.58	22.524
521.92	22.179
522.26	21.470
522.61	20.714
522.95	22.649
523.29	21.855
523.64	21.855
523.98	22.813
524.32	21.327
524.66	22.343
525.01	22.208
525.35	21.841
525.69	21.212
526.04	21.429
526.38	23.606
526.72	20.929
527.06	21.660
527.41	22.032
527.75	21.314
528.09	20.731
528.43	22.215
528.78	21.122
529.12	21.677
529.46	21.507
529.80	21.786
530.15	21.914
530.49	21.077
530.83	21.956
531.17	21.625
531.51	22.435
531.86	22.026
532.20	20.946
532.54	21.784
532.88	22.313
533.22	22.177
533.57	22.412
533.91	21.018
534.25	22.201
534.59	21.681
534.93	21.712
535.27	20.685
535.62	21.257
535.96	22.570
536.30	21.966
536.64	21.640
536.98	21.254
537.32	22.475
537.66	22.651
538.01	21.818
538.35	21.845
538.69	21.704
539.03	20.711
539.37	21.602
539.71	20.995
540.05	20.842
540.39	21.607
540.73	20.921
541.07	21.478
541.42	22.177
541.76	22.161
542.10	22.092
542.44	21.612
542.78	20.991
543.12	20.330
543.46	21.697
543.80	21.374
544.14	20.628
544.48	21.119
544.82	21.121
545.16	22.404
545.50	22.163
545.84	22.025
546.18	21.773
546.52	21.269
546.86	21.208
547.20	21.531
547.54	20.565
547.88	21.128
548.22	20.644
548.56	19.987
548.90	21.226
549.24	20.937
549.58	21.016
549.92	20.801
550.26	21.392
550.60	22.379
550.94	22.330
551.28	20.325
551.62	21.769
551.96	21.504
552.30	20.980
552.64	20.874
552.98	20.956
553.32	20.970
553.66	20.610
554.00	21.168
554.34	20.236
554.68	21.018
555.02	21.280
555.36	20.494
555.69	20.879
556.03	20.628
556.37	20.925
556.71	20.939
557.05	21.029
557.39	20.074
557.73	20.765
558.07	22.474
558.41	21.746
558.75	20.733
559.08	21.198
559.42	20.079
559.76	20.657
560.10	20.107
560.44	20.551
560.78	19.930
561.12	20.522
561.45	22.136
561.79	21.429
562.13	21.292
562.47	20.863
562.81	21.398
563.15	20.874
563.48	20.792
563.82	20.796
564.16	20.056
564.50	19.730
564.84	20.884
565.17	20.724
565.51	21.175
565.85	20.233
566.19	20.889
566.52	20.979
566.86	21.658
567.20	19.738
567.54	20.681
567.88	21.324
568.21	21.437
568.55	20.870
568.89	20.380
569.23	20.510
569.56	20.096
569.90	20.585
570.24	20.171
570.57	20.873
570.91	20.669
571.25	19.533
571.59	19.713
571.92	19.407
572.26	19.535
572.60	19.783
572.93	19.580
573.27	19.843
573.61	19.511
573.95	19.989
574.28	19.544
574.62	19.171
574.96	19.546
575.29	19.056
575.63	18.476
575.97	18.921
576.30	19.145
576.64	18.808
576.98	19.382
577.31	19.710
577.65	19.541
577.98	19.273
578.32	19.291
578.66	19.084
578.99	19.373
579.33	18.686
579.67	19.001
580.00	19.595
580.34	19.154
580.67	18.818
581.01	18.852
581.35	19.337
581.68	19.189
582.02	18.829
582.35	18.774
582.69	19.127
583.02	19.141
583.36	19.470
583.70	19.730
584.03	19.627
584.37	19.763
584.70	18.901
585.04	19.093
585.37	18.943
585.71	19.106
586.04	19.239
586.38	19.258
586.72	19.340
587.05	19.555
587.39	20.157
587.72	19.738
588.06	19.624
588.39	19.510
588.73	19.383
589.06	19.896
589.40	19.564
589.73	19.569
590.07	19.902
590.40	20.240
590.73	19.687
591.07	19.338
591.40	19.768
591.74	19.819
592.07	19.991
592.41	20.141
592.74	19.076
593.08	19.106
593.41	19.044
593.75	19.104
594.08	18.297
594.41	19.905
594.75	19.237
595.08	19.712
595.42	19.838
595.75	19.790
596.09	19.625
596.42	19.554
596.75	19.627
597.09	19.727
597.42	19.377
597.75	19.331
598.09	19.511
598.42	18.908
598.76	19.348
599.09	19.030
599.42	19.098
599.76	19.752
600.09	19.231
600.42	18.878
600.76	18.462
601.09	18.321
601.42	18.253
601.76	19.651
602.09	19.059
602.42	19.461
602.76	19.440
603.09	18.729
603.42	19.356
603.76	18.669
604.09	19.522
604.42	19.374
604.76	19.582
605.09	20.293
605.42	19.142
605.75	19.308
606.09	18.769
606.42	18.849
606.75	19.437
607.09	18.945
607.42	18.919
607.75	19.050
608.08	18.958
608.42	19.141
608.75	19.470
609.08	19.133
609.41	19.543
609.75	19.405
610.08	19.920
610.41	19.372
610.74	19.064
611.07	18.656
611.41	19.460
611.74	19.936
612.07	19.111
612.40	19.475
612.73	19.379
613.07	19.123
613.40	20.077
613.73	18.858
614.06	19.421
614.39	19.289
614.72	19.160
615.06	18.659
615.39	18.668
615.72	18.999
616.05	19.497
616.38	18.291
616.71	19.327
617.05	20.383
617.38	19.045
617.71	20.000
618.04	20.254
618.37	20.240
618.70	19.802
619.03	21.042
619.36	18.379
619.69	19.636
620.03	19.795
620.36	19.385
620.69	19.772
621.02	19.725
621.35	19.419
621.68	19.813
622.01	20.000
622.34	19.713
622.67	19.637
623.00	20.827
623.33	20.122
623.66	19.147
623.99	19.440
624.32	19.924
624.65	19.474
624.99	19.865
625.32	18.650
625.65	20.189
625.98	20.467
626.31	19.202
626.64	19.757
626.97	20.768
627.30	20.665
627.63	20.451
627.96	19.407
628.29	18.964
628.62	20.452
628.95	20.040
629.28	20.262
629.61	19.741
629.94	20.235
630.26	19.664
630.59	21.020
630.92	20.923
631.25	20.615
631.58	20.154
631.91	19.846
632.24	20.413
632.57	20.227
632.90	20.047
633.23	20.471
633.56	20.151
633.89	18.496
634.22	20.617
634.55	19.822
634.88	20.051
635.20	19.872
635.53	20.533
635.86	18.726
636.19	20.052
636.52	20.153
636.85	17.866
637.18	18.742
637.51	21.258
637.83	18.922
638.16	20.055
638.49	18.801
638.82	20.921
639.15	18.996
639.48	20.770
639.81	18.131
640.13	20.346
640.46	19.534
640.79	19.440
641.12	20.384
641.45	18.318
641.77	22.370
642.10	21.011
642.43	19.293
642.76	20.462
643.09	20.194
643.41	21.036
643.74	21.582
644.07	22.332
644.40	23.311
644.73	20.490
645.05	20.302
645.38	19.929
645.71	18.972
646.04	21.005
646.36	21.099
646.69	22.122
647.02	20.227
647.35	20.336
647.67	19.013
648.00	21.455
648.33	20.307
648.66	21.864
648.98	18.425
649.31	18.512
649.64	18.053
649.96	19.449
650.29	18.910
650.62	20.342
650.94	21.667
651.27	20.298
651.60	20.721
651.92	20.629
652.25	19.893
652.58	19.167
652.90	20.240
653.23	17.983
653.56	20.812
653.88	18.213
654.21	16.813
654.54	20.883
654.86	20.374
655.19	18.275
655.52	19.737
655.84	17.336
656.17	19.160
656.49	26.100
656.82	27.274
657.15	20.985
657.47	15.416
657.80	11.290
658.13	11.122
658.45	17.386
658.78	17.209
659.10	16.554
659.43	17.360
659.75	16.724
660.08	16.759
660.41	17.263
660.73	16.575
661.06	19.237
661.38	18.787
661.71	18.275
662.03	22.103
662.36	21.099
662.68	21.681
663.01	21.616
663.33	17.633
663.66	20.698
663.98	20.000
664.31	22.175
664.63	17.512
664.96	15.652
665.28	15.894
665.61	19.913
665.93	20.000
666.26	21.909
666.58	19.016
666.91	18.353
667.23	20.519
667.56	22.038
667.88	18.225
668.21	19.570
668.53	20.095
668.86	17.689
669.18	17.217
669.50	16.949
669.83	18.372
670.15	17.483
670.48	21.292
670.80	18.664
671.13	15.884
671.45	15.753
671.77	20.601
672.10	21.386
672.42	17.978
672.75	19.361
673.07	20.036
673.39	20.183
673.72	15.976
674.04	17.083
674.37	21.398
674.69	20.128
675.01	21.778
675.34	19.144
675.66	18.981
675.98	21.286
676.31	21.330
676.63	16.865
676.95	17.273
677.28	20.235
677.60	19.518
677.92	16.743
678.25	20.350
678.57	19.697
678.89	20.588
679.22	17.673
679.54	15.863
679.86	14.911
680.18	17.476
680.51	18.371
680.83	15.905
681.15	20.400
681.48	20.287
681.80	20.455
682.12	20.363
682.44	16.946
682.77	19.647
683.09	19.222
683.41	19.091
683.73	19.124
684.06	17.699
684.38	17.204
684.70	16.776
685.02	16.598
685.34	16.601
685.67	18.386
685.99	17.902
686.31	18.407
686.63	17.996
686.96	17.871
687.28	17.172
687.60	17.681
687.92	20.202
688.24	19.758
688.56	21.616
688.89	17.187
689.21	19.556
689.53	16.705
689.85	15.349
690.17	18.527
690.49	18.440
690.82	18.204
691.14	19.048
691.46	17.523
691.78	18.243
692.10	19.570
692.42	17.749
692.74	20.299
693.06	17.568
693.39	19.005
693.71	16.968
694.03	16.628
694.35	16.822
694.67	18.182
694.99	16.188
695.31	22.454
695.63	18.000
695.95	14.646
696.27	18.912
696.59	17.500
696.91	15.406
697.23	16.452
697.56	18.564
697.88	20.215
698.20	18.223
698.52	18.118
698.84	15.311
699.16	19.500
699.48	18.797
699.80	19.603
700.12	18.059
700.44	20.168
700.76	15.698
701.08	15.758
701.40	18.373
701.72	21.914
702.04	16.832
702.36	21.070
702.68	18.619
703.00	23.030
703.32	17.302
703.64	15.537
703.96	16.812
704.28	16.564
704.60	20.000
704.91	13.249
705.23	20.266
705.55	22.615
705.87	18.412
706.19	15.556
706.51	19.588
706.83	21.543
707.15	15.888
707.47	17.927
707.79	17.708
708.11	19.000
708.43	21.250
708.74	17.571
709.06	19.718
709.38	17.125
709.70	22.189
710.02	21.019
710.34	17.957
710.66	15.385
710.98	17.550
711.29	17.705
711.61	16.610
711.93	17.915
712.25	16.151
712.57	18.681
712.89	15.672
713.20	17.301
713.52	13.240
713.84	17.747
714.16	15.120
714.48	14.839
714.80	17.308
715.11	17.629
715.43	15.674
715.75	17.000
716.07	14.618
716.39	17.114
716.70	18.450
717.02	16.031
717.34	18.623
717.66	18.584
717.97	13.913
718.29	15.900
718.61	20.472
718.93	18.605
719.24	16.730
719.56	19.679
719.88	18.557
720.20	15.909
720.51	14.176
720.83	11.969
721.15	18.067
721.46	16.129
721.78	17.391
722.10	13.011
722.42	11.618
722.73	14.694
723.05	19.184
723.37	22.458
723.68	21.622
724.00	15.812
724.32	13.778
724.63	18.182
724.95	18.341
725.27	17.051
725.58	17.797
725.90	13.889
726.22	20.463
726.53	18.305
726.85	18.727
727.16	21.887
727.48	11.741
727.80	16.194
728.11	17.797
728.43	13.725
728.74	8.065
729.06	17.200
729.38	18.797
729.69	15.538
730.01	8.462
730.32	18.657
730.64	20.495
730.96	18.868
731.27	17.333
731.59	9.153
731.90	14.968
732.22	18.612
732.53	20.930
732.85	18.085
733.16	19.865
733.48	13.309
733.80	17.029
734.11	14.915
734.43	15.120
734.74	17.576
735.06	14.007
735.37	19.940
735.69	17.172
736.00	16.376
736.32	17.114
736.63	16.549
736.95	18.430
737.26	16.726
737.58	14.094
737.89	12.088
738.21	12.782
738.52	19.342
738.83	17.031
739.15	12.664
739.46	14.961
739.78	11.722
740.09	14.052
740.41	13.768
740.72	10.236
741.04	17.814
741.35	13.191
741.66	15.166
741.98	16.837
742.29	12.871
742.61	12.042
742.92	7.583
743.23	7.407
743.55	18.552
743.86	17.225
744.18	15.311
744.49	16.489
744.80	16.848
745.12	18.717
745.43	10.732
745.74	17.708
746.06	12.195
746.37	8.377
746.68	18.009
747.00	11.702
747.31	18.905
747.62	15.534
747.94	19.617
748.25	10.891
748.56	20.219
748.88	15.707
749.19	16.489
749.50	15.271
749.82	6.604
750.13	11.009
750.44	20.301
750.75	17.164
751.07	19.343
751.38	11.494
751.69	12.549
752.01	16.667
752.32	7.968
752.63	16.206
752.94	14.224
753.26	17.573
753.57	11.765
753.88	15.044
754.19	13.750
754.51	11.157
754.82	10.526
755.13	16.250
755.44	14.113
755.75	16.016
756.07	17.510
756.38	16.981
756.69	15.326
757.00	13.667
757.31	15.359
757.63	16.463
757.94	15.278
758.25	14.247
758.56	11.436
758.87	14.731
759.18	15.265
759.50	14.182
759.81	14.047
760.12	17.097
760.43	14.848
760.74	16.049
761.05	12.923
761.36	15.057
761.67	13.636
761.99	20.748
762.30	14.545
762.61	19.763
762.92	17.647
763.23	15.766
763.54	11.215
763.85	17.797
764.16	19.087
764.47	6.855
764.78	14.652
765.10	20.875
765.41	16.088
765.72	15.556
766.03	7.895
766.34	15.693
766.65	15.538
766.96	16.162
767.27	11.170
767.58	7.471
767.89	9.220
768.20	11.364
768.51	19.231
768.82	16.256
769.13	8.295
769.44	10.730
769.75	8.676
770.06	12.500
770.37	12.981
770.68	10.152
770.99	13.575
771.30	16.667
771.61	17.647
771.92	15.086
772.23	17.241
772.54	13.441
772.85	17.284
773.16	12.360
773.47	18.954
773.78	8.497
774.09	13.174
774.39	13.333
774.70	12.102
775.01	12.414
775.32	13.571
775.63	3.306
775.94	10.687
776.25	15.748
776.56	13.333
776.87	6.731
777.18	4.274
777.48	14.655
777.79	7.826
778.10	5.714
778.41	14.414
778.72	22.222
779.03	13.534
779.34	8.511
779.65	18.493
779.95	10.959
780.26	13.103
780.57	4.065
780.88	14.173
781.19	8.621
781.50	10.078
781.80	12.426
782.11	13.208
782.42	20.000
782.73	7.194
783.04	13.333
783.34	9.722
783.65	0.000
783.96	10.656
784.27	21.379
784.57	8.943
784.88	3.906
785.19	5.000
785.50	15.000
785.81	7.759
786.11	12.069
786.42	0.000
786.73	12.727
787.04	8.163
787.34	12.500
787.65	11.429
787.96	13.274
788.26	12.727
788.57	15.385
788.88	16.406
789.19	7.143
789.49	5.217
789.80	12.245
790.11	13.131
790.41	5.455
790.72	20.652
791.03	14.773
791.33	17.500
791.64	8.750
791.95	5.814
792.25	13.830
792.56	17.978
792.87	9.589
793.17	28.986
793.48	-5.333
793.79	16.250
794.09	25.000
794.40	12.264
794.70	7.767
795.01	10.569
795.32	5.983
795.62	12.381
795.93	9.804
796.23	15.094
796.54	8.333
796.85	17.647
797.15	2.817
797.46	18.056
797.76	13.636
798.07	13.953
798.37	-6.579
798.68	-3.030
798.99	16.049
799.29	12.857
799.60	10.145
799.90	18.667
800.21	19.672
800.51	16.923
800.82	6.780
801.12	7.246
801.43	13.115
801.73	14.286
802.04	2.000
802.34	8.955
802.65	13.462
802.95	0.000
803.26	5.769
803.56	25.490
803.87	-15.217
804.17	14.667
804.48	14.286
804.78	1.852
805.09	-2.174
805.39	-15.556
805.70	12.963
806.00	-10.526
806.30	5.634
806.61	21.429
806.91	-6.944
807.22	19.737
807.52	10.667
807.83	-1.818
808.13	20.833
808.43	22.059
808.74	4.478
809.04	-10.169
809.35	-11.538
809.65	7.813
809.95	-37.838
810.26	0.000
810.56	8.219
810.86	33.333
811.17	8.000
811.47	30.612
811.77	-18.421
812.08	4.545
812.38	1.887
812.69	-7.500
812.99	-30.303
813.29	18.421
813.59	-2.857
813.90	-11.364
814.20	-5.128
814.50	-3.846
814.81	9.434
815.11	-10.638
815.41	25.424
815.72	-4.762
816.02	23.529
816.32	10.417
816.62	-7.317
816.93	-21.622
817.23	11.429
817.53	10.417
817.84	4.348
818.14	26.923
818.44	-15.789
818.74	10.870
819.04	-22.500
819.35	-10.811
819.65	0.000
819.95	-41.667
820.25	-2.381
820.56	32.500
820.86	-65.517
821.16	15.000
821.46	14.894
821.76	-2.500
822.07	2.326
822.37	0.000
822.67	6.250
822.97	28.571
823.27	-28.571
823.57	-8.000
823.88	-14.815
824.18	-3.571
824.48	-11.765
824.78	32.258
825.08	-17.391
825.38	-3.030
825.69	-4.167
825.99	18.421
826.29	5.556
826.59	-33.333
826.89	-90.476
827.19	4.348
827.49	-25.000
827.79	22.857
828.09	7.143
828.39	30.303
828.70	2.703
829.00	10.714
829.30	-23.810
829.60	-10.000
829.90	6.250
830.20	2.632
830.50	-22.222
830.80	13.043
831.10	27.273
831.40	36.364
831.70	29.032
832.00	38.095
832.30	-71.429
832.60	-66.667
832.90	-17.241
833.20	-40.000
833.50	18.182
833.80	-29.630
834.10	-19.231
834.40	28.125
834.70	-133.333
835.00	-31.579
835.30	19.231
835.60	6.667
835.90	3.226
836.20	-4.545
836.50	25.000
836.80	-61.538
837.10	-17.857
837.40	-400.000
837.70	0.000
838.00	-54.545
838.30	-43.478
838.60	-69.231
838.90	22.727
839.19	-7.143
839.49	-13.333
839.79	-46.154
840.09	-133.333
840.39	32.143
840.69	21.429
840.99	-46.154
841.29	-36.842
841.59	-110.000
841.88	-118.182
842.18	-120.000
842.48	-6.250
842.78	-40.000
843.08	25.926
843.38	-160.000
843.68	17.391
843.97	-33.333
844.27	-66.667
844.57	-20.000
844.87	-33.333
845.17	0.000
845.47	13.333
845.76	23.810
846.06	-29.412
846.36	-40.000
846.66	-71.429
846.96	-40.000
847.25	-137.500
847.55	-21.429
847.85	-87.500
848.15	-45.455
848.44	-300.000
848.74	-25.000
849.04	3.704
849.34	-36.364
849.63	-200.000
849.93	-380.000
850.23	22.222
850.53	10.000
850.82	-38.462
851.12	-44.444
851.42	53.333
851.71	-7.692
852.01	-21.429
852.31	-450.000
852.61	-45.455
852.90	-5.000
853.20	26.316
853.50	-83.333
853.79	-34.783
854.09	-8.333
854.39	0.000
854.68	-12.500
854.98	-3.226
855.28	42.308
855.57	5.000
855.87	-22.222
856.17	14.815
856.46	-14.286
856.76	-13.333
857.05	-22.222
857.35	-4.000
857.65	22.222
857.94	-7.692
858.24	13.793
858.53	-16.667
858.83	11.111
859.13	22.727
859.42	-30.435
859.72	-25.000
860.01	-366.667
860.31	12.000
860.60	14.286
860.90	-400.000
861.20	-66.667
861.49	-1050.000
861.79	-113.333
862.08	5.000
862.38	26.667
862.67	-280.000
862.97	-183.333
863.26	-8.333
863.56	50.000
863.85	-100.000
864.15	-33.333
864.44	-100.000
864.74	-7.143
865.03	300.000
865.33	-280.000
865.62	-83.333
865.92	-75.000
866.21	-233.333
866.51	-43.750
866.80	-54.545
867.10	-50.000
867.39	33.333
867.69	0.000
867.98	-61.538
868.27	-200.000
868.57	-6.667
868.86	-5.556
869.16	-100.000
869.45	46.667
869.75	-900.000
870.04	0.000
870.33	-100.000
870.63	19.048
870.92	466.667
871.22	-260.000
871.51	100.000
871.80	33.333
872.10	366.667
>>>>>End Processed Spectral Data<<<<<
