SpectraSuite Data File
++++++++++++++++++++++++++++++++++++
Date: Fri May 15 20:51:35 PDT 2015
User: schluterlab
Dark Spectrum Present: Yes
Reference Spectrum Present: Yes
Number of Sampled Component Spectra: 1
Spectrometers: USB2E3373
Integration Time (usec): 3000 (USB2E3373)
Spectra Averaged: 3 (USB2E3373)
Boxcar Smoothing: 0 (USB2E3373)
Correct for Electrical Dark: No (USB2E3373)
Strobe/Lamp Enabled: No (USB2E3373)
Correct for Detector Non-linearity: No (USB2E3373)
Correct for Stray Light: No (USB2E3373)
Number of Pixels in Processed Spectrum: 2048
>>>>>Begin Processed Spectral Data<<<<<
178.53	0.000
178.91	0.000
179.29	25.000
179.67	-650.000
180.04	42.857
180.42	-150.000
180.80	100.000
181.18	433.333
181.56	300.000
181.94	-250.000
182.31	800.000
182.69	-160.000
183.07	-133.333
183.45	-20.000
183.83	233.333
184.20	-9.091
184.58	55.556
184.96	-125.000
185.34	100.000
185.72	-200.000
186.09	107.692
186.47	-1000.000
186.85	300.000
187.23	200.000
187.61	200.000
187.98	-266.667
188.36	44.444
188.74	33.333
189.12	76.471
189.49	16.667
189.87	0.000
190.25	35.714
190.63	-500.000
191.00	-333.333
191.38	0.000
191.76	-250.000
192.14	125.000
192.51	-50.000
192.89	-122.222
193.27	-42.857
193.65	216.667
194.02	227.273
194.40	10.000
194.78	-50.000
195.15	-16.667
195.53	-175.000
195.91	275.000
196.29	-375.000
196.66	92.308
197.04	185.714
197.42	-144.444
197.79	0.000
198.17	-115.385
198.55	1200.000
198.92	-333.333
199.30	-1200.000
199.68	-160.000
200.05	-200.000
200.43	0.000
200.81	-133.333
201.18	-333.333
201.56	2100.000
201.94	-350.000
202.31	100.000
202.69	-340.000
203.07	575.000
203.44	-100.000
203.82	0.000
204.19	-7.143
204.57	-300.000
204.95	187.500
205.32	-30.000
205.70	-185.714
206.08	-200.000
206.45	33.333
206.83	28.571
207.20	0.000
207.58	1300.000
207.96	-433.333
208.33	-110.000
208.71	-250.000
209.08	-183.333
209.46	-500.000
209.84	-160.000
210.21	-800.000
210.59	14.286
210.96	-16.667
211.34	0.000
211.71	13.333
212.09	-85.714
212.46	-2400.000
212.84	0.000
213.22	20.000
213.59	550.000
213.97	-7.692
214.34	-36.364
214.72	-116.667
215.09	350.000
215.47	-53.846
215.84	-27.273
216.22	200.000
216.59	-187.500
216.97	-200.000
217.34	-325.000
217.72	-420.000
218.09	-62.500
218.47	25.000
218.84	-500.000
219.22	-211.111
219.59	-80.000
219.97	433.333
220.34	600.000
220.72	-200.000
221.09	0.000
221.47	-250.000
221.84	-850.000
222.22	-700.000
222.59	63.636
222.97	0.000
223.34	-566.667
223.72	-35.714
224.09	-19.048
224.46	-7.143
224.84	600.000
225.21	30.000
225.59	-60.000
225.96	-450.000
226.34	325.000
226.71	-171.429
227.08	-16.667
227.46	-75.000
227.83	-650.000
228.21	22.222
228.58	27.273
228.95	-125.000
229.33	40.000
229.70	12.500
230.08	-62.500
230.45	-185.714
230.82	28.571
231.20	-33.333
231.57	21.429
231.95	-14.286
232.32	-40.000
232.69	50.000
233.07	-66.667
233.44	-180.000
233.81	-130.000
234.19	-88.889
234.56	-29.412
234.93	850.000
235.31	75.000
235.68	-160.000
236.05	-115.385
236.43	-55.000
236.80	-47.059
237.17	3.125
237.55	-15.000
237.92	-29.630
238.29	8.333
238.67	10.000
239.04	-2.941
239.41	-39.024
239.79	-60.000
240.16	-4.878
240.53	-15.789
240.91	-15.217
241.28	-9.524
241.65	-3.571
242.02	10.959
242.40	-1.667
242.77	-11.864
243.14	-19.697
243.51	-3.750
243.89	9.195
244.26	-8.046
244.63	-17.857
245.00	4.124
245.38	-4.124
245.75	-19.101
246.12	-0.862
246.49	-5.785
246.87	-9.615
247.24	-13.445
247.61	-10.526
247.98	-7.317
248.36	1.250
248.73	-2.632
249.10	-3.247
249.47	-3.165
249.84	-11.765
250.22	0.588
250.59	1.307
250.96	2.347
251.33	-9.884
251.70	-1.765
252.08	0.000
252.45	-5.446
252.82	-0.503
253.19	-5.991
253.56	-3.271
253.94	1.351
254.31	5.652
254.68	-0.877
255.05	0.394
255.42	-4.367
255.79	0.772
256.16	0.000
256.54	4.851
256.91	0.380
257.28	0.000
257.65	-2.247
258.02	-1.773
258.39	4.377
258.76	2.198
259.14	0.664
259.51	0.000
259.88	-1.718
260.25	-1.634
260.62	1.389
260.99	-4.746
261.36	-1.027
261.73	-0.316
262.10	1.520
262.47	-4.294
262.85	-2.821
263.22	-0.923
263.59	0.000
263.96	0.311
264.33	-1.212
264.70	-2.083
265.07	-2.083
265.44	0.850
265.81	-1.130
266.18	-1.366
266.55	-0.771
266.92	1.813
267.29	0.261
267.66	0.000
268.03	0.524
268.40	-0.783
268.77	1.070
269.14	0.959
269.51	1.542
269.88	0.499
270.25	-1.786
270.62	-1.463
270.99	-3.581
271.36	0.978
271.73	-0.704
272.10	-1.703
272.47	0.709
272.84	-1.733
273.21	1.160
273.58	-0.723
273.95	0.229
274.32	1.155
274.69	-1.584
275.06	-0.670
275.43	-3.175
275.80	-0.662
276.17	0.230
276.54	1.713
276.91	-2.193
277.28	-0.655
277.65	1.033
278.02	1.277
278.39	-2.407
278.76	0.210
279.13	-3.734
279.50	1.261
279.87	0.216
280.23	-3.011
280.60	2.339
280.97	0.404
281.34	-1.154
281.71	-0.205
282.08	-0.204
282.45	-1.174
282.82	-1.351
283.19	-0.580
283.56	0.000
283.92	-1.518
284.29	-1.538
284.66	-0.581
285.03	0.393
285.40	-1.134
285.77	-0.703
286.14	-1.444
286.51	1.476
286.87	-1.828
287.24	-1.657
287.61	-1.587
287.98	1.754
288.35	-0.693
288.72	0.876
289.08	-0.694
289.45	0.176
289.82	-1.748
290.19	-0.683
290.56	-1.029
290.93	-0.168
291.29	-0.462
291.66	0.787
292.03	1.435
292.40	0.645
292.77	0.159
293.13	-1.786
293.50	-1.062
293.87	1.374
294.24	1.236
294.60	1.639
294.97	-0.744
295.34	-1.994
295.71	0.447
296.08	-1.046
296.44	-1.991
296.81	0.694
297.18	1.014
297.55	1.355
297.91	0.274
298.28	2.111
298.65	0.543
299.02	-0.674
299.38	-1.778
299.75	-0.828
300.12	-1.178
300.48	-1.318
300.85	0.507
301.22	-0.260
301.59	-0.526
301.95	1.139
302.32	1.297
302.69	0.622
303.05	0.000
303.42	2.740
303.79	1.285
304.15	1.434
304.52	-1.308
304.89	-1.053
305.25	-0.242
305.62	0.117
305.99	-0.819
306.35	-0.462
306.72	-1.350
307.09	0.456
307.45	0.804
307.82	-0.116
308.19	0.465
308.55	-0.109
308.92	1.634
309.29	-1.453
309.65	-0.108
310.02	-0.330
310.38	0.768
310.75	1.093
311.12	0.969
311.48	0.530
311.85	1.047
312.22	1.266
312.58	0.955
312.95	1.281
313.31	0.414
313.68	1.466
314.05	0.306
314.41	1.959
314.78	1.031
315.14	1.131
315.51	2.174
315.87	1.639
316.24	3.539
316.61	3.445
316.97	3.175
317.34	4.395
317.70	4.398
318.07	4.231
318.43	3.824
318.80	5.303
319.16	5.957
319.53	5.888
319.89	4.724
320.26	5.870
320.62	6.219
320.99	5.428
321.35	7.194
321.72	7.996
322.08	8.157
322.45	8.223
322.81	8.153
323.18	7.360
323.54	8.784
323.91	9.250
324.27	10.156
324.64	11.049
325.00	10.949
325.37	12.305
325.73	10.335
326.10	11.807
326.46	13.094
326.83	12.686
327.19	13.165
327.56	13.901
327.92	14.613
328.29	12.857
328.65	15.566
329.01	13.603
329.38	14.470
329.74	14.731
330.11	14.829
330.47	14.378
330.84	14.615
331.20	16.920
331.56	14.907
331.93	16.438
332.29	17.415
332.66	14.842
333.02	15.892
333.38	15.674
333.75	16.941
334.11	16.383
334.48	15.231
334.84	16.758
335.20	16.102
335.57	15.141
335.93	17.706
336.29	16.667
336.66	15.077
337.02	14.870
337.38	15.185
337.75	16.636
338.11	17.403
338.47	16.241
338.84	16.359
339.20	15.996
339.56	17.064
339.93	16.831
340.29	16.606
340.65	18.638
341.02	16.312
341.38	17.345
341.74	15.018
342.11	16.378
342.47	16.103
342.83	16.176
343.20	15.767
343.56	15.217
343.92	16.563
344.28	17.848
344.65	15.803
345.01	15.903
345.37	16.737
345.73	16.736
346.10	15.617
346.46	16.737
346.82	15.548
347.19	15.212
347.55	15.288
347.91	16.505
348.27	16.087
348.63	15.843
349.00	16.407
349.36	15.628
349.72	16.584
350.08	16.475
350.45	16.121
350.81	14.037
351.17	15.798
351.53	17.469
351.89	15.772
352.26	15.920
352.62	15.968
352.98	14.859
353.34	15.137
353.70	15.372
354.07	15.887
354.43	16.093
354.79	15.937
355.15	16.429
355.51	15.744
355.87	15.049
356.24	14.845
356.60	16.734
356.96	16.111
357.32	15.974
357.68	15.715
358.04	15.105
358.40	15.193
358.77	15.152
359.13	16.413
359.49	16.487
359.85	15.991
360.21	15.470
360.57	16.297
360.93	16.339
361.29	15.710
361.66	15.909
362.02	16.515
362.38	16.375
362.74	15.291
363.10	16.102
363.46	15.938
363.82	16.829
364.18	15.720
364.54	16.250
364.90	15.412
365.26	15.793
365.62	16.715
365.98	16.789
366.35	16.242
366.71	16.186
367.07	16.183
367.43	15.600
367.79	16.396
368.15	17.301
368.51	15.222
368.87	16.296
369.23	15.162
369.59	16.327
369.95	16.276
370.31	16.185
370.67	17.015
371.03	15.907
371.39	16.557
371.75	15.971
372.11	17.332
372.47	16.864
372.83	17.246
373.19	16.904
373.55	16.318
373.91	17.207
374.27	17.151
374.63	16.726
374.99	16.099
375.35	16.992
375.71	17.902
376.07	16.924
376.42	17.415
376.78	18.054
377.14	17.062
377.50	16.600
377.86	16.934
378.22	17.103
378.58	17.372
378.94	17.139
379.30	17.280
379.66	17.429
380.02	17.658
380.38	17.042
380.74	18.432
381.09	18.282
381.45	18.471
381.81	18.199
382.17	17.830
382.53	18.239
382.89	17.514
383.25	17.610
383.61	18.598
383.97	18.159
384.32	17.136
384.68	19.009
385.04	17.157
385.40	18.295
385.76	19.308
386.12	19.534
386.48	19.349
386.83	18.199
387.19	19.048
387.55	19.699
387.91	18.765
388.27	18.864
388.62	19.194
388.98	18.416
389.34	19.051
389.70	19.577
390.06	18.376
390.42	19.236
390.77	19.555
391.13	18.916
391.49	19.405
391.85	18.778
392.20	19.021
392.56	20.025
392.92	20.141
393.28	19.870
393.64	20.240
393.99	20.752
394.35	19.545
394.71	21.264
395.07	19.799
395.42	19.611
395.78	19.674
396.14	20.177
396.50	20.419
396.85	19.768
397.21	20.614
397.57	20.439
397.92	20.312
398.28	21.609
398.64	19.759
399.00	20.711
399.35	20.711
399.71	20.505
400.07	20.859
400.42	20.257
400.78	20.453
401.14	20.569
401.49	21.263
401.85	21.024
402.21	21.145
402.57	21.375
402.92	20.452
403.28	21.742
403.63	20.807
403.99	20.408
404.35	21.362
404.70	21.190
405.06	21.093
405.42	21.753
405.77	20.802
406.13	21.013
406.49	20.485
406.84	21.516
407.20	21.794
407.55	20.927
407.91	21.725
408.27	21.415
408.62	22.031
408.98	20.949
409.34	21.747
409.69	21.447
410.05	20.998
410.40	21.049
410.76	21.894
411.11	21.562
411.47	21.959
411.83	21.783
412.18	22.329
412.54	21.536
412.89	21.613
413.25	22.443
413.60	21.304
413.96	21.595
414.31	21.829
414.67	22.194
415.03	22.503
415.38	21.997
415.74	22.801
416.09	22.796
416.45	23.228
416.80	23.067
417.16	22.652
417.51	23.384
417.87	23.077
418.22	22.733
418.58	23.144
418.93	23.197
419.29	22.343
419.64	21.646
420.00	23.300
420.35	21.731
420.71	23.694
421.06	23.082
421.42	23.077
421.77	23.526
422.12	22.815
422.48	24.201
422.83	23.434
423.19	23.928
423.54	23.398
423.90	23.910
424.25	23.938
424.61	23.868
424.96	23.984
425.31	24.206
425.67	24.531
426.02	23.910
426.38	25.297
426.73	25.121
427.09	26.013
427.44	25.353
427.79	25.398
428.15	24.879
428.50	24.894
428.85	25.000
429.21	25.806
429.56	24.582
429.92	25.013
430.27	25.363
430.62	24.621
430.98	25.584
431.33	25.868
431.68	25.327
432.04	25.433
432.39	25.100
432.74	24.895
433.10	26.149
433.45	25.209
433.80	25.537
434.16	25.042
434.51	26.720
434.86	26.016
435.22	26.528
435.57	27.386
435.92	26.587
436.28	26.595
436.63	26.697
436.98	25.492
437.34	25.650
437.69	27.668
438.04	26.838
438.39	26.634
438.75	27.808
439.10	26.316
439.45	27.876
439.81	26.667
440.16	27.613
440.51	28.299
440.86	28.761
441.22	27.828
441.57	27.925
441.92	28.384
442.27	27.661
442.63	28.212
442.98	28.317
443.33	28.381
443.68	28.170
444.03	27.670
444.39	27.250
444.74	28.818
445.09	27.840
445.44	28.205
445.79	28.932
446.15	28.469
446.50	27.343
446.85	28.215
447.20	28.624
447.55	28.962
447.91	28.652
448.26	29.254
448.61	28.785
448.96	28.629
449.31	28.728
449.66	28.746
450.02	29.378
450.37	28.749
450.72	29.267
451.07	29.937
451.42	29.463
451.77	29.476
452.12	28.589
452.47	28.847
452.83	29.093
453.18	29.981
453.53	30.152
453.88	29.508
454.23	28.888
454.58	30.353
454.93	30.026
455.28	28.444
455.63	29.386
455.98	29.826
456.34	30.524
456.69	30.051
457.04	30.183
457.39	30.134
457.74	29.625
458.09	29.665
458.44	29.315
458.79	29.300
459.14	30.378
459.49	30.925
459.84	29.554
460.19	29.854
460.54	29.890
460.89	29.943
461.24	30.000
461.59	31.413
461.94	29.874
462.29	30.881
462.64	30.831
462.99	30.467
463.34	30.181
463.69	30.051
464.04	30.266
464.39	29.897
464.74	29.571
465.09	30.193
465.44	30.814
465.79	29.535
466.14	30.445
466.49	29.787
466.84	29.506
467.19	30.538
467.54	29.885
467.89	30.069
468.24	29.988
468.59	30.222
468.94	29.206
469.29	30.230
469.64	30.554
469.99	31.254
470.34	31.126
470.68	30.350
471.03	30.644
471.38	30.456
471.73	30.882
472.08	30.258
472.43	30.537
472.78	29.746
473.13	31.088
473.48	30.749
473.83	31.133
474.17	30.505
474.52	31.015
474.87	30.303
475.22	30.201
475.57	30.322
475.92	30.609
476.27	31.141
476.61	31.887
476.96	30.284
477.31	30.665
477.66	30.899
478.01	31.275
478.36	30.338
478.70	30.723
479.05	30.495
479.40	29.942
479.75	29.718
480.10	29.903
480.45	30.650
480.79	30.816
481.14	30.430
481.49	30.246
481.84	30.261
482.19	30.028
482.53	30.264
482.88	29.833
483.23	30.038
483.58	30.283
483.92	29.864
484.27	29.398
484.62	30.121
484.97	29.187
485.31	28.432
485.66	28.023
486.01	28.246
486.36	27.725
486.70	28.234
487.05	28.546
487.40	28.180
487.75	28.113
488.09	28.245
488.44	28.473
488.79	28.838
489.13	29.327
489.48	29.029
489.83	29.731
490.17	29.618
490.52	30.393
490.87	29.199
491.22	29.943
491.56	29.269
491.91	28.824
492.26	29.995
492.60	29.511
492.95	29.661
493.30	29.702
493.64	29.813
493.99	29.758
494.34	29.272
494.68	29.952
495.03	28.905
495.37	29.293
495.72	29.783
496.07	29.805
496.41	29.528
496.76	28.512
497.11	28.924
497.45	29.403
497.80	29.516
498.14	28.763
498.49	30.015
498.84	29.242
499.18	29.267
499.53	28.869
499.87	29.475
500.22	28.734
500.56	28.946
500.91	29.217
501.26	28.423
501.60	28.923
501.95	29.064
502.29	28.814
502.64	28.378
502.98	27.923
503.33	28.146
503.67	27.904
504.02	28.055
504.36	28.600
504.71	28.030
505.06	28.384
505.40	28.883
505.75	28.196
506.09	28.282
506.44	28.593
506.78	28.316
507.13	27.870
507.47	27.624
507.82	27.618
508.16	27.681
508.51	28.437
508.85	29.199
509.19	27.834
509.54	28.043
509.88	28.533
510.23	27.649
510.57	27.098
510.92	27.559
511.26	27.332
511.61	26.898
511.95	26.795
512.30	27.494
512.64	27.824
512.98	27.681
513.33	27.868
513.67	27.629
514.02	28.375
514.36	28.343
514.70	28.555
515.05	28.672
515.39	27.981
515.74	28.084
516.08	27.436
516.42	28.445
516.77	27.501
517.11	27.774
517.46	27.409
517.80	28.725
518.14	27.863
518.49	27.644
518.83	26.853
519.17	26.743
519.52	26.110
519.86	26.951
520.20	27.643
520.55	27.517
520.89	27.980
521.23	27.866
521.58	27.508
521.92	26.795
522.26	27.456
522.61	27.403
522.95	27.682
523.29	27.382
523.64	27.700
523.98	27.025
524.32	25.580
524.66	27.529
525.01	27.468
525.35	26.831
525.69	25.926
526.04	25.331
526.38	26.524
526.72	25.768
527.06	25.616
527.41	27.111
527.75	26.273
528.09	26.512
528.43	26.604
528.78	26.535
529.12	25.806
529.46	26.121
529.80	26.156
530.15	26.271
530.49	25.051
530.83	25.581
531.17	25.386
531.51	25.787
531.86	24.813
532.20	25.122
532.54	25.119
532.88	25.257
533.22	25.067
533.57	24.050
533.91	23.629
534.25	25.065
534.59	24.567
534.93	23.726
535.27	23.794
535.62	22.942
535.96	23.875
536.30	24.538
536.64	24.604
536.98	22.927
537.32	24.182
537.66	24.544
538.01	24.056
538.35	24.411
538.69	23.635
539.03	23.103
539.37	23.822
539.71	23.790
540.05	23.557
540.39	24.723
540.73	23.082
541.07	23.688
541.42	24.798
541.76	23.606
542.10	23.538
542.44	23.350
542.78	21.404
543.12	22.734
543.46	23.018
543.80	23.040
544.14	21.228
544.48	22.052
544.82	22.215
545.16	22.951
545.50	22.497
545.84	22.734
546.18	22.199
546.52	22.927
546.86	21.783
547.20	21.745
547.54	20.777
547.88	22.758
548.22	21.236
548.56	21.174
548.90	22.642
549.24	21.488
549.58	21.368
549.92	21.372
550.26	21.465
550.60	22.082
550.94	21.509
551.28	21.252
551.62	21.692
551.96	21.880
552.30	21.272
552.64	19.817
552.98	21.378
553.32	21.113
553.66	21.626
554.00	21.022
554.34	21.935
554.68	20.501
555.02	19.940
555.36	20.643
555.69	19.560
556.03	20.057
556.37	21.068
556.71	20.794
557.05	20.582
557.39	20.446
557.73	19.565
558.07	20.287
558.41	19.525
558.75	20.421
559.08	20.410
559.42	20.238
559.76	19.936
560.10	19.801
560.44	18.764
560.78	19.161
561.12	18.547
561.45	19.185
561.79	20.238
562.13	19.233
562.47	19.281
562.81	19.741
563.15	19.605
563.48	18.812
563.82	20.041
564.16	19.290
564.50	19.054
564.84	20.013
565.17	19.383
565.51	19.262
565.85	19.479
566.19	19.562
566.52	18.298
566.86	18.959
567.20	18.431
567.54	18.309
567.88	18.512
568.21	18.156
568.55	18.261
568.89	18.429
569.23	17.381
569.56	17.294
569.90	17.458
570.24	16.524
570.57	16.691
570.91	16.765
571.25	15.258
571.59	15.976
571.92	15.170
572.26	15.640
572.60	15.256
572.93	15.908
573.27	15.329
573.61	14.887
573.95	15.620
574.28	15.042
574.62	14.416
574.96	14.510
575.29	15.169
575.63	14.745
575.97	14.503
576.30	14.732
576.64	14.570
576.98	14.466
577.31	14.844
577.65	15.069
577.98	14.814
578.32	14.724
578.66	14.335
578.99	14.319
579.33	14.239
579.67	14.156
580.00	14.405
580.34	14.005
580.67	13.996
581.01	14.553
581.35	14.298
581.68	14.111
582.02	14.039
582.35	13.630
582.69	13.596
583.02	13.480
583.36	13.721
583.70	14.512
584.03	14.262
584.37	14.512
584.70	13.956
585.04	13.653
585.37	14.201
585.71	13.528
586.04	13.036
586.38	13.550
586.72	13.831
587.05	13.778
587.39	13.531
587.72	13.997
588.06	13.784
588.39	13.785
588.73	13.370
589.06	13.275
589.40	13.515
589.73	13.983
590.07	14.048
590.40	13.390
590.73	14.168
591.07	13.274
591.40	13.847
591.74	14.118
592.07	14.239
592.41	14.620
592.74	12.943
593.08	12.958
593.41	13.180
593.75	12.888
594.08	13.045
594.41	13.210
594.75	13.015
595.08	13.545
595.42	13.213
595.75	13.181
596.09	13.213
596.42	13.270
596.75	12.833
597.09	12.802
597.42	13.234
597.75	12.826
598.09	13.128
598.42	13.312
598.76	12.398
599.09	12.861
599.42	12.391
599.76	12.716
600.09	12.217
600.42	12.737
600.76	12.184
601.09	12.634
601.42	12.299
601.76	12.346
602.09	12.706
602.42	12.595
602.76	12.521
603.09	12.209
603.42	12.625
603.76	11.694
604.09	12.151
604.42	12.437
604.76	12.461
605.09	12.614
605.42	12.009
605.75	12.172
606.09	12.229
606.42	11.927
606.75	11.558
607.09	12.747
607.42	12.140
607.75	11.545
608.08	11.905
608.42	11.786
608.75	12.578
609.08	12.656
609.41	11.929
609.75	11.542
610.08	12.132
610.41	12.029
610.74	11.360
611.07	12.403
611.41	12.091
611.74	12.846
612.07	12.366
612.40	11.597
612.73	11.751
613.07	11.980
613.40	12.582
613.73	11.528
614.06	11.686
614.39	12.465
614.72	11.261
615.06	11.285
615.39	11.408
615.72	11.033
616.05	11.899
616.38	10.769
616.71	11.131
617.05	10.809
617.38	11.628
617.71	12.264
618.04	11.937
618.37	12.358
618.70	11.551
619.03	12.986
619.36	11.143
619.69	11.676
620.03	12.053
620.36	11.516
620.69	12.705
621.02	12.232
621.35	11.286
621.68	12.500
622.01	12.167
622.34	12.690
622.67	12.145
623.00	12.098
623.33	12.271
623.66	10.920
623.99	10.439
624.32	12.852
624.65	11.579
624.99	11.588
625.32	11.296
625.65	12.019
625.98	12.006
626.31	10.308
626.64	11.179
626.97	12.653
627.30	11.559
627.63	11.438
627.96	11.770
628.29	11.008
628.62	11.603
628.95	12.725
629.28	10.887
629.61	10.668
629.94	13.001
630.26	11.858
630.59	11.550
630.92	13.026
631.25	12.308
631.58	10.683
631.91	11.075
632.24	11.468
632.57	10.795
632.90	12.337
633.23	13.882
633.56	10.327
633.89	11.714
634.22	13.704
634.55	11.690
634.88	10.473
635.20	10.769
635.53	11.333
635.86	10.273
636.19	11.902
636.52	10.204
636.85	10.670
637.18	11.321
637.51	12.075
637.83	10.775
638.16	14.052
638.49	11.989
638.82	12.895
639.15	10.719
639.48	10.591
639.81	11.715
640.13	10.678
640.46	12.245
640.79	10.751
641.12	11.374
641.45	10.961
641.77	10.519
642.10	12.322
642.43	12.219
642.76	12.046
643.09	11.955
643.41	11.327
643.74	11.697
644.07	11.823
644.40	9.797
644.73	14.361
645.05	12.081
645.38	11.817
645.71	11.348
646.04	12.388
646.36	11.525
646.69	11.871
647.02	11.909
647.35	12.687
647.67	10.420
648.00	13.060
648.33	11.945
648.66	12.373
648.98	10.218
649.31	9.587
649.64	10.361
649.96	9.887
650.29	11.755
650.62	12.137
650.94	12.037
651.27	7.263
651.60	11.532
651.92	11.713
652.25	9.947
652.58	11.333
652.90	11.149
653.23	11.429
653.56	8.799
653.88	10.481
654.21	9.107
654.54	8.659
654.86	10.017
655.19	9.064
655.52	9.056
655.84	7.837
656.17	8.678
656.49	11.741
656.82	12.325
657.15	9.227
657.47	6.941
657.80	5.027
658.13	4.943
658.45	7.778
658.78	7.548
659.10	7.295
659.43	6.908
659.75	7.745
660.08	8.414
660.41	8.478
660.73	8.287
661.06	11.612
661.38	8.023
661.71	7.187
662.03	10.944
662.36	11.429
662.68	10.177
663.01	11.135
663.33	8.121
663.66	9.767
663.98	6.744
664.31	9.382
664.63	7.604
664.96	8.913
665.28	8.168
665.61	9.957
665.93	9.783
666.26	11.280
666.58	7.383
666.91	7.765
667.23	10.613
667.56	8.057
667.88	9.592
668.21	12.411
668.53	10.875
668.86	11.321
669.18	8.962
669.50	8.959
669.83	10.698
670.15	9.091
670.48	9.330
670.80	8.756
671.13	9.396
671.45	7.763
671.77	12.661
672.10	8.515
672.42	7.116
672.75	9.236
673.07	10.018
673.39	9.725
673.72	6.903
674.04	9.375
674.37	10.381
674.69	5.996
675.01	10.667
675.34	9.459
675.66	10.185
675.98	9.091
676.31	8.486
676.63	4.751
676.95	9.091
677.28	9.647
677.60	9.157
677.92	9.862
678.25	11.816
678.57	9.091
678.89	7.773
679.22	8.277
679.54	8.434
679.86	6.759
680.18	8.155
680.51	8.333
680.83	7.952
681.15	5.200
681.48	10.451
681.80	11.570
682.12	8.266
682.44	5.439
682.77	11.038
683.09	9.382
683.41	7.273
683.73	7.834
684.06	9.513
684.38	3.656
684.70	8.932
685.02	5.809
685.34	7.708
685.67	9.193
685.99	8.318
686.31	6.903
686.63	7.607
686.96	6.274
687.28	4.242
687.60	8.365
687.92	8.485
688.24	8.871
688.56	7.205
688.89	10.491
689.21	8.000
689.53	8.585
689.85	7.209
690.17	8.705
690.49	8.511
690.82	5.583
691.14	6.905
691.46	7.009
691.78	7.432
692.10	8.387
692.42	7.359
692.74	6.197
693.06	9.459
693.39	7.919
693.71	7.014
694.03	6.236
694.35	10.748
694.67	8.333
694.99	4.961
695.31	10.183
695.63	7.750
695.95	4.798
696.27	7.513
696.59	9.444
696.91	7.283
697.23	7.969
697.56	8.416
697.88	8.817
698.20	6.150
698.52	7.529
698.84	3.349
699.16	10.000
699.48	8.271
699.80	8.685
700.12	6.739
700.44	7.563
700.76	9.884
701.08	7.273
701.40	8.434
701.72	8.951
702.04	5.941
702.36	5.017
702.68	5.405
703.00	9.394
703.32	7.918
703.64	5.367
703.96	6.667
704.28	7.975
704.60	9.841
704.91	3.785
705.23	6.977
705.55	10.601
705.87	9.386
706.19	6.296
706.51	6.186
706.83	8.682
707.15	2.804
707.47	6.443
707.79	5.729
708.11	6.000
708.43	7.750
708.74	7.235
709.06	7.324
709.38	4.893
709.70	10.947
710.02	6.051
710.34	6.811
710.66	1.923
710.98	2.980
711.29	9.836
711.61	9.153
711.93	7.818
712.25	9.966
712.57	5.128
712.89	2.612
713.20	10.381
713.52	5.575
713.84	6.485
714.16	5.498
714.48	5.484
714.80	9.936
715.11	2.128
715.43	4.389
715.75	4.333
716.07	7.309
716.39	2.685
716.70	3.690
717.02	5.344
717.34	3.239
717.66	5.310
717.97	3.478
718.29	8.368
718.61	7.087
718.93	8.140
719.24	4.183
719.56	6.426
719.88	6.873
720.20	4.924
720.51	5.364
720.83	10.425
721.15	8.824
721.46	8.468
721.78	9.486
722.10	2.974
722.42	2.490
722.73	1.224
723.05	10.204
723.37	8.051
723.68	6.306
724.00	3.419
724.32	0.000
724.63	5.909
724.95	6.550
725.27	5.991
725.58	5.085
725.90	3.571
726.22	8.494
726.53	13.220
726.85	8.240
727.16	9.434
727.48	1.215
727.80	8.502
728.11	4.661
728.43	5.882
728.74	3.629
729.06	7.600
729.38	10.526
729.69	3.586
730.01	5.000
730.32	2.985
730.64	9.187
730.96	6.792
731.27	4.000
731.59	2.373
731.90	5.096
732.22	6.625
732.53	6.977
732.85	4.965
733.16	8.418
733.48	3.957
733.80	5.435
734.11	3.390
734.43	3.436
734.74	7.273
735.06	0.977
735.37	5.438
735.69	5.724
736.00	1.394
736.32	4.698
736.63	6.338
736.95	7.509
737.26	2.491
737.58	5.705
737.89	4.029
738.21	3.383
738.52	6.173
738.83	6.550
739.15	2.183
739.46	7.874
739.78	3.663
740.09	2.288
740.41	5.797
740.72	3.150
741.04	7.692
741.35	7.234
741.66	9.005
741.98	6.122
742.29	6.931
742.61	-0.524
742.92	5.687
743.23	2.315
743.55	10.407
743.86	2.871
744.18	4.785
744.49	0.532
744.80	1.630
745.12	8.556
745.43	0.976
745.74	3.646
746.06	7.317
746.37	4.188
746.68	5.687
747.00	3.723
747.31	5.970
747.62	1.942
747.94	5.742
748.25	0.495
748.56	6.557
748.88	2.094
749.19	4.787
749.50	5.911
749.82	0.943
750.13	-1.376
750.44	6.767
750.75	4.478
751.07	9.124
751.38	5.364
751.69	1.176
752.01	7.364
752.32	1.992
752.63	1.976
752.94	0.431
753.26	7.950
753.57	4.072
753.88	1.327
754.19	5.000
754.51	1.653
754.82	6.073
755.13	5.000
755.44	4.435
755.75	4.687
756.07	5.058
756.38	4.151
756.69	1.916
757.00	6.667
757.31	5.556
757.63	2.439
757.94	4.444
758.25	3.288
758.56	2.660
758.87	4.533
759.18	5.919
759.50	1.818
759.81	5.351
760.12	7.419
760.43	3.030
760.74	3.704
761.05	1.538
761.36	3.977
761.67	6.970
761.99	5.782
762.30	2.545
762.61	7.510
762.92	3.167
763.23	4.054
763.54	2.336
763.85	4.661
764.16	3.320
764.47	2.823
764.78	6.960
765.10	7.071
765.41	1.893
765.72	5.079
766.03	-0.376
766.34	2.190
766.65	5.976
766.96	6.566
767.27	5.851
767.58	5.172
767.89	-2.837
768.20	5.682
768.51	2.747
768.82	0.985
769.13	1.382
769.44	4.721
769.75	-1.826
770.06	6.897
770.37	3.846
770.68	3.046
770.99	2.262
771.30	3.431
771.61	4.072
771.92	6.034
772.23	11.330
772.54	2.688
772.85	-1.235
773.16	5.618
773.47	9.804
773.78	9.804
774.09	2.395
774.39	0.000
774.70	1.911
775.01	9.655
775.32	11.429
775.63	-11.570
775.94	0.000
776.25	7.874
776.56	-5.833
776.87	-3.846
777.18	-2.564
777.48	8.621
777.79	-0.870
778.10	-5.714
778.41	0.000
778.72	5.556
779.03	3.759
779.34	9.220
779.65	-6.164
779.95	-2.740
780.26	2.759
780.57	-8.130
780.88	0.000
781.19	-5.172
781.50	-1.550
781.80	11.834
782.11	4.403
782.42	5.385
782.73	3.597
783.04	9.630
783.34	0.000
783.65	-14.530
783.96	-0.820
784.27	6.207
784.57	6.504
784.88	1.563
785.19	8.000
785.50	0.000
785.81	5.172
786.11	-4.310
786.42	-2.913
786.73	10.909
787.04	-3.061
787.34	-8.036
787.65	8.571
787.96	-3.540
788.26	5.455
788.57	-0.855
788.88	3.906
789.19	0.794
789.49	-0.870
789.80	1.020
790.11	5.051
790.41	2.727
790.72	5.435
791.03	5.682
791.33	17.500
791.64	-3.750
791.95	2.326
792.25	3.191
792.56	1.124
792.87	12.329
793.17	2.899
793.48	2.667
793.79	-3.750
794.09	16.250
794.40	2.830
794.70	-12.621
795.01	-0.813
795.32	1.709
795.62	2.857
795.93	10.784
796.23	9.434
796.54	5.208
796.85	4.412
797.15	9.859
797.46	4.167
797.76	-10.606
798.07	12.791
798.37	-9.211
798.68	-31.818
798.99	3.704
799.29	14.286
799.60	-4.348
799.90	9.333
800.21	0.000
800.51	-6.154
800.82	1.695
801.12	5.797
801.43	1.639
801.73	11.111
802.04	-24.000
802.34	7.463
802.65	7.692
802.95	-16.071
803.26	-21.154
803.56	-13.725
803.87	-21.739
804.17	8.000
804.48	4.762
804.78	-5.556
805.09	-6.522
805.39	-33.333
805.70	-11.111
806.00	-14.035
806.30	15.493
806.61	-8.571
806.91	-16.667
807.22	14.474
807.52	4.000
807.83	-32.727
808.13	1.389
808.43	14.706
808.74	1.493
809.04	-15.254
809.35	5.769
809.65	0.000
809.95	-43.243
810.26	-31.818
810.56	-8.219
810.86	2.381
811.17	0.000
811.47	8.163
811.77	-18.421
812.08	0.000
812.38	-5.660
812.69	-20.000
812.99	-6.061
813.29	2.632
813.59	-25.714
813.90	-13.636
814.20	-46.154
814.50	-17.308
814.81	7.547
815.11	-31.915
815.41	11.864
815.72	-14.286
816.02	-3.922
816.32	4.167
816.62	-21.951
816.93	-8.108
817.23	-11.429
817.53	-8.333
817.84	0.000
818.14	9.615
818.44	-23.684
818.74	17.391
819.04	-27.500
819.35	-18.919
819.65	-14.706
819.95	-30.556
820.25	7.143
820.56	-15.000
820.86	-55.172
821.16	7.500
821.46	12.766
821.76	5.000
822.07	0.000
822.37	-16.216
822.67	-28.125
822.97	-4.762
823.27	-35.714
823.57	-52.000
823.88	-55.556
824.18	25.000
824.48	-38.235
824.78	-22.581
825.08	-30.435
825.38	-3.030
825.69	-58.333
825.99	-31.579
826.29	-25.000
826.59	-40.000
826.89	-85.714
827.19	23.913
827.49	0.000
827.79	-8.571
828.09	-7.143
828.39	9.091
828.70	18.919
829.00	3.571
829.30	-23.810
829.60	16.667
829.90	-25.000
830.20	-5.263
830.50	-29.630
830.80	-39.130
831.10	-18.182
831.40	33.333
831.70	6.452
832.00	0.000
832.30	-52.381
832.60	-50.000
832.90	-10.345
833.20	-55.000
833.50	-6.061
833.80	-33.333
834.10	-7.692
834.40	-9.375
834.70	-144.444
835.00	-15.789
835.30	0.000
835.60	-6.667
835.90	6.452
836.20	-4.545
836.50	17.857
836.80	-46.154
837.10	-14.286
837.40	-566.667
837.70	0.000
838.00	-127.273
838.30	17.391
838.60	-46.154
838.90	27.273
839.19	10.714
839.49	43.333
839.79	-23.077
840.09	-116.667
840.39	28.571
840.69	-10.714
840.99	-23.077
841.29	-42.105
841.59	-120.000
841.88	-100.000
842.18	-130.000
842.48	-43.750
842.78	-20.000
843.08	29.630
843.38	-40.000
843.68	-21.739
843.97	-53.333
844.27	-140.000
844.57	-45.000
844.87	-50.000
845.17	-66.667
845.47	-46.667
845.76	-19.048
846.06	-58.824
846.36	-70.000
846.66	14.286
846.96	-40.000
847.25	-150.000
847.55	-50.000
847.85	-100.000
848.15	-22.727
848.44	-766.667
848.74	-30.000
849.04	3.704
849.34	-100.000
849.63	-83.333
849.93	-380.000
850.23	-44.444
850.53	-20.000
850.82	-53.846
851.12	-133.333
851.42	-6.667
851.71	-34.615
852.01	-50.000
852.31	-175.000
852.61	-72.727
852.90	-20.000
853.20	-26.316
853.50	-8.333
853.79	-8.696
854.09	29.167
854.39	-68.421
854.68	-25.000
854.98	32.258
855.28	0.000
855.57	15.000
855.87	-16.667
856.17	-3.704
856.46	-42.857
856.76	-40.000
857.05	-22.222
857.35	28.000
857.65	0.000
857.94	46.154
858.24	27.586
858.53	61.111
858.83	-18.519
859.13	-13.636
859.42	-13.043
859.72	-100.000
860.01	-566.667
860.31	16.000
860.60	-9.524
860.90	-466.667
861.20	-33.333
861.49	-600.000
861.79	20.000
862.08	10.000
862.38	6.667
862.67	-320.000
862.97	-50.000
863.26	-41.667
863.56	55.556
863.85	-333.333
864.15	-16.667
864.44	-100.000
864.74	0.000
865.03	350.000
865.33	-280.000
865.62	-83.333
865.92	-100.000
866.21	-116.667
866.51	6.250
866.80	-81.818
867.10	-650.000
867.39	8.333
867.69	0.000
867.98	7.692
868.27	-200.000
868.57	-33.333
868.86	11.111
869.16	-76.923
869.45	-33.333
869.75	-1000.000
870.04	0.000
870.33	-100.000
870.63	-23.810
870.92	600.000
871.22	-60.000
871.51	-600.000
871.80	-11.111
872.10	800.000
>>>>>End Processed Spectral Data<<<<<
