SpectraSuite Data File
++++++++++++++++++++++++++++++++++++
Date: Fri May 15 21:12:43 PDT 2015
User: schluterlab
Dark Spectrum Present: Yes
Reference Spectrum Present: Yes
Number of Sampled Component Spectra: 1
Spectrometers: USB2E3373
Integration Time (usec): 3000 (USB2E3373)
Spectra Averaged: 3 (USB2E3373)
Boxcar Smoothing: 0 (USB2E3373)
Correct for Electrical Dark: No (USB2E3373)
Strobe/Lamp Enabled: No (USB2E3373)
Correct for Detector Non-linearity: No (USB2E3373)
Correct for Stray Light: No (USB2E3373)
Number of Pixels in Processed Spectrum: 2048
>>>>>Begin Processed Spectral Data<<<<<
178.53	0.000
178.91	0.000
179.29	175.000
179.67	-650.000
180.04	14.286
180.42	125.000
180.80	-800.000
181.18	200.000
181.56	150.000
181.94	0.000
182.31	100.000
182.69	-120.000
183.07	-366.667
183.45	-80.000
183.83	283.333
184.20	-72.727
184.58	233.333
184.96	150.000
185.34	333.333
185.72	-650.000
186.09	123.077
186.47	-1600.000
186.85	166.667
187.23	44.444
187.61	700.000
187.98	-200.000
188.36	11.111
188.74	-233.333
189.12	-11.765
189.49	-16.667
189.87	0.000
190.25	0.000
190.63	-150.000
191.00	-666.667
191.38	0.000
191.76	-50.000
192.14	75.000
192.51	-250.000
192.89	-66.667
193.27	-57.143
193.65	166.667
194.02	200.000
194.40	20.000
194.78	-37.500
195.15	-16.667
195.53	-150.000
195.91	275.000
196.29	-175.000
196.66	107.692
197.04	100.000
197.42	-177.778
197.79	-733.333
198.17	-53.846
198.55	1400.000
198.92	-100.000
199.30	0.000
199.68	40.000
200.05	-300.000
200.43	0.000
200.81	-300.000
201.18	-133.333
201.56	1100.000
201.94	-750.000
202.31	133.333
202.69	-320.000
203.07	175.000
203.44	-200.000
203.82	0.000
204.19	-21.429
204.57	-700.000
204.95	12.500
205.32	-110.000
205.70	-42.857
206.08	150.000
206.45	255.556
206.83	71.429
207.20	-142.857
207.58	1300.000
207.96	-533.333
208.33	0.000
208.71	-350.000
209.08	-266.667
209.46	-900.000
209.84	-220.000
210.21	-1100.000
210.59	-42.857
210.96	-183.333
211.34	-250.000
211.71	-6.667
212.09	-100.000
212.46	-1800.000
212.84	0.000
213.22	10.000
213.59	400.000
213.97	69.231
214.34	-45.455
214.72	-16.667
215.09	675.000
215.47	-15.385
215.84	-90.909
216.22	-500.000
216.59	0.000
216.97	-50.000
217.34	-100.000
217.72	-140.000
218.09	-25.000
218.47	75.000
218.84	-200.000
219.22	-88.889
219.59	-280.000
219.97	200.000
220.34	25.000
220.72	-42.857
221.09	-250.000
221.47	0.000
221.84	-600.000
222.22	-650.000
222.59	0.000
222.97	-8.333
223.34	-233.333
223.72	-28.571
224.09	14.286
224.46	-7.143
224.84	333.333
225.21	-30.000
225.59	26.667
225.96	-550.000
226.34	125.000
226.71	-85.714
227.08	-183.333
227.46	-137.500
227.83	-500.000
228.21	66.667
228.58	63.636
228.95	-112.500
229.33	120.000
229.70	6.250
230.08	25.000
230.45	-114.286
230.82	-42.857
231.20	-46.667
231.57	-28.571
231.95	-142.857
232.32	-60.000
232.69	-35.714
233.07	-300.000
233.44	0.000
233.81	10.000
234.19	-44.444
234.56	-23.529
234.93	450.000
235.31	25.000
235.68	-360.000
236.05	0.000
236.43	-20.000
236.80	17.647
237.17	-6.250
237.55	-45.000
237.92	-7.407
238.29	25.000
238.67	-30.000
239.04	5.882
239.41	-14.634
239.79	-63.333
240.16	-14.634
240.53	-21.053
240.91	-34.783
241.28	-9.524
241.65	1.786
242.02	-8.219
242.40	1.667
242.77	-3.390
243.14	-12.121
243.51	-1.250
243.89	6.897
244.26	-13.793
244.63	1.190
245.00	5.155
245.38	-3.093
245.75	-19.101
246.12	-8.621
246.49	-4.132
246.87	6.731
247.24	2.521
247.61	-8.772
247.98	-4.065
248.36	3.125
248.73	-0.658
249.10	-6.494
249.47	-3.797
249.84	-2.614
250.22	1.176
250.59	-3.922
250.96	6.103
251.33	-9.302
251.70	-0.588
252.08	4.061
252.45	-0.990
252.82	-1.508
253.19	-1.382
253.56	-5.140
253.94	1.351
254.31	1.304
254.68	-0.877
255.05	-1.181
255.42	-5.240
255.79	1.158
256.16	0.778
256.54	4.104
256.91	2.281
257.28	0.372
257.65	-2.247
258.02	-3.546
258.39	2.357
258.76	-0.366
259.14	1.329
259.51	-0.647
259.88	-3.093
260.25	-0.654
260.62	-2.083
260.99	1.356
261.36	-0.685
261.73	0.949
262.10	2.128
262.47	-1.840
262.85	0.000
263.22	0.000
263.59	-0.935
263.96	2.174
264.33	-0.606
264.70	-1.488
265.07	-1.190
265.44	1.700
265.81	0.565
266.18	0.546
266.55	2.571
266.92	2.332
267.29	1.828
267.66	-0.512
268.03	3.927
268.40	1.305
268.77	4.545
269.14	0.000
269.51	2.314
269.88	0.998
270.25	-0.765
270.62	-1.707
270.99	0.767
271.36	-1.956
271.73	2.347
272.10	-1.703
272.47	0.000
272.84	0.990
273.21	5.336
273.58	2.651
273.95	4.577
274.32	-2.771
274.69	-1.131
275.06	3.348
275.43	0.227
275.80	3.091
276.17	-0.230
276.54	1.071
276.91	1.316
277.28	0.655
277.65	1.240
278.02	1.277
278.39	0.219
278.76	-1.048
279.13	-0.830
279.50	1.471
279.87	1.944
280.23	-0.215
280.60	2.534
280.97	0.202
281.34	-0.769
281.71	4.107
282.08	0.204
282.45	-0.196
282.82	-0.386
283.19	0.774
283.56	-1.156
283.92	0.000
284.29	-0.192
284.66	0.388
285.03	0.982
285.40	1.134
285.77	-1.230
286.14	-0.361
286.51	1.661
286.87	0.000
287.24	2.578
287.61	-0.882
287.98	1.404
288.35	1.733
288.72	1.576
289.08	-1.042
289.45	1.230
289.82	3.147
290.19	-0.512
290.56	0.343
290.93	-0.842
291.29	0.924
291.66	1.417
292.03	0.797
292.40	0.161
292.77	1.276
293.13	-1.461
293.50	0.303
293.87	0.916
294.24	1.082
294.60	-0.745
294.97	1.042
295.34	0.460
295.71	0.149
296.08	1.345
296.44	-0.996
296.81	0.972
297.18	0.145
297.55	1.355
297.91	1.370
298.28	1.583
298.65	0.407
299.02	1.078
299.38	-1.642
299.75	0.414
300.12	-0.393
300.48	0.000
300.85	1.521
301.22	-0.130
301.59	0.263
301.95	0.759
302.32	1.427
302.69	1.244
303.05	0.124
303.42	1.245
303.79	1.051
304.15	1.912
304.52	0.119
304.89	-0.351
305.25	0.363
305.62	0.467
305.99	-0.702
306.35	0.578
306.72	0.000
307.09	1.254
307.45	1.148
307.82	0.579
308.19	1.742
308.55	1.636
308.92	1.307
309.29	-0.112
309.65	2.153
310.02	0.440
310.38	2.305
310.75	1.202
311.12	-0.431
311.48	1.273
311.85	0.314
312.22	0.105
312.58	1.486
312.95	1.814
313.31	0.828
313.68	0.838
314.05	0.816
314.41	1.856
314.78	1.649
315.14	1.953
315.51	2.277
315.87	2.459
316.24	3.539
316.61	3.248
316.97	3.472
317.34	4.590
317.70	4.207
318.07	4.808
318.43	4.020
318.80	4.830
319.16	5.664
319.53	5.508
319.89	5.413
320.26	5.972
320.62	7.623
320.99	8.038
321.35	7.708
321.72	9.969
322.08	9.668
322.45	10.254
322.81	11.198
323.18	11.384
323.54	11.680
323.91	13.437
324.27	15.430
324.64	15.824
325.00	15.785
325.37	17.264
325.73	17.135
326.10	19.255
326.46	21.704
326.83	20.297
327.19	22.406
327.56	23.545
327.92	25.000
328.29	22.589
328.65	26.792
329.01	25.827
329.38	27.742
329.74	26.440
330.11	29.194
330.47	28.664
330.84	29.904
331.20	33.650
331.56	30.185
331.93	32.055
332.29	31.622
332.66	33.846
333.02	33.457
333.38	33.364
333.75	35.714
334.11	32.945
334.48	35.811
334.84	36.722
335.20	36.322
335.57	36.809
335.93	37.398
336.29	38.858
336.66	37.784
337.02	38.197
337.38	37.037
337.75	38.727
338.11	39.315
338.47	39.964
338.84	40.850
339.20	40.585
339.56	40.642
339.93	39.928
340.29	41.009
340.65	40.591
341.02	41.755
341.38	40.973
341.74	40.194
342.11	42.028
342.47	41.637
342.83	41.003
343.20	42.509
343.56	42.522
343.92	42.161
344.28	44.236
344.65	42.832
345.01	43.907
345.37	42.977
345.73	43.933
346.10	44.607
346.46	45.080
346.82	41.899
347.19	44.638
347.55	45.363
347.91	45.227
348.27	43.654
348.63	47.189
349.00	43.314
349.36	44.722
349.72	45.688
350.08	46.721
350.45	45.172
350.81	45.598
351.17	45.033
351.53	46.857
351.89	44.591
352.26	47.600
352.62	47.016
352.98	46.426
353.34	45.008
353.70	47.330
354.07	45.645
354.43	47.158
354.79	47.069
355.15	47.302
355.51	47.785
355.87	48.301
356.24	48.206
356.60	45.998
356.96	48.810
357.32	47.843
357.68	48.006
358.04	47.981
358.40	47.910
358.77	49.442
359.13	50.120
359.49	47.227
359.85	49.532
360.21	49.282
360.57	49.273
360.93	48.714
361.29	49.849
361.66	50.235
362.02	50.227
362.38	51.790
362.74	50.416
363.10	51.392
363.46	51.594
363.82	50.338
364.18	50.406
364.54	51.250
364.90	50.394
365.26	50.291
365.62	51.971
365.98	51.686
366.35	51.712
366.71	52.328
367.07	51.089
367.43	51.761
367.79	51.943
368.15	51.113
368.51	53.168
368.87	52.118
369.23	51.191
369.59	52.915
369.95	52.273
370.31	51.373
370.67	52.910
371.03	53.249
371.39	51.787
371.75	53.919
372.11	52.282
372.47	53.550
372.83	52.732
373.19	51.569
373.55	52.202
373.91	52.844
374.27	52.658
374.63	53.266
374.99	53.333
375.35	52.994
375.71	52.937
376.07	54.424
376.42	52.041
376.78	53.557
377.14	53.351
377.50	53.586
377.86	52.945
378.22	53.159
378.58	54.487
378.94	54.505
379.30	53.587
379.66	53.981
380.02	52.361
380.38	52.465
380.74	53.321
381.09	54.110
381.45	53.700
381.81	54.473
382.17	53.046
382.53	53.154
382.89	54.677
383.25	55.134
383.61	53.476
383.97	54.540
384.32	53.158
384.68	53.003
385.04	53.431
385.40	53.703
385.76	54.088
386.12	54.075
386.48	55.300
386.83	52.822
387.19	54.518
387.55	54.266
387.91	54.218
388.27	52.869
388.62	54.311
388.98	54.328
389.34	53.779
389.70	55.935
390.06	52.738
390.42	53.951
390.77	53.891
391.13	53.342
391.49	54.075
391.85	54.646
392.20	53.672
392.56	52.320
392.92	53.200
393.28	52.830
393.64	53.333
393.99	54.608
394.35	52.815
394.71	53.831
395.07	53.426
395.42	52.823
395.78	52.964
396.14	53.594
396.50	53.012
396.85	53.187
397.21	52.757
397.57	51.411
397.92	53.086
398.28	53.678
398.64	51.687
399.00	53.330
399.35	52.370
399.71	52.556
400.07	53.144
400.42	52.081
400.78	54.011
401.14	52.874
401.49	52.174
401.85	51.920
402.21	51.325
402.57	52.375
402.92	50.816
403.28	52.444
403.63	52.459
403.99	52.551
404.35	52.655
404.70	50.119
405.06	50.823
405.42	51.896
405.77	52.237
406.13	52.095
406.49	51.451
406.84	52.506
407.20	51.896
407.55	49.839
407.91	51.604
408.27	50.733
408.62	51.569
408.98	50.154
409.34	51.549
409.69	50.646
410.05	50.308
410.40	50.802
410.76	50.483
411.11	50.938
411.47	50.427
411.83	49.843
412.18	51.094
412.54	49.438
412.89	49.261
413.25	49.940
413.60	48.634
413.96	48.957
414.31	49.817
414.67	50.417
415.03	49.601
415.38	50.326
415.74	50.684
416.09	50.033
416.45	50.034
416.80	49.042
417.16	50.345
417.51	50.633
417.87	49.348
418.22	49.870
418.58	48.896
418.93	48.589
419.29	47.631
419.64	49.320
420.00	49.118
420.35	48.060
420.71	48.299
421.06	49.724
421.42	47.596
421.77	47.803
422.12	49.035
422.48	48.511
422.83	48.434
423.19	47.743
423.54	47.208
423.90	47.880
424.25	48.565
424.61	47.001
424.96	47.909
425.31	48.816
425.67	49.120
426.02	48.704
426.38	48.716
426.73	48.184
427.09	47.911
427.44	48.471
427.79	47.613
428.15	48.058
428.50	47.789
428.85	47.174
429.21	47.482
429.56	47.925
429.92	46.430
430.27	45.815
430.62	46.367
430.98	47.452
431.33	46.688
431.68	45.788
432.04	46.954
432.39	46.207
432.74	46.182
433.10	47.701
433.45	46.416
433.80	46.605
434.16	45.042
434.51	47.151
434.86	46.748
435.22	45.990
435.57	46.351
435.92	46.108
436.28	45.200
436.63	46.435
436.98	44.380
437.34	44.828
437.69	46.869
438.04	45.698
438.39	44.716
438.75	46.691
439.10	46.463
439.45	45.040
439.81	45.076
440.16	45.368
440.51	45.612
440.86	48.459
441.22	45.023
441.57	45.254
441.92	45.908
442.27	46.009
442.63	44.968
442.98	45.663
443.33	44.519
443.68	44.297
444.03	44.958
444.39	44.417
444.74	46.321
445.09	46.269
445.44	44.558
445.79	44.817
446.15	44.163
446.50	44.426
446.85	44.846
447.20	43.691
447.55	45.145
447.91	43.768
448.26	44.508
448.61	45.250
448.96	44.521
449.31	44.046
449.66	43.844
450.02	43.297
450.37	44.458
450.72	42.440
451.07	44.620
451.42	42.946
451.77	43.279
452.12	42.105
452.47	43.142
452.83	44.111
453.18	42.948
453.53	43.236
453.88	42.927
454.23	43.331
454.58	43.640
454.93	43.621
455.28	42.222
455.63	43.087
455.98	43.175
456.34	43.359
456.69	42.630
457.04	42.785
457.39	42.041
457.74	42.443
458.09	41.848
458.44	42.130
458.79	41.232
459.14	42.677
459.49	42.925
459.84	42.245
460.19	41.808
460.54	41.259
460.89	42.045
461.24	41.366
461.59	41.330
461.94	40.692
462.29	41.737
462.64	41.329
462.99	42.722
463.34	40.890
463.69	40.669
464.04	42.010
464.39	40.570
464.74	40.123
465.09	40.861
465.44	41.027
465.79	39.909
466.14	40.935
466.49	40.426
466.84	40.095
467.19	41.427
467.54	39.655
467.89	40.114
468.24	40.633
468.59	39.683
468.94	39.238
469.29	39.279
469.64	40.807
469.99	40.224
470.34	39.727
470.68	40.492
471.03	39.207
471.38	40.086
471.73	40.126
472.08	39.077
472.43	39.799
472.78	39.548
473.13	39.796
473.48	39.023
473.83	39.103
474.17	40.155
474.52	38.928
474.87	40.727
475.22	38.316
475.57	38.566
475.92	38.947
476.27	39.523
476.61	38.542
476.96	38.260
477.31	39.156
477.66	37.640
478.01	38.798
478.36	38.344
478.70	38.499
479.05	38.681
479.40	38.580
479.75	38.113
480.10	37.583
480.45	37.700
480.79	39.225
481.14	38.781
481.49	36.700
481.84	37.452
482.19	37.044
482.53	37.362
482.88	37.709
483.23	36.900
483.58	37.170
483.92	36.786
484.27	36.509
484.62	37.158
484.97	36.070
485.31	35.766
485.66	34.686
486.01	34.649
486.36	34.301
486.70	35.279
487.05	35.828
487.40	35.522
487.75	35.408
488.09	34.951
488.44	35.695
488.79	35.674
489.13	35.256
489.48	36.212
489.83	36.099
490.17	35.506
490.52	35.520
490.87	35.447
491.22	36.103
491.56	35.152
491.91	34.943
492.26	35.683
492.60	35.653
492.95	35.908
493.30	35.760
493.64	36.493
493.99	34.976
494.34	34.466
494.68	35.619
495.03	34.599
495.37	35.132
495.72	35.437
496.07	35.122
496.41	34.151
496.76	34.823
497.11	33.489
497.45	34.558
497.80	35.621
498.14	35.022
498.49	33.875
498.84	34.032
499.18	34.488
499.53	34.276
499.87	33.366
500.22	34.075
500.56	33.888
500.91	34.639
501.26	34.157
501.60	33.153
501.95	34.110
502.29	32.785
502.64	33.736
502.98	34.090
503.33	34.006
503.67	33.494
504.02	33.529
504.36	34.240
504.71	33.333
505.06	32.964
505.40	33.147
505.75	33.557
506.09	33.097
506.44	33.522
506.78	32.551
507.13	32.575
507.47	32.689
507.82	33.013
508.16	32.594
508.51	32.634
508.85	32.967
509.19	31.879
509.54	31.796
509.88	31.931
510.23	32.706
510.57	32.817
510.92	30.810
511.26	32.242
511.61	32.838
511.95	32.110
512.30	32.095
512.64	31.664
512.98	31.668
513.33	32.121
513.67	31.325
514.02	32.666
514.36	32.171
514.70	32.925
515.05	32.315
515.39	31.700
515.74	32.216
516.08	31.381
516.42	32.450
516.77	33.060
517.11	31.869
517.46	32.496
517.80	32.360
518.14	31.721
518.49	30.469
518.83	32.199
519.17	31.716
519.52	30.965
519.86	30.972
520.20	30.863
520.55	30.644
520.89	31.556
521.23	31.602
521.58	32.366
521.92	30.833
522.26	31.945
522.61	31.169
522.95	31.854
523.29	32.402
523.64	32.084
523.98	31.173
524.32	30.284
524.66	30.538
525.01	30.649
525.35	31.108
525.69	29.562
526.04	30.489
526.38	31.907
526.72	30.412
527.06	30.480
527.41	30.541
527.75	29.290
528.09	30.764
528.43	31.533
528.78	29.241
529.12	29.290
529.46	28.915
529.80	29.766
530.15	30.363
530.49	30.168
530.83	30.848
531.17	29.819
531.51	30.233
531.86	29.436
532.20	30.271
532.54	29.816
532.88	29.637
533.22	30.040
533.57	29.292
533.91	28.133
534.25	29.883
534.59	28.865
534.93	28.508
535.27	28.046
535.62	29.034
535.96	28.898
536.30	29.749
536.64	29.359
536.98	27.526
537.32	29.018
537.66	29.593
538.01	29.371
538.35	28.363
538.69	28.762
539.03	27.956
539.37	27.658
539.71	28.357
540.05	28.853
540.39	29.501
540.73	29.149
541.07	27.555
541.42	29.368
541.76	29.456
542.10	27.254
542.44	28.700
542.78	26.979
543.12	28.091
543.46	28.512
543.80	27.620
544.14	27.570
544.48	27.715
544.82	27.136
545.16	29.303
545.50	27.503
545.84	28.683
546.18	28.865
546.52	28.118
546.86	28.325
547.20	28.398
547.54	26.643
547.88	26.834
548.22	26.627
548.56	27.770
548.90	26.887
549.24	26.860
549.58	27.856
549.92	26.162
550.26	27.692
550.60	27.509
550.94	28.006
551.28	28.130
551.62	27.308
551.96	26.617
552.30	26.901
552.64	25.670
552.98	26.160
553.32	27.318
553.66	26.415
554.00	26.569
554.34	26.957
554.68	25.959
555.02	27.009
555.36	26.477
555.69	25.788
556.03	24.911
556.37	25.979
556.71	25.921
557.05	26.249
557.39	24.907
557.73	26.537
558.07	26.395
558.41	26.417
558.75	26.734
559.08	25.138
559.42	26.111
559.76	26.181
560.10	25.765
560.44	25.689
560.78	25.385
561.12	24.612
561.45	26.423
561.79	25.000
562.13	25.976
562.47	24.820
562.81	26.729
563.15	26.728
563.48	26.025
563.82	25.326
564.16	25.418
564.50	24.122
564.84	26.037
565.17	24.547
565.51	25.137
565.85	25.240
566.19	25.796
566.52	25.402
566.86	24.679
567.20	24.907
567.54	24.878
567.88	24.487
568.21	24.378
568.55	24.293
568.89	25.000
569.23	24.314
569.56	23.730
569.90	23.914
570.24	23.818
570.57	22.655
570.91	23.667
571.25	22.887
571.59	22.423
571.92	22.489
572.26	22.011
572.60	22.512
572.93	22.529
573.27	22.539
573.61	22.285
573.95	22.037
574.28	21.849
574.62	21.714
574.96	21.865
575.29	21.302
575.63	21.379
575.97	21.713
576.30	21.170
576.64	21.113
576.98	21.776
577.31	21.430
577.65	21.812
577.98	21.682
578.32	21.251
578.66	20.954
578.99	20.753
579.33	21.284
579.67	21.347
580.00	21.215
580.34	21.493
580.67	21.167
581.01	20.749
581.35	21.339
581.68	20.606
582.02	20.609
582.35	20.631
582.69	20.997
583.02	20.957
583.36	20.937
583.70	21.625
584.03	21.740
584.37	22.078
584.70	21.071
585.04	20.207
585.37	20.934
585.71	20.588
586.04	20.777
586.38	20.699
586.72	20.660
587.05	20.971
587.39	20.939
587.72	21.077
588.06	20.786
588.39	20.649
588.73	21.154
589.06	21.070
589.40	20.878
589.73	21.796
590.07	21.186
590.40	21.478
590.73	21.870
591.07	20.908
591.40	20.659
591.74	21.493
592.07	21.104
592.41	21.422
592.74	20.908
593.08	20.433
593.41	20.527
593.75	19.954
594.08	19.945
594.41	20.924
594.75	20.305
595.08	20.356
595.42	20.537
595.75	20.391
596.09	21.032
596.42	20.091
596.75	20.870
597.09	20.774
597.42	20.912
597.75	20.385
598.09	19.602
598.42	20.713
598.76	20.506
599.09	20.152
599.42	20.008
599.76	19.865
600.09	19.457
600.42	19.977
600.76	19.837
601.09	19.618
601.42	19.898
601.76	20.127
602.09	19.678
602.42	20.472
602.76	20.161
603.09	20.598
603.42	20.694
603.76	19.718
604.09	20.292
604.42	20.178
604.76	20.650
605.09	20.384
605.42	19.955
605.75	19.702
606.09	18.769
606.42	19.141
606.75	19.134
607.09	19.912
607.42	19.229
607.75	18.917
608.08	19.137
608.42	18.958
608.75	19.759
609.08	20.229
609.41	19.949
609.75	20.212
610.08	19.571
610.41	18.647
610.74	19.259
611.07	19.793
611.41	20.291
611.74	20.309
612.07	19.593
612.40	19.748
612.73	19.548
613.07	19.629
613.40	20.241
613.73	19.530
614.06	20.367
614.39	20.079
614.72	19.608
615.06	19.609
615.39	18.450
615.72	17.761
616.05	19.665
616.38	18.348
616.71	18.838
617.05	19.765
617.38	19.862
617.71	19.937
618.04	19.683
618.37	20.555
618.70	20.462
619.03	20.486
619.36	18.886
619.69	20.697
620.03	20.380
620.36	19.886
620.69	20.128
621.02	19.113
621.35	20.000
621.68	20.153
622.01	20.083
622.34	21.468
622.67	19.874
623.00	20.291
623.33	19.436
623.66	19.297
623.99	19.818
624.32	20.608
624.65	18.346
624.99	19.413
625.32	19.257
625.65	20.110
625.98	19.903
626.31	18.953
626.64	20.537
626.97	21.030
627.30	19.877
627.63	19.671
627.96	19.856
628.29	19.149
628.62	21.534
628.95	20.842
629.28	20.161
629.61	19.541
629.94	20.919
630.26	18.083
630.59	19.979
630.92	21.333
631.25	17.846
631.58	21.696
631.91	20.395
632.24	20.413
632.57	19.773
632.90	20.641
633.23	21.176
633.56	19.647
633.89	21.085
634.22	22.222
634.55	21.347
634.88	19.923
635.20	19.103
635.53	20.933
635.86	18.986
636.19	20.440
636.52	20.918
636.85	18.983
637.18	19.245
637.51	20.377
637.83	20.762
638.16	21.146
638.49	19.755
638.82	22.237
639.15	20.760
639.48	20.908
639.81	20.781
640.13	22.222
640.46	21.866
640.79	19.882
641.12	21.566
641.45	22.673
641.77	19.556
642.10	21.801
642.43	18.971
642.76	22.772
643.09	21.648
643.41	21.036
643.74	19.440
644.07	22.660
644.40	20.777
644.73	21.716
645.05	21.477
645.38	22.046
645.71	20.567
646.04	20.467
646.36	19.858
646.69	22.122
647.02	21.550
647.35	22.575
647.67	21.938
648.00	20.896
648.33	20.137
648.66	20.000
648.98	19.598
649.31	18.843
649.64	19.780
649.96	20.746
650.29	21.124
650.62	20.342
650.94	22.407
651.27	18.808
651.60	19.279
651.92	20.804
652.25	20.249
652.58	18.667
652.90	22.298
653.23	20.168
653.56	19.289
653.88	19.416
654.21	16.637
654.54	19.864
654.86	19.525
655.19	17.690
655.52	19.427
655.84	16.166
656.17	17.636
656.49	23.602
656.82	24.182
657.15	18.608
657.47	14.121
657.80	10.412
658.13	10.403
658.45	16.173
658.78	16.001
659.10	15.909
659.43	16.130
659.75	16.922
660.08	16.552
660.41	16.956
660.73	18.370
661.06	20.277
661.38	18.200
661.71	18.070
662.03	22.103
662.36	18.462
662.68	19.469
663.01	21.397
663.33	18.097
663.66	19.070
663.98	19.302
664.31	19.829
664.63	17.051
664.96	15.435
665.28	16.998
665.61	19.048
665.93	20.000
666.26	19.306
666.58	18.568
666.91	20.471
667.23	20.283
667.56	19.431
667.88	17.266
668.21	20.764
668.53	21.986
668.86	21.226
669.18	19.340
669.50	21.065
669.83	17.442
670.15	22.378
670.48	18.421
670.80	18.433
671.13	17.897
671.45	15.525
671.77	22.961
672.10	19.208
672.42	18.727
672.75	19.183
673.07	20.394
673.39	18.532
673.72	16.568
674.04	17.708
674.37	18.644
674.69	17.987
675.01	18.222
675.34	19.820
675.66	19.907
675.98	20.843
676.31	17.661
676.63	18.765
676.95	17.273
677.28	21.882
677.60	18.554
677.92	18.349
678.25	19.912
678.57	17.100
678.89	19.958
679.22	17.002
679.54	17.068
679.86	16.501
680.18	18.641
680.51	16.477
680.83	17.296
681.15	17.800
681.48	18.033
681.80	19.421
682.12	18.952
682.44	17.155
682.77	16.556
683.09	19.451
683.41	16.818
683.73	16.359
684.06	15.265
684.38	17.204
684.70	20.044
685.02	15.353
685.34	14.822
685.67	16.886
685.99	17.179
686.31	17.345
686.63	17.254
686.96	14.259
687.28	14.545
687.60	17.300
687.92	18.182
688.24	17.540
688.56	17.686
688.89	17.634
689.21	17.556
689.53	16.473
689.85	16.744
690.17	16.071
690.49	19.858
690.82	18.204
691.14	15.714
691.46	16.355
691.78	18.919
692.10	19.570
692.42	16.667
692.74	17.094
693.06	16.441
693.39	14.480
693.71	16.516
694.03	15.012
694.35	14.953
694.67	15.909
694.99	14.099
695.31	18.016
695.63	17.000
695.95	15.909
696.27	17.098
696.59	21.667
696.91	17.087
697.23	15.167
697.56	16.089
697.88	18.710
698.20	13.212
698.52	15.294
698.84	11.244
699.16	15.250
699.48	18.296
699.80	16.129
700.12	18.329
700.44	16.807
700.76	12.791
701.08	16.061
701.40	16.566
701.72	20.679
702.04	15.842
702.36	21.070
702.68	20.721
703.00	17.273
703.32	17.302
703.64	14.972
703.96	17.101
704.28	15.644
704.60	18.413
704.91	17.666
705.23	16.944
705.55	19.435
705.87	19.134
706.19	18.519
706.51	15.808
706.83	18.328
707.15	14.953
707.47	15.126
707.79	14.844
708.11	19.250
708.43	15.750
708.74	17.054
709.06	13.803
709.38	17.431
709.70	15.385
710.02	16.561
710.34	16.099
710.66	15.705
710.98	13.245
711.29	17.377
711.61	15.254
711.93	15.635
712.25	18.900
712.57	16.117
712.89	17.164
713.20	16.609
713.52	16.028
713.84	16.724
714.16	14.777
714.48	16.452
714.80	17.308
715.11	16.109
715.43	13.480
715.75	14.333
716.07	16.611
716.39	16.443
716.70	13.653
717.02	9.542
717.34	13.765
717.66	19.027
717.97	12.609
718.29	13.389
718.61	13.780
718.93	17.829
719.24	18.631
719.56	15.663
719.88	18.557
720.20	10.985
720.51	11.494
720.83	16.216
721.15	15.126
721.46	10.484
721.78	13.834
722.10	16.357
722.42	6.639
722.73	10.204
723.05	15.510
723.37	14.407
723.68	15.315
724.00	10.256
724.32	12.000
724.63	14.091
724.95	12.664
725.27	10.599
725.58	15.678
725.90	9.524
726.22	15.444
726.53	14.915
726.85	14.607
727.16	20.000
727.48	12.146
727.80	14.980
728.11	11.017
728.43	14.118
728.74	10.887
729.06	14.800
729.38	17.293
729.69	10.757
730.01	9.615
730.32	18.284
730.64	14.841
730.96	15.094
731.27	13.667
731.59	14.237
731.90	13.057
732.22	15.457
732.53	19.269
732.85	17.376
733.16	15.825
733.48	16.547
733.80	15.580
734.11	11.186
734.43	13.058
734.74	13.939
735.06	12.704
735.37	16.918
735.69	13.131
736.00	11.847
736.32	14.765
736.63	14.789
736.95	13.311
737.26	13.879
737.58	11.745
737.89	13.187
738.21	11.278
738.52	16.872
738.83	18.777
739.15	12.227
739.46	12.598
739.78	10.256
740.09	13.072
740.41	12.319
740.72	10.236
741.04	12.955
741.35	11.489
741.66	11.374
741.98	8.163
742.29	14.356
742.61	8.377
742.92	8.531
743.23	11.574
743.55	13.122
743.86	9.569
744.18	10.048
744.49	12.766
744.80	14.130
745.12	20.321
745.43	10.244
745.74	16.146
746.06	12.683
746.37	14.136
746.68	13.744
747.00	10.106
747.31	17.413
747.62	9.223
747.94	12.440
748.25	9.406
748.56	15.847
748.88	8.901
749.19	19.681
749.50	16.749
749.82	6.132
750.13	11.468
750.44	10.526
750.75	17.910
751.07	12.774
751.38	17.241
751.69	12.157
752.01	11.628
752.32	15.139
752.63	12.253
752.94	10.345
753.26	18.410
753.57	9.955
753.88	12.389
754.19	9.167
754.51	11.983
754.82	8.907
755.13	15.417
755.44	12.500
755.75	12.500
756.07	15.175
756.38	12.830
756.69	9.195
757.00	8.333
757.31	12.092
757.63	8.232
757.94	12.500
758.25	11.233
758.56	13.032
758.87	9.065
759.18	13.084
759.50	10.182
759.81	17.726
760.12	14.839
760.43	12.424
760.74	12.346
761.05	7.692
761.36	11.932
761.67	12.727
761.99	11.905
762.30	8.000
762.61	13.043
762.92	12.670
763.23	15.766
763.54	14.019
763.85	11.017
764.16	12.033
764.47	9.677
764.78	10.623
765.10	12.795
765.41	14.826
765.72	11.111
766.03	9.398
766.34	12.409
766.65	15.139
766.96	13.636
767.27	9.574
767.58	9.195
767.89	6.383
768.20	8.523
768.51	7.692
768.82	10.837
769.13	9.217
769.44	9.013
769.75	10.046
770.06	11.207
770.37	16.827
770.68	10.152
770.99	9.502
771.30	9.804
771.61	9.502
771.92	15.517
772.23	15.271
772.54	12.903
772.85	14.198
773.16	14.607
773.47	16.340
773.78	7.843
774.09	5.988
774.39	7.333
774.70	12.739
775.01	18.621
775.32	8.571
775.63	8.264
775.94	4.580
776.25	13.386
776.56	8.333
776.87	4.808
777.18	0.000
777.48	11.207
777.79	1.739
778.10	2.857
778.41	5.405
778.72	9.524
779.03	6.015
779.34	11.348
779.65	13.014
779.95	4.795
780.26	11.724
780.57	-4.065
780.88	10.236
781.19	0.000
781.50	13.953
781.80	8.876
782.11	3.774
782.42	10.000
782.73	12.230
783.04	14.074
783.34	10.417
783.65	-5.128
783.96	4.918
784.27	15.862
784.57	8.130
784.88	8.594
785.19	16.000
785.50	9.000
785.81	10.345
786.11	1.724
786.42	10.680
786.73	16.364
787.04	-2.041
787.34	11.607
787.65	14.286
787.96	7.080
788.26	-2.727
788.57	7.692
788.88	14.844
789.19	1.587
789.49	0.870
789.80	5.102
790.11	1.010
790.41	4.545
790.72	13.043
791.03	17.045
791.33	8.750
791.64	0.000
791.95	3.488
792.25	8.511
792.56	14.607
792.87	9.589
793.17	-1.449
793.48	-10.667
793.79	3.750
794.09	17.500
794.40	5.660
794.70	2.913
795.01	-6.504
795.32	11.111
795.62	2.857
795.93	4.902
796.23	18.868
796.54	17.708
796.85	11.765
797.15	9.859
797.46	26.389
797.76	4.545
798.07	1.163
798.37	-11.842
798.68	4.545
798.99	1.235
799.29	8.571
799.60	7.246
799.90	14.667
800.21	19.672
800.51	15.385
800.82	-6.780
801.12	11.594
801.43	14.754
801.73	23.810
802.04	18.000
802.34	-5.970
802.65	1.923
802.95	-3.571
803.26	-3.846
803.56	5.882
803.87	-2.174
804.17	0.000
804.48	14.286
804.78	11.111
805.09	0.000
805.39	26.667
805.70	0.000
806.00	3.509
806.30	4.225
806.61	7.143
806.91	-6.944
807.22	22.368
807.52	17.333
807.83	-18.182
808.13	0.000
808.43	14.706
808.74	-8.955
809.04	0.000
809.35	11.538
809.65	23.437
809.95	-13.514
810.26	-4.545
810.56	12.329
810.86	26.190
811.17	6.000
811.47	2.041
811.77	-23.684
812.08	-40.909
812.38	13.208
812.69	15.000
812.99	-21.212
813.29	-13.158
813.59	-22.857
813.90	4.545
814.20	-20.513
814.50	3.846
814.81	26.415
815.11	-21.277
815.41	25.424
815.72	2.381
816.02	9.804
816.32	-4.167
816.62	-14.634
816.93	-21.622
817.23	-5.714
817.53	14.583
817.84	26.087
818.14	9.615
818.44	-10.526
818.74	2.174
819.04	-30.000
819.35	-16.216
819.65	-11.765
819.95	11.111
820.25	-19.048
820.56	15.000
820.86	-55.172
821.16	22.500
821.46	27.660
821.76	17.500
822.07	34.884
822.37	-35.135
822.67	6.250
822.97	0.000
823.27	-28.571
823.57	-20.000
823.88	-44.444
824.18	-14.286
824.48	5.882
824.78	0.000
825.08	13.043
825.38	18.182
825.69	-66.667
825.99	2.632
826.29	-30.556
826.59	-60.000
826.89	-95.238
827.19	2.174
827.49	2.500
827.79	2.857
828.09	7.143
828.39	-3.030
828.70	18.919
829.00	0.000
829.30	4.762
829.60	16.667
829.90	-3.125
830.20	-15.789
830.50	-48.148
830.80	-39.130
831.10	-4.545
831.40	36.364
831.70	29.032
832.00	38.095
832.30	-66.667
832.60	-75.000
832.90	-13.793
833.20	-50.000
833.50	3.030
833.80	-33.333
834.10	-7.692
834.40	34.375
834.70	-188.889
835.00	-52.632
835.30	11.538
835.60	-40.000
835.90	3.226
836.20	-4.545
836.50	10.714
836.80	-30.769
837.10	-3.571
837.40	-533.333
837.70	9.091
838.00	-81.818
838.30	-34.783
838.60	7.692
838.90	-18.182
839.19	-7.143
839.49	73.333
839.79	-38.462
840.09	-100.000
840.39	7.143
840.69	-3.571
840.99	-38.462
841.29	-73.684
841.59	-120.000
841.88	-36.364
842.18	-30.000
842.48	43.750
842.78	-33.333
843.08	-37.037
843.38	-90.000
843.68	-4.348
843.97	-20.000
844.27	-26.667
844.57	-15.000
844.87	-5.556
845.17	-19.048
845.47	-33.333
845.76	-14.286
846.06	11.765
846.36	50.000
846.66	-100.000
846.96	13.333
847.25	-175.000
847.55	50.000
847.85	-62.500
848.15	-22.727
848.44	-500.000
848.74	-5.000
849.04	3.704
849.34	-18.182
849.63	-166.667
849.93	-240.000
850.23	-50.000
850.53	40.000
850.82	23.077
851.12	-111.111
851.42	40.000
851.71	0.000
852.01	-21.429
852.31	-100.000
852.61	-18.182
852.90	30.000
853.20	-42.105
853.50	-66.667
853.79	-4.348
854.09	8.333
854.39	-5.263
854.68	-20.833
854.98	6.452
855.28	-7.692
855.57	-30.000
855.87	-66.667
856.17	48.148
856.46	-21.429
856.76	-53.333
857.05	0.000
857.35	-12.000
857.65	11.111
857.94	-53.846
858.24	37.931
858.53	-22.222
858.83	44.444
859.13	-18.182
859.42	-47.826
859.72	-100.000
860.01	-533.333
860.31	-4.000
860.60	-33.333
860.90	-300.000
861.20	-106.667
861.49	-1050.000
861.79	-20.000
862.08	-15.000
862.38	20.000
862.67	-340.000
862.97	-33.333
863.26	-91.667
863.56	50.000
863.85	-600.000
864.15	5.556
864.44	-60.000
864.74	-42.857
865.03	575.000
865.33	-280.000
865.62	33.333
865.92	-58.333
866.21	-150.000
866.51	6.250
866.80	-127.273
867.10	-300.000
867.39	0.000
867.69	0.000
867.98	-38.462
868.27	-433.333
868.57	-93.333
868.86	-5.556
869.16	-76.923
869.45	13.333
869.75	-1000.000
870.04	0.000
870.33	-142.857
870.63	33.333
870.92	500.000
871.22	-120.000
871.51	-600.000
871.80	-11.111
872.10	800.000
>>>>>End Processed Spectral Data<<<<<
