SpectraSuite Data File
++++++++++++++++++++++++++++++++++++
Date: Fri May 15 20:37:05 PDT 2015
User: schluterlab
Dark Spectrum Present: Yes
Reference Spectrum Present: Yes
Number of Sampled Component Spectra: 1
Spectrometers: USB2E3373
Integration Time (usec): 3000 (USB2E3373)
Spectra Averaged: 3 (USB2E3373)
Boxcar Smoothing: 0 (USB2E3373)
Correct for Electrical Dark: No (USB2E3373)
Strobe/Lamp Enabled: No (USB2E3373)
Correct for Detector Non-linearity: No (USB2E3373)
Correct for Stray Light: No (USB2E3373)
Number of Pixels in Processed Spectrum: 2048
>>>>>Begin Processed Spectral Data<<<<<
178.53	0.000
178.91	0.000
179.29	-37.500
179.67	-500.000
180.04	-114.286
180.42	50.000
180.80	-300.000
181.18	166.667
181.56	150.000
181.94	-150.000
182.31	-100.000
182.69	0.000
183.07	-433.333
183.45	-140.000
183.83	233.333
184.20	9.091
184.58	122.222
184.96	-125.000
185.34	400.000
185.72	-400.000
186.09	53.846
186.47	-1200.000
186.85	83.333
187.23	66.667
187.61	-700.000
187.98	-200.000
188.36	-33.333
188.74	-333.333
189.12	0.000
189.49	33.333
189.87	0.000
190.25	121.429
190.63	400.000
191.00	-33.333
191.38	0.000
191.76	0.000
192.14	-125.000
192.51	300.000
192.89	-44.444
193.27	-85.714
193.65	33.333
194.02	109.091
194.40	-60.000
194.78	-162.500
195.15	-25.000
195.53	-137.500
195.91	350.000
196.29	-300.000
196.66	123.077
197.04	214.286
197.42	-11.111
197.79	-366.667
198.17	-84.615
198.55	2000.000
198.92	-166.667
199.30	-900.000
199.68	-160.000
200.05	-200.000
200.43	0.000
200.81	-266.667
201.18	200.000
201.56	900.000
201.94	-350.000
202.31	-100.000
202.69	-140.000
203.07	150.000
203.44	0.000
203.82	0.000
204.19	14.286
204.57	-566.667
204.95	50.000
205.32	-20.000
205.70	-142.857
206.08	-25.000
206.45	55.556
206.83	50.000
207.20	-128.571
207.58	1000.000
207.96	-266.667
208.33	-140.000
208.71	-125.000
209.08	-100.000
209.46	-100.000
209.84	-240.000
210.21	-1400.000
210.59	0.000
210.96	-133.333
211.34	-325.000
211.71	53.333
212.09	-200.000
212.46	-900.000
212.84	0.000
213.22	50.000
213.59	450.000
213.97	76.923
214.34	36.364
214.72	-150.000
215.09	350.000
215.47	-38.462
215.84	-63.636
216.22	-233.333
216.59	-25.000
216.97	250.000
217.34	25.000
217.72	-280.000
218.09	75.000
218.47	187.500
218.84	-800.000
219.22	-166.667
219.59	-80.000
219.97	466.667
220.34	275.000
220.72	57.143
221.09	-275.000
221.47	250.000
221.84	-900.000
222.22	-1150.000
222.59	-81.818
222.97	-25.000
223.34	-166.667
223.72	-35.714
224.09	-14.286
224.46	7.143
224.84	400.000
225.21	60.000
225.59	73.333
225.96	-250.000
226.34	350.000
226.71	-85.714
227.08	-33.333
227.46	-150.000
227.83	-1000.000
228.21	44.444
228.58	0.000
228.95	-150.000
229.33	70.000
229.70	0.000
230.08	-75.000
230.45	-71.429
230.82	0.000
231.20	-13.333
231.57	42.857
231.95	-71.429
232.32	-60.000
232.69	-28.571
233.07	-300.000
233.44	20.000
233.81	-90.000
234.19	-88.889
234.56	0.000
234.93	350.000
235.31	-200.000
235.68	-120.000
236.05	-69.231
236.43	-75.000
236.80	47.059
237.17	21.875
237.55	-5.000
237.92	-14.815
238.29	27.778
238.67	13.333
239.04	20.588
239.41	-17.073
239.79	-20.000
240.16	24.390
240.53	-2.632
240.91	-13.043
241.28	14.286
241.65	8.929
242.02	19.178
242.40	5.000
242.77	1.695
243.14	-6.061
243.51	12.500
243.89	20.690
244.26	-1.149
244.63	8.333
245.00	9.278
245.38	13.402
245.75	-5.618
246.12	2.586
246.49	18.182
246.87	25.962
247.24	5.042
247.61	15.789
247.98	12.195
248.36	13.750
248.73	23.026
249.10	13.636
249.47	15.823
249.84	14.379
250.22	18.235
250.59	18.954
250.96	17.371
251.33	16.279
251.70	15.294
252.08	15.736
252.45	13.861
252.82	16.080
253.19	19.355
253.56	14.019
253.94	12.162
254.31	16.522
254.68	17.544
255.05	17.323
255.42	13.974
255.79	16.216
256.16	15.175
256.54	19.403
256.91	14.068
257.28	14.498
257.65	12.734
258.02	17.376
258.39	20.875
258.76	15.018
259.14	15.282
259.51	17.152
259.88	18.557
260.25	10.784
260.62	19.444
260.99	12.881
261.36	14.384
261.73	17.722
262.10	18.237
262.47	14.110
262.85	19.436
263.22	16.308
263.59	16.822
263.96	16.149
264.33	16.061
264.70	15.179
265.07	14.583
265.44	16.997
265.81	15.537
266.18	14.481
266.55	19.280
266.92	17.876
267.29	15.405
267.66	17.391
268.03	16.230
268.40	12.794
268.77	16.845
269.14	15.588
269.51	17.995
269.88	18.454
270.25	14.031
270.62	15.366
270.99	15.090
271.36	16.381
271.73	16.667
272.10	17.518
272.47	15.603
272.84	18.564
273.21	16.473
273.58	19.518
273.95	19.222
274.32	15.473
274.69	13.801
275.06	19.643
275.43	13.832
275.80	15.673
276.17	14.253
276.54	12.634
276.91	14.693
277.28	14.410
277.65	14.669
278.02	13.830
278.39	15.098
278.76	17.610
279.13	13.278
279.50	15.966
279.87	16.415
280.23	14.839
280.60	17.154
280.97	16.970
281.34	15.000
281.71	16.222
282.08	14.110
282.45	14.873
282.82	16.216
283.19	15.667
283.56	15.029
283.92	14.421
284.29	13.846
284.66	15.891
285.03	15.914
285.40	18.147
285.77	14.236
286.14	14.982
286.51	16.974
286.87	15.722
287.24	15.101
287.61	15.344
287.98	15.263
288.35	13.518
288.72	15.412
289.08	12.500
289.45	14.587
289.82	14.860
290.19	13.481
290.56	13.036
290.93	12.121
291.29	12.943
291.66	11.811
292.03	14.354
292.40	12.097
292.77	13.876
293.13	11.201
293.50	10.774
293.87	11.603
294.24	11.747
294.60	12.370
294.97	12.500
295.34	11.503
295.71	12.966
296.08	13.004
296.44	10.811
296.81	14.444
297.18	11.884
297.55	13.686
297.91	13.425
298.28	13.193
298.65	12.619
299.02	11.051
299.38	8.892
299.75	11.724
300.12	9.948
300.48	10.540
300.85	13.561
301.22	11.039
301.59	11.711
301.95	12.278
302.32	12.322
302.69	10.945
303.05	11.510
303.42	11.582
303.79	10.864
304.15	12.545
304.52	11.653
304.89	10.409
305.25	11.017
305.62	10.152
305.99	11.462
306.35	9.827
306.72	10.686
307.09	9.350
307.45	13.088
307.82	10.301
308.19	10.801
308.55	10.142
308.92	10.240
309.29	9.721
309.65	10.764
310.02	11.221
310.38	11.855
310.75	12.022
311.12	9.257
311.48	9.650
311.85	9.843
312.22	10.021
312.58	10.297
312.95	8.965
313.31	11.698
313.68	10.366
314.05	11.224
314.41	11.340
314.78	10.515
315.14	11.305
315.51	11.905
315.87	10.758
316.24	12.235
316.61	11.024
316.97	12.798
317.34	12.109
317.70	11.568
318.07	11.827
318.43	13.627
318.80	11.837
319.16	14.258
319.53	13.675
319.89	13.287
320.26	13.563
320.62	13.541
320.99	11.900
321.35	13.669
321.72	14.538
322.08	14.703
322.45	15.228
322.81	15.815
323.18	14.917
323.54	15.637
323.91	15.385
324.27	19.043
324.64	17.697
325.00	18.157
325.37	21.028
325.73	18.948
326.10	19.437
326.46	19.013
326.83	19.073
327.19	20.663
327.56	21.373
327.92	23.063
328.29	21.518
328.65	23.962
329.01	23.989
329.38	23.226
329.74	22.946
330.11	23.818
330.47	23.191
330.84	23.654
331.20	25.951
331.56	23.981
331.93	26.849
332.29	26.673
332.66	25.430
333.02	27.323
333.38	26.031
333.75	27.289
334.11	26.321
334.48	26.655
334.84	27.473
335.20	27.264
335.57	25.929
335.93	27.281
336.29	27.532
336.66	25.341
337.02	27.695
337.38	27.222
337.75	28.273
338.11	27.322
338.47	27.372
338.84	27.264
339.20	28.336
339.56	27.798
339.93	28.111
340.29	28.349
340.65	28.315
341.02	28.457
341.38	29.115
341.74	26.678
342.11	28.423
342.47	30.071
342.83	27.855
343.20	28.484
343.56	28.087
343.92	27.901
344.28	29.462
344.65	28.584
345.01	28.781
345.37	28.175
345.73	28.033
346.10	29.249
346.46	29.100
346.82	27.823
347.19	27.431
347.55	27.318
347.91	28.317
348.27	27.405
348.63	27.513
349.00	27.810
349.36	27.681
349.72	28.441
350.08	27.459
350.45	27.454
350.81	27.159
351.17	27.036
351.53	28.163
351.89	27.415
352.26	27.680
352.62	27.097
352.98	28.032
353.34	27.617
353.70	28.155
354.07	27.419
354.43	27.382
354.79	28.076
355.15	27.937
355.51	28.402
355.87	28.479
356.24	26.998
356.60	27.567
356.96	28.333
357.32	28.035
357.68	27.834
358.04	27.383
358.40	27.090
358.77	27.512
359.13	26.982
359.49	26.888
359.85	28.549
360.21	27.512
360.57	27.927
360.93	27.534
361.29	26.737
361.66	27.194
362.02	27.045
362.38	28.789
362.74	26.646
363.10	28.969
363.46	27.650
363.82	28.249
364.18	28.118
364.54	27.353
364.90	27.742
365.26	26.856
365.62	27.956
365.98	26.833
366.35	27.604
366.71	27.938
367.07	27.939
367.43	27.822
367.79	27.420
368.15	27.495
368.51	27.822
368.87	27.638
369.23	28.087
369.59	26.749
369.95	27.859
370.31	26.879
370.67	27.239
371.03	26.886
371.39	26.769
371.75	27.179
372.11	26.819
372.47	28.254
372.83	28.034
373.19	28.174
373.55	27.004
373.91	27.502
374.27	28.561
374.63	27.351
374.99	27.660
375.35	27.507
375.71	28.531
376.07	26.615
376.42	27.075
376.78	27.718
377.14	26.743
377.50	27.357
377.86	27.778
378.22	26.803
378.58	26.859
378.94	27.473
379.30	26.326
379.66	27.210
380.02	27.713
380.38	26.659
380.74	27.110
381.09	26.994
381.45	27.462
381.81	26.897
382.17	26.967
382.53	27.795
382.89	26.805
383.25	27.505
383.61	27.256
383.97	27.746
384.32	26.329
384.68	27.059
385.04	26.593
385.40	26.198
385.76	27.862
386.12	27.426
386.48	27.522
386.83	27.964
387.19	27.778
387.55	27.917
387.91	26.834
388.27	27.350
388.62	27.313
388.98	27.379
389.34	27.295
389.70	26.973
390.06	26.872
390.42	26.813
390.77	27.404
391.13	27.364
391.49	27.102
391.85	27.290
392.20	27.119
392.56	26.383
392.92	26.072
393.28	27.123
393.64	26.366
393.99	27.273
394.35	27.198
394.71	26.628
395.07	26.524
395.42	27.080
395.78	27.166
396.14	26.166
396.50	26.126
396.85	27.238
397.21	26.253
397.57	27.524
397.92	26.663
398.28	27.414
398.64	27.169
399.00	26.072
399.35	26.185
399.71	25.790
400.07	27.328
400.42	27.234
400.78	27.250
401.14	26.316
401.49	26.802
401.85	26.021
402.21	27.289
402.57	26.625
402.92	25.345
403.28	27.130
403.63	26.103
403.99	25.638
404.35	27.420
404.70	26.488
405.06	25.676
405.42	25.855
405.77	25.567
406.13	25.611
406.49	26.051
406.84	26.345
407.20	26.851
407.55	25.435
407.91	25.334
408.27	25.940
408.62	25.969
408.98	26.556
409.34	25.774
409.69	26.034
410.05	24.446
410.40	25.370
410.76	25.935
411.11	25.937
411.47	25.510
411.83	25.863
412.18	26.641
412.54	25.593
412.89	24.631
413.25	25.692
413.60	24.969
413.96	25.399
414.31	25.610
414.67	25.978
415.03	24.767
415.38	25.392
415.74	25.147
416.09	26.911
416.45	25.861
416.80	25.777
417.16	26.036
417.51	25.250
417.87	25.619
418.22	25.648
418.58	25.753
418.93	26.395
419.29	25.288
419.64	25.729
420.00	26.637
420.35	24.358
420.71	25.334
421.06	24.371
421.42	25.841
421.77	24.566
422.12	25.142
422.48	25.501
422.83	24.826
423.19	25.000
423.54	24.515
423.90	24.558
424.25	25.431
424.61	25.704
424.96	24.681
425.31	25.881
425.67	25.000
426.02	26.207
426.38	26.362
426.73	25.363
427.09	25.696
427.44	24.882
427.79	24.750
428.15	25.425
428.50	24.773
428.85	24.509
429.21	25.920
429.56	25.229
429.92	24.910
430.27	24.862
430.62	24.151
430.98	24.575
431.33	25.079
431.68	24.123
432.04	24.762
432.39	24.872
432.74	24.895
433.10	25.805
433.45	24.910
433.80	25.247
434.16	25.097
434.51	24.516
434.86	25.087
435.22	24.902
435.57	25.078
435.92	25.928
436.28	24.150
436.63	24.872
436.98	24.334
437.34	24.077
437.69	25.641
438.04	25.356
438.39	24.863
438.75	25.258
439.10	25.241
439.45	25.624
439.81	25.321
440.16	25.950
440.51	25.194
440.86	26.888
441.22	24.830
441.57	25.386
441.92	25.236
442.27	25.776
442.63	25.321
442.98	24.986
443.33	24.430
443.68	24.668
444.03	25.236
444.39	25.283
444.74	25.864
445.09	26.058
445.44	25.869
445.79	26.147
446.15	25.826
446.50	24.958
446.85	25.505
447.20	25.391
447.55	26.451
447.91	24.873
448.26	26.295
448.61	25.158
448.96	25.186
449.31	24.451
449.66	24.913
450.02	24.701
450.37	25.193
450.72	25.200
451.07	25.759
451.42	25.655
451.77	26.221
452.12	24.880
452.47	25.628
452.83	25.029
453.18	25.806
453.53	25.537
453.88	25.622
454.23	26.306
454.58	26.322
454.93	26.418
455.28	24.952
455.63	26.162
455.98	25.616
456.34	25.479
456.69	24.587
457.04	25.520
457.39	25.273
457.74	25.756
458.09	24.720
458.44	25.336
458.79	25.154
459.14	26.430
459.49	25.254
459.84	25.099
460.19	25.425
460.54	25.489
460.89	25.625
461.24	25.217
461.59	26.128
461.94	24.717
462.29	25.694
462.64	25.050
462.99	25.660
463.34	24.757
463.69	25.032
464.04	25.484
464.39	25.531
464.74	26.074
465.09	24.953
465.44	25.620
465.79	25.000
466.14	24.173
466.49	25.187
466.84	25.996
467.19	26.033
467.54	24.713
467.89	25.205
468.24	25.000
468.59	26.857
468.94	24.508
469.29	26.033
469.64	25.564
469.99	25.648
470.34	25.051
470.68	26.771
471.03	26.044
471.38	25.820
471.73	26.471
472.08	25.170
472.43	25.772
472.78	24.674
473.13	25.646
473.48	25.798
473.83	25.592
474.17	25.972
474.52	25.718
474.87	26.364
475.22	25.625
475.57	24.675
475.92	25.398
476.27	25.669
476.61	25.174
476.96	24.707
477.31	25.690
477.66	24.213
478.01	25.323
478.36	25.054
478.70	25.884
479.05	25.604
479.40	25.808
479.75	25.026
480.10	24.629
480.45	25.350
480.79	25.629
481.14	25.666
481.49	24.680
481.84	24.421
482.19	24.836
482.53	25.612
482.88	25.060
483.23	24.472
483.58	25.425
483.92	25.121
484.27	24.886
484.62	24.832
484.97	23.383
485.31	23.772
485.66	22.246
486.01	22.078
486.36	21.349
486.70	22.144
487.05	22.225
487.40	22.596
487.75	23.042
488.09	23.115
488.44	23.384
488.79	23.683
489.13	24.239
489.48	23.899
489.83	24.574
490.17	24.360
490.52	24.665
490.87	24.618
491.22	25.167
491.56	24.953
491.91	25.096
492.26	25.328
492.60	25.528
492.95	25.775
493.30	23.937
493.64	25.147
493.99	25.314
494.34	24.272
494.68	24.762
495.03	24.428
495.37	25.613
495.72	24.129
496.07	25.073
496.41	24.387
496.76	24.321
497.11	24.499
497.45	24.296
497.80	25.479
498.14	25.087
498.49	24.733
498.84	24.950
499.18	24.649
499.53	24.653
499.87	23.638
500.22	25.272
500.56	25.315
500.91	23.494
501.26	24.666
501.60	23.906
501.95	24.600
502.29	24.939
502.64	24.566
502.98	24.420
503.33	23.679
503.67	24.482
504.02	24.682
504.36	24.443
504.71	24.343
505.06	24.006
505.40	25.076
505.75	24.897
506.09	23.923
506.44	25.154
506.78	25.255
507.13	25.957
507.47	23.969
507.82	24.145
508.16	24.881
508.51	24.974
508.85	24.333
509.19	24.481
509.54	24.504
509.88	24.811
510.23	24.798
510.57	24.800
510.92	23.134
511.26	24.877
511.61	25.303
511.95	24.932
512.30	25.000
512.64	24.819
512.98	24.200
513.33	25.238
513.67	25.242
514.02	25.858
514.36	26.171
514.70	25.233
515.05	26.381
515.39	24.203
515.74	27.066
516.08	25.523
516.42	26.620
516.77	24.868
517.11	26.053
517.46	25.075
517.80	26.281
518.14	25.658
518.49	24.639
518.83	25.577
519.17	25.409
519.52	24.985
519.86	25.330
520.20	25.091
520.55	25.766
520.89	25.345
521.23	25.649
521.58	25.174
521.92	25.321
522.26	25.439
522.61	26.558
522.95	26.424
523.29	25.476
523.64	26.112
523.98	26.248
524.32	24.420
524.66	26.248
525.01	25.455
525.35	26.377
525.69	25.589
526.04	26.389
526.38	26.200
526.72	25.376
527.06	24.968
527.41	25.462
527.75	24.866
528.09	24.452
528.43	26.334
528.78	24.884
529.12	25.290
529.46	24.951
529.80	25.712
530.15	26.007
530.49	25.185
530.83	24.966
531.17	24.715
531.51	25.239
531.86	25.561
532.20	25.122
532.54	24.847
532.88	24.914
533.22	26.075
533.57	25.033
533.91	25.131
534.25	24.935
534.59	24.246
534.93	23.411
535.27	23.985
535.62	23.396
535.96	24.918
536.30	24.802
536.64	25.706
536.98	25.157
537.32	25.320
537.66	24.825
538.01	24.336
538.35	23.925
538.69	24.501
539.03	24.197
539.37	25.034
539.71	24.540
540.05	24.033
540.39	24.931
540.73	23.361
541.07	24.586
541.42	24.597
541.76	24.845
542.10	24.845
542.44	24.322
542.78	23.675
543.12	23.695
543.46	24.618
543.80	24.219
544.14	23.632
544.48	24.117
544.82	23.718
545.16	23.839
545.50	24.166
545.84	25.496
546.18	24.894
546.52	25.234
546.86	23.868
547.20	24.821
547.54	23.746
547.88	24.049
548.22	22.880
548.56	23.087
548.90	23.585
549.24	23.691
549.58	24.401
549.92	23.445
550.26	24.689
550.60	24.164
550.94	24.795
551.28	24.189
551.62	24.538
551.96	24.737
552.30	23.977
552.64	23.202
552.98	23.629
553.32	23.110
553.66	23.585
554.00	23.650
554.34	24.668
554.68	23.230
555.02	24.479
555.36	23.261
555.69	22.637
556.03	22.698
556.37	22.776
556.71	23.538
557.05	24.161
557.39	23.494
557.73	23.988
558.07	23.982
558.41	22.435
558.75	24.318
559.08	23.562
559.42	24.286
559.76	24.580
560.10	23.624
560.44	22.338
560.78	22.797
561.12	23.554
561.45	23.261
561.79	23.039
562.13	22.640
562.47	21.942
562.81	23.559
563.15	22.426
563.48	23.055
563.82	23.542
564.16	22.981
564.50	22.095
564.84	22.959
565.17	22.535
565.51	22.746
565.85	23.457
566.19	22.347
566.52	22.721
566.86	23.393
567.20	22.167
567.54	22.019
567.88	21.851
568.21	20.758
568.55	20.435
568.89	21.099
569.23	20.510
569.56	19.702
569.90	20.382
570.24	19.166
570.57	18.727
570.91	19.589
571.25	18.448
571.59	17.783
571.92	17.837
572.26	17.663
572.60	18.326
572.93	18.073
573.27	18.025
573.61	18.228
573.95	18.405
574.28	17.744
574.62	17.290
574.96	17.253
575.29	17.214
575.63	16.792
575.97	17.186
576.30	17.121
576.64	17.033
576.98	17.529
577.31	17.130
577.65	17.317
577.98	16.864
578.32	16.642
578.66	16.462
578.99	17.127
579.33	16.987
579.67	17.083
580.00	16.835
580.34	17.164
580.67	16.790
581.01	16.979
581.35	16.839
581.68	16.788
582.02	16.462
582.35	16.045
582.69	16.848
583.02	16.492
583.36	16.773
583.70	17.290
584.03	17.348
584.37	17.815
584.70	17.225
585.04	16.788
585.37	16.781
585.71	16.638
586.04	16.465
586.38	16.378
586.72	17.618
587.05	17.591
587.39	17.529
587.72	17.059
588.06	16.856
588.39	17.345
588.73	17.277
589.06	18.200
589.40	17.905
589.73	17.707
590.07	18.051
590.40	18.266
590.73	18.904
591.07	18.787
591.40	18.789
591.74	18.778
592.07	19.573
592.41	18.507
592.74	18.240
593.08	17.185
593.41	17.694
593.75	17.370
594.08	17.096
594.41	17.904
594.75	17.214
595.08	17.972
595.42	17.004
595.75	17.612
596.09	17.631
596.42	18.065
596.75	18.384
597.09	18.405
597.42	18.022
597.75	18.507
598.09	18.742
598.42	17.780
598.76	17.846
599.09	17.869
599.42	16.749
599.76	17.344
600.09	17.647
600.42	16.945
600.76	16.976
601.09	16.832
601.42	17.078
601.76	18.102
602.09	17.079
602.42	18.408
602.76	17.105
603.09	17.940
603.42	18.645
603.76	17.823
604.09	17.051
604.42	17.132
604.76	18.736
605.09	18.510
605.42	17.652
605.75	17.557
606.09	17.452
606.42	17.556
606.75	17.922
607.09	18.330
607.42	17.944
607.75	17.584
608.08	17.206
608.42	17.451
608.75	18.361
609.08	18.535
609.41	18.883
609.75	18.095
610.08	18.872
610.41	18.309
610.74	18.381
611.07	18.760
611.41	18.371
611.74	18.977
612.07	19.218
612.40	19.639
612.73	19.718
613.07	18.391
613.40	19.475
613.73	18.355
614.06	19.032
614.39	19.007
614.72	18.095
615.06	19.497
615.39	17.849
615.72	18.138
616.05	19.106
616.38	18.177
616.71	19.205
617.05	19.642
617.38	19.862
617.71	18.805
618.04	19.746
618.37	20.177
618.70	20.132
619.03	20.208
619.36	20.333
619.69	20.849
620.03	20.818
620.36	20.744
620.69	21.413
621.02	20.183
621.35	22.407
621.68	20.663
622.01	21.750
622.34	20.271
622.67	21.215
623.00	21.746
623.33	20.884
623.66	19.671
623.99	21.180
624.32	20.076
624.65	19.248
624.99	20.918
625.32	19.636
625.65	21.760
625.98	21.757
626.31	21.613
626.64	21.750
626.97	22.426
627.30	22.067
627.63	21.664
627.96	22.013
628.29	21.092
628.62	23.009
628.95	23.347
629.28	23.085
629.61	22.832
629.94	23.460
630.26	21.245
630.59	24.246
630.92	23.487
631.25	22.359
631.58	22.467
631.91	22.588
632.24	24.197
632.57	24.432
632.90	21.708
633.23	23.765
633.56	22.544
633.89	24.044
634.22	25.679
634.55	23.253
634.88	24.777
635.20	24.359
635.53	25.733
635.86	25.098
636.19	25.485
636.52	23.469
636.85	22.084
637.18	23.396
637.51	23.522
637.83	23.259
638.16	25.375
638.49	23.297
638.82	25.395
639.15	25.102
639.48	24.622
639.81	25.244
640.13	25.108
640.46	25.948
640.79	24.890
641.12	24.520
641.45	25.826
641.77	24.148
642.10	26.698
642.43	25.723
642.76	27.228
643.09	25.363
643.41	26.699
643.74	26.030
644.07	27.258
644.40	27.703
644.73	26.970
645.05	25.671
645.38	27.160
645.71	25.887
646.04	27.289
646.36	26.241
646.69	28.417
647.02	26.654
647.35	27.799
647.67	25.046
648.00	28.545
648.33	26.792
648.66	23.220
648.98	24.121
649.31	22.975
649.64	23.077
649.96	21.880
650.29	26.405
650.62	27.521
650.94	25.556
651.27	24.767
651.60	26.126
651.92	26.573
652.25	23.268
652.58	25.000
652.90	26.930
653.23	23.697
653.56	23.689
653.88	23.883
654.21	22.242
654.54	22.241
654.86	23.599
655.19	22.368
655.52	18.576
655.84	14.257
656.17	14.920
656.49	19.901
656.82	20.562
657.15	15.651
657.47	11.813
657.80	8.879
658.13	8.787
658.45	14.084
658.78	14.050
659.10	14.422
659.43	14.792
659.75	16.527
660.08	17.586
660.41	20.633
660.73	22.376
661.06	25.130
661.38	24.266
661.71	24.641
662.03	28.112
662.36	24.615
662.68	26.106
663.01	28.603
663.33	24.826
663.66	27.209
663.98	27.674
664.31	30.064
664.63	25.576
664.96	23.696
665.28	24.503
665.61	25.108
665.93	24.348
666.26	25.597
666.58	25.056
666.91	26.824
667.23	26.415
667.56	30.095
667.88	26.379
668.21	27.446
668.53	26.714
668.86	27.830
669.18	23.349
669.50	23.245
669.83	25.349
670.15	23.077
670.48	24.163
670.80	27.880
671.13	25.951
671.45	24.886
671.77	25.751
672.10	25.149
672.42	23.034
672.75	25.222
673.07	23.792
673.39	25.505
673.72	21.893
674.04	24.792
674.37	27.542
674.69	22.484
675.01	24.667
675.34	26.351
675.66	28.935
675.98	25.499
676.31	27.752
676.63	22.090
676.95	23.182
677.28	27.294
677.60	25.301
677.92	23.624
678.25	26.258
678.57	23.810
678.89	24.580
679.22	21.700
679.54	23.695
679.86	20.875
680.18	25.243
680.51	23.485
680.83	23.062
681.15	24.400
681.48	24.385
681.80	24.174
682.12	24.798
682.44	23.640
682.77	24.724
683.09	24.943
683.41	23.864
683.73	26.267
684.06	25.664
684.38	21.505
684.70	23.529
685.02	21.369
685.34	20.356
685.67	22.326
685.99	22.604
686.31	21.593
686.63	23.562
686.96	20.152
687.28	19.798
687.60	19.772
687.92	22.424
688.24	21.774
688.56	23.799
688.89	22.321
689.21	25.111
689.53	23.666
689.85	23.023
690.17	23.884
690.49	25.059
690.82	24.029
691.14	22.143
691.46	21.963
691.78	21.396
692.10	22.366
692.42	20.563
692.74	21.368
693.06	22.748
693.39	19.005
693.71	23.529
694.03	19.169
694.35	24.766
694.67	23.737
694.99	24.021
695.31	27.415
695.63	26.000
695.95	22.727
696.27	24.352
696.59	27.222
696.91	24.650
697.23	21.851
697.56	20.545
697.88	25.161
698.20	20.501
698.52	23.294
698.84	23.206
699.16	21.250
699.48	24.060
699.80	23.573
700.12	23.181
700.44	22.689
700.76	20.640
701.08	24.545
701.40	20.783
701.72	24.074
702.04	24.422
702.36	25.418
702.68	23.123
703.00	26.061
703.32	24.927
703.64	22.316
703.96	22.319
704.28	23.620
704.60	24.762
704.91	23.659
705.23	24.585
705.55	25.795
705.87	29.964
706.19	27.037
706.51	23.024
706.83	26.045
707.15	21.807
707.47	23.810
707.79	21.094
708.11	22.500
708.43	23.250
708.74	23.256
709.06	21.690
709.38	25.382
709.70	24.556
710.02	24.204
710.34	24.458
710.66	18.910
710.98	20.199
711.29	25.246
711.61	24.068
711.93	25.407
712.25	24.399
712.57	24.908
712.89	22.015
713.20	28.720
713.52	25.087
713.84	22.867
714.16	19.931
714.48	23.548
714.80	23.718
715.11	24.316
715.43	20.690
715.75	20.667
716.07	23.588
716.39	21.141
716.70	24.354
717.02	22.901
717.34	23.482
717.66	28.319
717.97	23.478
718.29	24.686
718.61	23.228
718.93	25.194
719.24	22.814
719.56	22.490
719.88	28.522
720.20	16.288
720.51	18.774
720.83	27.413
721.15	27.731
721.46	20.968
721.78	20.553
722.10	20.074
722.42	20.747
722.73	22.041
723.05	24.490
723.37	24.153
723.68	24.324
724.00	22.650
724.32	22.222
724.63	20.455
724.95	26.638
725.27	24.424
725.58	24.576
725.90	20.635
726.22	24.324
726.53	20.678
726.85	25.094
727.16	24.906
727.48	21.053
727.80	22.672
728.11	19.068
728.43	18.431
728.74	15.726
729.06	22.400
729.38	20.677
729.69	18.327
730.01	18.077
730.32	20.896
730.64	22.261
730.96	21.132
731.27	21.333
731.59	19.322
731.90	17.197
732.22	20.820
732.53	22.924
732.85	18.085
733.16	25.253
733.48	18.345
733.80	18.478
734.11	23.051
734.43	18.900
734.74	18.788
735.06	16.612
735.37	21.148
735.69	23.569
736.00	16.028
736.32	18.121
736.63	17.254
736.95	20.478
737.26	18.861
737.58	17.785
737.89	18.681
738.21	19.549
738.52	19.753
738.83	24.891
739.15	20.524
739.46	20.866
739.78	19.048
740.09	19.281
740.41	18.116
740.72	19.685
741.04	23.482
741.35	22.979
741.66	24.171
741.98	22.449
742.29	19.802
742.61	25.654
742.92	17.062
743.23	20.833
743.55	21.719
743.86	20.096
744.18	19.617
744.49	21.809
744.80	19.565
745.12	24.599
745.43	23.415
745.74	24.479
746.06	20.976
746.37	21.990
746.68	23.223
747.00	20.213
747.31	23.881
747.62	16.019
747.94	19.617
748.25	20.792
748.56	19.126
748.88	24.084
749.19	27.660
749.50	23.645
749.82	19.340
750.13	23.394
750.44	26.316
750.75	22.761
751.07	24.088
751.38	19.923
751.69	15.294
752.01	19.767
752.32	19.920
752.63	16.206
752.94	17.241
753.26	25.105
753.57	24.434
753.88	17.699
754.19	14.583
754.51	15.289
754.82	18.623
755.13	24.167
755.44	22.984
755.75	21.484
756.07	23.346
756.38	17.358
756.69	17.241
757.00	16.667
757.31	14.706
757.63	14.024
757.94	18.611
758.25	17.260
758.56	14.096
758.87	11.898
759.18	18.380
759.50	12.000
759.81	21.405
760.12	20.323
760.43	16.061
760.74	19.444
761.05	19.692
761.36	13.352
761.67	15.152
761.99	20.408
762.30	13.091
762.61	16.601
762.92	24.887
763.23	20.721
763.54	16.355
763.85	22.881
764.16	17.842
764.47	19.355
764.78	16.117
765.10	20.539
765.41	17.981
765.72	17.778
766.03	14.286
766.34	20.438
766.65	21.514
766.96	17.677
767.27	20.745
767.58	10.920
767.89	12.766
768.20	20.455
768.51	19.780
768.82	19.212
769.13	17.051
769.44	14.592
769.75	15.525
770.06	16.379
770.37	19.231
770.68	21.320
770.99	11.765
771.30	19.608
771.61	15.385
771.92	21.552
772.23	19.212
772.54	17.742
772.85	27.160
773.16	16.292
773.47	24.837
773.78	20.915
774.09	14.371
774.39	18.000
774.70	18.471
775.01	24.828
775.32	22.857
775.63	14.876
775.94	22.901
776.25	28.346
776.56	9.167
776.87	15.385
777.18	15.385
777.48	20.690
777.79	18.261
778.10	6.667
778.41	17.117
778.72	14.286
779.03	17.293
779.34	17.730
779.65	19.863
779.95	10.959
780.26	22.069
780.57	19.512
780.88	15.748
781.19	16.379
781.50	21.705
781.80	14.201
782.11	8.176
782.42	17.692
782.73	14.388
783.04	10.370
783.34	13.194
783.65	3.419
783.96	13.934
784.27	15.862
784.57	17.886
784.88	18.750
785.19	19.000
785.50	24.000
785.81	23.276
786.11	17.241
786.42	15.534
786.73	26.364
787.04	15.306
787.34	12.500
787.65	24.762
787.96	17.699
788.26	23.636
788.57	18.803
788.88	20.312
789.19	13.492
789.49	19.130
789.80	17.347
790.11	22.222
790.41	15.455
790.72	30.435
791.03	15.909
791.33	30.000
791.64	8.750
791.95	12.791
792.25	20.213
792.56	22.472
792.87	15.068
793.17	20.290
793.48	-2.667
793.79	16.250
794.09	13.750
794.40	12.264
794.70	13.592
795.01	13.821
795.32	16.239
795.62	16.190
795.93	9.804
796.23	30.189
796.54	10.417
796.85	10.294
797.15	23.944
797.46	19.444
797.76	31.818
798.07	3.488
798.37	-2.632
798.68	10.606
798.99	17.284
799.29	21.429
799.60	21.739
799.90	25.333
800.21	24.590
800.51	10.769
800.82	1.695
801.12	7.246
801.43	22.951
801.73	26.984
802.04	8.000
802.34	17.910
802.65	9.615
802.95	1.786
803.26	9.615
803.56	21.569
803.87	26.087
804.17	12.000
804.48	26.984
804.78	9.259
805.09	-6.522
805.39	11.111
805.70	29.630
806.00	-3.509
806.30	16.901
806.61	22.857
806.91	5.556
807.22	7.895
807.52	17.333
807.83	0.000
808.13	22.222
808.43	23.529
808.74	28.358
809.04	13.559
809.35	19.231
809.65	10.938
809.95	-2.703
810.26	0.000
810.56	23.288
810.86	-2.381
811.17	0.000
811.47	26.531
811.77	5.263
812.08	20.455
812.38	26.415
812.69	20.000
812.99	0.000
813.29	5.263
813.59	5.714
813.90	2.273
814.20	20.513
814.50	30.769
814.81	13.208
815.11	17.021
815.41	30.508
815.72	26.190
816.02	7.843
816.32	33.333
816.62	26.829
816.93	-2.703
817.23	8.571
817.53	12.500
817.84	10.870
818.14	26.923
818.44	-2.632
818.74	21.739
819.04	-12.500
819.35	21.622
819.65	17.647
819.95	19.444
820.25	16.667
820.56	35.000
820.86	-24.138
821.16	17.500
821.46	4.255
821.76	37.500
822.07	-11.628
822.37	-5.405
822.67	15.625
822.97	35.714
823.27	-10.714
823.57	48.000
823.88	-33.333
824.18	35.714
824.48	11.765
824.78	51.613
825.08	0.000
825.38	21.212
825.69	-12.500
825.99	-18.421
826.29	11.111
826.59	20.000
826.89	-52.381
827.19	-2.174
827.49	15.000
827.79	34.286
828.09	17.857
828.39	48.485
828.70	43.243
829.00	-17.857
829.30	-14.286
829.60	-30.000
829.90	9.375
830.20	7.895
830.50	3.704
830.80	39.130
831.10	27.273
831.40	30.303
831.70	12.903
832.00	28.571
832.30	-19.048
832.60	-50.000
832.90	-10.345
833.20	10.000
833.50	36.364
833.80	-18.519
834.10	-3.846
834.40	31.250
834.70	0.000
835.00	-10.526
835.30	23.077
835.60	46.667
835.90	9.677
836.20	27.273
836.50	-7.143
836.80	-61.538
837.10	7.143
837.40	-133.333
837.70	40.909
838.00	-36.364
838.30	-43.478
838.60	-76.923
838.90	18.182
839.19	10.714
839.49	36.667
839.79	-46.154
840.09	0.000
840.39	25.000
840.69	-7.143
840.99	-19.231
841.29	-10.526
841.59	-40.000
841.88	0.000
842.18	-30.000
842.48	31.250
842.78	13.333
843.08	-3.704
843.38	-90.000
843.68	52.174
843.97	26.667
844.27	-53.333
844.57	25.000
844.87	0.000
845.17	-52.381
845.47	-53.333
845.76	-52.381
846.06	-29.412
846.36	10.000
846.66	-42.857
846.96	-6.667
847.25	-112.500
847.55	28.571
847.85	-137.500
848.15	-27.273
848.44	-400.000
848.74	25.000
849.04	18.519
849.34	-54.545
849.63	16.667
849.93	-280.000
850.23	-5.556
850.53	-20.000
850.82	-53.846
851.12	-100.000
851.42	26.667
851.71	30.769
852.01	-21.429
852.31	-75.000
852.61	-45.455
852.90	20.000
853.20	26.316
853.50	16.667
853.79	34.783
854.09	50.000
854.39	10.526
854.68	16.667
854.98	19.355
855.28	19.231
855.57	10.000
855.87	11.111
856.17	11.111
856.46	-35.714
856.76	0.000
857.05	33.333
857.35	24.000
857.65	-11.111
857.94	-7.692
858.24	10.345
858.53	38.889
858.83	22.222
859.13	0.000
859.42	4.348
859.72	-300.000
860.01	-200.000
860.31	-16.000
860.60	-47.619
860.90	-200.000
861.20	-73.333
861.49	-250.000
861.79	-53.333
862.08	-45.000
862.38	33.333
862.67	-320.000
862.97	83.333
863.26	-16.667
863.56	5.556
863.85	-433.333
864.15	11.111
864.44	-90.000
864.74	50.000
865.03	75.000
865.33	-160.000
865.62	-66.667
865.92	-33.333
866.21	-183.333
866.51	56.250
866.80	-45.455
867.10	-350.000
867.39	50.000
867.69	0.000
867.98	23.077
868.27	-100.000
868.57	20.000
868.86	-5.556
869.16	-107.692
869.45	86.667
869.75	-1500.000
870.04	0.000
870.33	-57.143
870.63	-14.286
870.92	233.333
871.22	-260.000
871.51	-500.000
871.80	-11.111
872.10	133.333
>>>>>End Processed Spectral Data<<<<<
