SpectraSuite Data File
++++++++++++++++++++++++++++++++++++
Date: Fri May 15 20:33:45 PDT 2015
User: schluterlab
Dark Spectrum Present: Yes
Reference Spectrum Present: Yes
Number of Sampled Component Spectra: 1
Spectrometers: USB2E3373
Integration Time (usec): 3000 (USB2E3373)
Spectra Averaged: 3 (USB2E3373)
Boxcar Smoothing: 0 (USB2E3373)
Correct for Electrical Dark: No (USB2E3373)
Strobe/Lamp Enabled: No (USB2E3373)
Correct for Detector Non-linearity: No (USB2E3373)
Correct for Stray Light: No (USB2E3373)
Number of Pixels in Processed Spectrum: 2048
>>>>>Begin Processed Spectral Data<<<<<
178.53	0.000
178.91	0.000
179.29	75.000
179.67	-550.000
180.04	42.857
180.42	50.000
180.80	-1600.000
181.18	66.667
181.56	450.000
181.94	-150.000
182.31	400.000
182.69	-20.000
183.07	-633.333
183.45	20.000
183.83	133.333
184.20	-54.545
184.58	155.556
184.96	-50.000
185.34	266.667
185.72	-400.000
186.09	92.308
186.47	-1100.000
186.85	250.000
187.23	222.222
187.61	500.000
187.98	-433.333
188.36	0.000
188.74	-433.333
189.12	-17.647
189.49	11.111
189.87	0.000
190.25	-64.286
190.63	50.000
191.00	-66.667
191.38	-47.368
191.76	300.000
192.14	150.000
192.51	-100.000
192.89	-233.333
193.27	-214.286
193.65	283.333
194.02	154.545
194.40	-70.000
194.78	-187.500
195.15	0.000
195.53	-100.000
195.91	275.000
196.29	-200.000
196.66	176.923
197.04	128.571
197.42	-55.556
197.79	-533.333
198.17	-192.308
198.55	1300.000
198.92	-133.333
199.30	-100.000
199.68	-80.000
200.05	-466.667
200.43	0.000
200.81	-333.333
201.18	-366.667
201.56	1500.000
201.94	-450.000
202.31	33.333
202.69	-280.000
203.07	425.000
203.44	-100.000
203.82	0.000
204.19	92.857
204.57	-566.667
204.95	250.000
205.32	20.000
205.70	71.429
206.08	75.000
206.45	66.667
206.83	35.714
207.20	-14.286
207.58	600.000
207.96	-666.667
208.33	-150.000
208.71	-175.000
209.08	-200.000
209.46	-700.000
209.84	-180.000
210.21	-800.000
210.59	-28.571
210.96	50.000
211.34	-150.000
211.71	-20.000
212.09	-271.429
212.46	-1200.000
212.84	0.000
213.22	60.000
213.59	200.000
213.97	46.154
214.34	-9.091
214.72	-133.333
215.09	525.000
215.47	-38.462
215.84	-72.727
216.22	-233.333
216.59	-37.500
216.97	400.000
217.34	-225.000
217.72	-140.000
218.09	25.000
218.47	125.000
218.84	-1200.000
219.22	-122.222
219.59	-80.000
219.97	500.000
220.34	275.000
220.72	-71.429
221.09	-325.000
221.47	-200.000
221.84	-700.000
222.22	-1000.000
222.59	-45.455
222.97	-25.000
223.34	-266.667
223.72	-92.857
224.09	-14.286
224.46	-3.571
224.84	400.000
225.21	10.000
225.59	33.333
225.96	-350.000
226.34	325.000
226.71	-71.429
227.08	-33.333
227.46	-37.500
227.83	-900.000
228.21	-33.333
228.58	-45.455
228.95	-137.500
229.33	140.000
229.70	37.500
230.08	-137.500
230.45	-28.571
230.82	42.857
231.20	-100.000
231.57	28.571
231.95	157.143
232.32	-90.000
232.69	-21.429
233.07	-133.333
233.44	20.000
233.81	-130.000
234.19	22.222
234.56	-41.176
234.93	400.000
235.31	0.000
235.68	-180.000
236.05	-61.538
236.43	-5.000
236.80	17.647
237.17	28.125
237.55	-20.000
237.92	-3.704
238.29	13.889
238.67	43.333
239.04	29.412
239.41	9.756
239.79	63.333
240.16	63.415
240.53	44.737
240.91	41.304
241.28	46.032
241.65	53.571
242.02	43.836
242.40	31.667
242.77	45.763
243.14	50.000
243.51	47.500
243.89	51.724
244.26	34.483
244.63	61.905
245.00	47.423
245.38	57.732
245.75	46.067
246.12	45.690
246.49	42.149
246.87	61.538
247.24	47.059
247.61	49.123
247.98	58.537
248.36	48.750
248.73	53.947
249.10	55.844
249.47	52.532
249.84	51.634
250.22	51.176
250.59	62.092
250.96	47.887
251.33	58.721
251.70	60.000
252.08	55.838
252.45	50.000
252.82	58.794
253.19	60.369
253.56	53.738
253.94	55.856
254.31	54.783
254.68	64.035
255.05	51.969
255.42	60.262
255.79	57.143
256.16	56.420
256.54	55.970
256.91	60.456
257.28	57.621
257.65	56.929
258.02	57.447
258.39	58.249
258.76	57.509
259.14	56.811
259.51	56.958
259.88	57.732
260.25	60.784
260.62	68.403
260.99	57.288
261.36	56.164
261.73	59.494
262.10	58.055
262.47	59.202
262.85	56.740
263.22	56.615
263.59	62.305
263.96	61.180
264.33	58.182
264.70	59.821
265.07	56.250
265.44	55.807
265.81	57.910
266.18	58.470
266.55	59.383
266.92	59.326
267.29	58.486
267.66	57.033
268.03	61.780
268.40	56.919
268.77	61.497
269.14	54.436
269.51	56.298
269.88	58.354
270.25	56.633
270.62	52.439
270.99	58.312
271.36	56.479
271.73	56.573
272.10	54.988
272.47	57.683
272.84	58.911
273.21	59.397
273.58	58.072
273.95	56.751
274.32	57.044
274.69	54.525
275.06	57.812
275.43	54.422
275.80	56.954
276.17	58.851
276.54	52.034
276.91	58.333
277.28	52.838
277.65	56.198
278.02	53.404
278.39	57.768
278.76	57.442
279.13	50.622
279.50	54.412
279.87	54.212
280.23	54.194
280.60	55.166
280.97	58.990
281.34	54.038
281.71	57.495
282.08	53.988
282.45	53.425
282.82	52.510
283.19	54.159
283.56	53.565
283.92	54.080
284.29	55.577
284.66	53.101
285.03	53.045
285.40	54.442
285.77	50.967
286.14	53.249
286.51	54.797
286.87	50.274
287.24	55.801
287.61	52.734
287.98	52.807
288.35	49.913
288.72	51.839
289.08	51.215
289.45	50.264
289.82	50.175
290.19	48.635
290.56	49.400
290.93	48.316
291.29	46.225
291.66	48.976
292.03	46.890
292.40	46.452
292.77	46.730
293.13	45.292
293.50	46.586
293.87	45.344
294.24	43.895
294.60	43.368
294.97	44.048
295.34	43.558
295.71	45.455
296.08	44.993
296.44	41.536
296.81	41.389
297.18	43.043
297.55	42.412
297.91	40.685
298.28	41.557
298.65	38.942
299.02	40.701
299.38	37.893
299.75	40.138
300.12	39.005
300.48	40.711
300.85	39.163
301.22	39.481
301.59	38.026
301.95	38.481
302.32	39.948
302.69	39.925
303.05	40.223
303.42	37.609
303.79	37.967
304.15	39.068
304.52	35.791
304.89	37.076
305.25	36.804
305.62	37.456
305.99	36.491
306.35	36.647
306.72	36.558
307.09	38.084
307.45	36.625
307.82	36.574
308.19	36.818
308.55	35.878
308.92	36.275
309.29	35.531
309.65	37.137
310.02	35.094
310.38	35.456
310.75	36.393
311.12	35.630
311.48	35.313
311.85	35.288
312.22	34.810
312.58	34.713
312.95	34.258
313.31	34.679
313.68	32.775
314.05	35.408
314.41	34.845
314.78	35.258
315.14	35.663
315.51	35.404
315.87	33.914
316.24	36.097
316.61	33.760
316.97	34.821
317.34	33.105
317.70	33.365
318.07	32.692
318.43	33.137
318.80	32.670
319.16	34.766
319.53	34.473
319.89	34.646
320.26	34.818
320.62	34.203
320.99	32.777
321.35	33.299
321.72	33.956
322.08	35.650
322.45	34.315
322.81	34.578
323.18	34.936
323.54	33.494
323.91	33.885
324.27	32.715
324.64	34.082
325.00	35.128
325.37	35.721
325.73	34.451
326.10	34.423
326.46	33.901
326.83	34.121
327.19	34.176
327.56	33.362
327.92	34.419
328.29	32.768
328.65	34.057
329.01	34.191
329.38	33.825
329.74	33.144
330.11	31.974
330.47	32.931
330.84	32.596
331.20	35.837
331.56	32.778
331.93	33.242
332.29	34.372
332.66	33.575
333.02	33.457
333.38	31.897
333.75	33.333
334.11	31.423
334.48	33.998
334.84	31.410
335.20	33.394
335.57	32.185
335.93	32.882
336.29	33.702
336.66	32.970
337.02	32.249
337.38	31.944
337.75	32.818
338.11	32.913
338.47	33.759
338.84	32.902
339.20	31.810
339.56	33.028
339.93	32.587
340.29	34.037
340.65	33.513
341.02	33.156
341.38	31.858
341.74	30.300
342.11	30.849
342.47	30.783
342.83	33.045
343.20	32.840
343.56	32.348
343.92	32.064
344.28	32.024
344.65	30.743
345.01	31.115
345.37	30.278
345.73	31.883
346.10	31.838
346.46	30.950
346.82	31.588
347.19	31.837
347.55	31.579
347.91	32.039
348.27	31.043
348.63	32.283
349.00	31.665
349.36	30.673
349.72	30.597
350.08	31.475
350.45	31.764
350.81	30.399
351.17	31.107
351.53	31.592
351.89	30.553
352.26	31.840
352.62	32.742
352.98	29.398
353.34	30.515
353.70	30.016
354.07	29.758
354.43	28.743
354.79	31.462
355.15	31.349
355.51	30.063
355.87	30.663
356.24	30.506
356.60	29.345
356.96	30.556
357.32	29.393
357.68	29.633
358.04	29.079
358.40	30.868
358.77	30.861
359.13	29.784
359.49	28.659
359.85	30.031
360.21	29.825
360.57	29.457
360.93	29.576
361.29	28.172
361.66	28.292
362.02	30.530
362.38	29.551
362.74	28.690
363.10	28.969
363.46	29.133
363.82	30.503
364.18	29.077
364.54	28.750
364.90	29.032
365.26	28.530
365.62	29.343
365.98	28.519
366.35	29.425
366.71	29.786
367.07	29.100
367.43	28.972
367.79	28.693
368.15	28.643
368.51	29.060
368.87	27.854
369.23	28.014
369.59	29.155
369.95	29.179
370.31	28.829
370.67	29.552
371.03	27.857
371.39	27.863
371.75	28.645
372.11	29.030
372.47	27.885
372.83	28.034
373.19	28.816
373.55	28.231
373.91	28.366
374.27	28.632
374.63	29.146
374.99	27.447
375.35	29.248
375.71	28.601
376.07	27.458
376.42	28.503
376.78	28.188
377.14	28.030
377.50	28.353
377.86	27.376
378.22	28.271
378.58	27.308
378.94	28.103
379.30	27.948
379.66	27.524
380.02	26.855
380.38	27.937
380.74	27.050
381.09	27.914
381.45	27.217
381.81	27.699
382.17	26.713
382.53	27.233
382.89	28.562
383.25	28.500
383.61	28.720
383.97	26.857
384.32	27.455
384.68	27.492
385.04	26.471
385.40	27.131
385.76	28.176
386.12	27.296
386.48	28.033
386.83	27.140
387.19	26.984
387.55	26.412
387.91	26.650
388.27	26.679
388.62	27.753
388.98	26.581
389.34	26.421
389.70	26.849
390.06	27.879
390.42	25.907
390.77	27.011
391.13	26.545
391.49	26.391
391.85	26.966
392.20	26.742
392.56	27.209
392.92	26.541
393.28	26.828
393.64	26.847
393.99	28.088
394.35	26.882
394.71	26.628
395.07	26.587
395.42	25.622
395.78	26.515
396.14	26.103
396.50	26.823
396.85	26.529
397.21	26.441
397.57	25.831
397.92	27.322
398.28	26.264
398.64	25.120
399.00	26.580
399.35	25.734
399.71	26.766
400.07	27.207
400.42	26.010
400.78	27.312
401.14	26.074
401.49	25.908
401.85	26.752
402.21	26.988
402.57	26.750
402.92	25.784
403.28	26.817
403.63	26.356
403.99	26.084
404.35	26.359
404.70	26.012
405.06	26.263
405.42	26.538
405.77	25.450
406.13	26.193
406.49	25.814
406.84	25.611
407.20	25.888
407.55	24.855
407.91	25.668
408.27	26.004
408.62	27.200
408.98	25.755
409.34	25.836
409.69	25.517
410.05	25.431
410.40	25.617
410.76	26.357
411.11	25.187
411.47	25.378
411.83	25.863
412.18	25.997
412.54	24.969
412.89	25.924
413.25	26.655
413.60	25.217
413.96	25.092
414.31	25.732
414.67	26.106
415.03	26.099
415.38	24.935
415.74	25.603
416.09	26.780
416.45	24.916
416.80	25.512
417.16	26.174
417.51	26.049
417.87	25.033
418.22	25.324
418.58	25.552
418.93	26.458
419.29	24.776
419.64	25.664
420.00	26.700
420.35	24.955
420.71	26.488
421.06	25.844
421.42	25.962
421.77	25.665
422.12	25.596
422.48	24.959
422.83	26.102
423.19	26.298
423.54	24.927
423.90	24.853
424.25	25.488
424.61	25.765
424.96	25.494
425.31	26.054
425.67	25.235
426.02	26.266
426.38	25.485
426.73	25.666
427.09	26.203
427.44	25.824
427.79	25.869
428.15	26.274
428.50	25.560
428.85	24.386
429.21	26.259
429.56	26.038
429.92	24.807
430.27	25.865
430.62	25.144
430.98	25.743
431.33	26.025
431.68	25.798
432.04	26.048
432.39	24.244
432.74	24.053
433.10	25.460
433.45	24.552
433.80	25.015
434.16	25.042
434.51	25.323
434.86	24.739
435.22	25.351
435.57	24.953
435.92	25.030
436.28	24.150
436.63	24.872
436.98	24.392
437.34	24.501
437.69	24.747
438.04	24.900
438.39	24.313
438.75	24.772
439.10	25.014
439.45	25.685
439.81	24.281
440.16	25.475
440.51	25.552
440.86	25.740
441.22	25.509
441.57	25.166
441.92	25.603
442.27	25.499
442.63	26.178
442.98	25.388
443.33	25.097
443.68	25.305
444.03	25.335
444.39	24.594
444.74	26.700
445.09	24.944
445.44	25.698
445.79	26.405
446.15	25.385
446.50	24.016
446.85	25.292
447.20	24.192
447.55	25.725
447.91	25.663
448.26	25.384
448.61	24.928
448.96	25.129
449.31	24.624
449.66	26.307
450.02	25.157
450.37	24.363
450.72	25.200
451.07	24.620
451.42	24.407
451.77	24.473
452.12	24.522
452.47	24.662
452.83	24.441
453.18	24.984
453.53	24.526
453.88	24.529
454.23	25.630
454.58	25.504
454.93	24.678
455.28	23.619
455.63	25.170
455.98	24.714
456.34	24.457
456.69	24.651
457.04	25.709
457.39	23.694
457.74	25.212
458.09	23.896
458.44	25.161
458.79	24.930
459.14	24.371
459.49	25.194
459.84	24.817
460.19	25.182
460.54	24.939
460.89	25.000
461.24	25.466
461.59	24.347
461.94	23.836
462.29	24.970
462.64	24.651
462.99	24.306
463.34	23.853
463.69	24.003
464.04	24.455
464.39	24.864
464.74	23.865
465.09	25.265
465.44	25.274
465.79	24.093
466.14	24.743
466.49	24.957
466.84	24.747
467.19	24.969
467.54	24.777
467.89	24.258
468.24	23.723
468.59	24.063
468.94	24.317
469.29	24.656
469.64	24.812
469.99	24.947
470.34	23.276
470.68	24.907
471.03	24.275
471.38	22.825
471.73	23.950
472.08	24.423
472.43	22.819
472.78	22.481
473.13	24.558
473.48	23.779
473.83	23.973
474.17	24.417
474.52	24.378
474.87	24.000
475.22	23.063
475.57	23.602
475.92	24.520
476.27	24.272
476.61	24.479
476.96	24.261
477.31	24.716
477.66	23.989
478.01	23.638
478.36	23.693
478.70	24.796
479.05	24.890
479.40	24.377
479.75	23.514
480.10	23.246
480.45	23.850
480.79	24.673
481.14	24.488
481.49	24.581
481.84	24.469
482.19	23.994
482.53	24.892
482.88	23.771
483.23	23.369
483.58	24.481
483.92	24.250
484.27	23.655
484.62	23.577
484.97	23.590
485.31	23.988
485.66	24.261
486.01	24.946
486.36	25.472
486.70	25.928
487.05	25.508
487.40	25.026
487.75	25.155
488.09	24.722
488.44	24.312
488.79	24.393
489.13	23.558
489.48	23.557
489.83	23.408
490.17	23.326
490.52	23.233
490.87	23.415
491.22	23.687
491.56	22.249
491.91	23.088
492.26	23.967
492.60	23.273
492.95	24.152
493.30	23.107
493.64	23.035
493.99	23.575
494.34	22.670
494.68	23.571
495.03	22.384
495.37	22.915
495.72	22.968
496.07	23.854
496.41	23.160
496.76	23.998
497.11	22.869
497.45	23.294
497.80	23.411
498.14	23.000
498.49	22.600
498.84	22.255
499.18	23.795
499.53	22.966
499.87	22.909
500.22	22.849
500.56	23.651
500.91	23.695
501.26	22.788
501.60	22.676
501.95	22.950
502.29	23.874
502.64	23.456
502.98	22.743
503.33	23.295
503.67	23.084
504.02	23.118
504.36	22.810
504.71	22.626
505.06	22.396
505.40	22.843
505.75	23.711
506.09	22.909
506.44	23.409
506.78	23.827
507.13	22.130
507.47	22.245
507.82	22.489
508.16	22.768
508.51	22.823
508.85	24.228
509.19	23.044
509.54	22.145
509.88	21.737
510.23	22.324
510.57	22.662
510.92	21.215
511.26	22.095
511.61	23.102
511.95	22.521
512.30	22.616
512.64	21.981
512.98	21.112
513.33	21.656
513.67	21.489
514.02	22.883
514.36	22.629
514.70	22.669
515.05	23.032
515.39	22.019
515.74	22.695
516.08	22.116
516.42	22.497
516.77	22.762
517.11	22.671
517.46	21.843
517.80	22.288
518.14	21.923
518.49	22.356
518.83	21.446
519.17	21.528
519.52	21.018
519.86	21.188
520.20	21.507
520.55	22.264
520.89	22.146
521.23	21.786
521.58	21.956
521.92	21.987
522.26	21.275
522.61	21.948
522.95	21.987
523.29	21.665
523.64	21.728
523.98	21.905
524.32	21.843
524.66	22.023
525.01	22.597
525.35	21.517
525.69	20.943
526.04	22.156
526.38	22.049
526.72	20.602
527.06	20.623
527.41	22.098
527.75	21.113
528.09	21.728
528.43	22.350
528.78	20.660
529.12	21.677
529.46	21.313
529.80	21.786
530.15	23.036
530.49	21.145
530.83	21.409
531.17	21.088
531.51	21.272
531.86	21.618
532.20	21.921
532.54	21.443
532.88	21.287
533.22	22.177
533.57	20.708
533.91	21.410
534.25	22.070
534.59	22.514
534.93	21.649
535.27	21.256
535.62	22.100
535.96	22.701
536.30	22.625
536.64	21.433
536.98	21.045
537.32	21.266
537.66	22.020
538.01	21.399
538.35	21.429
538.69	22.370
539.03	21.805
539.37	22.813
539.71	22.495
540.05	22.675
540.39	23.615
540.73	21.967
541.07	22.790
541.42	21.976
541.76	23.744
542.10	22.712
542.44	22.446
542.78	22.092
543.12	22.047
543.46	23.296
543.80	22.554
544.14	20.895
544.48	22.052
544.82	22.830
545.16	22.814
545.50	23.632
545.84	22.875
546.18	21.986
546.52	22.495
546.86	21.352
547.20	21.602
547.54	21.696
547.88	22.418
548.22	21.762
548.56	22.032
548.90	22.305
549.24	21.970
549.58	22.144
549.92	20.944
550.26	21.978
550.60	21.859
550.94	22.479
551.28	21.252
551.62	21.538
551.96	21.429
552.30	21.711
552.64	21.580
552.98	22.222
553.32	22.040
553.66	22.279
554.00	21.460
554.34	23.264
554.68	21.829
555.02	22.247
555.36	22.139
555.69	21.612
556.03	21.770
556.37	21.851
556.71	21.877
557.05	21.477
557.39	21.561
557.73	21.589
558.07	21.795
558.41	21.822
558.75	20.343
559.08	20.173
559.42	21.746
559.76	21.857
560.10	21.254
560.44	21.519
560.78	21.748
561.12	22.567
561.45	22.558
561.79	21.849
562.13	22.214
562.47	21.871
562.81	22.046
563.15	22.638
563.48	21.711
563.82	21.551
564.16	22.075
564.50	21.892
564.84	23.226
565.17	21.529
565.51	23.361
565.85	22.154
566.19	23.342
566.52	22.654
566.86	23.201
567.20	22.852
567.54	23.966
567.88	24.136
568.21	23.247
568.55	23.696
568.89	24.230
569.23	24.651
569.56	24.912
569.90	25.091
570.24	24.563
570.57	24.800
570.91	25.932
571.25	25.452
571.59	25.631
571.92	25.215
572.26	25.151
572.60	25.023
572.93	24.725
573.27	25.172
573.61	25.358
573.95	25.369
574.28	25.450
574.62	25.044
574.96	25.031
575.29	25.391
575.63	24.462
575.97	25.454
576.30	25.302
576.64	24.583
576.98	25.586
577.31	25.289
577.65	25.528
577.98	25.613
578.32	25.589
578.66	25.296
578.99	25.269
579.33	24.706
579.67	25.158
580.00	25.063
580.34	25.050
580.67	25.396
581.01	25.360
581.35	25.560
581.68	25.959
582.02	26.078
582.35	26.091
582.69	25.730
583.02	25.828
583.36	25.881
583.70	26.090
584.03	25.327
584.37	25.663
584.70	25.412
585.04	25.130
585.37	25.651
585.71	25.895
586.04	25.290
586.38	25.127
586.72	26.313
587.05	26.228
587.39	25.971
587.72	26.517
588.06	25.740
588.39	25.491
588.73	25.366
589.06	26.321
589.40	26.097
589.73	25.812
590.07	25.491
590.40	24.923
590.73	25.988
591.07	25.021
591.40	25.111
591.74	24.253
592.07	25.603
592.41	25.177
592.74	25.329
593.08	25.288
593.41	25.535
593.75	25.810
594.08	25.541
594.41	25.691
594.75	25.420
595.08	25.388
595.42	25.212
595.75	25.235
596.09	25.528
596.42	24.969
596.75	25.044
597.09	25.011
597.42	24.661
597.75	25.240
598.09	24.536
598.42	23.962
598.76	24.925
599.09	24.960
599.42	25.085
599.76	24.793
600.09	25.113
600.42	25.398
600.76	24.963
601.09	24.885
601.42	24.481
601.76	25.407
602.09	25.248
602.42	25.695
602.76	25.340
603.09	25.748
603.42	25.920
603.76	25.363
604.09	24.828
604.42	25.592
604.76	24.878
605.09	24.909
605.42	24.966
605.75	25.263
606.09	25.096
606.42	25.521
606.75	25.152
607.09	24.747
607.42	24.812
607.75	24.689
608.08	23.944
608.42	24.943
608.75	24.578
609.08	24.913
609.41	25.025
609.75	24.849
610.08	24.913
610.41	24.010
610.74	24.817
611.07	25.168
611.41	25.013
611.74	24.574
612.07	24.304
612.40	24.398
612.73	24.068
613.07	23.847
613.40	25.383
613.73	24.622
614.06	23.817
614.39	24.140
614.72	24.594
615.06	24.581
615.39	24.017
615.72	23.950
616.05	24.637
616.38	23.533
616.71	24.465
617.05	24.460
617.38	24.261
617.71	24.214
618.04	24.381
618.37	25.788
618.70	24.686
619.03	24.792
619.36	23.517
619.69	23.199
620.03	24.982
620.36	23.534
620.69	23.483
621.02	23.547
621.35	23.734
621.68	22.364
622.01	22.500
622.34	23.783
622.67	23.580
623.00	23.507
623.33	23.018
623.66	23.560
623.99	22.239
624.32	23.498
624.65	23.684
624.99	23.326
625.32	22.365
625.65	24.509
625.98	23.932
626.31	24.522
626.64	23.397
626.97	23.647
627.30	22.154
627.63	23.310
627.96	24.259
628.29	21.554
628.62	23.206
628.95	22.946
629.28	21.169
629.61	22.931
629.94	23.460
630.26	21.542
630.59	22.164
630.92	20.923
631.25	21.949
631.58	22.357
631.91	20.175
632.24	20.757
632.57	22.500
632.90	20.641
633.23	21.882
633.56	20.025
633.89	19.729
634.22	21.481
634.55	21.601
634.88	21.073
635.20	20.897
635.53	20.800
635.86	19.636
636.19	21.087
636.52	21.301
636.85	19.603
637.18	21.006
637.51	20.629
637.83	20.894
638.16	21.282
638.49	19.210
638.82	21.579
639.15	22.388
639.48	21.458
639.81	20.921
640.13	21.645
640.46	21.429
640.79	18.115
641.12	20.089
641.45	19.369
641.77	20.444
642.10	21.327
642.43	19.132
642.76	19.967
643.09	19.225
643.41	19.256
643.74	20.593
644.07	21.182
644.40	19.932
644.73	19.615
645.05	18.289
645.38	19.048
645.71	18.262
646.04	20.108
646.36	19.149
646.69	20.683
647.02	19.282
647.35	20.149
647.67	16.636
648.00	19.403
648.33	21.502
648.66	17.966
648.98	20.436
649.31	18.843
649.64	20.094
649.96	20.097
650.29	21.465
650.62	20.171
650.94	21.111
651.27	18.436
651.60	19.099
651.92	18.357
652.25	19.893
652.58	19.500
652.90	21.955
653.23	20.840
653.56	20.135
653.88	20.447
654.21	18.739
654.54	20.374
654.86	22.241
655.19	18.860
655.52	27.554
655.84	28.253
656.17	31.959
656.49	43.298
656.82	44.813
657.15	33.646
657.47	25.023
657.80	18.337
658.13	17.797
658.45	26.775
658.78	26.219
659.10	25.337
659.43	25.099
659.75	23.976
660.08	21.655
660.41	22.472
660.73	20.028
661.06	20.277
661.38	17.417
661.71	19.507
662.03	21.030
662.36	17.582
662.68	15.708
663.01	19.432
663.33	17.865
663.66	18.837
663.98	15.814
664.31	18.124
664.63	16.590
664.96	16.957
665.28	17.660
665.61	20.779
665.93	19.565
666.26	22.560
666.58	16.331
666.91	18.353
667.23	18.868
667.56	19.905
667.88	15.827
668.21	18.616
668.53	20.804
668.86	18.160
669.18	14.387
669.50	15.254
669.83	16.744
670.15	18.182
670.48	20.335
670.80	16.820
671.13	16.555
671.45	15.525
671.77	20.386
672.10	21.386
672.42	20.412
672.75	20.959
673.07	21.288
673.39	22.752
673.72	16.963
674.04	18.333
674.37	18.644
674.69	19.486
675.01	17.778
675.34	20.045
675.66	21.759
675.98	19.069
676.31	18.578
676.63	17.815
676.95	18.636
677.28	23.294
677.60	18.313
677.92	17.661
678.25	19.694
678.57	19.048
678.89	19.748
679.22	21.700
679.54	20.884
679.86	19.085
680.18	21.748
680.51	19.318
680.83	18.688
681.15	20.400
681.48	21.516
681.80	20.868
682.12	21.976
682.44	20.711
682.77	19.868
683.09	21.739
683.41	17.045
683.73	19.585
684.06	20.354
684.38	21.505
684.70	19.172
685.02	17.842
685.34	19.368
685.67	18.949
685.99	20.253
686.31	22.832
686.63	21.336
686.96	17.300
687.28	16.566
687.60	19.011
687.92	21.414
688.24	19.153
688.56	18.341
688.89	19.196
689.21	21.333
689.53	19.026
689.85	19.535
690.17	21.205
690.49	17.494
690.82	18.447
691.14	19.524
691.46	20.093
691.78	21.396
692.10	22.581
692.42	19.481
692.74	21.154
693.06	20.721
693.39	17.873
693.71	18.100
694.03	18.014
694.35	19.393
694.67	15.909
694.99	16.449
695.31	19.060
695.63	19.000
695.95	14.899
696.27	18.653
696.59	21.667
696.91	19.048
697.23	18.509
697.56	20.297
697.88	22.151
698.20	18.223
698.52	21.647
698.84	18.900
699.16	17.750
699.48	21.303
699.80	19.355
700.12	19.137
700.44	21.289
700.76	15.698
701.08	18.788
701.40	15.060
701.72	18.827
702.04	19.802
702.36	22.408
702.68	16.817
703.00	17.576
703.32	19.648
703.64	18.362
703.96	17.971
704.28	18.405
704.60	21.905
704.91	19.874
705.23	19.934
705.55	24.735
705.87	20.939
706.19	16.296
706.51	18.900
706.83	17.363
707.15	14.642
707.47	20.728
707.79	18.490
708.11	21.000
708.43	20.000
708.74	18.863
709.06	21.127
709.38	22.324
709.70	18.343
710.02	22.930
710.34	20.743
710.66	17.308
710.98	19.205
711.29	17.705
711.61	17.627
711.93	18.241
712.25	23.368
712.57	19.048
712.89	16.045
713.20	17.993
713.52	19.861
713.84	18.089
714.16	18.900
714.48	19.677
714.80	18.910
715.11	20.061
715.43	18.495
715.75	18.000
716.07	14.950
716.39	16.107
716.70	16.974
717.02	16.794
717.34	17.814
717.66	15.487
717.97	13.043
718.29	13.808
718.61	16.142
718.93	16.279
719.24	17.490
719.56	16.867
719.88	17.526
720.20	14.773
720.51	18.391
720.83	18.533
721.15	16.807
721.46	14.919
721.78	13.834
722.10	17.472
722.42	15.353
722.73	23.265
723.05	23.265
723.37	19.915
723.68	19.820
724.00	17.949
724.32	14.222
724.63	14.091
724.95	11.354
725.27	16.129
725.58	18.220
725.90	15.873
726.22	24.324
726.53	20.339
726.85	19.101
727.16	21.887
727.48	14.980
727.80	19.028
728.11	20.339
728.43	14.510
728.74	16.532
729.06	18.400
729.38	22.932
729.69	17.530
730.01	13.077
730.32	23.507
730.64	19.788
730.96	16.226
731.27	20.000
731.59	17.288
731.90	18.153
732.22	23.659
732.53	21.262
732.85	20.922
733.16	22.222
733.48	14.748
733.80	19.203
734.11	19.322
734.43	21.649
734.74	21.818
735.06	15.961
735.37	24.169
735.69	22.896
736.00	20.557
736.32	20.134
736.63	20.775
736.95	23.549
737.26	13.167
737.58	18.792
737.89	17.949
738.21	20.301
738.52	18.519
738.83	20.524
739.15	17.031
739.46	25.591
739.78	19.414
740.09	18.954
740.41	20.290
740.72	13.780
741.04	21.457
741.35	17.021
741.66	17.062
741.98	20.918
742.29	13.861
742.61	21.990
742.92	12.322
743.23	11.111
743.55	18.100
743.86	17.225
744.18	11.962
744.49	12.234
744.80	10.326
745.12	21.925
745.43	16.585
745.74	23.438
746.06	20.000
746.37	19.895
746.68	18.483
747.00	13.830
747.31	16.418
747.62	10.680
747.94	21.053
748.25	14.851
748.56	14.208
748.88	16.230
749.19	15.957
749.50	15.271
749.82	8.491
750.13	18.807
750.44	25.940
750.75	25.373
751.07	27.007
751.38	21.839
751.69	17.647
752.01	20.930
752.32	21.912
752.63	20.158
752.94	21.121
753.26	25.523
753.57	13.575
753.88	20.354
754.19	15.000
754.51	16.942
754.82	20.648
755.13	21.667
755.44	22.177
755.75	24.609
756.07	19.844
756.38	21.509
756.69	14.943
757.00	24.000
757.31	19.935
757.63	22.256
757.94	20.833
758.25	23.836
758.56	22.606
758.87	19.263
759.18	19.938
759.50	18.909
759.81	22.742
760.12	23.226
760.43	25.455
760.74	22.222
761.05	22.769
761.36	23.580
761.67	27.273
761.99	22.109
762.30	18.545
762.61	18.972
762.92	18.100
763.23	17.568
763.54	17.757
763.85	23.305
764.16	21.992
764.47	20.161
764.78	22.711
765.10	24.242
765.41	21.767
765.72	22.857
766.03	21.805
766.34	23.723
766.65	26.295
766.96	20.707
767.27	21.277
767.58	15.517
767.89	14.894
768.20	18.182
768.51	26.374
768.82	19.212
769.13	18.433
769.44	16.738
769.75	19.178
770.06	19.828
770.37	22.115
770.68	20.812
770.99	24.434
771.30	25.490
771.61	24.887
771.92	25.000
772.23	25.123
772.54	25.269
772.85	20.988
773.16	10.112
773.47	20.261
773.78	19.608
774.09	14.371
774.39	12.000
774.70	14.013
775.01	15.862
775.32	19.286
775.63	4.959
775.94	16.031
776.25	10.236
776.56	16.667
776.87	18.269
777.18	17.949
777.48	17.241
777.79	8.696
778.10	1.905
778.41	13.514
778.72	11.905
779.03	16.541
779.34	23.404
779.65	27.397
779.95	17.123
780.26	13.793
780.57	8.130
780.88	16.535
781.19	18.103
781.50	11.628
781.80	21.302
782.11	15.723
782.42	19.231
782.73	13.669
783.04	14.074
783.34	16.667
783.65	9.402
783.96	15.574
784.27	22.759
784.57	15.447
784.88	16.406
785.19	19.000
785.50	29.000
785.81	12.931
786.11	10.345
786.42	12.621
786.73	18.182
787.04	11.224
787.34	17.857
787.65	26.667
787.96	13.274
788.26	13.636
788.57	8.547
788.88	17.969
789.19	15.873
789.49	12.174
789.80	10.204
790.11	4.040
790.41	9.091
790.72	19.565
791.03	3.409
791.33	15.000
791.64	12.500
791.95	17.442
792.25	21.277
792.56	24.719
792.87	-1.370
793.17	13.043
793.48	-8.000
793.79	-3.750
794.09	32.500
794.40	15.094
794.70	18.447
795.01	17.073
795.32	15.385
795.62	18.095
795.93	2.941
796.23	12.264
796.54	18.750
796.85	8.824
797.15	5.634
797.46	13.889
797.76	34.848
798.07	22.093
798.37	2.632
798.68	9.091
798.99	17.284
799.29	11.429
799.60	18.841
799.90	14.667
800.21	8.197
800.51	9.231
800.82	10.169
801.12	30.435
801.43	31.148
801.73	11.111
802.04	4.000
802.34	11.940
802.65	-1.923
802.95	7.143
803.26	-15.385
803.56	-13.725
803.87	-17.391
804.17	-1.333
804.48	19.048
804.78	7.407
805.09	15.217
805.39	-17.778
805.70	18.519
806.00	-7.018
806.30	15.493
806.61	22.857
806.91	5.556
807.22	34.211
807.52	10.667
807.83	-1.818
808.13	5.556
808.43	20.588
808.74	-8.955
809.04	-1.695
809.35	5.769
809.65	14.062
809.95	-35.135
810.26	-9.091
810.56	-4.110
810.86	4.762
811.17	-2.000
811.47	18.367
811.77	-18.421
812.08	-11.364
812.38	11.321
812.69	-10.000
812.99	-21.212
813.29	5.263
813.59	-31.429
813.90	4.545
814.20	-15.385
814.50	-11.538
814.81	9.434
815.11	-19.149
815.41	22.034
815.72	7.143
816.02	7.843
816.32	10.417
816.62	-12.195
816.93	2.703
817.23	-5.714
817.53	0.000
817.84	15.217
818.14	11.538
818.44	-13.158
818.74	19.565
819.04	-40.000
819.35	-5.405
819.65	-8.824
819.95	-36.111
820.25	9.524
820.56	27.500
820.86	-51.724
821.16	30.000
821.46	0.000
821.76	7.500
822.07	-20.930
822.37	-40.541
822.67	-43.750
822.97	9.524
823.27	-7.143
823.57	-4.000
823.88	-33.333
824.18	3.571
824.48	0.000
824.78	-9.677
825.08	4.348
825.38	24.242
825.69	-50.000
825.99	-5.263
826.29	-11.111
826.59	13.333
826.89	-57.143
827.19	6.522
827.49	7.500
827.79	-8.571
828.09	0.000
828.39	-9.091
828.70	5.405
829.00	3.571
829.30	-14.286
829.60	3.333
829.90	18.750
830.20	0.000
830.50	-29.630
830.80	-34.783
831.10	-54.545
831.40	21.212
831.70	16.129
832.00	-4.762
832.30	-28.571
832.60	-91.667
832.90	-27.586
833.20	-25.000
833.50	-6.061
833.80	-22.222
834.10	23.077
834.40	37.500
834.70	-122.222
835.00	5.263
835.30	26.923
835.60	33.333
835.90	19.355
836.20	9.091
836.50	10.714
836.80	-30.769
837.10	-7.143
837.40	-333.333
837.70	-36.364
838.00	-109.091
838.30	-34.783
838.60	-15.385
838.90	9.091
839.19	-7.143
839.49	16.667
839.79	-92.308
840.09	-125.000
840.39	7.143
840.69	-3.571
840.99	-11.538
841.29	-68.421
841.59	-100.000
841.88	-36.364
842.18	50.000
842.48	-31.250
842.78	-46.667
843.08	-3.704
843.38	-120.000
843.68	-8.696
843.97	0.000
844.27	-106.667
844.57	-10.000
844.87	-22.222
845.17	-42.857
845.47	-40.000
845.76	-38.095
846.06	-64.706
846.36	-120.000
846.66	-50.000
846.96	0.000
847.25	-137.500
847.55	-7.143
847.85	-175.000
848.15	22.727
848.44	-700.000
848.74	10.000
849.04	-7.407
849.34	-9.091
849.63	-250.000
849.93	-320.000
850.23	-72.222
850.53	110.000
850.82	-30.769
851.12	-22.222
851.42	-53.333
851.71	-19.231
852.01	-14.286
852.31	-200.000
852.61	18.182
852.90	-45.000
853.20	-21.053
853.50	-66.667
853.79	-8.696
854.09	12.500
854.39	-52.632
854.68	-8.333
854.98	-9.677
855.28	11.538
855.57	-15.000
855.87	-16.667
856.17	29.630
856.46	78.571
856.76	-66.667
857.05	-55.556
857.35	-32.000
857.65	11.111
857.94	-23.077
858.24	13.793
858.53	-11.111
858.83	-7.407
859.13	-22.727
859.42	-4.348
859.72	-100.000
860.01	-300.000
860.31	-16.000
860.60	14.286
860.90	-266.667
861.20	-80.000
861.49	-1050.000
861.79	-66.667
862.08	-15.000
862.38	86.667
862.67	-300.000
862.97	-233.333
863.26	-33.333
863.56	-22.222
863.85	-266.667
864.15	27.778
864.44	-30.000
864.74	78.571
865.03	125.000
865.33	-220.000
865.62	16.667
865.92	-91.667
866.21	-166.667
866.51	56.250
866.80	-100.000
867.10	-550.000
867.39	0.000
867.69	0.000
867.98	-53.846
868.27	-466.667
868.57	-80.000
868.86	27.778
869.16	-69.231
869.45	-13.333
869.75	-1200.000
870.04	0.000
870.33	-100.000
870.63	0.000
870.92	633.333
871.22	-80.000
871.51	-1300.000
871.80	22.222
872.10	800.000
>>>>>End Processed Spectral Data<<<<<
