SpectraSuite Data File
++++++++++++++++++++++++++++++++++++
Date: Fri May 15 20:45:29 PDT 2015
User: schluterlab
Dark Spectrum Present: Yes
Reference Spectrum Present: Yes
Number of Sampled Component Spectra: 1
Spectrometers: USB2E3373
Integration Time (usec): 3000 (USB2E3373)
Spectra Averaged: 3 (USB2E3373)
Boxcar Smoothing: 0 (USB2E3373)
Correct for Electrical Dark: No (USB2E3373)
Strobe/Lamp Enabled: No (USB2E3373)
Correct for Detector Non-linearity: No (USB2E3373)
Correct for Stray Light: No (USB2E3373)
Number of Pixels in Processed Spectrum: 2048
>>>>>Begin Processed Spectral Data<<<<<
178.53	0.000
178.91	0.000
179.29	25.000
179.67	-500.000
180.04	-28.571
180.42	25.000
180.80	-400.000
181.18	33.333
181.56	150.000
181.94	-750.000
182.31	500.000
182.69	-240.000
183.07	-466.667
183.45	-100.000
183.83	133.333
184.20	-18.182
184.58	122.222
184.96	150.000
185.34	66.667
185.72	-800.000
186.09	61.538
186.47	-700.000
186.85	200.000
187.23	155.556
187.61	300.000
187.98	-133.333
188.36	22.222
188.74	-200.000
189.12	0.000
189.49	-16.667
189.87	0.000
190.25	21.429
190.63	0.000
191.00	0.000
191.38	10.526
191.76	100.000
192.14	50.000
192.51	400.000
192.89	-22.222
193.27	-185.714
193.65	166.667
194.02	100.000
194.40	0.000
194.78	-162.500
195.15	-16.667
195.53	12.500
195.91	150.000
196.29	-150.000
196.66	146.154
197.04	71.429
197.42	-88.889
197.79	-566.667
198.17	-53.846
198.55	1200.000
198.92	-266.667
199.30	-600.000
199.68	-60.000
200.05	-266.667
200.43	0.000
200.81	-200.000
201.18	-233.333
201.56	1100.000
201.94	-100.000
202.31	300.000
202.69	-180.000
203.07	175.000
203.44	100.000
203.82	0.000
204.19	21.429
204.57	-566.667
204.95	137.500
205.32	20.000
205.70	-142.857
206.08	-300.000
206.45	122.222
206.83	78.571
207.20	-157.143
207.58	1100.000
207.96	-33.333
208.33	-130.000
208.71	-225.000
209.08	-233.333
209.46	-1000.000
209.84	-100.000
210.21	-1000.000
210.59	-57.143
210.96	16.667
211.34	-75.000
211.71	0.000
212.09	-85.714
212.46	-2600.000
212.84	0.000
213.22	0.000
213.59	550.000
213.97	46.154
214.34	81.818
214.72	50.000
215.09	275.000
215.47	-46.154
215.84	-27.273
216.22	-200.000
216.59	-75.000
216.97	50.000
217.34	-275.000
217.72	-220.000
218.09	12.500
218.47	175.000
218.84	-900.000
219.22	-77.778
219.59	-100.000
219.97	266.667
220.34	50.000
220.72	28.571
221.09	-100.000
221.47	100.000
221.84	-250.000
222.22	-750.000
222.59	-81.818
222.97	-8.333
223.34	-100.000
223.72	-57.143
224.09	-23.810
224.46	-14.286
224.84	466.667
225.21	0.000
225.59	0.000
225.96	-200.000
226.34	325.000
226.71	-71.429
227.08	-50.000
227.46	-62.500
227.83	-600.000
228.21	-22.222
228.58	-63.636
228.95	-87.500
229.33	200.000
229.70	-18.750
230.08	-75.000
230.45	-142.857
230.82	85.714
231.20	-60.000
231.57	14.286
231.95	-114.286
232.32	-20.000
232.69	-28.571
233.07	100.000
233.44	-120.000
233.81	-80.000
234.19	-133.333
234.56	-29.412
234.93	300.000
235.31	-150.000
235.68	-380.000
236.05	-107.692
236.43	-40.000
236.80	-82.353
237.17	-3.125
237.55	-35.000
237.92	-22.222
238.29	-8.333
238.67	10.000
239.04	-5.882
239.41	-14.634
239.79	-10.000
240.16	12.195
240.53	-28.947
240.91	-17.391
241.28	-3.175
241.65	1.786
242.02	13.699
242.40	11.667
242.77	-18.644
243.14	-15.152
243.51	5.000
243.89	-1.149
244.26	-5.747
244.63	-3.571
245.00	8.247
245.38	12.371
245.75	-7.865
246.12	-10.345
246.49	4.959
246.87	7.692
247.24	1.681
247.61	-10.526
247.98	0.000
248.36	1.250
248.73	-1.974
249.10	-1.299
249.47	3.797
249.84	-3.922
250.22	4.118
250.59	2.614
250.96	9.390
251.33	-5.233
251.70	1.765
252.08	3.046
252.45	0.000
252.82	-2.010
253.19	4.608
253.56	1.869
253.94	-0.450
254.31	6.087
254.68	9.649
255.05	3.150
255.42	1.310
255.79	5.792
256.16	3.113
256.54	8.582
256.91	4.183
257.28	4.089
257.65	1.873
258.02	4.255
258.39	5.387
258.76	5.128
259.14	3.654
259.51	2.913
259.88	3.093
260.25	4.902
260.62	5.208
260.99	2.712
261.36	1.370
261.73	5.380
262.10	3.951
262.47	3.681
262.85	2.194
263.22	3.692
263.59	6.854
263.96	5.280
264.33	1.818
264.70	3.869
265.07	3.571
265.44	5.949
265.81	4.802
266.18	5.738
266.55	4.370
266.92	5.959
267.29	4.961
267.66	2.302
268.03	3.141
268.40	1.044
268.77	7.487
269.14	5.036
269.51	5.141
269.88	4.988
270.25	2.806
270.62	2.683
270.99	4.092
271.36	1.956
271.73	4.930
272.10	1.460
272.47	6.147
272.84	3.218
273.21	6.961
273.58	4.578
273.95	6.865
274.32	3.002
274.69	2.489
275.06	4.241
275.43	4.762
275.80	3.974
276.17	4.828
276.54	5.996
276.91	5.482
277.28	2.620
277.65	5.992
278.02	4.255
278.39	5.033
278.76	3.564
279.13	1.245
279.50	3.782
279.87	2.376
280.23	2.796
280.60	5.848
280.97	4.444
281.34	3.846
281.71	5.544
282.08	2.658
282.45	3.914
282.82	1.931
283.19	4.642
283.56	2.697
283.92	2.657
284.29	4.615
284.66	3.682
285.03	4.126
285.40	3.025
285.77	5.975
286.14	4.332
286.51	5.351
286.87	4.022
287.24	2.762
287.61	3.527
287.98	4.737
288.35	2.773
288.72	4.378
289.08	3.646
289.45	4.218
289.82	3.497
290.19	3.242
290.56	4.117
290.93	4.040
291.29	4.006
291.66	5.197
292.03	4.306
292.40	3.710
292.77	5.582
293.13	2.760
293.50	3.794
293.87	4.275
294.24	5.719
294.60	4.769
294.97	3.720
295.34	2.147
295.71	4.769
296.08	3.886
296.44	3.129
296.81	2.361
297.18	3.188
297.55	5.014
297.91	5.342
298.28	6.332
298.65	4.206
299.02	3.504
299.38	1.505
299.75	2.069
300.12	3.010
300.48	3.557
300.85	4.436
301.22	2.857
301.59	3.947
301.95	4.810
302.32	3.891
302.69	3.980
303.05	3.342
303.42	3.736
303.79	5.023
304.15	4.421
304.52	3.092
304.89	3.626
305.25	3.148
305.62	2.450
305.99	3.041
306.35	3.353
306.72	2.362
307.09	4.105
307.45	2.755
307.82	4.051
308.19	4.065
308.55	3.381
308.92	5.120
309.29	2.346
309.65	3.014
310.02	3.740
310.38	3.403
310.75	3.060
311.12	3.875
311.48	2.651
311.85	3.246
312.22	2.848
312.58	3.715
312.95	2.988
313.31	2.277
313.68	2.932
314.05	4.694
314.41	4.433
314.78	4.021
315.14	5.653
315.51	4.658
315.87	5.328
316.24	5.865
316.61	4.921
316.97	6.052
317.34	5.664
317.70	4.302
318.07	6.154
318.43	6.176
318.80	5.682
319.16	6.738
319.53	7.123
319.89	6.102
320.26	6.781
320.62	6.921
320.99	5.950
321.35	7.914
321.72	8.307
322.08	7.956
322.45	8.426
322.81	8.448
323.18	8.342
323.54	7.819
323.91	8.861
324.27	9.570
324.64	10.300
325.00	10.401
325.37	12.397
325.73	11.061
326.10	11.262
326.46	11.390
326.83	10.936
327.19	11.857
327.56	11.381
327.92	14.085
328.29	12.500
328.65	12.736
329.01	13.051
329.38	13.548
329.74	13.031
330.11	13.253
330.47	13.265
330.84	13.750
331.20	15.304
331.56	14.630
331.93	15.525
332.29	14.757
332.66	14.389
333.02	14.126
333.38	14.024
333.75	15.842
334.11	13.876
334.48	17.044
334.84	15.293
335.20	15.828
335.57	14.869
335.93	15.989
336.29	16.298
336.66	14.986
337.02	14.870
337.38	15.741
337.75	15.818
338.11	16.141
338.47	16.332
338.84	15.712
339.20	16.453
339.56	16.422
339.93	15.398
340.29	15.963
340.65	16.129
341.02	15.957
341.38	15.221
341.74	15.018
342.11	15.511
342.47	16.014
342.83	15.484
343.20	16.289
343.56	15.478
343.92	15.412
344.28	16.567
344.65	15.889
345.01	15.212
345.37	15.223
345.73	16.318
346.10	16.135
346.46	15.055
346.82	15.139
347.19	14.879
347.55	15.706
347.91	16.505
348.27	17.219
348.63	15.503
349.00	15.669
349.36	15.295
349.72	16.003
350.08	14.508
350.45	15.563
350.81	14.037
351.17	14.414
351.53	15.347
351.89	14.203
352.26	14.640
352.62	15.484
352.98	15.663
353.34	15.298
353.70	17.233
354.07	14.919
354.43	14.732
354.79	14.781
355.15	15.952
355.51	15.902
355.87	15.129
356.24	14.356
356.60	15.360
356.96	15.238
357.32	15.495
357.68	15.637
358.04	14.943
358.40	15.514
358.77	14.912
359.13	14.251
359.49	15.177
359.85	14.899
360.21	14.992
360.57	14.614
360.93	15.053
361.29	14.502
361.66	14.342
362.02	14.924
362.38	13.938
362.74	14.686
363.10	14.823
363.46	14.678
363.82	15.627
364.18	15.203
364.54	14.118
364.90	14.624
365.26	14.847
365.62	16.058
365.98	15.029
366.35	15.732
366.71	15.595
367.07	15.530
367.43	14.450
367.79	15.265
368.15	15.650
368.51	15.368
368.87	14.645
369.23	14.513
369.59	14.796
369.95	14.883
370.31	14.740
370.67	14.701
371.03	14.563
371.39	14.661
371.75	14.505
372.11	14.551
372.47	15.015
372.83	15.259
373.19	15.478
373.55	14.729
373.91	15.695
374.27	14.954
374.63	15.219
374.99	15.177
375.35	15.251
375.71	16.014
376.07	14.747
376.42	15.306
376.78	15.772
377.14	15.911
377.50	15.538
377.86	15.462
378.22	14.805
378.58	15.513
378.94	15.564
379.30	16.032
379.66	15.862
380.02	15.635
380.38	15.155
380.74	14.542
381.09	16.380
381.45	15.352
381.81	15.546
382.17	15.292
382.53	15.553
382.89	15.443
383.25	15.868
383.61	15.793
383.97	14.476
384.32	14.384
384.68	15.170
385.04	14.767
385.40	14.499
385.76	16.478
386.12	15.136
386.48	15.773
386.83	15.282
387.19	15.751
387.55	16.123
387.91	15.587
388.27	15.507
388.62	16.174
388.98	15.777
389.34	15.678
389.70	16.594
390.06	15.985
390.42	14.573
390.77	14.585
391.13	15.322
391.49	15.265
391.85	15.205
392.20	15.317
392.56	15.257
392.92	16.324
393.28	15.802
393.64	14.955
393.99	16.552
394.35	14.738
394.71	15.198
395.07	14.771
395.42	15.301
395.78	15.309
396.14	16.141
396.50	15.029
396.85	14.874
397.21	14.787
397.57	15.235
397.92	14.919
398.28	15.920
398.64	14.880
399.00	16.253
399.35	14.786
399.71	14.819
400.07	15.599
400.42	15.422
400.78	14.942
401.14	15.306
401.49	15.545
401.85	14.625
402.21	14.819
402.57	14.500
402.92	14.304
403.28	15.539
403.63	14.565
403.99	15.115
404.35	15.116
404.70	15.060
405.06	14.454
405.42	14.543
405.77	14.062
406.13	14.203
406.49	14.506
406.84	14.364
407.20	14.449
407.55	13.909
407.91	14.104
408.27	13.193
408.62	14.708
408.98	14.295
409.34	15.056
409.69	14.858
410.05	14.163
410.40	14.012
410.76	15.018
411.11	14.250
411.47	15.122
411.83	13.936
412.18	14.350
412.54	14.232
412.89	14.470
413.25	14.380
413.60	13.851
413.96	14.356
414.31	14.146
414.67	14.047
415.03	14.314
415.38	13.838
415.74	14.658
416.09	14.500
416.45	14.922
416.80	14.739
417.16	15.677
417.51	15.190
417.87	14.016
418.22	13.860
418.58	14.114
418.93	14.859
419.29	13.892
419.64	13.739
420.00	15.302
420.35	14.627
420.71	14.824
421.06	14.672
421.42	15.264
421.77	14.798
422.12	14.472
422.48	15.051
422.83	14.211
423.19	14.842
423.54	13.757
423.90	14.841
424.25	14.811
424.61	15.239
424.96	15.679
425.31	14.154
425.67	15.786
426.02	14.723
426.38	14.903
426.73	14.891
427.09	16.013
427.44	15.647
427.79	15.439
428.15	16.080
428.50	14.839
428.85	15.172
429.21	15.280
429.56	16.119
429.92	15.819
430.27	15.940
430.62	15.055
430.98	15.021
431.33	16.141
431.68	15.646
432.04	15.148
432.39	15.345
432.74	15.093
433.10	16.667
433.45	16.547
433.80	15.554
434.16	14.737
434.51	15.860
434.86	15.621
435.22	15.536
435.57	16.282
435.92	15.749
436.28	15.981
436.63	16.372
436.98	15.875
437.34	15.426
437.69	16.935
438.04	15.954
438.39	16.432
438.75	16.393
439.10	16.695
439.45	16.372
439.81	15.780
440.16	16.271
440.51	17.672
440.86	17.644
441.22	17.364
441.57	16.943
441.92	17.419
442.27	17.184
442.63	17.505
442.98	17.117
443.33	17.585
443.68	17.188
444.03	17.685
444.39	17.462
444.74	17.781
445.09	17.706
445.44	17.607
445.79	18.257
446.15	17.566
446.50	17.693
446.85	17.747
447.20	17.570
447.55	18.471
447.91	17.766
448.26	18.099
448.61	18.653
448.96	18.244
449.31	18.092
449.66	18.757
450.02	18.254
450.37	18.435
450.72	17.526
451.07	18.608
451.42	18.102
451.77	17.842
452.12	18.361
452.47	18.030
452.83	18.669
453.18	18.027
453.53	17.320
453.88	19.004
454.23	18.685
454.58	19.458
454.93	18.492
455.28	17.270
455.63	18.909
455.98	18.821
456.34	18.902
456.69	18.806
457.04	19.534
457.39	18.894
457.74	17.896
458.09	18.423
458.44	18.724
458.79	18.263
459.14	19.336
459.49	19.463
459.84	19.120
460.19	18.689
460.54	18.399
460.89	18.580
461.24	18.944
461.59	19.121
461.94	18.931
462.29	19.662
462.64	19.668
462.99	18.822
463.34	18.637
463.69	18.275
464.04	19.552
464.39	18.921
464.74	19.264
465.09	19.339
465.44	18.869
465.79	18.141
466.14	18.928
466.49	19.091
466.84	19.274
467.19	19.399
467.54	18.966
467.89	18.888
468.24	19.039
468.59	19.365
468.94	18.921
469.29	19.082
469.64	19.549
469.99	19.972
470.34	18.430
470.68	19.612
471.03	19.533
471.38	19.971
471.73	19.468
472.08	19.132
472.43	18.926
472.78	18.711
473.13	18.707
473.48	18.176
473.83	18.929
474.17	19.495
474.52	19.145
474.87	19.515
475.22	18.243
475.57	19.142
475.92	19.528
476.27	19.849
476.61	18.981
476.96	18.126
477.31	18.929
477.66	18.427
478.01	18.697
478.36	18.246
478.70	19.086
479.05	20.440
479.40	18.919
479.75	18.770
480.10	19.099
480.45	18.350
480.79	19.436
481.14	18.699
481.49	17.882
481.84	19.015
482.19	18.382
482.53	18.849
482.88	19.093
483.23	18.378
483.58	18.821
483.92	16.989
484.27	18.323
484.62	18.736
484.97	18.242
485.31	18.316
485.66	17.491
486.01	18.268
486.36	17.693
486.70	18.234
487.05	18.249
487.40	17.813
487.75	18.169
488.09	18.109
488.44	17.469
488.79	18.229
489.13	18.670
489.48	18.042
489.83	18.655
490.17	18.652
490.52	18.476
490.87	18.279
491.22	19.054
491.56	18.311
491.91	18.069
492.26	18.376
492.60	18.522
492.95	19.626
493.30	18.319
493.64	18.664
493.99	19.179
494.34	18.495
494.68	18.190
495.03	17.713
495.37	18.548
495.72	18.476
496.07	19.024
496.41	18.066
496.76	18.194
497.11	17.885
497.45	18.663
497.80	19.273
498.14	18.927
498.49	18.334
498.84	17.465
499.18	18.223
499.53	18.601
499.87	17.753
500.22	18.101
500.56	18.457
500.91	18.273
501.26	17.993
501.60	17.806
501.95	18.389
502.29	18.305
502.64	18.340
502.98	18.352
503.33	17.051
503.67	18.169
504.02	18.671
504.36	18.308
504.71	17.727
505.06	18.118
505.40	18.274
505.75	17.938
506.09	17.638
506.44	18.634
506.78	17.857
507.13	17.528
507.47	16.710
507.82	17.628
508.16	17.908
508.51	17.838
508.85	18.001
509.19	18.414
509.54	18.391
509.88	17.853
510.23	17.590
510.57	17.905
510.92	16.898
511.26	17.730
511.61	18.097
511.95	18.247
512.30	17.239
512.64	18.030
512.98	17.518
513.33	18.411
513.67	17.226
514.02	17.334
514.36	19.257
514.70	17.657
515.05	19.095
515.39	17.591
515.74	18.443
516.08	17.274
516.42	18.080
516.77	18.198
517.11	17.982
517.46	17.355
517.80	18.057
518.14	17.575
518.49	17.728
518.83	17.679
519.17	17.404
519.52	17.940
519.86	17.767
520.20	17.011
520.55	17.323
520.89	18.193
521.23	17.796
521.58	18.233
521.92	18.077
522.26	17.437
522.61	17.597
522.95	18.543
523.29	17.027
523.64	17.598
523.98	17.693
524.32	16.624
524.66	17.734
525.01	17.987
525.35	17.369
525.69	16.970
526.04	16.667
526.38	18.872
526.72	16.808
527.06	17.639
527.41	17.744
527.75	17.225
528.09	16.545
528.43	18.433
528.78	17.492
529.12	16.839
529.46	16.439
529.80	17.036
530.15	17.096
530.49	16.835
530.83	16.416
531.17	16.991
531.51	16.895
531.86	16.927
532.20	16.562
532.54	16.678
532.88	16.838
533.22	16.465
533.57	16.907
533.91	16.384
534.25	17.188
534.59	16.806
534.93	15.293
535.27	15.419
535.62	15.619
535.96	15.982
536.30	15.831
536.64	16.816
536.98	16.516
537.32	16.501
537.66	17.321
538.01	16.713
538.35	16.297
538.69	16.578
539.03	16.063
539.37	16.622
539.71	15.746
540.05	16.361
540.39	16.828
540.73	16.179
541.07	16.644
541.42	16.465
541.76	16.862
542.10	15.485
542.44	15.844
542.78	14.246
543.12	16.415
543.46	16.968
543.80	15.475
544.14	15.020
544.48	15.856
544.82	15.243
545.16	17.145
545.50	16.021
545.84	16.572
546.18	16.879
546.52	16.078
546.86	16.463
547.20	16.738
547.54	15.901
547.88	15.761
548.22	15.056
548.56	14.908
548.90	16.105
549.24	15.909
549.58	15.867
549.92	15.011
550.26	15.385
550.60	16.357
550.94	15.011
551.28	16.306
551.62	16.077
551.96	15.188
552.30	14.912
552.64	14.810
552.98	15.963
553.32	15.621
553.66	15.022
554.00	15.620
554.34	15.510
554.68	14.971
555.02	15.179
555.36	14.959
555.69	14.139
556.03	14.632
556.37	15.302
556.71	14.224
557.05	15.138
557.39	14.349
557.73	15.217
558.07	15.913
558.41	15.773
558.75	14.186
559.08	14.421
559.42	15.159
559.76	15.773
560.10	14.679
560.44	14.296
560.78	14.895
561.12	14.528
561.45	14.055
561.79	15.196
562.13	14.265
562.47	14.101
562.81	14.697
563.15	14.598
563.48	15.134
563.82	14.413
564.16	14.833
564.50	14.324
564.84	14.859
565.17	14.554
565.51	15.096
565.85	13.923
566.19	13.992
566.52	14.410
566.86	14.203
567.20	14.197
567.54	14.112
567.88	14.411
568.21	14.027
568.55	14.239
568.89	14.476
569.23	14.155
569.56	13.135
569.90	13.601
570.24	13.026
570.57	13.564
570.91	13.419
571.25	13.285
571.59	13.018
571.92	12.563
572.26	12.651
572.60	12.961
572.93	13.053
573.27	12.696
573.61	13.007
573.95	13.108
574.28	12.579
574.62	12.332
574.96	12.640
575.29	12.923
575.63	12.179
575.97	12.171
576.30	12.173
576.64	12.397
576.98	12.175
577.31	12.411
577.65	12.362
577.98	12.384
578.32	12.179
578.66	11.820
578.99	11.862
579.33	12.016
579.67	12.263
580.00	12.278
580.34	11.990
580.67	11.771
581.01	11.960
581.35	11.585
581.68	12.222
582.02	11.929
582.35	11.736
582.69	11.921
583.02	11.750
583.36	12.113
583.70	12.072
584.03	12.149
584.37	12.592
584.70	12.115
585.04	11.528
585.37	11.916
585.71	11.750
586.04	11.977
586.38	11.603
586.72	12.367
587.05	12.681
587.39	12.105
587.72	12.657
588.06	12.178
588.39	12.333
588.73	12.179
589.06	12.557
589.40	12.513
589.73	12.413
590.07	12.349
590.40	12.384
590.73	12.603
591.07	12.680
591.40	12.289
591.74	12.760
592.07	13.544
592.41	13.118
592.74	12.107
593.08	11.806
593.41	12.092
593.75	12.332
594.08	12.049
594.41	11.900
594.75	12.061
595.08	11.767
595.42	11.741
595.75	11.679
596.09	12.041
596.42	12.278
596.75	12.433
597.09	12.210
597.42	12.331
597.75	12.048
598.09	12.675
598.42	11.507
598.76	12.098
599.09	11.939
599.42	11.823
599.76	11.625
600.09	12.104
600.42	12.017
600.76	11.181
601.09	11.298
601.42	11.124
601.76	12.068
602.09	11.922
602.42	12.216
602.76	11.757
603.09	11.752
603.42	12.416
603.76	11.815
604.09	11.098
604.42	11.717
604.76	12.061
605.09	12.294
605.42	12.144
605.75	11.165
606.09	11.805
606.42	11.760
606.75	11.602
607.09	12.044
607.42	11.564
607.75	11.190
608.08	11.141
608.42	12.243
608.75	11.373
609.08	12.157
609.41	11.624
609.75	11.139
610.08	12.182
610.41	11.449
610.74	11.653
611.07	12.093
611.41	11.988
611.74	12.154
612.07	11.617
612.40	11.597
612.73	11.073
613.07	11.417
613.40	11.926
613.73	11.360
614.06	11.630
614.39	12.352
614.72	10.700
615.06	11.732
615.39	11.572
615.72	10.872
616.05	11.676
616.38	10.427
616.71	11.131
617.05	11.674
617.38	11.691
617.71	11.887
618.04	12.190
618.37	12.610
618.70	11.815
619.03	12.639
619.36	10.347
619.69	11.372
620.03	12.199
620.36	11.660
620.69	12.848
621.02	12.003
621.35	12.448
621.68	11.224
622.01	11.500
622.34	13.567
622.67	13.091
623.00	12.098
623.33	11.433
623.66	11.818
623.99	12.179
624.32	12.243
624.65	9.850
624.99	11.362
625.32	10.311
625.65	12.176
625.98	12.409
626.31	11.056
626.64	11.438
626.97	11.867
627.30	12.172
627.63	12.218
627.96	11.770
628.29	12.673
628.62	12.389
628.95	12.826
629.28	12.601
629.61	11.266
629.94	12.414
630.26	11.858
630.59	12.175
630.92	12.821
631.25	12.615
631.58	12.445
631.91	12.719
632.24	12.041
632.57	12.614
632.90	12.100
633.23	12.588
633.56	11.587
633.89	13.070
634.22	12.716
634.55	11.817
634.88	11.239
635.20	12.051
635.53	14.000
635.86	12.094
636.19	12.807
636.52	11.480
636.85	10.794
637.18	11.447
637.51	12.956
637.83	11.038
638.16	13.370
638.49	13.215
638.82	12.763
639.15	13.433
639.48	11.554
639.81	12.831
640.13	11.544
640.46	13.120
640.79	10.457
641.12	13.294
641.45	10.961
641.77	13.481
642.10	13.744
642.43	12.540
642.76	14.026
643.09	10.662
643.41	12.298
643.74	13.180
644.07	12.808
644.40	13.514
644.73	12.434
645.05	11.913
645.38	13.757
645.71	10.284
646.04	11.490
646.36	12.057
646.69	13.129
647.02	11.909
647.35	13.619
647.67	11.335
648.00	12.873
648.33	13.652
648.66	11.356
648.98	9.548
649.31	10.248
649.64	12.716
649.96	12.642
650.29	11.414
650.62	12.821
650.94	13.148
651.27	10.242
651.60	14.775
651.92	11.364
652.25	9.414
652.58	12.333
652.90	13.036
653.23	9.244
653.56	11.844
653.88	10.825
654.21	9.632
654.54	10.696
654.86	12.564
655.19	11.111
655.52	11.533
655.84	9.823
656.17	10.611
656.49	14.376
656.82	14.668
657.15	10.974
657.47	8.074
657.80	5.948
658.13	5.798
658.45	8.673
658.78	8.639
659.10	8.642
659.43	8.571
659.75	8.584
660.08	8.069
660.41	10.521
660.73	10.221
661.06	12.132
661.38	10.959
661.71	9.446
662.03	12.232
662.36	11.868
662.68	11.062
663.01	12.882
663.33	8.585
663.66	9.535
663.98	10.233
664.31	12.154
664.63	8.295
664.96	10.217
665.28	9.934
665.61	10.390
665.93	11.957
666.26	11.931
666.58	11.857
666.91	7.529
667.23	11.557
667.56	10.427
667.88	11.990
668.21	9.785
668.53	9.929
668.86	12.500
669.18	11.085
669.50	13.559
669.83	10.233
670.15	10.723
670.48	12.440
670.80	11.060
671.13	9.172
671.45	8.676
671.77	13.734
672.10	13.663
672.42	10.674
672.75	13.499
673.07	12.522
673.39	13.211
673.72	9.073
674.04	10.000
674.37	14.831
674.69	9.636
675.01	13.556
675.34	11.937
675.66	12.963
675.98	11.530
676.31	11.239
676.63	7.126
676.95	11.364
677.28	13.882
677.60	12.771
677.92	10.092
678.25	12.910
678.57	9.740
678.89	9.244
679.22	11.633
679.54	9.639
679.86	9.344
680.18	10.680
680.51	10.038
680.83	10.139
681.15	10.800
681.48	10.656
681.80	13.017
682.12	11.089
682.44	10.460
682.77	10.155
683.09	8.467
683.41	11.818
683.73	10.599
684.06	10.398
684.38	8.817
684.70	13.072
685.02	7.469
685.34	8.300
685.67	10.319
685.99	11.392
686.31	9.558
686.63	11.317
686.96	10.456
687.28	8.485
687.60	8.365
687.92	11.717
688.24	7.863
688.56	10.699
688.89	10.937
689.21	11.778
689.53	10.209
689.85	11.860
690.17	11.384
690.49	10.165
690.82	7.524
691.14	7.381
691.46	8.411
691.78	7.658
692.10	9.677
692.42	10.606
692.74	11.538
693.06	7.883
693.39	9.050
693.71	8.824
694.03	9.238
694.35	8.645
694.67	12.374
694.99	11.488
695.31	10.705
695.63	12.000
695.95	10.101
696.27	9.585
696.59	11.389
696.91	10.924
697.23	8.226
697.56	9.653
697.88	11.613
698.20	10.023
698.52	7.765
698.84	10.766
699.16	6.000
699.48	12.531
699.80	10.670
700.12	10.782
700.44	12.045
700.76	9.884
701.08	10.606
701.40	9.036
701.72	12.654
702.04	9.901
702.36	10.368
702.68	8.408
703.00	10.303
703.32	10.850
703.64	5.650
703.96	9.855
704.28	6.442
704.60	8.254
704.91	4.732
705.23	9.635
705.55	12.367
705.87	10.108
706.19	8.889
706.51	10.997
706.83	11.897
707.15	9.657
707.47	8.964
707.79	7.292
708.11	9.750
708.43	10.000
708.74	12.920
709.06	12.394
709.38	8.869
709.70	13.018
710.02	9.554
710.34	11.765
710.66	6.410
710.98	10.265
711.29	8.852
711.61	11.864
711.93	9.772
712.25	9.622
712.57	11.355
712.89	7.836
713.20	11.765
713.52	10.453
713.84	8.191
714.16	8.247
714.48	8.710
714.80	8.013
715.11	7.295
715.43	6.897
715.75	7.000
716.07	7.641
716.39	11.745
716.70	6.273
717.02	6.107
717.34	14.170
717.66	11.504
717.97	4.783
718.29	11.715
718.61	9.449
718.93	8.140
719.24	12.548
719.56	10.442
719.88	10.997
720.20	6.439
720.51	4.981
720.83	8.880
721.15	9.664
721.46	8.871
721.78	3.162
722.10	8.178
722.42	3.734
722.73	5.306
723.05	5.306
723.37	5.932
723.68	14.414
724.00	8.120
724.32	7.556
724.63	9.545
724.95	11.790
725.27	8.295
725.58	7.627
725.90	4.762
726.22	8.880
726.53	11.525
726.85	12.360
727.16	8.679
727.48	6.478
727.80	8.907
728.11	5.508
728.43	8.627
728.74	7.258
729.06	6.800
729.38	13.158
729.69	6.375
730.01	2.308
730.32	10.821
730.64	9.541
730.96	8.302
731.27	7.333
731.59	8.475
731.90	9.236
732.22	8.833
732.53	9.302
732.85	8.156
733.16	14.141
733.48	3.597
733.80	9.058
734.11	8.814
734.43	4.811
734.74	11.212
735.06	8.469
735.37	10.876
735.69	10.438
736.00	6.272
736.32	8.054
736.63	4.930
736.95	7.167
737.26	7.117
737.58	6.040
737.89	9.890
738.21	6.391
738.52	6.584
738.83	10.917
739.15	5.677
739.46	7.874
739.78	4.029
740.09	6.863
740.41	11.232
740.72	10.236
741.04	5.263
741.35	11.489
741.66	14.218
741.98	10.204
742.29	10.891
742.61	6.806
742.92	4.265
743.23	6.481
743.55	11.312
743.86	5.742
744.18	8.612
744.49	1.596
744.80	-1.087
745.12	8.021
745.43	4.878
745.74	2.604
746.06	7.805
746.37	7.330
746.68	13.744
747.00	1.596
747.31	11.940
747.62	1.942
747.94	3.828
748.25	3.465
748.56	4.918
748.88	5.759
749.19	10.106
749.50	12.808
749.82	-0.472
750.13	6.422
750.44	7.895
750.75	12.687
751.07	10.584
751.38	8.429
751.69	4.706
752.01	5.814
752.32	6.773
752.63	5.929
752.94	5.172
753.26	16.736
753.57	7.692
753.88	7.080
754.19	5.417
754.51	8.264
754.82	6.478
755.13	11.667
755.44	9.274
755.75	8.203
756.07	6.226
756.38	5.283
756.69	5.364
757.00	6.000
757.31	6.536
757.63	9.451
757.94	9.722
758.25	4.932
758.56	6.915
758.87	9.065
759.18	7.165
759.50	7.636
759.81	8.361
760.12	11.935
760.43	5.758
760.74	7.716
761.05	8.308
761.36	10.227
761.67	8.182
761.99	12.585
762.30	5.818
762.61	9.091
762.92	6.335
763.23	4.505
763.54	8.879
763.85	9.322
764.16	6.639
764.47	5.645
764.78	9.158
765.10	10.774
765.41	8.517
765.72	7.302
766.03	3.383
766.34	4.015
766.65	10.757
766.96	6.566
767.27	7.447
767.58	5.172
767.89	-0.709
768.20	2.273
768.51	9.341
768.82	6.404
769.13	5.991
769.44	6.009
769.75	2.283
770.06	10.345
770.37	8.654
770.68	10.152
770.99	9.955
771.30	7.843
771.61	7.692
771.92	12.069
772.23	12.315
772.54	10.753
772.85	12.346
773.16	14.607
773.47	12.418
773.78	6.536
774.09	10.778
774.39	4.667
774.70	5.732
775.01	15.862
775.32	1.429
775.63	3.306
775.94	6.107
776.25	5.512
776.56	5.833
776.87	0.000
777.18	5.128
777.48	5.172
777.79	10.435
778.10	-15.238
778.41	0.901
778.72	0.794
779.03	6.767
779.34	9.220
779.65	8.219
779.95	-2.055
780.26	4.828
780.57	8.943
780.88	10.236
781.19	4.310
781.50	0.000
781.80	5.325
782.11	-3.145
782.42	8.462
782.73	3.597
783.04	8.148
783.34	0.000
783.65	-11.111
783.96	4.098
784.27	12.414
784.57	6.504
784.88	6.250
785.19	10.000
785.50	10.000
785.81	4.310
786.11	-1.724
786.42	-0.971
786.73	12.727
787.04	6.122
787.34	6.250
787.65	16.190
787.96	-0.885
788.26	1.818
788.57	4.274
788.88	13.281
789.19	3.968
789.49	2.609
789.80	-10.204
790.11	5.051
790.41	0.000
790.72	17.391
791.03	5.682
791.33	12.500
791.64	2.500
791.95	-2.326
792.25	4.255
792.56	0.000
792.87	6.849
793.17	-4.348
793.48	-4.000
793.79	7.500
794.09	8.750
794.40	5.660
794.70	3.883
795.01	5.691
795.32	-8.547
795.62	6.667
795.93	-2.941
796.23	0.943
796.54	2.083
796.85	5.882
797.15	7.042
797.46	9.722
797.76	6.061
798.07	10.465
798.37	2.632
798.68	-6.061
798.99	11.111
799.29	11.429
799.60	1.449
799.90	-4.000
800.21	11.475
800.51	0.000
800.82	5.085
801.12	7.246
801.43	6.557
801.73	6.349
802.04	-2.000
802.34	0.000
802.65	11.538
802.95	-21.429
803.26	-13.462
803.56	13.725
803.87	-13.043
804.17	17.333
804.48	25.397
804.78	-25.926
805.09	-15.217
805.39	-24.444
805.70	-11.111
806.00	-12.281
806.30	4.225
806.61	-4.286
806.91	-22.222
807.22	6.579
807.52	4.000
807.83	-16.364
808.13	-8.333
808.43	8.824
808.74	-11.940
809.04	-10.169
809.35	-9.615
809.65	-9.375
809.95	-37.838
810.26	-6.818
810.56	4.110
810.86	-7.143
811.17	0.000
811.47	-8.163
811.77	-18.421
812.08	-13.636
812.38	-7.547
812.69	-5.000
812.99	-39.394
813.29	-2.632
813.59	-31.429
813.90	-9.091
814.20	-28.205
814.50	1.923
814.81	0.000
815.11	-12.766
815.41	3.390
815.72	-7.143
816.02	11.765
816.32	-8.333
816.62	4.878
816.93	-18.919
817.23	-17.143
817.53	-4.167
817.84	-19.565
818.14	7.692
818.44	-10.526
818.74	15.217
819.04	-40.000
819.35	0.000
819.65	-5.882
819.95	-22.222
820.25	-11.905
820.56	10.000
820.86	-48.276
821.16	17.500
821.46	2.128
821.76	-5.000
822.07	-9.302
822.37	-13.514
822.67	-21.875
822.97	9.524
823.27	-42.857
823.57	-44.000
823.88	-48.148
824.18	-35.714
824.48	14.706
824.78	-12.903
825.08	-17.391
825.38	3.030
825.69	-29.167
825.99	-5.263
826.29	-13.889
826.59	-73.333
826.89	-66.667
827.19	19.565
827.49	2.500
827.79	-25.714
828.09	-3.571
828.39	3.030
828.70	13.514
829.00	-17.857
829.30	-52.381
829.60	-13.333
829.90	-6.250
830.20	-10.526
830.50	-37.037
830.80	-39.130
831.10	-45.455
831.40	0.000
831.70	22.581
832.00	-23.810
832.30	-33.333
832.60	-108.333
832.90	-10.345
833.20	-35.000
833.50	-21.212
833.80	-40.741
834.10	-42.308
834.40	0.000
834.70	-100.000
835.00	-31.579
835.30	19.231
835.60	6.667
835.90	16.129
836.20	-31.818
836.50	21.429
836.80	-69.231
837.10	-35.714
837.40	-600.000
837.70	-27.273
838.00	-72.727
838.30	13.043
838.60	-7.692
838.90	-9.091
839.19	3.571
839.49	-16.667
839.79	-61.538
840.09	-66.667
840.39	46.429
840.69	-21.429
840.99	-23.077
841.29	-47.368
841.59	-140.000
841.88	18.182
842.18	-120.000
842.48	-31.250
842.78	-53.333
843.08	-14.815
843.38	-60.000
843.68	21.739
843.97	-13.333
844.27	-53.333
844.57	-25.000
844.87	38.889
845.17	4.762
845.47	-26.667
845.76	-4.762
846.06	-5.882
846.36	-70.000
846.66	-50.000
846.96	-73.333
847.25	-150.000
847.55	7.143
847.85	-150.000
848.15	4.545
848.44	-500.000
848.74	20.000
849.04	-14.815
849.34	-27.273
849.63	-250.000
849.93	-220.000
850.23	-22.222
850.53	0.000
850.82	-69.231
851.12	-11.111
851.42	6.667
851.71	19.231
852.01	-42.857
852.31	0.000
852.61	-18.182
852.90	-35.000
853.20	21.053
853.50	-108.333
853.79	8.696
854.09	4.167
854.39	-21.053
854.68	-25.000
854.98	-45.161
855.28	26.923
855.57	40.000
855.87	-44.444
856.17	-7.407
856.46	-92.857
856.76	-66.667
857.05	-55.556
857.35	8.000
857.65	-38.889
857.94	15.385
858.24	17.241
858.53	5.556
858.83	11.111
859.13	0.000
859.42	17.391
859.72	-75.000
860.01	-333.333
860.31	-4.000
860.60	-9.524
860.90	-300.000
861.20	-93.333
861.49	-800.000
861.79	-93.333
862.08	-35.000
862.38	46.667
862.67	-300.000
862.97	-150.000
863.26	-33.333
863.56	11.111
863.85	-266.667
864.15	-72.222
864.44	-100.000
864.74	50.000
865.03	100.000
865.33	-300.000
865.62	16.667
865.92	16.667
866.21	-83.333
866.51	75.000
866.80	0.000
867.10	-350.000
867.39	-33.333
867.69	0.000
867.98	-61.538
868.27	-666.667
868.57	-13.333
868.86	50.000
869.16	-100.000
869.45	-46.667
869.75	-1600.000
870.04	0.000
870.33	-171.429
870.63	19.048
870.92	66.667
871.22	-380.000
871.51	-300.000
871.80	111.111
872.10	433.333
>>>>>End Processed Spectral Data<<<<<
