SpectraSuite Data File
++++++++++++++++++++++++++++++++++++
Date: Fri May 15 21:09:49 PDT 2015
User: schluterlab
Dark Spectrum Present: Yes
Reference Spectrum Present: Yes
Number of Sampled Component Spectra: 1
Spectrometers: USB2E3373
Integration Time (usec): 3000 (USB2E3373)
Spectra Averaged: 3 (USB2E3373)
Boxcar Smoothing: 0 (USB2E3373)
Correct for Electrical Dark: No (USB2E3373)
Strobe/Lamp Enabled: No (USB2E3373)
Correct for Detector Non-linearity: No (USB2E3373)
Correct for Stray Light: No (USB2E3373)
Number of Pixels in Processed Spectrum: 2048
>>>>>Begin Processed Spectral Data<<<<<
178.53	0.000
178.91	0.000
179.29	-12.500
179.67	-500.000
180.04	128.571
180.42	225.000
180.80	-600.000
181.18	-0.000
181.56	800.000
181.94	-150.000
182.31	1600.000
182.69	0.000
183.07	-333.333
183.45	-160.000
183.83	183.333
184.20	36.364
184.58	177.778
184.96	-75.000
185.34	-33.333
185.72	-250.000
186.09	123.077
186.47	-600.000
186.85	333.333
187.23	33.333
187.61	-100.000
187.98	-500.000
188.36	-66.667
188.74	-66.667
189.12	52.941
189.49	22.222
189.87	0.000
190.25	28.571
190.63	100.000
191.00	-366.667
191.38	-15.789
191.76	250.000
192.14	100.000
192.51	0.000
192.89	-33.333
193.27	-71.429
193.65	266.667
194.02	181.818
194.40	-30.000
194.78	-150.000
195.15	16.667
195.53	-12.500
195.91	50.000
196.29	-250.000
196.66	92.308
197.04	142.857
197.42	-55.556
197.79	-400.000
198.17	-123.077
198.55	1400.000
198.92	-133.333
199.30	-200.000
199.68	-160.000
200.05	-400.000
200.43	0.000
200.81	-333.333
201.18	-133.333
201.56	600.000
201.94	-400.000
202.31	-166.667
202.69	-320.000
203.07	150.000
203.44	-900.000
203.82	0.000
204.19	-28.571
204.57	-533.333
204.95	112.500
205.32	-30.000
205.70	-114.286
206.08	-75.000
206.45	200.000
206.83	85.714
207.20	-128.571
207.58	1200.000
207.96	-466.667
208.33	-90.000
208.71	-125.000
209.08	-200.000
209.46	-800.000
209.84	20.000
210.21	-1100.000
210.59	0.000
210.96	83.333
211.34	-325.000
211.71	-33.333
212.09	-214.286
212.46	-1400.000
212.84	0.000
213.22	10.000
213.59	200.000
213.97	69.231
214.34	0.000
214.72	-150.000
215.09	175.000
215.47	-84.615
215.84	54.545
216.22	-266.667
216.59	-125.000
216.97	-150.000
217.34	-150.000
217.72	-40.000
218.09	75.000
218.47	187.500
218.84	-900.000
219.22	-88.889
219.59	-20.000
219.97	300.000
220.34	250.000
220.72	-57.143
221.09	-225.000
221.47	-300.000
221.84	-800.000
222.22	-600.000
222.59	-9.091
222.97	-33.333
223.34	-200.000
223.72	-21.429
224.09	-4.762
224.46	-3.571
224.84	200.000
225.21	-50.000
225.59	20.000
225.96	-1000.000
226.34	450.000
226.71	-142.857
227.08	-150.000
227.46	37.500
227.83	-550.000
228.21	-44.444
228.58	18.182
228.95	-112.500
229.33	120.000
229.70	25.000
230.08	-50.000
230.45	-14.286
230.82	-100.000
231.20	-93.333
231.57	121.429
231.95	71.429
232.32	-80.000
232.69	21.429
233.07	-300.000
233.44	-60.000
233.81	-140.000
234.19	-66.667
234.56	-41.176
234.93	350.000
235.31	225.000
235.68	-240.000
236.05	-76.923
236.43	-70.000
236.80	-47.059
237.17	6.250
237.55	-5.000
237.92	-37.037
238.29	30.556
238.67	-26.667
239.04	8.824
239.41	-34.146
239.79	-40.000
240.16	14.634
240.53	-31.579
240.91	2.174
241.28	3.175
241.65	-1.786
242.02	6.849
242.40	6.667
242.77	15.254
243.14	-6.061
243.51	0.000
243.89	22.989
244.26	-1.149
244.63	7.143
245.00	8.247
245.38	7.216
245.75	-7.865
246.12	-4.310
246.49	0.000
246.87	8.654
247.24	-2.521
247.61	-2.632
247.98	4.065
248.36	14.375
248.73	1.316
249.10	3.896
249.47	5.696
249.84	9.150
250.22	5.882
250.59	3.922
250.96	7.512
251.33	2.907
251.70	5.882
252.08	4.569
252.45	9.406
252.82	7.035
253.19	6.452
253.56	4.673
253.94	6.757
254.31	10.000
254.68	11.842
255.05	5.906
255.42	8.734
255.79	4.633
256.16	7.393
256.54	8.209
256.91	2.662
257.28	6.691
257.65	5.618
258.02	3.191
258.39	5.724
258.76	8.791
259.14	8.638
259.51	7.767
259.88	6.186
260.25	6.536
260.62	9.028
260.99	3.729
261.36	4.795
261.73	6.646
262.10	11.246
262.47	7.669
262.85	10.031
263.22	4.923
263.59	7.477
263.96	6.832
264.33	6.667
264.70	7.143
265.07	7.143
265.44	8.499
265.81	5.367
266.18	10.383
266.55	8.997
266.92	8.290
267.29	7.572
267.66	8.696
268.03	7.068
268.40	5.222
268.77	6.150
269.14	6.475
269.51	6.427
269.88	6.234
270.25	4.337
270.62	4.634
270.99	5.882
271.36	4.890
271.73	8.451
272.10	5.839
272.47	7.565
272.84	4.455
273.21	11.369
273.58	13.253
273.95	8.467
274.32	6.467
274.69	7.014
275.06	7.589
275.43	8.163
275.80	7.947
276.17	5.977
276.54	6.852
276.91	7.018
277.28	5.459
277.65	8.884
278.02	8.085
278.39	6.565
278.76	7.966
279.13	3.527
279.50	6.723
279.87	6.048
280.23	6.022
280.60	8.967
280.97	8.687
281.34	5.000
281.71	8.419
282.08	5.317
282.45	7.241
282.82	5.598
283.19	7.157
283.56	7.129
283.92	6.452
284.29	5.577
284.66	5.426
285.03	6.287
285.40	8.318
285.77	7.206
286.14	7.220
286.51	6.273
286.87	4.936
287.24	7.735
287.61	6.173
287.98	7.368
288.35	7.106
288.72	5.604
289.08	7.465
289.45	8.084
289.82	6.818
290.19	3.584
290.56	6.861
290.93	5.219
291.29	6.934
291.66	7.402
292.03	5.423
292.40	7.419
292.77	6.858
293.13	2.110
293.50	5.615
293.87	4.733
294.24	6.028
294.60	6.706
294.97	6.994
295.34	4.601
295.71	7.004
296.08	5.830
296.44	3.841
296.81	5.139
297.18	5.507
297.55	6.911
297.91	4.521
298.28	6.860
298.65	5.020
299.02	5.930
299.38	3.967
299.75	4.690
300.12	4.974
300.48	4.875
300.85	7.351
301.22	5.195
301.59	4.474
301.95	5.823
302.32	5.577
302.69	4.353
303.05	5.446
303.42	5.729
303.79	5.841
304.15	6.452
304.52	4.994
304.89	5.614
305.25	4.600
305.62	5.134
305.99	5.965
306.35	4.509
306.72	4.274
307.09	5.701
307.45	5.626
307.82	4.398
308.19	5.691
308.55	4.689
308.92	6.972
309.29	4.581
309.65	5.597
310.02	5.061
310.38	6.476
310.75	5.464
311.12	5.920
311.48	4.984
311.85	5.236
312.22	5.591
312.58	5.945
312.95	3.949
313.31	6.004
313.68	6.178
314.05	5.612
314.41	6.082
314.78	7.010
315.14	7.605
315.51	7.557
315.87	7.275
316.24	8.493
316.61	8.563
316.97	8.036
317.34	9.473
317.70	10.707
318.07	9.615
318.43	9.510
318.80	10.701
319.16	11.426
319.53	12.346
319.89	10.531
320.26	13.057
320.62	13.440
320.99	12.944
321.35	12.025
321.72	14.849
322.08	16.012
322.45	15.330
322.81	16.012
323.18	15.702
323.54	16.120
323.91	16.943
324.27	18.066
324.64	18.820
325.00	20.073
325.37	20.018
325.73	20.127
326.10	19.709
326.46	22.332
326.83	22.222
327.19	23.452
327.56	22.937
327.92	23.856
328.29	24.375
328.65	23.868
329.01	26.287
329.38	26.728
329.74	25.496
330.11	26.228
330.47	25.881
330.84	25.288
331.20	28.707
331.56	26.667
331.93	27.763
332.29	28.598
332.66	28.869
333.02	28.439
333.38	27.773
333.75	29.304
334.11	25.962
334.48	30.462
334.84	28.297
335.20	28.362
335.57	29.374
335.93	29.268
336.29	31.215
336.66	29.791
337.02	28.532
337.38	30.370
337.75	30.909
338.11	30.388
338.47	30.931
338.84	30.776
339.20	31.353
339.56	31.009
339.93	31.513
340.29	30.459
340.65	31.452
341.02	30.851
341.38	31.062
341.74	31.360
342.11	30.416
342.47	31.851
342.83	31.920
343.20	30.749
343.56	31.391
343.92	32.064
344.28	33.561
344.65	31.606
345.01	32.325
345.37	31.791
345.73	34.226
346.10	33.563
346.46	31.707
346.82	32.079
347.19	32.419
347.55	33.250
347.91	32.767
348.27	32.660
348.63	33.135
349.00	31.911
349.36	33.333
349.72	33.333
350.08	32.787
350.45	34.158
350.81	32.475
351.17	34.039
351.53	34.286
351.89	32.453
352.26	32.480
352.62	34.516
352.98	33.092
353.34	34.138
353.70	35.275
354.07	33.710
354.43	34.267
354.79	34.765
355.15	35.317
355.51	35.127
355.87	35.518
356.24	33.524
356.60	34.438
356.96	36.667
357.32	34.904
357.68	34.246
358.04	34.410
358.40	33.923
358.77	36.683
359.13	35.308
359.49	34.206
359.85	35.101
360.21	35.805
360.57	34.507
360.93	36.687
361.29	34.215
361.66	36.364
362.02	36.288
362.38	37.243
362.74	35.882
363.10	36.494
363.46	36.842
363.82	36.664
364.18	35.646
364.54	35.882
364.90	36.846
365.26	36.972
365.62	38.540
365.98	37.903
366.35	37.873
366.71	37.177
367.07	38.534
367.43	36.952
367.79	37.385
368.15	38.047
368.51	38.165
368.87	37.401
369.23	37.545
369.59	39.286
369.95	39.443
370.31	39.740
370.67	39.478
371.03	38.163
371.39	38.220
371.75	38.242
372.11	40.228
372.47	40.089
372.83	40.099
373.19	39.301
373.55	38.917
373.91	39.021
374.27	40.113
374.63	40.345
374.99	40.851
375.35	40.669
375.71	40.490
376.07	41.292
376.42	40.680
376.78	41.544
377.14	40.149
377.50	41.633
377.86	41.700
378.22	41.544
378.58	41.923
378.94	40.832
379.30	41.672
379.66	42.633
380.02	41.508
380.38	41.205
380.74	41.293
381.09	42.761
381.45	41.651
381.81	42.628
382.17	41.688
382.53	42.973
382.89	42.812
383.25	42.750
383.61	43.598
383.97	42.540
384.32	42.589
384.68	43.529
385.04	42.341
385.40	42.875
385.76	44.151
386.12	44.179
386.48	44.061
386.83	42.993
387.19	44.200
387.55	44.040
387.91	44.499
388.27	43.651
388.62	45.060
388.98	44.322
389.34	44.410
389.70	44.873
390.06	43.424
390.42	44.106
390.77	44.997
391.13	44.073
391.49	43.984
391.85	43.925
392.20	43.503
392.56	43.865
392.92	44.803
393.28	43.868
393.64	43.844
393.99	45.016
394.35	43.896
394.71	44.828
395.07	44.375
395.42	45.173
395.78	43.974
396.14	44.199
396.50	44.578
396.85	45.138
397.21	44.674
397.57	44.451
397.92	45.357
398.28	44.425
398.64	43.373
399.00	44.752
399.35	43.905
399.71	44.572
400.07	45.586
400.42	43.941
400.78	45.315
401.14	44.707
401.49	44.908
401.85	44.241
402.21	44.578
402.57	45.438
402.92	44.479
403.28	43.296
403.63	45.082
403.99	44.834
404.35	44.410
404.70	43.690
405.06	43.302
405.42	44.251
405.77	44.277
406.13	43.888
406.49	43.280
406.84	44.071
407.20	45.515
407.55	44.044
407.91	43.449
408.27	45.061
408.62	44.985
408.98	43.623
409.34	44.362
409.69	43.734
410.05	43.227
410.40	43.765
410.76	43.908
411.11	42.812
411.47	44.510
411.83	42.624
412.18	44.916
412.54	43.258
412.89	42.241
413.25	44.344
413.60	42.174
413.96	42.515
414.31	43.049
414.67	43.105
415.03	43.142
415.38	43.146
415.74	42.150
416.09	43.240
416.45	43.754
416.80	42.829
417.16	44.061
417.51	42.705
417.87	42.960
418.22	42.811
418.58	43.880
418.93	43.135
419.29	42.702
419.64	44.135
420.00	44.207
420.35	42.567
420.71	42.163
421.06	42.787
421.42	42.849
421.77	42.717
422.12	42.963
422.48	41.473
422.83	42.691
423.19	42.381
423.54	42.622
423.90	41.696
424.25	41.848
424.61	42.656
424.96	41.638
425.31	43.270
425.67	42.840
426.02	43.698
426.38	43.143
426.73	42.797
427.09	44.810
427.44	42.588
427.79	42.840
428.15	42.961
428.50	43.307
428.85	42.383
429.21	43.124
429.56	43.019
429.92	41.654
430.27	42.055
430.62	41.505
430.98	42.197
431.33	41.903
431.68	40.921
432.04	41.811
432.39	41.472
432.74	40.229
433.10	42.816
433.45	41.995
433.80	42.252
434.16	41.828
434.51	41.828
434.86	41.928
435.22	42.513
435.57	41.485
435.92	42.216
436.28	41.324
436.63	42.213
436.98	41.078
437.34	42.529
437.69	42.695
438.04	40.513
438.39	40.684
438.75	42.259
439.10	40.917
439.45	41.996
439.81	40.061
440.16	43.527
440.51	41.254
440.86	42.236
441.22	40.611
441.57	41.501
441.92	42.288
442.27	42.406
442.63	42.934
442.98	42.562
443.33	41.180
443.68	42.069
444.03	41.729
444.39	40.876
444.74	42.252
445.09	41.314
445.44	41.994
445.79	41.877
446.15	39.758
446.50	40.266
446.85	42.667
447.20	41.919
447.55	42.020
447.91	41.173
448.26	40.865
448.61	40.990
448.96	41.079
449.31	41.387
449.66	41.463
450.02	40.844
450.37	41.731
450.72	41.294
451.07	41.329
451.42	40.449
451.77	41.109
452.12	39.533
452.47	40.824
452.83	40.931
453.18	40.228
453.53	40.898
453.88	41.226
454.23	39.828
454.58	41.688
454.93	40.915
455.28	38.857
455.63	41.476
455.98	41.732
456.34	40.613
456.69	40.343
457.04	41.084
457.39	39.550
457.74	39.541
458.09	38.199
458.44	40.374
458.79	39.328
459.14	40.446
459.49	40.657
459.84	39.932
460.19	40.170
460.54	40.037
460.89	40.739
461.24	38.944
461.59	39.786
461.94	39.371
462.29	40.229
462.64	39.668
462.99	39.607
463.34	39.013
463.69	38.996
464.04	38.983
464.39	38.629
464.74	39.202
465.09	39.301
465.44	39.296
465.79	38.832
466.14	39.282
466.49	38.068
466.84	38.608
467.19	38.611
467.54	39.080
467.89	38.598
468.24	38.564
468.59	39.238
468.94	38.159
469.29	38.689
469.64	37.799
469.99	38.893
470.34	37.747
470.68	39.970
471.03	38.500
471.38	37.660
471.73	38.235
472.08	38.060
472.43	38.188
472.78	37.903
473.13	39.048
473.48	37.003
473.83	37.484
474.17	38.212
474.52	37.971
474.87	36.364
475.22	37.462
475.57	37.719
475.92	37.521
476.27	37.776
476.61	37.731
476.96	36.642
477.31	36.668
477.66	35.449
478.01	37.226
478.36	36.111
478.70	37.575
479.05	37.198
479.40	36.566
479.75	35.454
480.10	36.201
480.45	37.050
480.79	36.959
481.14	36.783
481.49	35.320
481.84	35.763
482.19	35.781
482.53	36.115
482.88	35.465
483.23	35.221
483.58	35.708
483.92	35.044
484.27	36.007
484.62	35.007
484.97	34.453
485.31	34.610
485.66	33.987
486.01	34.178
486.36	34.068
486.70	34.162
487.05	34.443
487.40	33.713
487.75	33.775
488.09	33.066
488.44	32.875
488.79	33.284
489.13	34.535
489.48	34.331
489.83	34.439
490.17	34.112
490.52	33.811
490.87	33.596
491.22	34.288
491.56	34.677
491.91	33.365
492.26	34.857
492.60	34.261
492.95	34.678
493.30	34.099
493.64	34.823
493.99	33.575
494.34	33.495
494.68	33.429
495.03	33.236
495.37	33.660
495.72	33.518
496.07	34.000
496.41	33.962
496.76	33.487
497.11	32.883
497.45	34.081
497.80	34.107
498.14	33.780
498.49	32.605
498.84	34.182
499.18	33.735
499.53	33.284
499.87	32.879
500.22	32.394
500.56	33.434
500.91	32.580
501.26	32.477
501.60	32.120
501.95	32.460
502.29	32.688
502.64	32.674
502.98	32.462
503.33	32.133
503.67	31.711
504.02	33.187
504.36	33.350
504.71	31.667
505.06	32.411
505.40	31.878
505.75	31.959
506.09	32.235
506.44	31.314
506.78	32.755
507.13	31.799
507.47	31.332
507.82	31.464
508.16	32.277
508.51	32.109
508.85	31.816
509.19	30.069
509.54	32.118
509.88	30.906
510.23	31.845
510.57	31.427
510.92	30.224
511.26	30.442
511.61	31.353
511.95	31.068
512.30	30.931
512.64	30.885
512.98	29.702
513.33	32.065
513.67	29.847
514.02	30.950
514.36	31.829
514.70	31.760
515.05	31.140
515.39	31.169
515.74	31.976
516.08	31.680
516.42	31.272
516.77	31.714
517.11	30.920
517.46	31.059
517.80	31.347
518.14	31.108
518.49	30.469
518.83	30.559
519.17	30.443
519.52	30.314
519.86	29.832
520.20	30.680
520.55	30.894
520.89	30.489
521.23	29.639
521.58	30.915
521.92	30.897
522.26	30.709
522.61	31.169
522.95	32.119
523.29	30.241
523.64	30.178
523.98	30.719
524.32	29.768
524.66	30.666
525.01	31.234
525.35	30.784
525.69	30.101
526.04	29.762
526.38	30.415
526.72	28.581
527.06	29.248
527.41	30.937
527.75	29.155
528.09	29.302
528.43	30.115
528.78	29.967
529.12	28.323
529.46	28.980
529.80	29.259
530.15	29.637
530.49	28.889
530.83	29.549
531.17	28.677
531.51	29.138
531.86	28.620
532.20	28.253
532.54	29.544
532.88	28.747
533.22	29.234
533.57	29.292
533.91	26.893
534.25	28.971
534.59	28.352
534.93	27.313
535.27	27.982
535.62	27.349
535.96	28.050
536.30	28.166
536.64	27.636
536.98	27.526
537.32	27.738
537.66	28.050
538.01	27.552
538.35	28.086
538.69	26.298
539.03	27.136
539.37	27.524
539.71	27.539
540.05	26.952
540.39	27.701
540.73	28.243
541.07	28.660
541.42	27.352
541.76	27.392
542.10	26.910
542.44	26.963
542.78	25.877
543.12	25.962
543.46	27.051
543.80	27.412
544.14	25.968
544.48	26.316
544.82	25.701
545.16	26.366
545.50	26.702
545.84	26.346
546.18	27.589
546.52	27.109
546.86	26.240
547.20	27.325
547.54	25.866
547.88	25.815
548.22	26.036
548.56	25.528
548.90	26.078
549.24	25.620
549.58	25.670
549.92	25.661
550.26	25.495
550.60	26.617
550.94	26.064
551.28	26.275
551.62	26.308
551.96	26.692
552.30	25.804
552.64	25.952
552.98	25.457
553.32	25.464
553.66	24.165
554.00	25.839
554.34	25.849
554.68	25.442
555.02	25.298
555.36	25.505
555.69	24.542
556.03	24.197
556.37	23.559
556.71	25.054
557.05	25.354
557.39	24.461
557.73	25.262
558.07	25.943
558.41	25.115
558.75	24.942
559.08	25.296
559.42	23.571
559.76	25.380
560.10	25.153
560.44	23.306
560.78	25.245
561.12	24.612
561.45	24.807
561.79	24.860
562.13	24.698
562.47	24.173
562.81	23.919
563.15	24.260
563.48	24.752
563.82	24.434
564.16	24.373
564.50	23.378
564.84	23.628
565.17	23.340
565.51	24.044
565.85	23.663
566.19	24.005
566.52	24.464
566.86	23.458
567.20	23.474
567.54	24.392
567.88	23.726
568.21	23.303
568.55	22.717
568.89	23.152
569.23	22.532
569.56	22.285
569.90	23.143
570.24	21.437
570.57	21.891
570.91	21.924
571.25	21.111
571.59	21.457
571.92	21.007
572.26	21.316
572.60	20.899
572.93	21.054
573.27	20.408
573.61	20.883
573.95	20.672
574.28	20.577
574.62	20.239
574.96	20.269
575.29	20.066
575.63	19.746
575.97	20.412
576.30	19.623
576.64	20.450
576.98	20.335
577.31	20.029
577.65	20.275
577.98	19.970
578.32	19.583
578.66	19.729
578.99	19.443
579.33	19.785
579.67	19.707
580.00	19.924
580.34	19.826
580.67	19.659
581.01	19.693
581.35	19.531
581.68	19.524
582.02	19.765
582.35	19.201
582.69	19.283
583.02	18.928
583.36	19.470
583.70	19.964
584.03	19.572
584.37	19.706
584.70	19.451
585.04	18.938
585.37	19.459
585.71	18.860
586.04	19.239
586.38	19.285
586.72	19.455
587.05	19.555
587.39	19.709
587.72	20.038
588.06	19.458
588.39	19.339
588.73	19.353
589.06	19.309
589.40	19.530
589.73	19.898
590.07	19.298
590.40	18.963
590.73	19.811
591.07	19.550
591.40	19.635
591.74	19.819
592.07	20.362
592.41	20.583
592.74	19.235
593.08	18.652
593.41	19.209
593.75	19.365
594.08	19.430
594.41	18.850
594.75	19.046
595.08	19.183
595.42	19.360
595.75	19.902
596.09	18.999
596.42	19.099
596.75	19.627
597.09	19.453
597.42	19.738
597.75	19.102
598.09	18.832
598.42	18.863
598.76	18.061
599.09	19.271
599.42	18.643
599.76	19.037
600.09	18.288
600.42	19.371
600.76	17.459
601.09	18.321
601.42	18.449
601.76	18.777
602.09	18.647
602.42	19.208
602.76	18.930
603.09	18.480
603.42	18.562
603.76	19.194
604.09	18.712
604.42	18.613
604.76	19.226
605.09	18.739
605.42	18.600
605.75	18.564
606.09	18.981
606.42	18.849
606.75	17.662
607.09	18.681
607.42	18.210
607.75	18.073
608.08	17.835
608.42	18.365
608.75	18.169
609.08	18.286
609.41	18.832
609.75	18.498
610.08	18.672
610.41	17.681
610.74	18.186
611.07	18.605
611.41	18.993
611.74	18.763
612.07	19.111
612.40	18.764
612.73	18.192
613.07	18.729
613.40	18.764
613.73	18.802
614.06	18.920
614.39	17.879
614.72	18.319
615.06	18.603
615.39	18.231
615.72	17.869
616.05	18.045
616.38	17.265
616.71	17.859
617.05	18.283
617.38	18.730
617.71	18.239
618.04	19.048
618.37	19.987
618.70	19.472
619.03	20.208
619.36	19.030
619.69	18.954
620.03	19.649
620.36	19.027
620.69	19.129
621.02	19.648
621.35	18.672
621.68	19.388
622.01	19.917
622.34	19.234
622.67	19.558
623.00	18.913
623.33	19.284
623.66	19.222
623.99	18.759
624.32	19.924
624.65	18.797
624.99	19.413
625.32	19.030
625.65	20.267
625.98	20.387
626.31	18.620
626.64	20.277
626.97	20.506
627.30	19.089
627.63	19.237
627.96	18.778
628.29	19.519
628.62	20.059
628.95	20.341
629.28	18.952
629.61	20.040
629.94	20.137
630.26	19.466
630.59	19.875
630.92	20.103
631.25	18.872
631.58	20.595
631.91	19.189
632.24	21.560
632.57	20.341
632.90	20.047
633.23	19.765
633.56	20.655
633.89	18.372
634.22	21.728
634.55	21.474
634.88	19.796
635.20	20.641
635.53	19.733
635.86	19.636
636.19	20.569
636.52	20.663
636.85	18.983
637.18	19.245
637.51	21.006
637.83	20.894
638.16	22.647
638.49	20.163
638.82	21.579
639.15	20.488
639.48	19.670
639.81	21.757
640.13	20.346
640.46	20.845
640.79	17.378
641.12	21.270
641.45	19.820
641.77	21.630
642.10	21.169
642.43	19.936
642.76	18.812
643.09	20.194
643.41	22.977
643.74	21.252
644.07	19.869
644.40	22.128
644.73	22.242
645.05	20.973
645.38	20.459
645.71	20.390
646.04	20.646
646.36	22.340
646.69	21.583
647.02	21.361
647.35	20.896
647.67	21.755
648.00	22.015
648.33	20.990
648.66	20.000
648.98	19.263
649.31	19.174
649.64	17.896
649.96	19.449
650.29	22.658
650.62	19.658
650.94	20.370
651.27	21.043
651.60	20.000
651.92	21.503
652.25	19.716
652.58	21.000
652.90	22.127
653.23	19.160
653.56	18.443
653.88	19.588
654.21	17.163
654.54	21.902
654.86	20.204
655.19	20.175
655.52	18.266
655.84	14.965
656.17	16.265
656.49	21.717
656.82	22.249
657.15	16.716
657.47	12.392
657.80	9.109
658.13	9.115
658.45	14.263
658.78	13.980
659.10	13.468
659.43	14.033
659.75	14.110
660.08	14.552
660.41	16.343
660.73	17.680
661.06	18.198
661.38	19.374
661.71	21.561
662.03	20.815
662.36	21.319
662.68	20.133
663.01	21.834
663.33	18.097
663.66	18.605
663.98	20.930
664.31	22.175
664.63	17.281
664.96	19.348
665.28	16.115
665.61	19.264
665.93	19.348
666.26	23.427
666.58	22.148
666.91	17.176
667.23	20.991
667.56	20.379
667.88	18.945
668.21	18.616
668.53	22.222
668.86	20.519
669.18	19.340
669.50	17.918
669.83	17.442
670.15	21.445
670.48	18.900
670.80	21.198
671.13	19.463
671.45	20.091
671.77	20.386
672.10	18.416
672.42	16.667
672.75	18.472
673.07	20.751
673.39	18.899
673.72	17.751
674.04	17.500
674.37	20.127
674.69	19.486
675.01	19.111
675.34	17.793
675.66	22.222
675.98	19.512
676.31	18.349
676.63	19.002
676.95	19.091
677.28	20.706
677.60	20.000
677.92	19.954
678.25	17.724
678.57	18.398
678.89	18.277
679.22	18.792
679.54	18.474
679.86	15.507
680.18	18.252
680.51	17.803
680.83	15.706
681.15	18.600
681.48	18.033
681.80	19.421
682.12	19.153
682.44	17.573
682.77	20.751
683.09	18.993
683.41	18.636
683.73	18.664
684.06	17.920
684.38	17.204
684.70	16.122
685.02	18.672
685.34	16.996
685.67	16.698
685.99	14.828
686.31	17.168
686.63	17.625
686.96	17.300
687.28	17.980
687.60	18.821
687.92	19.596
688.24	18.548
688.56	17.904
688.89	18.973
689.21	20.222
689.53	16.473
689.85	16.512
690.17	17.857
690.49	16.076
690.82	17.961
691.14	16.905
691.46	18.692
691.78	18.468
692.10	19.785
692.42	17.532
692.74	18.803
693.06	16.216
693.39	17.195
693.71	15.837
694.03	14.088
694.35	17.523
694.67	16.919
694.99	14.621
695.31	19.321
695.63	21.250
695.95	15.152
696.27	17.876
696.59	16.667
696.91	17.647
697.23	17.224
697.56	16.337
697.88	18.280
698.20	17.540
698.52	16.235
698.84	16.029
699.16	15.750
699.48	17.043
699.80	17.866
700.12	18.059
700.44	18.487
700.76	16.279
701.08	16.667
701.40	21.988
701.72	21.296
702.04	19.142
702.36	19.398
702.68	18.318
703.00	20.303
703.32	14.956
703.64	16.384
703.96	16.232
704.28	17.791
704.60	14.286
704.91	17.350
705.23	13.953
705.55	20.141
705.87	17.690
706.19	21.111
706.51	18.900
706.83	20.900
707.15	14.953
707.47	17.087
707.79	18.229
708.11	17.750
708.43	19.000
708.74	18.088
709.06	18.028
709.38	17.737
709.70	16.568
710.02	17.516
710.34	20.433
710.66	12.821
710.98	16.556
711.29	20.000
711.61	16.610
711.93	17.590
712.25	18.557
712.57	19.414
712.89	13.806
713.20	19.031
713.52	17.073
713.84	13.652
714.16	16.495
714.48	15.484
714.80	17.308
715.11	18.541
715.43	15.987
715.75	15.000
716.07	14.618
716.39	19.799
716.70	14.760
717.02	13.359
717.34	20.648
717.66	19.912
717.97	16.522
718.29	14.226
718.61	17.717
718.93	16.667
719.24	19.392
719.56	14.056
719.88	17.526
720.20	19.697
720.51	13.027
720.83	16.602
721.15	22.269
721.46	15.726
721.78	12.648
722.10	14.498
722.42	10.373
722.73	17.551
723.05	17.959
723.37	17.797
723.68	21.622
724.00	18.376
724.32	12.000
724.63	17.727
724.95	17.467
725.27	21.659
725.58	17.373
725.90	16.270
726.22	16.216
726.53	21.017
726.85	18.727
727.16	15.472
727.48	10.526
727.80	14.980
728.11	14.831
728.43	17.255
728.74	13.306
729.06	16.800
729.38	20.301
729.69	14.343
730.01	12.692
730.32	19.030
730.64	18.375
730.96	16.226
731.27	15.000
731.59	15.932
731.90	10.191
732.22	21.136
732.53	19.269
732.85	19.149
733.16	17.508
733.48	11.151
733.80	15.942
734.11	15.593
734.43	16.495
734.74	15.152
735.06	13.029
735.37	16.918
735.69	18.519
736.00	13.240
736.32	14.094
736.63	12.676
736.95	14.334
737.26	15.658
737.58	12.081
737.89	13.553
738.21	15.038
738.52	11.523
738.83	18.341
739.15	11.354
739.46	17.323
739.78	10.623
740.09	16.013
740.41	14.130
740.72	12.992
741.04	16.599
741.35	16.170
741.66	16.588
741.98	16.327
742.29	17.327
742.61	14.660
742.92	12.796
743.23	11.111
743.55	18.552
743.86	19.139
744.18	16.746
744.49	10.638
744.80	16.848
745.12	21.390
745.43	12.683
745.74	22.396
746.06	14.634
746.37	20.419
746.68	19.431
747.00	10.638
747.31	15.423
747.62	11.650
747.94	14.354
748.25	10.396
748.56	19.672
748.88	15.707
749.19	17.553
749.50	15.764
749.82	6.132
750.13	11.009
750.44	16.917
750.75	17.537
751.07	19.343
751.38	10.345
751.69	14.118
752.01	14.729
752.32	13.944
752.63	15.415
752.94	12.500
753.26	19.247
753.57	14.027
753.88	12.389
754.19	12.083
754.51	10.744
754.82	12.551
755.13	13.333
755.44	16.935
755.75	17.187
756.07	19.455
756.38	10.189
756.69	11.877
757.00	11.667
757.31	15.359
757.63	12.805
757.94	12.500
758.25	15.342
758.56	13.032
758.87	11.331
759.18	14.642
759.50	12.000
759.81	16.388
760.12	15.484
760.43	15.758
760.74	13.889
761.05	12.923
761.36	15.341
761.67	16.364
761.99	13.605
762.30	6.545
762.61	15.415
762.92	16.290
763.23	11.261
763.54	11.215
763.85	16.525
764.16	14.108
764.47	14.516
764.78	11.355
765.10	17.508
765.41	13.565
765.72	11.746
766.03	9.398
766.34	14.599
766.65	17.928
766.96	11.616
767.27	15.426
767.58	9.770
767.89	9.929
768.20	16.477
768.51	14.286
768.82	14.778
769.13	9.677
769.44	9.442
769.75	10.046
770.06	17.241
770.37	12.981
770.68	12.690
770.99	13.122
771.30	14.216
771.61	14.027
771.92	18.966
772.23	17.734
772.54	12.903
772.85	12.346
773.16	13.483
773.47	20.915
773.78	13.725
774.09	17.964
774.39	15.333
774.70	13.376
775.01	13.793
775.32	8.571
775.63	10.744
775.94	12.214
776.25	6.299
776.56	12.500
776.87	12.500
777.18	6.838
777.48	8.621
777.79	2.609
778.10	0.952
778.41	16.216
778.72	15.079
779.03	20.301
779.34	17.021
779.65	15.068
779.95	13.699
780.26	12.414
780.57	11.382
780.88	11.811
781.19	10.345
781.50	20.155
781.80	10.651
782.11	6.918
782.42	17.692
782.73	7.914
783.04	10.370
783.34	12.500
783.65	0.855
783.96	5.738
784.27	17.931
784.57	11.382
784.88	11.719
785.19	20.000
785.50	24.000
785.81	13.793
786.11	11.207
786.42	10.680
786.73	20.000
787.04	14.286
787.34	7.143
787.65	21.905
787.96	10.619
788.26	17.273
788.57	13.675
788.88	12.500
789.19	5.556
789.49	9.565
789.80	10.204
790.11	25.253
790.41	12.727
790.72	9.783
791.03	11.364
791.33	7.500
791.64	3.750
791.95	9.302
792.25	4.255
792.56	14.607
792.87	4.110
793.17	1.449
793.48	4.000
793.79	6.250
794.09	10.000
794.40	19.811
794.70	12.621
795.01	6.504
795.32	6.838
795.62	12.381
795.93	-1.961
796.23	16.981
796.54	13.542
796.85	17.647
797.15	15.493
797.46	19.444
797.76	13.636
798.07	13.953
798.37	15.789
798.68	0.000
798.99	16.049
799.29	18.571
799.60	14.493
799.90	22.667
800.21	16.393
800.51	13.846
800.82	18.644
801.12	10.145
801.43	9.836
801.73	26.984
802.04	30.000
802.34	2.985
802.65	32.692
802.95	0.000
803.26	-13.462
803.56	0.000
803.87	-10.870
804.17	21.333
804.48	39.683
804.78	12.963
805.09	-13.043
805.39	-15.556
805.70	25.926
806.00	-8.772
806.30	9.859
806.61	20.000
806.91	-6.944
807.22	18.421
807.52	20.000
807.83	-5.455
808.13	19.444
808.43	17.647
808.74	-7.463
809.04	-6.780
809.35	-11.538
809.65	9.375
809.95	-32.432
810.26	-9.091
810.56	8.219
810.86	11.905
811.17	-6.000
811.47	4.082
811.77	0.000
812.08	-36.364
812.38	9.434
812.69	0.000
812.99	-15.152
813.29	21.053
813.59	-20.000
813.90	-2.273
814.20	-35.897
814.50	9.615
814.81	9.434
815.11	-25.532
815.41	20.339
815.72	-7.143
816.02	17.647
816.32	-10.417
816.62	17.073
816.93	-21.622
817.23	14.286
817.53	4.167
817.84	-6.522
818.14	-3.846
818.44	-26.316
818.74	21.739
819.04	-12.500
819.35	-13.514
819.65	2.941
819.95	5.556
820.25	-16.667
820.56	22.500
820.86	-41.379
821.16	20.000
821.46	14.894
821.76	0.000
822.07	23.256
822.37	-27.027
822.67	-18.750
822.97	11.905
823.27	7.143
823.57	-40.000
823.88	-85.185
824.18	0.000
824.48	-2.941
824.78	0.000
825.08	13.043
825.38	24.242
825.69	-29.167
825.99	-2.632
826.29	-22.222
826.59	-53.333
826.89	-33.333
827.19	21.739
827.49	25.000
827.79	20.000
828.09	0.000
828.39	3.030
828.70	40.541
829.00	3.571
829.30	-71.429
829.60	3.333
829.90	12.500
830.20	5.263
830.50	-44.444
830.80	-8.696
831.10	-50.000
831.40	6.061
831.70	12.903
832.00	-28.571
832.30	-33.333
832.60	-75.000
832.90	-17.241
833.20	-15.000
833.50	9.091
833.80	-3.704
834.10	3.846
834.40	15.625
834.70	-33.333
835.00	15.789
835.30	80.769
835.60	26.667
835.90	38.710
836.20	-22.727
836.50	21.429
836.80	-15.385
837.10	-7.143
837.40	-100.000
837.70	31.818
838.00	-54.545
838.30	0.000
838.60	-15.385
838.90	-22.727
839.19	-14.286
839.49	36.667
839.79	23.077
840.09	-41.667
840.39	14.286
840.69	-25.000
840.99	-23.077
841.29	-31.579
841.59	-60.000
841.88	-90.909
842.18	-80.000
842.48	-12.500
842.78	26.667
843.08	22.222
843.38	-130.000
843.68	-13.043
843.97	-46.667
844.27	13.333
844.57	25.000
844.87	-22.222
845.17	-4.762
845.47	46.667
845.76	33.333
846.06	-5.882
846.36	-10.000
846.66	28.571
846.96	0.000
847.25	-137.500
847.55	7.143
847.85	-75.000
848.15	-63.636
848.44	-600.000
848.74	-30.000
849.04	25.926
849.34	-90.909
849.63	-200.000
849.93	-200.000
850.23	-61.111
850.53	80.000
850.82	38.462
851.12	-133.333
851.42	26.667
851.71	-38.462
852.01	-7.143
852.31	-125.000
852.61	72.727
852.90	-20.000
853.20	-15.789
853.50	25.000
853.79	-8.696
854.09	25.000
854.39	-31.579
854.68	29.167
854.98	-3.226
855.28	11.538
855.57	25.000
855.87	-22.222
856.17	0.000
856.46	0.000
856.76	-13.333
857.05	-33.333
857.35	-12.000
857.65	16.667
857.94	7.692
858.24	17.241
858.53	0.000
858.83	0.000
859.13	13.636
859.42	-30.435
859.72	-325.000
860.01	-466.667
860.31	4.000
860.60	9.524
860.90	33.333
861.20	-13.333
861.49	-900.000
861.79	-53.333
862.08	-15.000
862.38	60.000
862.67	-260.000
862.97	0.000
863.26	-25.000
863.56	27.778
863.85	-500.000
864.15	-27.778
864.44	0.000
864.74	0.000
865.03	200.000
865.33	20.000
865.62	-166.667
865.92	16.667
866.21	-200.000
866.51	-6.250
866.80	-9.091
867.10	-300.000
867.39	25.000
867.69	0.000
867.98	-7.692
868.27	-233.333
868.57	33.333
868.86	27.778
869.16	-46.154
869.45	60.000
869.75	-200.000
870.04	0.000
870.33	-114.286
870.63	9.524
870.92	233.333
871.22	-220.000
871.51	-200.000
871.80	88.889
872.10	733.333
>>>>>End Processed Spectral Data<<<<<
