SpectraSuite Data File
++++++++++++++++++++++++++++++++++++
Date: Fri May 15 20:52:37 PDT 2015
User: schluterlab
Dark Spectrum Present: Yes
Reference Spectrum Present: Yes
Number of Sampled Component Spectra: 1
Spectrometers: USB2E3373
Integration Time (usec): 3000 (USB2E3373)
Spectra Averaged: 3 (USB2E3373)
Boxcar Smoothing: 0 (USB2E3373)
Correct for Electrical Dark: No (USB2E3373)
Strobe/Lamp Enabled: No (USB2E3373)
Correct for Detector Non-linearity: No (USB2E3373)
Correct for Stray Light: No (USB2E3373)
Number of Pixels in Processed Spectrum: 2048
>>>>>Begin Processed Spectral Data<<<<<
178.53	0.000
178.91	0.000
179.29	-62.500
179.67	-350.000
180.04	14.286
180.42	150.000
180.80	-700.000
181.18	33.333
181.56	600.000
181.94	-450.000
182.31	1000.000
182.69	-80.000
183.07	-133.333
183.45	-20.000
183.83	50.000
184.20	-63.636
184.58	111.111
184.96	25.000
185.34	66.667
185.72	-450.000
186.09	84.615
186.47	-400.000
186.85	166.667
187.23	155.556
187.61	500.000
187.98	-100.000
188.36	22.222
188.74	-300.000
189.12	17.647
189.49	55.556
189.87	0.000
190.25	78.571
190.63	400.000
191.00	-166.667
191.38	-5.263
191.76	0.000
192.14	150.000
192.51	200.000
192.89	11.111
193.27	-42.857
193.65	83.333
194.02	163.636
194.40	20.000
194.78	-175.000
195.15	-8.333
195.53	12.500
195.91	425.000
196.29	-50.000
196.66	61.538
197.04	71.429
197.42	-55.556
197.79	-366.667
198.17	-69.231
198.55	1400.000
198.92	-100.000
199.30	-1100.000
199.68	-240.000
200.05	0.000
200.43	0.000
200.81	33.333
201.18	-66.667
201.56	1300.000
201.94	100.000
202.31	66.667
202.69	-260.000
203.07	-50.000
203.44	-700.000
203.82	0.000
204.19	35.714
204.57	-366.667
204.95	175.000
205.32	80.000
205.70	28.571
206.08	-25.000
206.45	11.111
206.83	100.000
207.20	-171.429
207.58	900.000
207.96	100.000
208.33	-140.000
208.71	50.000
209.08	-250.000
209.46	-400.000
209.84	-140.000
210.21	-700.000
210.59	100.000
210.96	-50.000
211.34	200.000
211.71	40.000
212.09	-185.714
212.46	-800.000
212.84	0.000
213.22	70.000
213.59	650.000
213.97	53.846
214.34	36.364
214.72	-50.000
215.09	300.000
215.47	-7.692
215.84	-27.273
216.22	100.000
216.59	-100.000
216.97	0.000
217.34	100.000
217.72	-260.000
218.09	25.000
218.47	225.000
218.84	-1100.000
219.22	-77.778
219.59	0.000
219.97	300.000
220.34	175.000
220.72	-100.000
221.09	-75.000
221.47	-100.000
221.84	-500.000
222.22	-650.000
222.59	63.636
222.97	16.667
223.34	0.000
223.72	-28.571
224.09	14.286
224.46	28.571
224.84	366.667
225.21	0.000
225.59	53.333
225.96	50.000
226.34	300.000
226.71	-185.714
227.08	-50.000
227.46	-12.500
227.83	-450.000
228.21	11.111
228.58	27.273
228.95	75.000
229.33	40.000
229.70	43.750
230.08	-150.000
230.45	-71.429
230.82	42.857
231.20	-20.000
231.57	42.857
231.95	42.857
232.32	-130.000
232.69	28.571
233.07	33.333
233.44	80.000
233.81	-50.000
234.19	-33.333
234.56	-41.176
234.93	200.000
235.31	225.000
235.68	-220.000
236.05	-61.538
236.43	-5.000
236.80	29.412
237.17	28.125
237.55	-15.000
237.92	11.111
238.29	-2.778
238.67	66.667
239.04	29.412
239.41	-9.756
239.79	40.000
240.16	56.098
240.53	10.526
240.91	17.391
241.28	22.222
241.65	33.929
242.02	41.096
242.40	56.667
242.77	22.034
243.14	21.212
243.51	36.250
243.89	43.678
244.26	28.736
244.63	35.714
245.00	30.928
245.38	43.299
245.75	23.596
246.12	25.000
246.49	28.926
246.87	32.692
247.24	30.252
247.61	28.070
247.98	37.398
248.36	29.375
248.73	33.553
249.10	33.766
249.47	34.810
249.84	39.216
250.22	36.471
250.59	26.797
250.96	34.742
251.33	28.488
251.70	39.412
252.08	35.025
252.45	30.693
252.82	35.176
253.19	34.562
253.56	33.645
253.94	39.189
254.31	31.739
254.68	38.596
255.05	32.677
255.42	37.555
255.79	37.066
256.16	34.241
256.54	40.672
256.91	29.278
257.28	32.342
257.65	33.708
258.02	31.206
258.39	36.700
258.76	39.194
259.14	35.880
259.51	32.686
259.88	34.364
260.25	33.333
260.62	42.014
260.99	28.136
261.36	36.301
261.73	33.228
262.10	36.474
262.47	34.356
262.85	33.542
263.22	37.846
263.59	34.579
263.96	35.093
264.33	36.667
264.70	33.929
265.07	35.119
265.44	39.943
265.81	37.853
266.18	34.426
266.55	35.990
266.92	34.456
267.29	36.031
267.66	31.714
268.03	35.864
268.40	34.465
268.77	36.096
269.14	32.854
269.51	33.933
269.88	35.411
270.25	32.398
270.62	33.171
270.99	33.248
271.36	32.763
271.73	33.333
272.10	35.280
272.47	34.279
272.84	34.406
273.21	34.339
273.58	33.494
273.95	35.011
274.32	32.794
274.69	30.995
275.06	35.714
275.43	33.107
275.80	32.450
276.17	34.253
276.54	31.906
276.91	33.991
277.28	35.153
277.65	33.678
278.02	33.404
278.39	30.853
278.76	33.333
279.13	30.083
279.50	31.723
279.87	32.829
280.23	29.032
280.60	33.723
280.97	33.535
281.34	28.654
281.71	33.881
282.08	31.084
282.45	30.137
282.82	30.888
283.19	34.043
283.56	33.141
283.92	31.499
284.29	30.385
284.66	29.845
285.03	31.827
285.40	30.246
285.77	29.525
286.14	32.852
286.51	33.395
286.87	31.079
287.24	32.597
287.61	31.393
287.98	31.754
288.35	31.023
288.72	32.925
289.08	30.382
289.45	29.525
289.82	31.993
290.19	30.546
290.56	33.105
290.93	29.966
291.29	28.043
291.66	30.236
292.03	30.781
292.40	32.097
292.77	30.463
293.13	28.734
293.50	28.225
293.87	28.244
294.24	29.521
294.60	28.167
294.97	27.530
295.34	28.221
295.71	28.763
296.08	28.401
296.44	26.600
296.81	28.750
297.18	28.261
297.55	30.352
297.91	30.685
298.28	29.288
298.65	28.494
299.02	26.685
299.38	28.044
299.75	27.724
300.12	27.487
300.48	27.536
300.85	29.151
301.22	27.792
301.59	27.237
301.95	28.228
302.32	30.220
302.69	28.856
303.05	26.485
303.42	28.518
303.79	27.103
304.15	29.510
304.52	28.537
304.89	28.304
305.25	28.329
305.62	27.071
305.99	27.368
306.35	26.936
306.72	28.571
307.09	30.103
307.45	30.195
307.82	29.051
308.19	30.546
308.55	29.008
308.92	30.392
309.29	29.721
309.65	29.925
310.02	29.153
310.38	30.077
310.75	31.585
311.12	29.925
311.48	30.435
311.85	30.576
312.22	29.536
312.58	31.104
312.95	29.562
313.31	30.745
313.68	31.937
314.05	32.041
314.41	33.608
314.78	32.887
315.14	33.094
315.51	32.298
315.87	32.684
316.24	33.165
316.61	33.858
316.97	33.036
317.34	33.301
317.70	33.556
318.07	34.327
318.43	36.275
318.80	33.902
319.16	36.230
319.53	36.087
319.89	35.630
320.26	36.437
320.62	36.911
320.99	35.908
321.35	38.027
321.72	37.902
322.08	38.872
322.45	40.102
322.81	40.864
323.18	39.745
323.54	41.602
323.91	40.312
324.27	42.773
324.64	42.509
325.00	42.518
325.37	44.077
325.73	42.792
326.10	45.322
326.46	46.099
326.83	45.669
327.19	46.469
327.56	46.308
327.92	47.095
328.29	49.018
328.65	49.151
329.01	47.151
329.38	49.124
329.74	47.498
330.11	47.729
330.47	48.423
330.84	47.692
331.20	50.380
331.56	47.037
331.93	49.498
332.29	49.038
332.66	47.873
333.02	48.792
333.38	49.129
333.75	48.352
334.11	48.433
334.48	50.771
334.84	48.077
335.20	48.948
335.57	47.507
335.93	49.593
336.29	48.803
336.66	48.683
337.02	48.885
337.38	48.241
337.75	49.545
338.11	49.504
338.47	48.814
338.84	49.445
339.20	48.080
339.56	49.633
339.93	49.239
340.29	49.817
340.65	49.104
341.02	49.025
341.38	47.345
341.74	47.527
342.11	46.620
342.47	47.954
342.83	48.097
343.20	46.429
343.56	48.522
343.92	49.070
344.28	48.335
344.65	48.359
345.01	47.796
345.37	48.024
345.73	47.699
346.10	49.008
346.46	47.687
346.82	47.381
347.19	46.883
347.55	47.953
347.91	47.168
348.27	47.049
348.63	48.978
349.00	46.021
349.36	47.298
349.72	48.425
350.08	48.279
350.45	47.965
350.81	46.512
351.17	47.150
351.53	47.429
351.89	45.334
352.26	46.720
352.62	47.500
352.98	47.149
353.34	45.169
353.70	47.573
354.07	45.645
354.43	44.916
354.79	46.738
355.15	47.619
355.51	47.468
355.87	46.440
356.24	46.330
356.60	47.454
356.96	48.254
357.32	46.805
357.68	46.599
358.04	46.769
358.40	45.257
358.77	46.810
359.13	45.957
359.49	44.607
359.85	45.398
360.21	47.129
360.57	46.442
360.93	46.293
361.29	45.091
361.66	46.944
362.02	47.121
362.38	45.164
362.74	46.404
363.10	46.275
363.46	45.886
363.82	46.657
364.18	44.576
364.54	44.853
364.90	46.667
365.26	46.070
365.62	47.883
365.98	45.968
366.35	46.395
366.71	45.528
367.07	46.226
367.43	46.154
367.79	45.300
368.15	46.662
368.51	46.686
368.87	45.585
369.23	44.982
369.59	47.522
369.95	46.261
370.31	46.749
370.67	46.493
371.03	45.631
371.39	46.754
371.75	45.128
372.11	45.578
372.47	46.376
372.83	45.848
373.19	46.434
373.55	45.343
373.91	46.220
374.27	48.051
374.63	45.513
374.99	45.461
375.35	46.100
375.71	47.203
376.07	47.121
376.42	46.190
376.78	46.711
377.14	47.258
377.50	45.618
377.86	47.122
378.22	46.075
378.58	48.077
378.94	46.377
379.30	46.912
379.66	47.335
380.02	45.616
380.38	46.013
380.74	46.679
381.09	47.178
381.45	46.177
381.81	45.898
382.17	46.003
382.53	46.159
382.89	47.269
383.25	46.484
383.61	48.598
383.97	46.984
384.32	46.779
384.68	46.502
385.04	45.282
385.40	45.488
385.76	48.050
386.12	47.607
386.48	48.020
386.83	45.847
387.19	46.886
387.55	47.428
387.91	46.883
388.27	45.910
388.62	46.885
388.98	46.102
389.34	47.283
389.70	47.545
390.06	46.444
390.42	47.668
390.77	47.482
391.13	46.974
391.49	47.283
391.85	47.303
392.20	46.955
392.56	46.853
392.92	46.917
393.28	46.285
393.64	46.607
393.99	49.028
394.35	47.312
394.71	47.893
395.07	45.380
395.42	46.266
395.78	45.993
396.14	46.974
396.50	46.544
396.85	46.877
397.21	45.927
397.57	45.705
397.92	45.177
398.28	45.575
398.64	46.145
399.00	45.880
399.35	44.131
399.71	45.376
400.07	45.828
400.42	44.553
400.78	47.214
401.14	45.312
401.49	45.861
401.85	45.582
402.21	45.843
402.57	46.125
402.92	45.609
403.28	45.739
403.63	45.776
403.99	45.472
404.35	45.971
404.70	44.881
405.06	44.947
405.42	44.624
405.77	42.940
406.13	44.703
406.49	44.760
406.84	44.315
407.20	45.575
407.55	44.559
407.91	45.722
408.27	43.913
408.62	44.923
408.98	44.301
409.34	44.610
409.69	43.798
410.05	43.103
410.40	44.074
410.76	44.270
411.11	43.937
411.47	44.905
411.83	44.068
412.18	44.530
412.54	42.634
412.89	43.658
413.25	44.705
413.60	44.534
413.96	42.761
414.31	43.293
414.67	44.323
415.03	44.274
415.38	42.950
415.74	42.736
416.09	44.742
416.45	44.902
416.80	44.283
417.16	45.925
417.51	45.903
417.87	45.763
418.22	45.013
418.58	45.418
418.93	45.956
419.29	43.150
419.64	44.718
420.00	46.851
420.35	46.090
420.71	45.383
421.06	45.242
421.42	46.514
421.77	46.474
422.12	45.119
422.48	45.046
422.83	46.056
423.19	46.670
423.54	46.091
423.90	46.290
424.25	48.278
424.61	47.430
424.96	46.458
425.31	47.140
425.67	48.415
426.02	48.587
426.38	48.028
426.73	49.637
427.09	49.684
427.44	49.118
427.79	49.794
428.15	48.604
428.50	49.606
428.85	48.526
429.21	49.010
429.56	50.027
429.92	48.331
430.27	48.321
430.62	49.451
430.98	49.469
431.33	49.211
431.68	49.137
432.04	50.028
432.39	49.515
432.74	50.210
433.10	51.092
433.45	50.657
433.80	50.493
434.16	49.861
434.51	51.183
434.86	50.987
435.22	51.094
435.57	51.965
435.92	52.455
436.28	51.222
436.63	51.169
436.98	52.317
437.34	51.361
437.69	52.654
438.04	52.821
438.39	51.985
438.75	52.945
439.10	52.632
439.45	53.621
439.81	53.089
440.16	56.176
440.51	54.448
440.86	54.985
441.22	53.959
441.57	54.691
441.92	55.142
442.27	54.656
442.63	53.961
442.98	54.107
443.33	54.035
443.68	53.952
444.03	54.794
444.39	55.337
444.74	55.741
445.09	55.568
445.44	55.840
445.79	56.369
446.15	55.837
446.50	56.240
446.85	56.376
447.20	55.735
447.55	56.864
447.91	55.781
448.26	57.143
448.61	56.419
448.96	57.430
449.31	56.185
449.66	57.956
450.02	56.817
450.37	58.151
450.72	57.789
451.07	57.595
451.42	57.678
451.77	57.203
452.12	57.596
452.47	58.274
452.83	57.656
453.18	60.342
453.53	59.482
453.88	58.166
454.23	59.865
454.58	60.516
454.93	60.116
455.28	57.651
455.63	60.322
455.98	58.870
456.34	59.962
456.69	59.657
457.04	60.491
457.39	59.964
457.74	60.883
458.09	58.917
458.44	58.806
458.79	60.448
459.14	60.069
459.49	59.463
459.84	60.914
460.19	60.133
460.54	61.369
460.89	61.534
461.24	61.304
461.59	59.976
461.94	59.874
462.29	62.364
462.64	63.123
462.99	62.356
463.34	61.335
463.69	62.677
464.04	62.046
464.39	62.038
464.74	61.472
465.09	62.258
465.44	61.396
465.79	60.034
466.14	62.030
466.49	61.415
466.84	61.570
467.19	62.390
467.54	62.324
467.89	62.729
468.24	63.321
468.59	64.381
468.94	62.603
469.29	63.869
469.64	63.636
469.99	67.064
470.34	63.891
470.68	65.772
471.03	65.039
471.38	65.264
471.73	66.457
472.08	65.265
472.43	66.107
472.78	64.839
473.13	66.054
473.48	64.756
473.83	64.944
474.17	65.544
474.52	64.837
474.87	65.758
475.22	66.077
475.57	65.951
475.92	65.935
476.27	65.425
476.61	66.030
476.96	64.529
477.31	66.144
477.66	66.236
478.01	67.266
478.36	66.231
478.70	67.156
479.05	66.209
479.40	66.084
479.75	65.641
480.10	65.745
480.45	65.750
480.79	67.623
481.14	67.111
481.49	66.256
481.84	66.409
482.19	65.949
482.53	67.626
482.88	66.396
483.23	67.418
483.58	66.321
483.92	66.747
484.27	66.135
484.62	65.890
484.97	65.091
485.31	63.186
485.66	60.854
486.01	59.576
486.36	58.454
486.70	59.874
487.05	60.710
487.40	62.177
487.75	63.859
488.09	62.577
488.44	63.893
488.79	65.110
489.13	66.907
489.48	66.823
489.83	67.085
490.17	67.955
490.52	68.868
490.87	68.348
491.22	70.201
491.56	68.786
491.91	68.977
492.26	70.491
492.60	68.906
492.95	70.241
493.30	69.272
493.64	71.807
493.99	70.290
494.34	69.563
494.68	70.952
495.03	69.830
495.37	69.872
495.72	72.135
496.07	71.415
496.41	69.104
496.76	70.290
497.11	68.654
497.45	69.928
497.80	70.182
498.14	70.740
498.49	70.899
498.84	70.659
499.18	70.984
499.53	71.776
499.87	72.033
500.22	70.673
500.56	72.063
500.91	71.687
501.26	70.489
501.60	70.487
501.95	71.373
502.29	71.186
502.64	72.683
502.98	72.324
503.33	71.662
503.67	71.181
504.02	72.776
504.36	74.369
504.71	72.020
505.06	72.068
505.40	71.980
505.75	73.402
506.09	72.276
506.44	74.333
506.78	73.163
507.13	74.767
507.47	74.517
507.82	75.267
508.16	74.326
508.51	74.921
508.85	75.353
509.19	74.933
509.54	75.550
509.88	75.027
510.23	77.300
510.57	75.788
510.92	74.840
511.26	76.923
511.61	76.733
511.95	76.438
512.30	76.718
512.64	77.629
512.98	78.102
513.33	76.609
513.67	77.658
514.02	79.634
514.36	79.600
514.70	79.429
515.05	81.022
515.39	79.634
515.74	81.796
516.08	80.693
516.42	80.094
516.77	80.047
517.11	81.128
517.46	80.670
517.80	79.917
518.14	81.874
518.49	80.409
518.83	81.713
519.17	80.291
519.52	78.686
519.86	80.252
520.20	82.139
520.55	81.739
520.89	81.556
521.23	81.951
521.58	83.596
521.92	82.500
522.26	83.409
522.61	82.857
522.95	85.828
523.29	82.719
523.64	83.291
523.98	85.548
524.32	83.247
524.66	83.035
525.01	83.377
525.35	83.279
525.69	84.646
526.04	83.069
526.38	85.473
526.72	82.603
527.06	83.658
527.41	83.443
527.75	83.311
528.09	83.056
528.43	85.348
528.78	84.620
529.12	83.355
529.46	83.106
529.80	81.634
530.15	83.894
530.49	83.771
530.83	86.115
531.17	82.337
531.51	85.431
531.86	83.073
532.20	84.690
532.54	85.024
532.88	85.695
533.22	85.282
533.57	83.879
533.91	82.833
534.25	84.180
534.59	82.040
534.93	80.365
535.27	80.838
535.62	80.233
535.96	81.670
536.30	81.135
536.64	83.804
536.98	82.927
537.32	85.135
537.66	85.764
538.01	83.776
538.35	83.703
538.69	81.092
539.03	81.750
539.37	81.157
539.71	82.822
540.05	82.349
540.39	82.687
540.73	81.869
541.07	83.840
541.42	82.325
541.76	83.345
542.10	82.657
542.44	82.696
542.78	79.904
543.12	82.692
543.46	83.380
543.80	83.206
544.14	81.041
544.48	80.746
544.82	82.228
545.16	82.719
545.50	81.375
545.84	83.003
546.18	84.043
546.52	83.922
546.86	84.903
547.20	83.119
547.54	81.060
547.88	81.658
548.22	79.356
548.56	80.739
548.90	82.480
549.24	80.923
549.58	82.793
549.92	83.846
550.26	83.956
550.60	84.535
550.94	84.914
551.28	85.394
551.62	85.077
551.96	85.188
552.30	84.576
552.64	82.228
552.98	81.997
553.32	83.738
553.66	83.890
554.00	84.818
554.34	85.894
554.68	85.029
555.02	85.119
555.36	84.592
555.69	82.930
556.03	83.226
556.37	82.206
556.71	84.765
557.05	85.682
557.39	85.874
557.73	84.108
558.07	84.691
558.41	86.447
558.75	85.814
559.08	86.052
559.42	87.302
559.76	89.992
560.10	85.627
560.44	85.108
560.78	85.105
561.12	84.203
561.45	84.399
561.79	83.824
562.13	83.818
562.47	83.094
562.81	83.357
563.15	84.274
563.48	83.593
563.82	82.636
564.16	84.471
564.50	81.757
564.84	81.995
565.17	81.288
565.51	85.109
565.85	83.813
566.19	82.095
566.52	83.445
566.86	81.041
567.20	80.573
567.54	81.691
567.88	78.852
568.21	79.695
568.55	78.641
568.89	76.643
569.23	75.397
569.56	74.387
569.90	73.366
570.24	70.413
570.57	70.473
570.91	70.547
571.25	68.300
571.59	68.078
571.92	65.481
572.26	67.089
572.60	67.318
572.93	67.211
573.27	66.771
573.61	66.259
573.95	65.647
574.28	65.228
574.62	63.539
574.96	63.600
575.29	63.352
575.63	62.866
575.97	64.326
576.30	63.930
576.64	63.682
576.98	64.633
577.31	64.389
577.65	63.807
577.98	62.109
578.32	62.044
578.66	61.208
578.99	62.447
579.33	63.178
579.67	62.655
580.00	63.443
580.34	63.035
580.67	63.205
581.01	63.280
581.35	61.649
581.68	61.563
582.02	61.094
582.35	61.337
582.69	61.784
583.02	62.423
583.36	63.023
583.70	64.408
584.03	65.416
584.37	66.629
584.70	65.247
585.04	63.756
585.37	63.759
585.71	63.170
586.04	63.817
586.38	63.644
586.72	65.509
587.05	65.742
587.39	66.145
587.72	66.539
588.06	64.821
588.39	65.110
588.73	66.667
589.06	66.699
589.40	67.231
589.73	68.310
590.07	69.751
590.40	69.427
590.73	70.387
591.07	69.635
591.40	70.703
591.74	71.267
592.07	72.171
592.41	71.599
592.74	68.220
593.08	66.329
593.41	67.315
593.75	65.195
594.08	66.323
594.41	67.904
594.75	67.366
595.08	68.142
595.42	68.274
595.75	67.706
596.09	68.335
596.42	69.492
596.75	69.760
597.09	70.114
597.42	70.009
597.75	72.240
598.09	70.575
598.42	68.953
598.76	69.884
599.09	67.989
599.42	66.389
599.76	66.027
600.09	66.629
600.42	66.376
600.76	65.973
601.09	67.595
601.42	66.588
601.76	67.447
602.09	68.729
602.42	69.208
602.76	69.058
603.09	70.100
603.42	70.067
603.76	68.065
604.09	68.125
604.42	68.824
604.76	70.761
605.09	70.155
605.42	69.707
605.75	69.264
606.09	68.662
606.42	67.640
606.75	67.879
607.09	68.835
607.42	70.093
607.75	68.162
608.08	68.374
608.42	67.656
608.75	71.373
609.08	71.699
609.41	71.218
609.75	70.565
610.08	70.894
610.41	69.469
610.74	70.648
611.07	72.041
611.41	72.081
611.74	73.348
612.07	71.360
612.40	72.538
612.73	73.672
613.07	73.341
613.40	72.867
613.73	72.971
614.06	72.287
614.39	73.153
614.72	71.877
615.06	74.190
615.39	71.779
615.72	70.883
616.05	71.508
616.38	71.681
616.71	72.355
617.05	74.985
617.38	75.361
617.71	76.541
618.04	75.048
618.37	76.293
618.70	76.700
619.03	78.750
619.36	78.365
619.69	80.819
620.03	79.182
620.36	78.112
620.69	78.158
621.02	78.517
621.35	81.162
621.68	82.398
622.01	84.250
622.34	82.442
622.67	80.915
623.00	80.245
623.33	78.963
623.66	79.132
623.99	78.820
624.32	79.848
624.65	78.947
624.99	81.490
625.32	78.469
625.65	81.147
625.98	82.353
626.31	81.879
626.64	83.622
626.97	83.595
627.30	83.363
627.63	82.322
627.96	85.265
628.29	85.384
628.62	88.004
628.95	89.780
629.28	91.331
629.61	88.435
629.94	86.413
630.26	86.660
630.59	89.802
630.92	89.744
631.25	89.026
631.58	91.520
631.91	91.557
632.24	91.972
632.57	92.727
632.90	95.018
633.23	92.353
633.56	97.985
633.89	95.808
634.22	97.531
634.55	96.696
634.88	95.913
635.20	96.410
635.53	98.933
635.86	95.839
636.19	96.119
636.52	94.133
636.85	94.789
637.18	93.082
637.51	94.465
637.83	93.430
638.16	101.501
638.49	95.232
638.82	94.474
639.15	97.558
639.48	94.498
639.81	96.513
640.13	98.846
640.46	98.542
640.79	97.791
641.12	98.375
641.45	100.751
641.77	97.926
642.10	103.791
642.43	98.714
642.76	104.785
643.09	100.646
643.41	97.573
643.74	101.977
644.07	103.777
644.40	105.236
644.73	105.604
645.05	101.510
645.38	104.056
645.71	106.206
646.04	107.361
646.36	104.078
646.69	105.935
647.02	109.074
647.35	110.448
647.67	108.592
648.00	106.343
648.33	97.611
648.66	101.525
648.98	95.980
649.31	102.314
649.64	96.232
649.96	95.138
650.29	98.978
650.62	98.803
650.94	106.667
651.27	104.842
651.60	102.883
651.92	100.000
652.25	95.737
652.58	95.000
652.90	101.029
653.23	95.630
653.56	94.924
653.88	94.845
654.21	98.074
654.54	94.397
654.86	96.435
655.19	91.520
655.52	74.381
655.84	56.351
656.17	59.491
656.49	78.905
656.82	81.491
657.15	62.818
657.47	47.236
657.80	35.915
658.13	35.868
658.45	56.037
658.78	56.503
659.10	57.015
659.43	58.228
659.75	63.000
660.08	67.034
660.41	75.179
660.73	83.978
661.06	95.841
661.38	98.630
661.71	100.205
662.03	105.794
662.36	105.714
662.68	102.876
663.01	104.148
663.33	110.673
663.66	104.651
663.98	109.070
664.31	103.838
664.63	107.834
664.96	100.000
665.28	103.753
665.61	104.762
665.93	111.304
666.26	102.386
666.58	102.461
666.91	104.471
667.23	110.613
667.56	108.768
667.88	106.715
668.21	107.399
668.53	107.092
668.86	106.604
669.18	106.604
669.50	102.663
669.83	103.023
670.15	105.594
670.48	104.545
670.80	103.687
671.13	100.895
671.45	99.315
671.77	99.356
672.10	93.861
672.42	97.753
672.75	93.606
673.07	93.918
673.39	93.394
673.72	93.491
674.04	96.458
674.37	98.729
674.69	99.358
675.01	104.444
675.34	100.225
675.66	101.389
675.98	100.887
676.31	102.064
676.63	105.463
676.95	98.182
677.28	101.412
677.60	103.614
677.92	98.394
678.25	96.718
678.57	95.455
678.89	95.168
679.22	99.776
679.54	94.378
679.86	90.258
680.18	91.262
680.51	89.962
680.83	90.656
681.15	92.600
681.48	94.262
681.80	96.074
682.12	92.742
682.44	92.050
682.77	97.572
683.09	97.254
683.41	96.591
683.73	97.465
684.06	95.796
684.38	91.398
684.70	93.464
685.02	88.174
685.34	86.759
685.67	87.054
685.99	85.895
686.31	83.186
686.63	86.642
686.96	86.312
687.28	88.283
687.60	85.171
687.92	89.899
688.24	89.315
688.56	91.048
688.89	94.196
689.21	93.333
689.53	95.128
689.85	92.791
690.17	91.295
690.49	96.454
690.82	95.388
691.14	95.238
691.46	91.121
691.78	91.892
692.10	87.527
692.42	89.610
692.74	85.897
693.06	91.216
693.39	87.104
693.71	88.462
694.03	90.993
694.35	92.757
694.67	94.697
694.99	96.345
695.31	96.606
695.63	95.000
695.95	91.414
696.27	93.782
696.59	99.167
696.91	99.440
697.23	90.488
697.56	96.535
697.88	84.516
698.20	85.421
698.52	86.118
698.84	85.646
699.16	90.250
699.48	93.734
699.80	90.571
700.12	92.183
700.44	89.916
700.76	95.349
701.08	97.576
701.40	97.892
701.72	100.309
702.04	100.660
702.36	109.030
702.68	93.694
703.00	102.121
703.32	95.308
703.64	88.136
703.96	90.435
704.28	96.933
704.60	94.286
704.91	94.322
705.23	97.010
705.55	104.947
705.87	104.693
706.19	104.074
706.51	101.375
706.83	98.714
707.15	89.408
707.47	90.476
707.79	87.240
708.11	82.500
708.43	84.500
708.74	82.946
709.06	90.423
709.38	92.355
709.70	89.941
710.02	93.312
710.34	95.666
710.66	87.500
710.98	91.722
711.29	93.443
711.61	92.203
711.93	93.811
712.25	93.814
712.57	99.634
712.89	95.149
713.20	95.848
713.52	93.728
713.84	90.785
714.16	95.876
714.48	88.065
714.80	90.385
715.11	83.891
715.43	84.953
715.75	88.333
716.07	90.365
716.39	87.919
716.70	93.358
717.02	90.458
717.34	102.024
717.66	97.345
717.97	97.826
718.29	99.163
718.61	93.307
718.93	96.899
719.24	89.354
719.56	98.394
719.88	89.347
720.20	89.773
720.51	90.421
720.83	91.120
721.15	95.378
721.46	89.919
721.78	86.957
722.10	82.156
722.42	89.627
722.73	93.878
723.05	97.143
723.37	96.186
723.68	104.054
724.00	94.872
724.32	92.889
724.63	93.182
724.95	95.197
725.27	99.539
725.58	90.678
725.90	82.937
726.22	84.170
726.53	79.661
726.85	86.517
727.16	87.547
727.48	89.069
727.80	91.498
728.11	87.288
728.43	89.804
728.74	82.258
729.06	85.200
729.38	89.474
729.69	86.056
730.01	83.462
730.32	84.701
730.64	76.325
730.96	87.925
731.27	79.333
731.59	83.051
731.90	79.618
732.22	79.811
732.53	84.385
732.85	83.688
733.16	78.451
733.48	78.417
733.80	78.261
734.11	77.627
734.43	75.601
734.74	74.848
735.06	77.850
735.37	74.924
735.69	79.125
736.00	78.397
736.32	75.839
736.63	76.408
736.95	75.085
737.26	74.377
737.58	72.819
737.89	79.487
738.21	79.323
738.52	83.951
738.83	86.900
739.15	84.716
739.46	79.528
739.78	78.755
740.09	67.974
740.41	77.536
740.72	79.134
741.04	79.757
741.35	82.553
741.66	88.152
741.98	89.796
742.29	85.149
742.61	93.194
742.92	80.095
743.23	80.556
743.55	87.783
743.86	89.474
744.18	79.904
744.49	85.106
744.80	91.304
745.12	100.000
745.43	88.780
745.74	93.750
746.06	91.220
746.37	93.194
746.68	82.464
747.00	85.106
747.31	92.537
747.62	83.495
747.94	84.689
748.25	92.574
748.56	96.175
748.88	87.435
749.19	90.426
749.50	86.207
749.82	86.792
750.13	79.817
750.44	77.820
750.75	78.358
751.07	83.212
751.38	73.563
751.69	80.784
752.01	79.845
752.32	76.892
752.63	78.261
752.94	81.034
753.26	81.172
753.57	84.615
753.88	79.646
754.19	78.333
754.51	78.512
754.82	79.757
755.13	81.667
755.44	73.790
755.75	80.078
756.07	80.156
756.38	70.566
756.69	73.180
757.00	71.667
757.31	69.608
757.63	68.598
757.94	62.778
758.25	66.575
758.56	65.691
758.87	62.606
759.18	65.109
759.50	70.545
759.81	71.906
760.12	68.065
760.43	66.667
760.74	64.198
761.05	66.769
761.36	64.489
761.67	64.242
761.99	71.088
762.30	65.091
762.61	71.146
762.92	76.471
763.23	72.973
763.54	77.103
763.85	76.271
764.16	71.369
764.47	66.532
764.78	69.231
765.10	68.687
765.41	63.091
765.72	67.302
766.03	69.173
766.34	67.883
766.65	73.705
766.96	79.293
767.27	82.447
767.58	78.736
767.89	82.979
768.20	72.727
768.51	75.824
768.82	68.966
769.13	67.281
769.44	66.953
769.75	66.667
770.06	71.121
770.37	67.308
770.68	77.157
770.99	66.516
771.30	82.843
771.61	70.136
771.92	69.397
772.23	71.921
772.54	79.570
772.85	80.247
773.16	76.966
773.47	90.196
773.78	83.007
774.09	74.251
774.39	71.333
774.70	72.611
775.01	82.759
775.32	78.571
775.63	88.430
775.94	77.099
776.25	85.039
776.56	83.333
776.87	93.269
777.18	80.342
777.48	81.897
777.79	82.609
778.10	78.095
778.41	83.784
778.72	84.127
779.03	75.940
779.34	81.560
779.65	78.082
779.95	65.068
780.26	73.793
780.57	73.171
780.88	71.654
781.19	78.448
781.50	73.643
781.80	65.089
782.11	63.522
782.42	83.846
782.73	68.345
783.04	65.926
783.34	67.361
783.65	63.248
783.96	70.492
784.27	80.000
784.57	69.106
784.88	73.437
785.19	79.000
785.50	84.000
785.81	73.276
786.11	69.828
786.42	69.903
786.73	84.545
787.04	75.510
787.34	73.214
787.65	77.143
787.96	69.027
788.26	70.000
788.57	69.231
788.88	69.531
789.19	63.492
789.49	79.130
789.80	71.429
790.11	73.737
790.41	75.455
790.72	69.565
791.03	84.091
791.33	92.500
791.64	75.000
791.95	76.744
792.25	68.085
792.56	83.146
792.87	69.863
793.17	71.014
793.48	70.667
793.79	70.000
794.09	77.500
794.40	66.981
794.70	67.961
795.01	56.911
795.32	68.376
795.62	60.000
795.93	72.549
796.23	69.811
796.54	63.542
796.85	76.471
797.15	61.972
797.46	75.000
797.76	104.545
798.07	56.977
798.37	64.474
798.68	75.758
798.99	64.198
799.29	81.429
799.60	71.014
799.90	82.667
800.21	77.049
800.51	69.231
800.82	66.102
801.12	57.971
801.43	68.852
801.73	69.841
802.04	96.000
802.34	59.701
802.65	82.692
802.95	69.643
803.26	75.000
803.56	86.275
803.87	52.174
804.17	69.333
804.48	79.365
804.78	62.963
805.09	76.087
805.39	60.000
805.70	94.444
806.00	63.158
806.30	67.606
806.61	67.143
806.91	66.667
807.22	80.263
807.52	66.667
807.83	65.455
808.13	62.500
808.43	55.882
808.74	53.731
809.04	62.712
809.35	63.462
809.65	71.875
809.95	62.162
810.26	61.364
810.56	60.274
810.86	92.857
811.17	68.000
811.47	71.429
811.77	84.211
812.08	45.455
812.38	71.698
812.69	105.000
812.99	48.485
813.29	94.737
813.59	65.714
813.90	75.000
814.20	74.359
814.50	65.385
814.81	86.792
815.11	46.809
815.41	77.966
815.72	69.048
816.02	70.588
816.32	77.083
816.62	80.488
816.93	78.378
817.23	57.143
817.53	89.583
817.84	47.826
818.14	80.769
818.44	44.737
818.74	69.565
819.04	27.500
819.35	62.162
819.65	70.588
819.95	66.667
820.25	73.810
820.56	85.000
820.86	44.828
821.16	72.500
821.46	63.830
821.76	85.000
822.07	65.116
822.37	45.946
822.67	84.375
822.97	59.524
823.27	64.286
823.57	72.000
823.88	40.741
824.18	75.000
824.48	47.059
824.78	61.290
825.08	69.565
825.38	78.788
825.69	79.167
825.99	63.158
826.29	63.889
826.59	100.000
826.89	95.238
827.19	47.826
827.49	52.500
827.79	65.714
828.09	32.143
828.39	87.879
828.70	83.784
829.00	75.000
829.30	95.238
829.60	63.333
829.90	43.750
830.20	57.895
830.50	77.778
830.80	47.826
831.10	54.545
831.40	78.788
831.70	64.516
832.00	71.429
832.30	47.619
832.60	100.000
832.90	55.172
833.20	95.000
833.50	69.697
833.80	44.444
834.10	69.231
834.40	53.125
834.70	122.222
835.00	89.474
835.30	92.308
835.60	126.667
835.90	58.065
836.20	109.091
836.50	53.571
836.80	26.923
837.10	57.143
837.40	166.667
837.70	86.364
838.00	90.909
838.30	30.435
838.60	61.538
838.90	63.636
839.19	75.000
839.49	86.667
839.79	53.846
840.09	16.667
840.39	89.286
840.69	28.571
840.99	3.846
841.29	-5.263
841.59	0.000
841.88	36.364
842.18	110.000
842.48	75.000
842.78	73.333
843.08	59.259
843.38	130.000
843.68	17.391
843.97	13.333
844.27	60.000
844.57	85.000
844.87	94.444
845.17	52.381
845.47	66.667
845.76	9.524
846.06	94.118
846.36	150.000
846.66	50.000
846.96	53.333
847.25	-37.500
847.55	85.714
847.85	250.000
848.15	50.000
848.44	-66.667
848.74	50.000
849.04	96.296
849.34	172.727
849.63	50.000
849.93	0.000
850.23	38.889
850.53	100.000
850.82	30.769
851.12	77.778
851.42	33.333
851.71	3.846
852.01	85.714
852.31	150.000
852.61	9.091
852.90	25.000
853.20	31.579
853.50	41.667
853.79	56.522
854.09	66.667
854.39	68.421
854.68	66.667
854.98	61.290
855.28	61.538
855.57	60.000
855.87	72.222
856.17	66.667
856.46	0.000
856.76	-6.667
857.05	88.889
857.35	60.000
857.65	38.889
857.94	61.538
858.24	65.517
858.53	38.889
858.83	55.556
859.13	68.182
859.42	34.783
859.72	75.000
860.01	-133.333
860.31	44.000
860.60	80.952
860.90	0.000
861.20	0.000
861.49	-100.000
861.79	6.667
862.08	20.000
862.38	146.667
862.67	-60.000
862.97	150.000
863.26	125.000
863.56	27.778
863.85	-300.000
864.15	61.111
864.44	50.000
864.74	100.000
865.03	175.000
865.33	-260.000
865.62	50.000
865.92	0.000
866.21	-200.000
866.51	25.000
866.80	-36.364
867.10	600.000
867.39	150.000
867.69	0.000
867.98	30.769
868.27	66.667
868.57	46.667
868.86	77.778
869.16	46.154
869.45	0.000
869.75	-1200.000
870.04	0.000
870.33	-14.286
870.63	66.667
870.92	33.333
871.22	-320.000
871.51	-300.000
871.80	44.444
872.10	400.000
>>>>>End Processed Spectral Data<<<<<
