SpectraSuite Data File
++++++++++++++++++++++++++++++++++++
Date: Fri May 15 21:07:23 PDT 2015
User: schluterlab
Dark Spectrum Present: Yes
Reference Spectrum Present: Yes
Number of Sampled Component Spectra: 1
Spectrometers: USB2E3373
Integration Time (usec): 3000 (USB2E3373)
Spectra Averaged: 3 (USB2E3373)
Boxcar Smoothing: 0 (USB2E3373)
Correct for Electrical Dark: No (USB2E3373)
Strobe/Lamp Enabled: No (USB2E3373)
Correct for Detector Non-linearity: No (USB2E3373)
Correct for Stray Light: No (USB2E3373)
Number of Pixels in Processed Spectrum: 2048
>>>>>Begin Processed Spectral Data<<<<<
178.53	0.000
178.91	0.000
179.29	37.500
179.67	-550.000
180.04	28.571
180.42	100.000
180.80	-800.000
181.18	166.667
181.56	900.000
181.94	-100.000
182.31	700.000
182.69	0.000
183.07	-366.667
183.45	-200.000
183.83	150.000
184.20	27.273
184.58	144.444
184.96	25.000
185.34	66.667
185.72	-100.000
186.09	61.538
186.47	-800.000
186.85	216.667
187.23	144.444
187.61	-700.000
187.98	-266.667
188.36	-33.333
188.74	-433.333
189.12	35.294
189.49	66.667
189.87	0.000
190.25	-42.857
190.63	-100.000
191.00	-133.333
191.38	21.053
191.76	0.000
192.14	125.000
192.51	-350.000
192.89	-66.667
193.27	-171.429
193.65	150.000
194.02	109.091
194.40	10.000
194.78	-225.000
195.15	-91.667
195.53	-62.500
195.91	-50.000
196.29	-75.000
196.66	84.615
197.04	142.857
197.42	-66.667
197.79	-466.667
198.17	-84.615
198.55	1000.000
198.92	-366.667
199.30	-100.000
199.68	-280.000
200.05	-400.000
200.43	0.000
200.81	-66.667
201.18	-400.000
201.56	1300.000
201.94	-250.000
202.31	-33.333
202.69	-220.000
203.07	350.000
203.44	700.000
203.82	0.000
204.19	-7.143
204.57	-433.333
204.95	150.000
205.32	60.000
205.70	-85.714
206.08	0.000
206.45	88.889
206.83	7.143
207.20	-114.286
207.58	1100.000
207.96	-400.000
208.33	-60.000
208.71	-275.000
209.08	-133.333
209.46	-700.000
209.84	-100.000
210.21	-1900.000
210.59	0.000
210.96	116.667
211.34	-225.000
211.71	-26.667
212.09	-185.714
212.46	-1700.000
212.84	0.000
213.22	-60.000
213.59	700.000
213.97	38.462
214.34	0.000
214.72	-116.667
215.09	575.000
215.47	-61.538
215.84	-90.909
216.22	-366.667
216.59	87.500
216.97	-250.000
217.34	-400.000
217.72	-120.000
218.09	137.500
218.47	125.000
218.84	-1300.000
219.22	-66.667
219.59	-100.000
219.97	266.667
220.34	425.000
220.72	-100.000
221.09	-125.000
221.47	0.000
221.84	-800.000
222.22	-950.000
222.59	-18.182
222.97	-16.667
223.34	-66.667
223.72	-64.286
224.09	4.762
224.46	-7.143
224.84	466.667
225.21	-20.000
225.59	-20.000
225.96	-400.000
226.34	150.000
226.71	42.857
227.08	-50.000
227.46	-87.500
227.83	-800.000
228.21	-11.111
228.58	-54.545
228.95	-150.000
229.33	10.000
229.70	37.500
230.08	-187.500
230.45	-128.571
230.82	-71.429
231.20	-80.000
231.57	50.000
231.95	57.143
232.32	-120.000
232.69	42.857
233.07	166.667
233.44	-280.000
233.81	-70.000
234.19	11.111
234.56	-11.765
234.93	50.000
235.31	-100.000
235.68	-280.000
236.05	-38.462
236.43	0.000
236.80	-41.176
237.17	3.125
237.55	-20.000
237.92	-25.926
238.29	0.000
238.67	10.000
239.04	20.588
239.41	-17.073
239.79	-6.667
240.16	4.878
240.53	26.316
240.91	0.000
241.28	23.810
241.65	10.714
242.02	19.178
242.40	30.000
242.77	32.203
243.14	18.182
243.51	22.500
243.89	19.540
244.26	14.943
244.63	25.000
245.00	17.526
245.38	19.588
245.75	28.090
246.12	29.310
246.49	24.793
246.87	22.115
247.24	21.008
247.61	21.930
247.98	26.016
248.36	23.125
248.73	26.974
249.10	20.779
249.47	21.519
249.84	23.529
250.22	25.294
250.59	28.758
250.96	30.047
251.33	24.419
251.70	32.353
252.08	23.858
252.45	22.772
252.82	24.121
253.19	28.571
253.56	29.907
253.94	35.586
254.31	26.957
254.68	32.456
255.05	27.165
255.42	33.624
255.79	27.027
256.16	28.794
256.54	30.224
256.91	29.278
257.28	26.022
257.65	26.217
258.02	28.723
258.39	27.946
258.76	34.432
259.14	29.568
259.51	23.625
259.88	30.241
260.25	26.144
260.62	34.722
260.99	25.424
261.36	28.767
261.73	28.165
262.10	29.179
262.47	29.755
262.85	30.408
263.22	28.923
263.59	30.530
263.96	29.193
264.33	30.606
264.70	27.976
265.07	30.952
265.44	32.011
265.81	29.379
266.18	29.781
266.55	30.848
266.92	30.311
267.29	29.765
267.66	27.877
268.03	27.749
268.40	28.982
268.77	29.679
269.14	29.976
269.51	30.334
269.88	29.925
270.25	28.571
270.62	25.366
270.99	29.412
271.36	25.672
271.73	30.751
272.10	27.251
272.47	30.496
272.84	29.208
273.21	26.450
273.58	28.916
273.95	29.977
274.32	26.328
274.69	26.697
275.06	30.804
275.43	28.345
275.80	28.035
276.17	25.287
276.54	28.694
276.91	30.702
277.28	27.074
277.65	29.545
278.02	28.085
278.39	27.133
278.76	27.673
279.13	24.896
279.50	28.361
279.87	28.294
280.23	28.602
280.60	27.096
280.97	29.899
281.34	26.538
281.71	33.265
282.08	25.971
282.45	26.419
282.82	25.290
283.19	26.499
283.56	26.975
283.92	26.186
284.29	25.192
284.66	25.388
285.03	29.077
285.40	26.276
285.77	25.659
286.14	26.534
286.51	30.812
286.87	27.057
287.24	27.808
287.61	24.162
287.98	25.263
288.35	26.863
288.72	26.445
289.08	26.215
289.45	25.659
289.82	25.000
290.19	26.792
290.56	23.499
290.93	25.421
291.29	23.267
291.66	24.567
292.03	22.967
292.40	24.032
292.77	24.402
293.13	23.214
293.50	22.307
293.87	25.191
294.24	22.566
294.60	24.739
294.97	22.321
295.34	22.239
295.71	22.653
296.08	20.777
296.44	19.772
296.81	21.389
297.18	22.464
297.55	22.629
297.91	21.918
298.28	21.504
298.65	21.031
299.02	21.024
299.38	20.246
299.75	20.000
300.12	20.288
300.48	19.499
300.85	20.279
301.22	20.390
301.59	19.868
301.95	20.000
302.32	21.271
302.69	20.398
303.05	20.421
303.42	20.174
303.79	19.860
304.15	21.027
304.52	18.193
304.89	19.883
305.25	19.370
305.62	18.320
305.99	19.415
306.35	18.844
306.72	19.910
307.09	19.840
307.45	18.255
307.82	19.329
308.19	19.977
308.55	18.975
308.92	20.153
309.29	19.777
309.65	18.515
310.02	19.032
310.38	19.210
310.75	18.907
311.12	19.053
311.48	18.664
311.85	19.686
312.22	18.460
312.58	18.577
312.95	17.396
313.31	18.530
313.68	17.801
314.05	18.673
314.41	18.041
314.78	17.938
315.14	19.219
315.51	19.565
315.87	19.467
316.24	19.110
316.61	19.094
316.97	18.353
317.34	18.652
317.70	18.451
318.07	17.308
318.43	19.020
318.80	17.803
319.16	18.359
319.53	17.949
319.89	16.142
320.26	16.802
320.62	19.157
320.99	16.493
321.35	18.294
321.72	18.795
322.08	18.328
322.45	18.680
322.81	19.646
323.18	16.781
323.54	18.050
323.91	17.916
324.27	17.773
324.64	18.258
325.00	17.245
325.37	17.906
325.73	16.228
326.10	16.621
326.46	18.117
326.83	17.848
327.19	18.483
327.56	17.202
327.92	17.782
328.29	17.232
328.65	17.925
329.01	18.015
329.38	17.235
329.74	16.714
330.11	18.072
330.47	15.677
330.84	16.346
331.20	19.011
331.56	16.481
331.93	17.808
332.29	17.140
332.66	16.742
333.02	15.892
333.38	16.774
333.75	17.033
334.11	16.473
334.48	17.770
334.84	18.040
335.20	17.109
335.57	16.682
335.93	16.712
336.29	17.035
336.66	16.167
337.02	16.171
337.38	15.370
337.75	17.455
338.11	16.952
338.47	17.974
338.84	15.804
339.20	16.088
339.56	16.606
339.93	16.383
340.29	15.321
340.65	17.204
341.02	16.933
341.38	16.372
341.74	16.784
342.11	15.945
342.47	16.904
342.83	17.388
343.20	15.854
343.56	17.478
343.92	15.943
344.28	16.225
344.65	16.321
345.01	15.298
345.37	17.157
345.73	16.904
346.10	16.480
346.46	16.569
346.82	15.957
347.19	15.711
347.55	16.291
347.91	16.424
348.27	14.956
348.63	17.121
349.00	15.587
349.36	15.794
349.72	15.755
350.08	15.984
350.45	15.403
350.81	16.113
351.17	15.554
351.53	16.327
351.89	15.359
352.26	15.200
352.62	15.968
352.98	15.743
353.34	15.942
353.70	16.019
354.07	16.290
354.43	16.733
354.79	16.598
355.15	16.825
355.51	15.981
355.87	15.453
356.24	15.579
356.60	14.551
356.96	16.746
357.32	16.054
357.68	14.777
358.04	16.074
358.40	15.595
358.77	16.029
359.13	15.212
359.49	15.254
359.85	15.445
360.21	15.869
360.57	15.149
360.93	15.961
361.29	13.973
361.66	16.458
362.02	15.227
362.38	16.146
362.74	16.124
363.10	16.328
363.46	15.567
363.82	16.228
364.18	16.089
364.54	15.294
364.90	14.982
365.26	14.920
365.62	16.131
365.98	14.736
366.35	16.897
366.71	15.521
367.07	15.675
367.43	15.385
367.79	15.689
368.15	15.506
368.51	15.004
368.87	14.645
369.23	14.801
369.59	14.869
369.95	15.323
370.31	16.040
370.67	15.821
371.03	15.385
371.39	14.734
371.75	14.066
372.11	15.193
372.47	14.941
372.83	15.188
373.19	15.050
373.55	14.657
373.91	15.479
374.27	15.450
374.63	14.716
374.99	14.965
375.35	15.111
375.71	14.895
376.07	15.028
376.42	14.626
376.78	15.034
377.14	15.098
377.50	15.339
377.86	14.926
378.22	14.742
378.58	15.128
378.94	14.934
379.30	14.099
379.66	16.301
380.02	15.328
380.38	14.668
380.74	15.081
381.09	15.276
381.45	14.985
381.81	14.929
382.17	15.482
382.53	14.366
382.89	14.815
383.25	14.748
383.61	15.000
383.97	13.905
384.32	15.885
384.68	14.489
385.04	15.012
385.40	13.628
385.76	15.535
386.12	16.171
386.48	15.453
386.83	14.965
387.19	15.201
387.55	14.931
387.91	14.181
388.27	14.652
388.62	15.041
388.98	14.487
389.34	14.616
389.70	14.978
390.06	14.160
390.42	14.637
390.77	14.061
391.13	14.250
391.49	14.295
391.85	15.075
392.20	14.187
392.56	14.622
392.92	15.208
393.28	14.917
393.64	14.655
393.99	15.611
394.35	13.978
394.71	15.390
395.07	15.211
395.42	14.390
395.78	14.788
396.14	14.880
396.50	15.155
396.85	14.746
397.21	14.035
397.57	14.420
397.92	14.380
398.28	14.943
398.64	14.277
399.00	14.391
399.35	14.052
399.71	14.877
400.07	14.994
400.42	14.504
400.78	15.309
401.14	15.124
401.49	14.532
401.85	14.503
402.21	15.482
402.57	14.562
402.92	13.676
403.28	15.100
403.63	14.628
403.99	14.796
404.35	15.116
404.70	13.929
405.06	15.276
405.42	14.916
405.77	14.178
406.13	14.377
406.49	14.624
406.84	13.998
407.20	14.871
407.55	14.810
407.91	14.171
408.27	14.723
408.62	14.831
408.98	13.925
409.34	14.870
409.69	13.824
410.05	14.778
410.40	13.580
410.76	14.897
411.11	14.375
411.47	15.187
411.83	14.124
412.18	14.929
412.54	14.419
412.89	13.732
413.25	14.621
413.60	14.596
413.96	15.031
414.31	15.549
414.67	13.470
415.03	14.115
415.38	14.817
415.74	14.853
416.09	14.566
416.45	14.922
416.80	13.946
417.16	15.331
417.51	14.257
417.87	13.559
418.22	15.155
418.58	14.515
418.93	14.608
419.29	14.149
419.64	14.647
420.00	15.365
420.35	14.567
420.71	15.249
421.06	14.672
421.42	15.385
421.77	14.277
422.12	14.926
422.48	14.239
422.83	13.631
423.19	15.406
423.54	14.168
423.90	14.193
424.25	14.696
424.61	15.422
424.96	13.995
425.31	15.482
425.67	15.376
426.02	16.078
426.38	15.153
426.73	15.254
427.09	15.316
427.44	15.235
427.79	15.910
428.15	14.624
428.50	14.234
428.85	14.373
429.21	14.658
429.56	14.987
429.92	14.689
430.27	15.038
430.62	13.696
430.98	14.437
431.33	14.984
431.68	14.338
432.04	14.869
432.39	14.661
432.74	14.071
433.10	15.402
433.45	15.412
433.80	14.742
434.16	13.684
434.51	14.785
434.86	14.402
435.22	14.133
435.57	14.660
435.92	14.192
436.28	14.609
436.63	14.204
436.98	14.137
437.34	14.398
437.69	14.311
438.04	14.929
438.39	14.172
438.75	14.451
439.10	14.714
439.45	15.399
439.81	14.740
440.16	15.321
440.51	14.866
440.86	15.408
441.22	14.932
441.57	14.128
441.92	14.638
442.27	15.965
442.63	15.203
442.98	14.589
443.33	14.636
443.68	14.483
444.03	14.853
444.39	15.002
444.74	15.608
445.09	14.978
445.44	15.100
445.79	15.884
446.15	14.648
446.50	14.809
446.85	15.887
447.20	14.964
447.55	15.458
447.91	14.946
448.26	15.936
448.61	15.026
448.96	15.663
449.31	15.607
449.66	15.621
450.02	15.345
450.37	15.056
450.72	15.636
451.07	15.823
451.42	15.543
451.77	14.949
452.12	14.533
452.47	15.196
452.83	15.135
453.18	15.433
453.53	15.550
453.88	15.665
454.23	15.857
454.58	15.680
454.93	15.528
455.28	14.667
455.63	16.243
455.98	16.115
456.34	15.837
456.69	16.201
457.04	16.698
457.39	15.796
457.74	16.264
458.09	14.420
458.44	15.974
458.79	15.070
459.14	16.705
459.49	17.254
459.84	15.962
460.19	16.444
460.54	15.770
460.89	16.420
461.24	15.839
461.59	16.330
461.94	15.912
462.29	16.828
462.64	16.545
462.99	16.114
463.34	16.064
463.69	16.152
464.04	16.344
464.39	15.706
464.74	16.012
465.09	16.968
465.44	16.330
465.79	15.873
466.14	16.762
466.49	16.561
466.84	16.478
467.19	15.895
467.54	16.858
467.89	16.804
468.24	16.363
468.59	17.206
468.94	15.873
469.29	16.984
469.64	17.020
469.99	17.379
470.34	16.997
470.68	17.823
471.03	16.844
471.38	17.047
471.73	16.597
472.08	16.554
472.43	16.242
472.78	16.313
473.13	17.279
473.48	17.264
473.83	16.438
474.17	17.034
474.52	16.720
474.87	16.606
475.22	16.718
475.57	16.883
475.92	17.279
476.27	16.997
476.61	17.130
476.96	16.174
477.31	17.793
477.66	16.685
478.01	17.125
478.36	16.449
478.70	17.346
479.05	17.308
479.40	17.276
479.75	16.736
480.10	16.999
480.45	17.050
480.79	17.825
481.14	16.906
481.49	16.404
481.84	16.988
482.19	16.370
482.53	17.074
482.88	17.232
483.23	17.179
483.58	16.698
483.92	17.231
484.27	16.910
484.62	17.122
484.97	17.206
485.31	16.221
485.66	16.201
486.01	16.716
486.36	16.041
486.70	16.541
487.05	16.708
487.40	16.830
487.75	16.225
488.09	16.255
488.44	17.056
488.79	16.660
489.13	16.306
489.48	16.802
489.83	16.771
490.17	16.809
490.52	17.090
490.87	16.474
491.22	17.240
491.56	16.793
491.91	16.969
492.26	16.966
492.60	17.322
492.95	18.347
493.30	17.489
493.64	16.798
493.99	17.633
494.34	16.214
494.68	17.000
495.03	16.399
495.37	17.125
495.72	16.810
496.07	18.000
496.41	17.170
496.76	17.688
497.11	16.814
497.45	17.900
497.80	18.063
498.14	17.685
498.49	17.318
498.84	16.517
499.18	17.319
499.53	17.361
499.87	16.975
500.22	16.914
500.56	18.053
500.91	17.620
501.26	17.449
501.60	17.216
501.95	17.516
502.29	17.627
502.64	16.651
502.98	17.366
503.33	16.763
503.67	17.494
504.02	17.986
504.36	18.110
504.71	17.121
505.06	17.111
505.40	16.954
505.75	17.216
506.09	17.942
506.44	17.916
506.78	17.857
507.13	17.787
507.47	16.919
507.82	16.880
508.16	17.908
508.51	17.629
508.85	18.367
509.19	17.243
509.54	17.641
509.88	17.152
510.23	18.289
510.57	17.638
510.92	16.684
511.26	17.076
511.61	18.262
511.95	18.027
512.30	17.794
512.64	18.308
512.98	18.024
513.33	18.019
513.67	17.567
514.02	18.764
514.36	19.029
514.70	18.240
515.05	18.038
515.39	17.946
515.74	18.443
516.08	18.410
516.42	18.551
516.77	18.432
517.11	17.982
517.46	19.330
517.80	18.832
518.14	19.167
518.49	18.389
518.83	19.259
519.17	18.435
519.52	18.887
519.86	17.947
520.20	18.955
520.55	18.011
520.89	19.762
521.23	19.189
521.58	19.243
521.92	19.359
522.26	18.673
522.61	19.416
522.95	19.934
523.29	19.123
523.64	19.187
523.98	19.119
524.32	18.879
524.66	19.974
525.01	19.221
525.35	20.026
525.69	19.461
526.04	19.048
526.38	19.974
526.72	18.247
527.06	19.261
527.41	19.327
527.75	19.638
528.09	18.538
528.43	21.067
528.78	19.076
529.12	19.161
529.46	19.688
529.80	20.203
530.15	20.000
530.49	19.529
530.83	19.220
531.17	19.140
531.51	19.904
531.86	18.491
532.20	18.720
532.54	20.490
532.88	19.781
533.22	19.624
533.57	19.004
533.91	18.930
534.25	19.792
534.59	18.538
534.93	18.691
535.27	18.845
535.62	18.406
535.96	19.309
536.30	19.987
536.64	19.228
536.98	19.094
537.32	19.275
537.66	19.986
538.01	18.462
538.35	19.417
538.69	19.774
539.03	19.959
539.37	18.910
539.71	19.223
540.05	19.959
540.39	19.598
540.73	19.665
541.07	20.097
541.42	18.414
541.76	19.683
542.10	19.133
542.44	18.902
542.78	18.032
543.12	18.269
543.46	19.750
543.80	19.292
544.14	18.892
544.48	18.921
544.82	19.822
545.16	19.945
545.50	18.959
545.84	19.759
546.18	18.794
546.52	18.601
546.86	19.339
547.20	18.670
547.54	19.152
547.88	19.837
548.22	18.146
548.56	18.272
548.90	19.340
549.24	18.939
549.58	19.041
549.92	18.442
550.26	18.755
550.60	19.926
550.94	19.642
551.28	19.861
551.62	19.462
551.96	19.850
552.30	18.933
552.64	19.182
552.98	19.691
553.32	18.759
553.66	18.070
554.00	17.956
554.34	20.384
554.68	18.805
555.02	19.345
555.36	18.624
555.69	18.681
556.03	19.129
556.37	18.505
556.71	19.783
557.05	19.239
557.39	18.885
557.73	20.090
558.07	19.306
558.41	18.913
558.75	18.940
559.08	19.543
559.42	20.635
559.76	19.696
560.10	19.725
560.44	18.541
560.78	20.000
561.12	19.605
561.45	19.606
561.79	19.748
562.13	19.446
562.47	20.144
562.81	19.092
563.15	19.605
563.48	19.307
563.82	19.012
564.16	18.872
564.50	18.784
564.84	18.742
565.17	19.316
565.51	19.740
565.85	19.410
566.19	19.032
566.52	19.973
566.86	19.344
567.20	18.804
567.54	18.796
567.88	19.801
568.21	19.740
568.55	18.696
568.89	18.583
569.23	18.729
569.56	17.995
569.90	18.798
570.24	18.310
570.57	18.000
570.91	18.090
571.25	17.692
571.59	17.284
571.92	17.363
572.26	17.301
572.60	17.147
572.93	17.634
573.27	17.429
573.61	16.945
573.95	17.395
574.28	17.293
574.62	17.137
574.96	17.228
575.29	17.062
575.63	16.973
575.97	17.376
576.30	17.655
576.64	16.795
576.98	17.889
577.31	17.941
577.65	17.569
577.98	17.498
578.32	17.727
578.66	16.720
578.99	16.893
579.33	16.912
579.67	17.108
580.00	17.544
580.34	16.841
580.67	16.939
581.01	17.555
581.35	17.227
581.68	17.221
582.02	17.067
582.35	17.103
582.69	17.491
583.02	17.283
583.36	17.246
583.70	17.238
584.03	17.959
584.37	18.069
584.70	17.473
585.04	17.254
585.37	17.174
585.71	17.502
586.04	17.196
586.38	17.471
586.72	17.762
587.05	17.880
587.39	17.668
587.72	18.343
588.06	17.769
588.39	17.488
588.73	17.674
589.06	18.265
589.40	17.767
589.73	18.255
590.07	18.505
590.40	18.382
590.73	18.822
591.07	18.617
591.40	18.789
591.74	18.507
592.07	19.202
592.41	18.993
592.74	18.240
593.08	17.709
593.41	18.320
593.75	18.057
594.08	17.714
594.41	18.268
594.75	18.397
595.08	18.880
595.42	18.255
595.75	18.100
596.09	18.335
596.42	19.057
596.75	19.405
597.09	18.724
597.42	19.196
597.75	18.919
598.09	19.285
598.42	18.366
598.76	18.704
599.09	18.630
599.42	18.340
599.76	19.187
600.09	18.778
600.42	18.726
600.76	18.239
601.09	18.130
601.42	18.018
601.76	18.777
602.09	19.431
602.42	19.629
602.76	19.100
603.09	19.269
603.42	19.398
603.76	18.710
604.09	19.077
604.42	19.205
604.76	19.181
605.09	19.561
605.42	19.503
605.75	19.133
606.09	19.406
606.42	18.891
606.75	18.918
607.09	19.736
607.42	19.096
607.75	18.783
608.08	18.913
608.42	19.050
608.75	19.807
609.08	19.432
609.41	19.594
609.75	19.355
610.08	19.471
610.41	19.179
610.74	19.600
611.07	19.587
611.41	19.564
611.74	20.629
612.07	19.379
612.40	19.420
612.73	19.548
613.07	19.516
613.40	20.186
613.73	19.530
614.06	20.868
614.39	19.684
614.72	19.440
615.06	19.721
615.39	19.432
615.72	20.291
616.05	20.056
616.38	19.430
616.71	19.878
617.05	20.630
617.38	20.113
617.71	19.874
618.04	21.143
618.37	21.375
618.70	20.924
619.03	21.111
619.36	19.609
619.69	21.228
620.03	21.183
620.36	20.672
620.69	19.700
621.02	20.413
621.35	21.577
621.68	20.323
622.01	22.417
622.34	22.107
622.67	21.767
623.00	21.363
623.33	21.037
623.66	21.167
623.99	21.483
624.32	20.608
624.65	19.774
624.99	21.144
625.32	19.939
625.65	21.838
625.98	21.595
626.31	19.784
626.64	21.317
626.97	21.640
627.30	20.753
627.63	22.184
627.96	22.462
628.29	20.999
628.62	21.534
628.95	21.242
629.28	21.169
629.61	22.333
629.94	23.069
630.26	21.344
630.59	23.829
630.92	20.410
631.25	21.538
631.58	21.916
631.91	22.039
632.24	22.248
632.57	22.727
632.90	21.471
633.23	22.118
633.56	22.922
633.89	23.181
634.22	22.222
634.55	20.712
634.88	24.393
635.20	21.282
635.53	22.533
635.86	22.627
636.19	24.062
636.52	22.066
636.85	22.705
637.18	21.384
637.51	22.893
637.83	23.522
638.16	24.147
638.49	22.343
638.82	23.421
639.15	22.388
639.48	23.109
639.81	22.455
640.13	22.078
640.46	23.032
640.79	22.680
641.12	23.781
641.45	23.273
641.77	25.778
642.10	24.961
642.43	23.473
642.76	22.607
643.09	22.779
643.41	20.388
643.74	21.911
644.07	25.616
644.40	22.804
644.73	25.044
645.05	23.658
645.38	25.573
645.71	25.709
646.04	25.135
646.36	24.468
646.69	24.101
647.02	24.575
647.35	23.507
647.67	27.057
648.00	24.067
648.33	23.891
648.66	22.881
648.98	21.441
649.31	21.818
649.64	22.763
649.96	21.394
650.29	24.020
650.62	22.906
650.94	23.519
651.27	20.857
651.60	24.324
651.92	22.378
652.25	22.025
652.58	23.833
652.90	24.871
653.23	24.538
653.56	22.166
653.88	21.649
654.21	21.016
654.54	21.053
654.86	22.920
655.19	20.906
655.52	22.368
655.84	18.861
656.17	21.059
656.49	28.257
656.82	29.037
657.15	21.854
657.47	16.361
657.80	12.082
658.13	11.829
658.45	17.903
658.78	18.300
659.10	18.378
659.43	18.409
659.75	18.056
660.08	19.103
660.41	20.838
660.73	21.271
661.06	22.877
661.38	19.569
661.71	23.614
662.03	26.395
662.36	23.077
662.68	20.133
663.01	27.729
663.33	22.970
663.66	24.419
663.98	22.093
664.31	21.109
664.63	22.581
664.96	21.739
665.28	24.062
665.61	25.325
665.93	25.435
666.26	24.512
666.58	23.043
666.91	22.588
667.23	26.415
667.56	20.853
667.88	22.062
668.21	26.253
668.53	21.986
668.86	26.179
669.18	22.406
669.50	19.613
669.83	22.093
670.15	24.476
670.48	25.120
670.80	23.733
671.13	25.056
671.45	22.374
671.77	24.893
672.10	24.554
672.42	24.532
672.75	21.492
673.07	25.760
673.39	23.486
673.72	18.540
674.04	21.667
674.37	23.305
674.69	21.842
675.01	24.222
675.34	23.649
675.66	22.222
675.98	22.395
676.31	24.083
676.63	23.990
676.95	22.727
677.28	24.235
677.60	24.578
677.92	21.789
678.25	24.070
678.57	21.861
678.89	22.479
679.22	23.043
679.54	23.494
679.86	19.483
680.18	23.301
680.51	23.106
680.83	20.875
681.15	21.200
681.48	21.311
681.80	23.347
682.12	20.766
682.44	21.757
682.77	24.062
683.09	21.968
683.41	22.045
683.73	23.272
684.06	23.451
684.38	20.860
684.70	22.876
685.02	18.880
685.34	21.937
685.67	21.201
685.99	20.615
686.31	22.478
686.63	19.852
686.96	22.243
687.28	21.414
687.60	21.103
687.92	23.434
688.24	23.185
688.56	23.799
688.89	24.554
689.21	22.000
689.53	23.202
689.85	22.093
690.17	21.875
690.49	23.168
690.82	19.903
691.14	23.810
691.46	26.168
691.78	21.171
692.10	22.581
692.42	23.160
692.74	22.863
693.06	22.973
693.39	16.968
693.71	19.683
694.03	19.630
694.35	20.794
694.67	22.475
694.99	21.410
695.31	24.804
695.63	21.250
695.95	24.242
696.27	23.316
696.59	17.500
696.91	22.969
697.23	17.738
697.56	22.030
697.88	26.022
698.20	20.273
698.52	20.471
698.84	20.096
699.16	22.000
699.48	20.802
699.80	18.114
700.12	21.833
700.44	24.370
700.76	21.221
701.08	20.303
701.40	20.783
701.72	24.691
702.04	21.452
702.36	23.411
702.68	18.619
703.00	25.758
703.32	22.581
703.64	18.927
703.96	23.768
704.28	22.699
704.60	22.857
704.91	19.874
705.23	22.259
705.55	22.615
705.87	23.827
706.19	24.444
706.51	21.649
706.83	21.543
707.15	19.003
707.47	23.249
707.79	20.573
708.11	19.750
708.43	20.000
708.74	21.447
709.06	24.225
709.38	23.547
709.70	23.077
710.02	18.790
710.34	25.387
710.66	22.756
710.98	16.225
711.29	23.279
711.61	24.746
711.93	21.824
712.25	23.024
712.57	21.612
712.89	20.149
713.20	25.606
713.52	20.557
713.84	23.208
714.16	17.869
714.48	22.258
714.80	21.795
715.11	24.316
715.43	19.749
715.75	16.000
716.07	17.608
716.39	20.134
716.70	19.926
717.02	14.504
717.34	27.126
717.66	23.009
717.97	18.696
718.29	20.502
718.61	20.866
718.93	18.992
719.24	24.715
719.56	21.687
719.88	23.024
720.20	23.485
720.51	20.307
720.83	18.147
721.15	22.689
721.46	23.387
721.78	17.391
722.10	21.561
722.42	20.747
722.73	21.633
723.05	24.490
723.37	23.305
723.68	27.477
724.00	19.658
724.32	18.667
724.63	19.091
724.95	24.017
725.27	25.806
725.58	18.644
725.90	20.635
726.22	21.622
726.53	26.780
726.85	22.472
727.16	22.264
727.48	19.028
727.80	23.077
728.11	19.915
728.43	18.824
728.74	17.742
729.06	24.400
729.38	26.316
729.69	22.709
730.01	17.692
730.32	25.373
730.64	22.968
730.96	20.755
731.27	17.000
731.59	24.068
731.90	18.471
732.22	23.975
732.53	19.269
732.85	20.922
733.16	23.569
733.48	19.784
733.80	22.101
734.11	22.034
734.43	20.962
734.74	20.303
735.06	19.218
735.37	20.846
735.69	20.202
736.00	19.164
736.32	20.134
736.63	21.479
736.95	21.843
737.26	20.285
737.58	19.128
737.89	16.850
738.21	19.549
738.52	23.457
738.83	22.271
739.15	20.087
739.46	22.441
739.78	16.117
740.09	19.281
740.41	20.652
740.72	20.079
741.04	23.482
741.35	18.298
741.66	21.327
741.98	16.837
742.29	21.287
742.61	25.131
742.92	16.114
743.23	16.667
743.55	15.837
743.86	23.923
744.18	21.531
744.49	17.021
744.80	18.478
745.12	24.599
745.43	17.073
745.74	19.271
746.06	19.024
746.37	19.372
746.68	27.488
747.00	20.213
747.31	24.876
747.62	18.447
747.94	18.182
748.25	22.277
748.56	18.033
748.88	25.654
749.19	23.404
749.50	21.675
749.82	16.509
750.13	16.055
750.44	23.308
750.75	24.254
751.07	23.723
751.38	15.709
751.69	22.745
752.01	22.093
752.32	17.131
752.63	22.134
752.94	19.828
753.26	27.615
753.57	19.457
753.88	18.142
754.19	18.333
754.51	22.727
754.82	20.648
755.13	25.000
755.44	24.194
755.75	23.047
756.07	14.008
756.38	18.491
756.69	17.625
757.00	18.333
757.31	21.569
757.63	17.683
757.94	19.444
758.25	18.082
758.56	21.011
758.87	18.697
759.18	19.003
759.50	18.545
759.81	20.401
760.12	20.968
760.43	19.091
760.74	19.753
761.05	20.308
761.36	17.614
761.67	23.030
761.99	20.748
762.30	18.545
762.61	21.739
762.92	13.122
763.23	19.369
763.54	12.617
763.85	18.220
764.16	19.087
764.47	18.145
764.78	17.949
765.10	19.529
765.41	18.927
765.72	18.095
766.03	16.165
766.34	17.518
766.65	24.701
766.96	18.687
767.27	18.617
767.58	13.793
767.89	13.475
768.20	16.477
768.51	21.978
768.82	22.660
769.13	16.590
769.44	20.601
769.75	18.265
770.06	24.569
770.37	18.750
770.68	15.736
770.99	15.385
771.30	25.490
771.61	22.172
771.92	19.828
772.23	24.138
772.54	19.892
772.85	21.605
773.16	19.101
773.47	20.261
773.78	22.222
774.09	21.557
774.39	16.000
774.70	25.478
775.01	20.690
775.32	15.714
775.63	10.744
775.94	18.321
776.25	25.197
776.56	19.167
776.87	21.154
777.18	18.803
777.48	7.759
777.79	19.130
778.10	6.667
778.41	9.009
778.72	25.397
779.03	25.564
779.34	14.894
779.65	24.658
779.95	13.014
780.26	24.138
780.57	25.203
780.88	12.598
781.19	25.000
781.50	27.132
781.80	23.077
782.11	9.434
782.42	16.154
782.73	19.424
783.04	20.741
783.34	16.667
783.65	11.111
783.96	7.377
784.27	17.241
784.57	25.203
784.88	19.531
785.19	18.000
785.50	24.000
785.81	23.276
786.11	13.793
786.42	16.505
786.73	32.727
787.04	18.367
787.34	14.286
787.65	6.667
787.96	11.504
788.26	18.182
788.57	15.385
788.88	21.875
789.19	25.397
789.49	15.652
789.80	29.592
790.11	11.111
790.41	15.455
790.72	19.565
791.03	19.318
791.33	22.500
791.64	7.500
791.95	18.605
792.25	13.830
792.56	22.472
792.87	12.329
793.17	11.594
793.48	12.000
793.79	15.000
794.09	22.500
794.40	23.585
794.70	2.913
795.01	16.260
795.32	17.949
795.62	23.810
795.93	7.843
796.23	16.038
796.54	11.458
796.85	22.059
797.15	9.859
797.46	26.389
797.76	21.212
798.07	13.953
798.37	15.789
798.68	-3.030
798.99	12.346
799.29	30.000
799.60	18.841
799.90	20.000
800.21	24.590
800.51	13.846
800.82	16.949
801.12	1.449
801.43	14.754
801.73	28.571
802.04	-4.000
802.34	-8.955
802.65	9.615
802.95	10.714
803.26	-17.308
803.56	3.922
803.87	-2.174
804.17	17.333
804.48	30.159
804.78	9.259
805.09	13.043
805.39	-6.667
805.70	22.222
806.00	7.018
806.30	23.944
806.61	1.429
806.91	9.722
807.22	25.000
807.52	24.000
807.83	9.091
808.13	18.056
808.43	19.118
808.74	19.403
809.04	1.695
809.35	0.000
809.65	14.062
809.95	-37.838
810.26	0.000
810.56	17.808
810.86	0.000
811.17	-10.000
811.47	8.163
811.77	-10.526
812.08	13.636
812.38	16.981
812.69	-10.000
812.99	-6.061
813.29	10.526
813.59	-20.000
813.90	11.364
814.20	-25.641
814.50	21.154
814.81	15.094
815.11	-27.660
815.41	27.119
815.72	7.143
816.02	19.608
816.32	4.167
816.62	2.439
816.93	16.216
817.23	25.714
817.53	16.667
817.84	4.348
818.14	23.077
818.44	0.000
818.74	17.391
819.04	-5.000
819.35	2.703
819.65	-2.941
819.95	2.778
820.25	2.381
820.56	25.000
820.86	-31.034
821.16	17.500
821.46	17.021
821.76	12.500
822.07	6.977
822.37	-27.027
822.67	-18.750
822.97	23.810
823.27	-28.571
823.57	0.000
823.88	-3.704
824.18	35.714
824.48	2.941
824.78	16.129
825.08	26.087
825.38	21.212
825.69	-33.333
825.99	0.000
826.29	2.778
826.59	6.667
826.89	4.762
827.19	0.000
827.49	27.500
827.79	0.000
828.09	35.714
828.39	6.061
828.70	43.243
829.00	-17.857
829.30	9.524
829.60	3.333
829.90	-12.500
830.20	15.789
830.50	7.407
830.80	4.348
831.10	18.182
831.40	9.091
831.70	16.129
832.00	23.810
832.30	-23.810
832.60	25.000
832.90	3.448
833.20	-90.000
833.50	15.152
833.80	-11.111
834.10	23.077
834.40	6.250
834.70	-155.556
835.00	-21.053
835.30	30.769
835.60	60.000
835.90	25.806
836.20	-13.636
836.50	17.857
836.80	-23.077
837.10	14.286
837.40	-366.667
837.70	18.182
838.00	-72.727
838.30	8.696
838.60	23.077
838.90	13.636
839.19	14.286
839.49	6.667
839.79	15.385
840.09	-83.333
840.39	25.000
840.69	-21.429
840.99	-3.846
841.29	-42.105
841.59	-50.000
841.88	9.091
842.18	60.000
842.48	-31.250
842.78	26.667
843.08	7.407
843.38	-140.000
843.68	0.000
843.97	-6.667
844.27	-33.333
844.57	-15.000
844.87	44.444
845.17	-33.333
845.47	6.667
845.76	-19.048
846.06	35.294
846.36	-30.000
846.66	-28.571
846.96	13.333
847.25	-162.500
847.55	-7.143
847.85	-25.000
848.15	-4.545
848.44	-433.333
848.74	45.000
849.04	-3.704
849.34	0.000
849.63	-116.667
849.93	-220.000
850.23	-38.889
850.53	-50.000
850.82	7.692
851.12	-122.222
851.42	-66.667
851.71	23.077
852.01	-64.286
852.31	-350.000
852.61	9.091
852.90	-25.000
853.20	0.000
853.50	-50.000
853.79	-8.696
854.09	37.500
854.39	-42.105
854.68	12.500
854.98	32.258
855.28	11.538
855.57	-60.000
855.87	22.222
856.17	14.815
856.46	0.000
856.76	-60.000
857.05	33.333
857.35	8.000
857.65	11.111
857.94	23.077
858.24	0.000
858.53	-16.667
858.83	14.815
859.13	18.182
859.42	-21.739
859.72	-350.000
860.01	-366.667
860.31	32.000
860.60	33.333
860.90	-33.333
861.20	-100.000
861.49	-550.000
861.79	33.333
862.08	-25.000
862.38	53.333
862.67	-240.000
862.97	-83.333
863.26	25.000
863.56	27.778
863.85	-300.000
864.15	-27.778
864.44	-10.000
864.74	35.714
865.03	300.000
865.33	-180.000
865.62	33.333
865.92	8.333
866.21	-150.000
866.51	100.000
866.80	-9.091
867.10	-300.000
867.39	66.667
867.69	0.000
867.98	-46.154
868.27	-200.000
868.57	20.000
868.86	5.556
869.16	-146.154
869.45	120.000
869.75	-800.000
870.04	0.000
870.33	-42.857
870.63	33.333
870.92	500.000
871.22	-240.000
871.51	-1300.000
871.80	33.333
872.10	466.667
>>>>>End Processed Spectral Data<<<<<
