SpectraSuite Data File
++++++++++++++++++++++++++++++++++++
Date: Fri May 15 21:00:36 PDT 2015
User: schluterlab
Dark Spectrum Present: Yes
Reference Spectrum Present: Yes
Number of Sampled Component Spectra: 1
Spectrometers: USB2E3373
Integration Time (usec): 3000 (USB2E3373)
Spectra Averaged: 3 (USB2E3373)
Boxcar Smoothing: 0 (USB2E3373)
Correct for Electrical Dark: No (USB2E3373)
Strobe/Lamp Enabled: No (USB2E3373)
Correct for Detector Non-linearity: No (USB2E3373)
Correct for Stray Light: No (USB2E3373)
Number of Pixels in Processed Spectrum: 2048
>>>>>Begin Processed Spectral Data<<<<<
178.53	0.000
178.91	0.000
179.29	25.000
179.67	-550.000
180.04	57.143
180.42	-150.000
180.80	-1200.000
181.18	33.333
181.56	850.000
181.94	-500.000
182.31	1700.000
182.69	-80.000
183.07	-266.667
183.45	-200.000
183.83	183.333
184.20	-9.091
184.58	155.556
184.96	75.000
185.34	333.333
185.72	-300.000
186.09	146.154
186.47	-1900.000
186.85	416.667
187.23	188.889
187.61	-100.000
187.98	-333.333
188.36	44.444
188.74	66.667
189.12	11.765
189.49	-27.778
189.87	0.000
190.25	28.571
190.63	150.000
191.00	-33.333
191.38	52.632
191.76	300.000
192.14	100.000
192.51	-100.000
192.89	-133.333
193.27	-142.857
193.65	200.000
194.02	190.909
194.40	-70.000
194.78	-75.000
195.15	-83.333
195.53	-137.500
195.91	400.000
196.29	-225.000
196.66	69.231
197.04	171.429
197.42	-77.778
197.79	-600.000
198.17	-130.769
198.55	1100.000
198.92	-433.333
199.30	-300.000
199.68	-40.000
200.05	-400.000
200.43	0.000
200.81	-166.667
201.18	-200.000
201.56	1400.000
201.94	-550.000
202.31	100.000
202.69	-260.000
203.07	100.000
203.44	400.000
203.82	0.000
204.19	21.429
204.57	-233.333
204.95	125.000
205.32	20.000
205.70	-42.857
206.08	-75.000
206.45	133.333
206.83	21.429
207.20	-157.143
207.58	1700.000
207.96	-166.667
208.33	-60.000
208.71	-125.000
209.08	-183.333
209.46	-400.000
209.84	120.000
210.21	-400.000
210.59	57.143
210.96	-116.667
211.34	-275.000
211.71	60.000
212.09	-142.857
212.46	-1900.000
212.84	0.000
213.22	0.000
213.59	500.000
213.97	23.077
214.34	54.545
214.72	-16.667
215.09	350.000
215.47	-69.231
215.84	-72.727
216.22	-333.333
216.59	-12.500
216.97	0.000
217.34	50.000
217.72	-200.000
218.09	-25.000
218.47	37.500
218.84	-900.000
219.22	-155.556
219.59	-120.000
219.97	433.333
220.34	125.000
220.72	-100.000
221.09	25.000
221.47	100.000
221.84	-950.000
222.22	-450.000
222.59	-118.182
222.97	-33.333
223.34	-266.667
223.72	-35.714
224.09	-4.762
224.46	21.429
224.84	533.333
225.21	-10.000
225.59	-26.667
225.96	-50.000
226.34	325.000
226.71	-171.429
227.08	-16.667
227.46	0.000
227.83	-450.000
228.21	-66.667
228.58	-45.455
228.95	0.000
229.33	200.000
229.70	-12.500
230.08	-200.000
230.45	-100.000
230.82	-28.571
231.20	46.667
231.57	64.286
231.95	-100.000
232.32	-60.000
232.69	57.143
233.07	-133.333
233.44	-160.000
233.81	-100.000
234.19	-33.333
234.56	-47.059
234.93	300.000
235.31	50.000
235.68	-280.000
236.05	15.385
236.43	5.000
236.80	-58.824
237.17	21.875
237.55	-15.000
237.92	11.111
238.29	30.556
238.67	73.333
239.04	-5.882
239.41	-14.634
239.79	0.000
240.16	14.634
240.53	21.053
240.91	15.217
241.28	47.619
241.65	44.643
242.02	35.616
242.40	45.000
242.77	22.034
243.14	22.727
243.51	38.750
243.89	40.230
244.26	21.839
244.63	34.524
245.00	35.052
245.38	46.392
245.75	35.955
246.12	30.172
246.49	33.058
246.87	37.500
247.24	34.454
247.61	34.211
247.98	39.837
248.36	41.875
248.73	37.500
249.10	38.312
249.47	36.076
249.84	40.523
250.22	40.000
250.59	39.869
250.96	39.437
251.33	37.791
251.70	42.353
252.08	39.594
252.45	38.119
252.82	44.221
253.19	41.475
253.56	33.645
253.94	38.739
254.31	42.609
254.68	40.351
255.05	42.520
255.42	39.738
255.79	40.927
256.16	46.693
256.54	41.791
256.91	42.205
257.28	40.149
257.65	40.824
258.02	41.489
258.39	39.731
258.76	43.956
259.14	45.515
259.51	37.540
259.88	38.832
260.25	43.464
260.62	48.611
260.99	33.559
261.36	39.726
261.73	38.924
262.10	39.210
262.47	41.104
262.85	41.693
263.22	44.615
263.59	39.564
263.96	41.615
264.33	41.818
264.70	41.071
265.07	38.393
265.44	42.493
265.81	41.243
266.18	41.257
266.55	40.103
266.92	40.933
267.29	44.386
267.66	39.898
268.03	44.764
268.40	41.253
268.77	46.257
269.14	39.568
269.51	40.103
269.88	38.903
270.25	40.816
270.62	37.561
270.99	39.130
271.36	40.587
271.73	39.202
272.10	43.066
272.47	40.189
272.84	39.604
273.21	42.691
273.58	40.723
273.95	41.419
274.32	39.723
274.69	37.104
275.06	41.964
275.43	40.363
275.80	41.501
276.17	42.069
276.54	37.687
276.91	43.640
277.28	40.175
277.65	38.636
278.02	41.064
278.39	38.950
278.76	40.461
279.13	39.004
279.50	39.286
279.87	38.661
280.23	38.495
280.60	38.402
280.97	40.808
281.34	39.808
281.71	39.220
282.08	39.059
282.45	38.943
282.82	36.100
283.19	38.685
283.56	41.233
283.92	36.243
284.29	37.692
284.66	37.597
285.03	38.507
285.40	38.185
285.77	36.028
286.14	38.087
286.51	38.745
286.87	34.918
287.24	38.490
287.61	36.684
287.98	37.544
288.35	35.182
288.72	37.828
289.08	35.417
289.45	35.677
289.82	34.091
290.19	33.447
290.56	36.364
290.93	34.007
291.29	32.357
291.66	33.543
292.03	32.855
292.40	35.323
292.77	33.174
293.13	29.058
293.50	31.259
293.87	30.534
294.24	33.539
294.60	30.700
294.97	30.655
295.34	31.748
295.71	30.104
296.08	29.447
296.44	28.876
296.81	28.333
297.18	31.159
297.55	30.759
297.91	29.452
298.28	30.079
298.65	27.951
299.02	28.437
299.38	28.044
299.75	28.000
300.12	28.141
300.48	28.458
300.85	26.743
301.22	27.403
301.59	27.368
301.95	26.329
302.32	27.626
302.69	27.239
303.05	28.589
303.42	28.892
303.79	27.687
304.15	27.599
304.52	25.684
304.89	23.743
305.25	26.998
305.62	25.788
305.99	24.678
306.35	26.012
306.72	24.859
307.09	26.910
307.45	26.636
307.82	26.968
308.19	26.481
308.55	26.609
308.92	26.797
309.29	24.916
309.65	25.188
310.02	24.532
310.38	26.015
310.75	26.230
311.12	27.018
311.48	24.178
311.85	25.550
312.22	23.312
312.58	24.947
312.95	25.187
313.31	25.052
313.68	24.084
314.05	24.592
314.41	26.082
314.78	23.814
315.14	25.899
315.51	25.155
315.87	23.463
316.24	25.784
316.61	24.803
316.97	26.786
317.34	24.414
317.70	25.143
318.07	25.962
318.43	25.196
318.80	23.011
319.16	24.512
319.53	26.021
319.89	25.591
320.26	25.202
320.62	24.173
320.99	24.635
321.35	26.413
321.72	25.441
322.08	25.680
322.45	23.046
322.81	24.460
323.18	23.258
323.54	24.035
323.91	22.785
324.27	22.559
324.64	24.064
325.00	24.453
325.37	25.528
325.73	23.391
326.10	24.432
326.46	25.112
326.83	24.934
327.19	25.283
327.56	23.458
327.92	25.000
328.29	24.732
328.65	23.868
329.01	24.816
329.38	24.147
329.74	23.513
330.11	23.077
330.47	23.840
330.84	22.788
331.20	24.430
331.56	22.407
331.93	24.110
332.29	24.381
332.66	24.434
333.02	23.885
333.38	22.640
333.75	23.535
334.11	23.008
334.48	22.575
334.84	24.267
335.20	24.428
335.57	22.847
335.93	22.493
336.29	23.020
336.66	22.797
337.02	22.677
337.38	21.667
337.75	22.818
338.11	22.362
338.47	23.175
338.84	23.567
339.20	22.761
339.56	23.486
339.93	23.903
340.29	23.761
340.65	24.014
341.02	22.163
341.38	22.478
341.74	22.527
342.11	21.924
342.47	22.687
342.83	22.837
343.20	22.909
343.56	22.261
343.92	24.269
344.28	22.459
344.65	21.848
345.01	21.867
345.37	22.288
345.73	23.013
346.10	22.433
346.46	22.204
346.82	21.522
347.19	21.696
347.55	22.389
347.91	22.492
348.27	22.474
348.63	21.635
349.00	21.329
349.36	21.197
349.72	23.217
350.08	22.705
350.45	22.426
350.81	21.844
351.17	21.580
351.53	22.939
351.89	21.140
352.26	21.280
352.62	22.016
352.98	21.687
353.34	21.176
353.70	22.573
354.07	21.290
354.43	20.977
354.79	21.140
355.15	22.540
355.51	21.994
355.87	21.359
356.24	20.392
356.60	22.070
356.96	21.746
357.32	21.166
357.68	20.250
358.04	21.163
358.40	21.624
358.77	21.531
359.13	21.537
359.49	20.262
359.85	20.671
360.21	20.893
360.57	20.505
360.93	21.104
361.29	19.335
361.66	19.828
362.02	22.197
362.38	20.640
362.74	21.120
363.10	20.993
363.46	20.534
363.82	22.089
364.18	20.517
364.54	19.926
364.90	20.789
365.26	20.524
365.62	21.460
365.98	21.408
366.35	21.923
366.71	21.434
367.07	20.319
367.43	19.554
367.79	20.424
368.15	20.459
368.51	20.175
368.87	19.957
369.23	19.783
369.59	21.064
369.95	21.848
370.31	20.376
370.67	20.522
371.03	20.164
371.39	19.694
371.75	19.927
372.11	19.686
372.47	20.414
372.83	20.653
373.19	21.327
373.55	18.773
373.91	19.942
374.27	20.553
374.63	20.531
374.99	20.851
375.35	20.822
375.71	21.189
376.07	20.014
376.42	20.884
376.78	20.537
377.14	20.244
377.50	20.518
377.86	19.411
378.22	19.911
378.58	20.705
378.94	19.912
379.30	19.963
379.66	20.439
380.02	20.110
380.38	19.598
380.74	19.988
381.09	20.000
381.45	19.083
381.81	19.803
382.17	19.670
382.53	19.675
382.89	19.900
383.25	19.415
383.61	19.329
383.97	19.175
384.32	20.138
384.68	19.381
385.04	19.547
385.40	19.042
385.76	20.252
386.12	19.664
386.48	19.540
386.83	20.038
387.19	20.085
387.55	19.573
387.91	19.377
388.27	18.987
388.62	20.201
388.98	19.521
389.34	19.613
389.70	20.261
390.06	19.194
390.42	19.171
390.77	19.359
391.13	18.726
391.49	19.599
391.85	18.973
392.20	19.837
392.56	19.708
392.92	20.317
393.28	19.517
393.64	18.679
393.99	19.875
394.35	18.912
394.71	20.179
395.07	18.793
395.42	19.247
395.78	19.088
396.14	19.861
396.50	19.594
396.85	19.382
397.21	19.236
397.57	19.248
397.92	19.353
398.28	18.908
398.64	18.675
399.00	19.187
399.35	19.300
399.71	19.299
400.07	18.924
400.42	18.482
400.78	20.147
401.14	18.996
401.49	19.714
401.85	19.317
402.21	19.819
402.57	18.750
402.92	18.570
403.28	19.173
403.63	18.916
403.99	18.622
404.35	18.926
404.70	18.690
405.06	18.919
405.42	19.453
405.77	18.652
406.13	18.917
406.49	18.058
406.84	19.743
407.20	19.868
407.55	18.352
407.91	19.786
408.27	17.846
408.62	18.954
408.98	19.717
409.34	19.269
409.69	19.057
410.05	18.534
410.40	19.074
410.76	20.567
411.11	18.750
411.47	19.264
411.83	17.891
412.18	18.855
412.54	19.226
412.89	18.103
413.25	19.495
413.60	18.882
413.96	19.018
414.31	19.512
414.67	18.602
415.03	18.775
415.38	19.060
415.74	19.609
416.09	18.877
416.45	18.771
416.80	19.630
417.16	18.992
417.51	19.587
417.87	19.035
418.22	19.560
418.58	19.064
418.93	19.122
419.29	18.950
419.64	19.507
420.00	19.899
420.35	19.045
420.71	19.745
421.06	18.785
421.42	19.171
421.77	18.844
422.12	18.388
422.48	19.004
422.83	18.968
423.19	18.905
423.54	18.695
423.90	19.199
424.25	19.460
424.61	18.849
424.96	19.164
425.31	19.006
425.67	19.660
426.02	19.729
426.38	19.474
426.73	19.310
427.09	20.127
427.44	20.294
427.79	19.741
428.15	19.357
428.50	19.079
428.85	18.673
429.21	20.260
429.56	19.030
429.92	19.723
430.27	19.048
430.62	18.610
430.98	19.002
431.33	18.980
431.68	18.420
432.04	19.229
432.39	19.053
432.74	18.581
433.10	20.747
433.45	19.116
433.80	19.211
434.16	18.283
434.51	19.462
434.86	19.628
435.22	19.574
435.57	19.838
435.92	18.802
436.28	19.439
436.63	19.281
436.98	18.946
437.34	18.996
437.69	19.261
438.04	18.689
438.39	18.998
438.75	18.944
439.10	19.411
439.45	19.355
439.81	19.572
440.16	19.002
440.51	19.582
440.86	20.363
441.22	19.457
441.57	19.812
441.92	20.147
442.27	19.180
442.63	20.182
442.98	19.242
443.33	18.531
443.68	18.780
444.03	20.219
444.39	18.987
444.74	20.569
445.09	19.655
445.44	20.228
445.79	20.732
446.15	19.273
446.50	19.745
446.85	19.607
447.20	20.177
447.55	20.536
447.91	19.459
448.26	19.294
448.61	19.689
448.96	20.654
449.31	20.231
449.66	19.686
450.02	20.194
450.37	20.273
450.72	19.874
451.07	19.810
451.42	19.476
451.77	20.434
452.12	19.976
452.47	19.961
452.83	20.024
453.18	19.734
453.53	20.607
453.88	20.097
454.23	19.361
454.58	20.025
454.93	20.490
455.28	19.429
455.63	20.707
455.98	19.844
456.34	19.923
456.69	20.584
457.04	21.361
457.39	19.684
457.74	20.314
458.09	18.952
458.44	20.070
458.79	19.272
459.14	20.366
459.49	20.597
459.84	20.305
460.19	20.692
460.54	20.293
460.89	20.909
461.24	20.745
461.59	21.615
461.94	20.314
462.29	20.507
462.64	21.130
462.99	19.905
463.34	20.932
463.69	20.721
464.04	20.823
464.39	20.800
464.74	20.675
465.09	21.148
465.44	21.062
465.79	20.408
466.14	21.494
466.49	20.932
466.84	21.416
467.19	20.526
467.54	20.945
467.89	21.036
468.24	20.985
468.59	21.841
468.94	20.825
469.29	21.377
469.64	21.668
469.99	22.495
470.34	21.570
470.68	20.731
471.03	22.293
471.38	21.327
471.73	22.269
472.08	20.963
472.43	20.268
472.78	21.659
473.13	21.905
473.48	21.629
473.83	21.233
474.17	22.021
474.52	21.889
474.87	21.152
475.22	21.843
475.57	20.779
475.92	22.655
476.27	21.769
476.61	21.470
476.96	20.859
477.31	21.687
477.66	21.348
478.01	21.224
478.36	21.078
478.70	21.479
479.05	23.022
479.40	21.834
479.75	21.324
480.10	21.352
480.45	21.900
480.79	22.356
481.14	21.926
481.49	21.675
481.84	21.622
482.19	22.077
482.53	22.398
482.88	21.527
483.23	21.497
483.58	21.557
483.92	21.442
484.27	21.468
484.62	21.246
484.97	21.434
485.31	20.340
485.66	20.983
486.01	20.585
486.36	20.397
486.70	20.739
487.05	20.304
487.40	20.579
487.75	21.014
488.09	19.870
488.44	20.770
488.79	20.956
489.13	21.875
489.48	21.975
489.83	22.152
490.17	21.213
490.52	21.570
490.87	21.888
491.22	21.156
491.56	22.059
491.91	21.415
492.26	22.314
492.60	22.121
492.95	22.971
493.30	22.179
493.64	22.544
493.99	22.271
494.34	21.942
494.68	22.571
495.03	21.946
495.37	22.375
495.72	22.362
496.07	22.585
496.41	21.840
496.76	21.603
497.11	21.751
497.45	21.957
497.80	22.654
498.14	22.802
498.49	22.346
498.84	22.106
499.18	21.938
499.53	22.173
499.87	22.276
500.22	21.761
500.56	22.794
500.91	22.992
501.26	22.689
501.60	22.430
501.95	22.853
502.29	23.051
502.64	22.539
502.98	22.496
503.33	21.230
503.67	21.928
504.02	22.532
504.36	22.316
504.71	22.172
505.06	22.496
505.40	22.437
505.75	23.454
506.09	22.757
506.44	22.998
506.78	23.163
507.13	23.061
507.47	22.611
507.82	21.955
508.16	22.504
508.51	23.085
508.85	22.606
509.19	22.831
509.54	23.056
509.88	21.899
510.23	22.539
510.57	22.982
510.92	21.802
511.26	22.750
511.61	23.157
511.95	23.233
512.30	22.894
512.64	23.651
512.98	22.965
513.33	23.727
513.67	22.797
514.02	24.371
514.36	24.000
514.70	23.776
515.05	23.384
515.39	23.495
515.74	24.491
516.08	22.355
516.42	23.557
516.77	24.166
517.11	24.392
517.46	24.237
517.80	24.493
518.14	23.760
518.49	23.738
518.83	23.633
519.17	23.772
519.52	22.913
519.86	22.689
520.20	23.026
520.55	22.952
520.89	24.341
521.23	23.433
521.58	24.669
521.92	24.231
522.26	23.943
522.61	24.091
522.95	24.702
523.29	23.761
523.64	24.333
523.98	24.303
524.32	23.969
524.66	23.752
525.01	25.260
525.35	25.081
525.69	24.310
526.04	24.074
526.38	25.616
526.72	23.610
527.06	24.125
527.41	24.274
527.75	23.324
528.09	24.518
528.43	25.591
528.78	23.102
529.12	23.613
529.46	23.717
529.80	24.319
530.15	25.479
530.49	24.579
530.83	24.624
531.17	23.640
531.51	24.966
531.86	23.861
532.20	23.730
532.54	22.805
532.88	23.888
533.22	23.992
533.57	25.164
533.91	24.086
534.25	24.870
534.59	24.310
534.93	23.159
535.27	22.906
535.62	23.331
535.96	23.810
536.30	24.472
536.64	24.121
536.98	23.693
537.32	23.969
537.66	24.334
538.01	23.846
538.35	23.648
538.69	24.234
539.03	23.582
539.37	24.159
539.71	23.995
540.05	25.051
540.39	25.139
540.73	24.547
541.07	24.724
541.42	24.530
541.76	24.363
542.10	23.469
542.44	24.044
542.78	22.987
543.12	22.940
543.46	24.687
543.80	23.317
544.14	23.364
544.48	24.384
544.82	23.377
545.16	25.137
545.50	24.366
545.84	24.717
546.18	24.043
546.52	24.153
546.86	23.436
547.20	24.392
547.54	23.534
547.88	24.049
548.22	23.471
548.56	24.208
548.90	24.461
549.24	22.934
549.58	23.413
549.92	23.159
550.26	23.810
550.60	24.461
550.94	25.915
551.28	24.420
551.62	24.077
551.96	23.383
552.30	24.269
552.64	24.189
552.98	24.965
553.32	24.394
553.66	24.020
554.00	23.723
554.34	24.372
554.68	24.189
555.02	22.842
555.36	24.233
555.69	23.810
556.03	23.626
556.37	24.626
556.71	23.610
557.05	24.310
557.39	23.048
557.73	24.288
558.07	25.264
558.41	24.273
558.75	24.864
559.08	24.271
559.42	24.603
559.76	25.140
560.10	23.547
560.44	24.423
560.78	24.476
561.12	24.471
561.45	24.104
561.79	23.319
562.13	24.060
562.47	23.741
562.81	24.063
563.15	24.824
563.48	24.045
563.82	25.120
564.16	24.373
564.50	23.919
564.84	23.896
565.17	24.145
565.51	23.907
565.85	24.623
566.19	22.944
566.52	24.933
566.86	23.715
567.20	22.790
567.54	22.993
567.88	23.081
568.21	23.247
568.55	22.826
568.89	23.152
569.23	23.303
569.56	22.285
569.90	22.655
570.24	21.920
570.57	21.018
570.91	22.029
571.25	21.013
571.59	21.271
571.92	20.652
572.26	20.924
572.60	20.837
572.93	21.023
573.27	21.034
573.61	20.674
573.95	21.409
574.28	20.763
574.62	19.959
574.96	20.070
575.29	20.192
575.63	19.902
575.97	19.680
576.30	20.354
576.64	20.106
576.98	20.901
577.31	20.226
577.65	20.734
577.98	20.118
578.32	20.250
578.66	19.579
578.99	20.075
579.33	19.810
579.67	20.161
580.00	20.253
580.34	20.348
580.67	19.634
581.01	20.221
581.35	20.134
581.68	20.232
582.02	19.912
582.35	19.703
582.69	19.926
583.02	19.868
583.36	20.180
583.70	20.145
584.03	20.350
584.37	20.864
584.70	20.522
585.04	19.585
585.37	20.270
585.71	20.069
586.04	20.171
586.38	20.245
586.72	20.947
587.05	20.797
587.39	21.079
587.72	21.378
588.06	20.537
588.39	20.365
588.73	20.696
589.06	21.559
589.40	21.396
589.73	22.052
590.07	22.319
590.40	21.594
590.73	22.076
591.07	21.798
591.40	22.039
591.74	22.489
592.07	22.449
592.41	22.836
592.74	21.227
593.08	21.062
593.41	21.351
593.75	21.132
594.08	20.941
594.41	21.579
594.75	21.450
595.08	21.112
595.42	21.531
595.75	21.442
596.09	21.188
596.42	21.745
596.75	21.181
597.09	21.913
597.42	21.861
597.75	22.629
598.09	21.503
598.42	21.570
598.76	21.364
599.09	22.075
599.42	20.576
599.76	20.956
600.09	21.606
600.42	21.456
600.76	20.988
601.09	20.802
601.42	21.543
601.76	21.278
602.09	21.700
602.42	21.735
602.76	21.180
603.09	22.467
603.42	22.617
603.76	22.097
604.09	22.195
604.42	22.589
604.76	21.807
605.09	21.664
605.42	22.393
605.75	21.410
606.09	22.251
606.42	22.143
606.75	22.121
607.09	22.022
607.42	21.444
607.75	22.558
608.08	22.147
608.42	22.111
608.75	22.747
609.08	22.422
609.41	22.183
609.75	22.530
610.08	22.816
610.41	22.560
610.74	22.184
611.07	21.757
611.41	22.263
611.74	23.561
612.07	22.323
612.40	22.867
612.73	23.503
613.07	21.935
613.40	22.484
613.73	21.544
614.06	23.261
614.39	22.673
614.72	22.801
615.06	23.296
615.39	22.707
615.72	22.336
616.05	22.067
616.38	21.880
616.71	22.018
617.05	22.730
617.38	22.502
617.71	23.145
618.04	23.429
618.37	24.275
618.70	22.838
619.03	24.514
619.36	23.878
619.69	25.019
620.03	24.982
620.36	23.891
620.69	23.483
621.02	23.853
621.35	25.145
621.68	23.810
622.01	24.833
622.34	25.060
622.67	24.921
623.00	25.191
623.33	24.619
623.66	23.261
623.99	23.979
624.32	23.574
624.65	24.211
624.99	25.207
625.32	23.427
625.65	25.059
625.98	24.335
626.31	25.436
626.64	24.783
626.97	25.393
627.30	25.832
627.63	25.130
627.96	24.798
628.29	25.809
628.62	25.172
628.95	25.752
629.28	26.310
629.61	25.623
629.94	26.002
630.26	26.482
630.59	27.159
630.92	26.667
631.25	26.872
631.58	25.991
631.91	25.548
632.24	26.032
632.57	26.136
632.90	27.046
633.23	26.235
633.56	28.212
633.89	27.374
634.22	27.654
634.55	26.811
634.88	26.181
635.20	27.821
635.53	27.333
635.86	27.178
636.19	27.426
636.52	25.255
636.85	26.675
637.18	26.792
637.51	26.415
637.83	27.070
638.16	29.604
638.49	26.703
638.82	28.553
639.15	28.901
639.48	27.785
639.81	27.336
640.13	29.004
640.46	28.863
640.79	26.362
641.12	29.099
641.45	28.228
641.77	27.852
642.10	30.174
642.43	29.100
642.76	28.383
643.09	29.725
643.41	27.184
643.74	30.972
644.07	29.557
644.40	29.730
644.73	30.998
645.05	29.362
645.38	28.571
645.71	30.142
646.04	30.341
646.36	27.660
646.69	30.935
647.02	28.922
647.35	28.731
647.67	29.616
648.00	30.597
648.33	30.546
648.66	28.305
648.98	27.973
649.31	29.587
649.64	28.728
649.96	25.284
650.29	27.939
650.62	27.863
650.94	30.370
651.27	27.374
651.60	29.550
651.92	27.448
652.25	26.288
652.58	29.000
652.90	30.875
653.23	27.059
653.56	25.888
653.88	29.897
654.21	26.095
654.54	26.825
654.86	29.202
655.19	24.854
655.52	25.851
655.84	21.647
656.17	23.290
656.49	30.636
656.82	30.809
657.15	23.030
657.47	17.128
657.80	12.713
658.13	12.262
658.45	18.798
658.78	18.718
659.10	18.490
659.43	18.192
659.75	18.747
660.08	18.690
660.41	22.165
660.73	23.066
661.06	27.383
661.38	26.614
661.71	25.051
662.03	29.614
662.36	28.352
662.68	27.434
663.01	32.314
663.33	27.610
663.66	26.744
663.98	27.442
664.31	30.277
664.63	26.728
664.96	28.043
665.28	29.360
665.61	28.139
665.93	30.000
666.26	29.284
666.58	25.503
666.91	28.235
667.23	28.302
667.56	31.754
667.88	29.736
668.21	29.356
668.53	32.151
668.86	29.717
669.18	30.660
669.50	28.087
669.83	28.837
670.15	28.205
670.48	29.187
670.80	30.645
671.13	27.293
671.45	28.311
671.77	31.116
672.10	28.515
672.42	26.217
672.75	26.288
673.07	28.265
673.39	28.991
673.72	25.838
674.04	25.833
674.37	29.661
674.69	30.407
675.01	28.667
675.34	28.153
675.66	28.472
675.98	26.829
676.31	28.899
676.63	28.266
676.95	26.136
677.28	29.176
677.60	31.084
677.92	26.376
678.25	25.164
678.57	27.922
678.89	25.000
679.22	30.649
679.54	24.096
679.86	26.640
680.18	26.796
680.51	30.114
680.83	26.243
681.15	26.200
681.48	30.328
681.80	26.446
682.12	26.411
682.44	26.778
682.77	27.373
683.09	26.545
683.41	29.318
683.73	28.571
684.06	27.655
684.38	25.376
684.70	28.540
685.02	26.141
685.34	25.494
685.67	26.454
685.99	26.040
686.31	25.487
686.63	26.531
686.96	25.475
687.28	22.828
687.60	23.954
687.92	27.475
688.24	25.202
688.56	26.856
688.89	26.562
689.21	30.222
689.53	26.218
689.85	26.744
690.17	27.232
690.49	27.660
690.82	26.699
691.14	26.429
691.46	26.402
691.78	28.829
692.10	26.452
692.42	26.840
692.74	25.855
693.06	25.901
693.39	25.792
693.71	25.339
694.03	24.018
694.35	27.804
694.67	29.040
694.99	24.543
695.31	30.809
695.63	31.750
695.95	25.000
696.27	27.720
696.59	29.167
696.91	26.050
697.23	25.707
697.56	26.733
697.88	25.591
698.20	25.513
698.52	28.000
698.84	24.163
699.16	27.500
699.48	27.318
699.80	27.047
700.12	26.954
700.44	29.132
700.76	29.360
701.08	28.485
701.40	28.012
701.72	31.173
702.04	29.703
702.36	26.756
702.68	29.730
703.00	30.303
703.32	24.047
703.64	22.316
703.96	25.217
704.28	27.607
704.60	30.476
704.91	23.975
705.23	25.249
705.55	31.802
705.87	30.686
706.19	27.037
706.51	28.522
706.83	30.547
707.15	22.741
707.47	26.050
707.79	23.958
708.11	28.000
708.43	24.000
708.74	26.098
709.06	27.324
709.38	25.688
709.70	28.698
710.02	30.892
710.34	29.412
710.66	22.756
710.98	24.503
711.29	31.148
711.61	25.763
711.93	27.362
712.25	27.491
712.57	28.571
712.89	26.493
713.20	28.028
713.52	27.875
713.84	25.597
714.16	26.460
714.48	27.097
714.80	27.244
715.11	27.660
715.43	26.332
715.75	25.333
716.07	25.581
716.39	28.188
716.70	23.985
717.02	26.336
717.34	30.364
717.66	27.434
717.97	27.391
718.29	30.126
718.61	24.803
718.93	27.519
719.24	26.236
719.56	27.711
719.88	28.179
720.20	27.652
720.51	22.989
720.83	31.660
721.15	28.992
721.46	31.048
721.78	24.901
722.10	21.561
722.42	28.216
722.73	27.347
723.05	31.429
723.37	36.017
723.68	34.685
724.00	29.060
724.32	26.667
724.63	28.636
724.95	30.568
725.27	29.493
725.58	25.847
725.90	17.857
726.22	26.641
726.53	29.492
726.85	28.464
727.16	33.585
727.48	25.911
727.80	30.769
728.11	25.000
728.43	23.922
728.74	23.790
729.06	27.600
729.38	27.068
729.69	26.693
730.01	27.692
730.32	25.000
730.64	29.329
730.96	20.377
731.27	27.000
731.59	22.373
731.90	23.885
732.22	26.814
732.53	27.575
732.85	25.887
733.16	28.956
733.48	24.460
733.80	25.362
734.11	25.085
734.43	27.835
734.74	23.636
735.06	21.498
735.37	24.471
735.69	24.242
736.00	21.603
736.32	22.819
736.63	27.465
736.95	29.010
737.26	22.064
737.58	21.477
737.89	24.176
738.21	26.316
738.52	30.864
738.83	27.948
739.15	22.707
739.46	29.134
739.78	23.810
740.09	22.549
740.41	22.101
740.72	25.197
741.04	25.506
741.35	22.553
741.66	27.962
741.98	27.551
742.29	27.723
742.61	31.937
742.92	27.962
743.23	19.907
743.55	26.244
743.86	26.794
744.18	29.665
744.49	25.532
744.80	16.848
745.12	32.086
745.43	21.463
745.74	26.562
746.06	30.732
746.37	25.654
746.68	32.701
747.00	26.596
747.31	29.851
747.62	30.583
747.94	27.273
748.25	24.257
748.56	24.044
748.88	24.084
749.19	32.447
749.50	27.094
749.82	19.811
750.13	24.312
750.44	25.940
750.75	27.612
751.07	29.927
751.38	25.287
751.69	23.529
752.01	26.744
752.32	26.295
752.63	23.715
752.94	24.569
753.26	33.473
753.57	24.887
753.88	25.221
754.19	22.917
754.51	23.140
754.82	28.745
755.13	30.000
755.44	24.194
755.75	25.391
756.07	21.012
756.38	25.283
756.69	21.839
757.00	26.000
757.31	25.817
757.63	25.305
757.94	23.056
758.25	20.274
758.56	21.277
758.87	21.246
759.18	20.561
759.50	24.000
759.81	26.756
760.12	26.452
760.43	24.848
760.74	22.840
761.05	26.154
761.36	25.284
761.67	25.455
761.99	23.469
762.30	21.091
762.61	24.111
762.92	27.602
763.23	22.523
763.54	23.364
763.85	27.119
764.16	19.087
764.47	22.581
764.78	23.443
765.10	26.599
765.41	24.921
765.72	22.540
766.03	20.301
766.34	22.263
766.65	23.904
766.96	30.808
767.27	28.191
767.58	24.713
767.89	25.532
768.20	18.182
768.51	26.374
768.82	25.616
769.13	17.972
769.44	24.034
769.75	13.242
770.06	22.845
770.37	26.442
770.68	23.858
770.99	23.077
771.30	26.961
771.61	22.172
771.92	25.862
772.23	26.601
772.54	27.419
772.85	22.840
773.16	29.213
773.47	26.797
773.78	24.183
774.09	25.150
774.39	19.333
774.70	21.656
775.01	27.586
775.32	22.143
775.63	16.529
775.94	16.031
776.25	27.559
776.56	25.833
776.87	28.846
777.18	26.496
777.48	24.138
777.79	24.348
778.10	21.905
778.41	14.414
778.72	28.571
779.03	21.805
779.34	27.660
779.65	26.027
779.95	16.438
780.26	19.310
780.57	24.390
780.88	25.197
781.19	19.828
781.50	26.357
781.80	17.160
782.11	13.208
782.42	22.308
782.73	19.424
783.04	20.741
783.34	20.833
783.65	11.111
783.96	18.852
784.27	35.172
784.57	22.764
784.88	21.875
785.19	23.000
785.50	27.000
785.81	22.414
786.11	17.241
786.42	22.330
786.73	30.909
787.04	24.490
787.34	26.786
787.65	23.810
787.96	10.619
788.26	23.636
788.57	19.658
788.88	19.531
789.19	19.841
789.49	24.348
789.80	19.388
790.11	24.242
790.41	23.636
790.72	22.826
791.03	15.909
791.33	26.250
791.64	16.250
791.95	20.930
792.25	23.404
792.56	21.348
792.87	15.068
793.17	28.986
793.48	10.667
793.79	18.750
794.09	30.000
794.40	16.038
794.70	20.388
795.01	17.073
795.32	15.385
795.62	17.143
795.93	9.804
796.23	16.038
796.54	32.292
796.85	22.059
797.15	22.535
797.46	20.833
797.76	30.303
798.07	10.465
798.37	11.842
798.68	-3.030
798.99	24.691
799.29	24.286
799.60	20.290
799.90	26.667
800.21	27.869
800.51	40.000
800.82	35.593
801.12	39.130
801.43	13.115
801.73	31.746
802.04	2.000
802.34	7.463
802.65	21.154
802.95	3.571
803.26	1.923
803.56	23.529
803.87	-30.435
804.17	21.333
804.48	23.810
804.78	14.815
805.09	30.435
805.39	44.444
805.70	11.111
806.00	0.000
806.30	21.127
806.61	20.000
806.91	8.333
807.22	31.579
807.52	29.333
807.83	14.545
808.13	22.222
808.43	30.882
808.74	11.940
809.04	11.864
809.35	15.385
809.65	14.062
809.95	-29.730
810.26	18.182
810.56	9.589
810.86	9.524
811.17	14.000
811.47	14.286
811.77	26.316
812.08	18.182
812.38	9.434
812.69	5.000
812.99	18.182
813.29	10.526
813.59	-11.429
813.90	-2.273
814.20	7.692
814.50	25.000
814.81	26.415
815.11	-17.021
815.41	33.898
815.72	30.952
816.02	33.333
816.32	-2.083
816.62	-2.439
816.93	16.216
817.23	0.000
817.53	47.917
817.84	13.043
818.14	11.538
818.44	-5.263
818.74	47.826
819.04	-12.500
819.35	43.243
819.65	5.882
819.95	-11.111
820.25	14.286
820.56	30.000
820.86	3.448
821.16	55.000
821.46	8.511
821.76	12.500
822.07	9.302
822.37	-13.514
822.67	15.625
822.97	14.286
823.27	-21.429
823.57	20.000
823.88	-7.407
824.18	10.714
824.48	-11.765
824.78	-16.129
825.08	13.043
825.38	27.273
825.69	-37.500
825.99	15.789
826.29	5.556
826.59	-6.667
826.89	-90.476
827.19	19.565
827.49	27.500
827.79	37.143
828.09	7.143
828.39	6.061
828.70	32.432
829.00	-7.143
829.30	-33.333
829.60	3.333
829.90	-15.625
830.20	5.263
830.50	11.111
830.80	-17.391
831.10	-22.727
831.40	12.121
831.70	51.613
832.00	4.762
832.30	14.286
832.60	-41.667
832.90	3.448
833.20	-30.000
833.50	-3.030
833.80	22.222
834.10	-26.923
834.40	3.125
834.70	-144.444
835.00	0.000
835.30	38.462
835.60	20.000
835.90	0.000
836.20	-27.273
836.50	14.286
836.80	3.846
837.10	46.429
837.40	100.000
837.70	-45.455
838.00	-145.455
838.30	26.087
838.60	0.000
838.90	18.182
839.19	0.000
839.49	46.667
839.79	23.077
840.09	-33.333
840.39	25.000
840.69	-14.286
840.99	-26.923
841.29	-10.526
841.59	-160.000
841.88	-54.545
842.18	-10.000
842.48	12.500
842.78	-6.667
843.08	3.704
843.38	-100.000
843.68	17.391
843.97	33.333
844.27	-73.333
844.57	0.000
844.87	-27.778
845.17	-9.524
845.47	-20.000
845.76	-4.762
846.06	5.882
846.36	-60.000
846.66	-57.143
846.96	-40.000
847.25	-12.500
847.55	64.286
847.85	37.500
848.15	-9.091
848.44	-433.333
848.74	25.000
849.04	25.926
849.34	-27.273
849.63	-150.000
849.93	-260.000
850.23	-50.000
850.53	60.000
850.82	-53.846
851.12	22.222
851.42	-13.333
851.71	7.692
852.01	0.000
852.31	-150.000
852.61	-72.727
852.90	-20.000
853.20	-26.316
853.50	-25.000
853.79	30.435
854.09	-8.333
854.39	-26.316
854.68	-29.167
854.98	0.000
855.28	34.615
855.57	-5.000
855.87	11.111
856.17	33.333
856.46	35.714
856.76	26.667
857.05	-55.556
857.35	12.000
857.65	38.889
857.94	-84.615
858.24	37.931
858.53	0.000
858.83	22.222
859.13	36.364
859.42	-17.391
859.72	-150.000
860.01	-400.000
860.31	-16.000
860.60	42.857
860.90	-233.333
861.20	-100.000
861.49	-550.000
861.79	-13.333
862.08	25.000
862.38	86.667
862.67	-420.000
862.97	-66.667
863.26	0.000
863.56	-16.667
863.85	-333.333
864.15	-11.111
864.44	-50.000
864.74	0.000
865.03	275.000
865.33	-280.000
865.62	16.667
865.92	-8.333
866.21	-150.000
866.51	0.000
866.80	-45.455
867.10	-800.000
867.39	91.667
867.69	0.000
867.98	30.769
868.27	-400.000
868.57	-40.000
868.86	16.667
869.16	-61.538
869.45	6.667
869.75	-800.000
870.04	0.000
870.33	-242.857
870.63	61.905
870.92	300.000
871.22	-420.000
871.51	-400.000
871.80	44.444
872.10	600.000
>>>>>End Processed Spectral Data<<<<<
