SpectraSuite Data File
++++++++++++++++++++++++++++++++++++
Date: Fri May 15 20:59:49 PDT 2015
User: schluterlab
Dark Spectrum Present: Yes
Reference Spectrum Present: Yes
Number of Sampled Component Spectra: 1
Spectrometers: USB2E3373
Integration Time (usec): 3000 (USB2E3373)
Spectra Averaged: 3 (USB2E3373)
Boxcar Smoothing: 0 (USB2E3373)
Correct for Electrical Dark: No (USB2E3373)
Strobe/Lamp Enabled: No (USB2E3373)
Correct for Detector Non-linearity: No (USB2E3373)
Correct for Stray Light: No (USB2E3373)
Number of Pixels in Processed Spectrum: 2048
>>>>>Begin Processed Spectral Data<<<<<
178.53	0.000
178.91	0.000
179.29	37.500
179.67	-250.000
180.04	85.714
180.42	-50.000
180.80	-500.000
181.18	233.333
181.56	300.000
181.94	-150.000
182.31	500.000
182.69	-60.000
183.07	-266.667
183.45	80.000
183.83	133.333
184.20	-36.364
184.58	144.444
184.96	100.000
185.34	300.000
185.72	-500.000
186.09	92.308
186.47	-1400.000
186.85	33.333
187.23	133.333
187.61	-200.000
187.98	-300.000
188.36	-66.667
188.74	0.000
189.12	35.294
189.49	-5.556
189.87	0.000
190.25	-14.286
190.63	-250.000
191.00	-333.333
191.38	-21.053
191.76	200.000
192.14	125.000
192.51	100.000
192.89	-100.000
193.27	14.286
193.65	100.000
194.02	200.000
194.40	0.000
194.78	-37.500
195.15	-66.667
195.53	-137.500
195.91	300.000
196.29	-175.000
196.66	100.000
197.04	157.143
197.42	-133.333
197.79	-600.000
198.17	-107.692
198.55	300.000
198.92	-133.333
199.30	300.000
199.68	-200.000
200.05	-266.667
200.43	0.000
200.81	-166.667
201.18	-266.667
201.56	1200.000
201.94	150.000
202.31	100.000
202.69	-280.000
203.07	200.000
203.44	300.000
203.82	0.000
204.19	14.286
204.57	-533.333
204.95	125.000
205.32	20.000
205.70	-42.857
206.08	-75.000
206.45	144.444
206.83	100.000
207.20	28.571
207.58	1200.000
207.96	-400.000
208.33	-70.000
208.71	-250.000
209.08	-50.000
209.46	-800.000
209.84	-180.000
210.21	-1000.000
210.59	28.571
210.96	-50.000
211.34	-50.000
211.71	33.333
212.09	-114.286
212.46	-2200.000
212.84	0.000
213.22	120.000
213.59	900.000
213.97	7.692
214.34	27.273
214.72	-100.000
215.09	200.000
215.47	-23.077
215.84	9.091
216.22	-133.333
216.59	-87.500
216.97	-100.000
217.34	0.000
217.72	-160.000
218.09	37.500
218.47	162.500
218.84	-100.000
219.22	-222.222
219.59	0.000
219.97	433.333
220.34	450.000
220.72	-28.571
221.09	-300.000
221.47	100.000
221.84	-650.000
222.22	-1000.000
222.59	-36.364
222.97	8.333
223.34	-266.667
223.72	-85.714
224.09	4.762
224.46	28.571
224.84	366.667
225.21	-140.000
225.59	13.333
225.96	-200.000
226.34	575.000
226.71	-28.571
227.08	-216.667
227.46	-25.000
227.83	-800.000
228.21	-11.111
228.58	54.545
228.95	-12.500
229.33	150.000
229.70	37.500
230.08	-100.000
230.45	-42.857
230.82	-128.571
231.20	-53.333
231.57	50.000
231.95	-28.571
232.32	-90.000
232.69	35.714
233.07	-66.667
233.44	-220.000
233.81	-50.000
234.19	0.000
234.56	-11.765
234.93	200.000
235.31	-125.000
235.68	-200.000
236.05	-84.615
236.43	-75.000
236.80	0.000
237.17	6.250
237.55	-25.000
237.92	18.519
238.29	11.111
238.67	33.333
239.04	-2.941
239.41	9.756
239.79	-13.333
240.16	41.463
240.53	-13.158
240.91	15.217
241.28	15.873
241.65	30.357
242.02	36.986
242.40	16.667
242.77	23.729
243.14	19.697
243.51	22.500
243.89	37.931
244.26	16.092
244.63	25.000
245.00	26.804
245.38	32.990
245.75	20.225
246.12	25.862
246.49	30.579
246.87	32.692
247.24	28.571
247.61	21.930
247.98	27.642
248.36	25.625
248.73	36.184
249.10	22.727
249.47	23.418
249.84	24.837
250.22	30.000
250.59	28.758
250.96	29.108
251.33	29.070
251.70	27.059
252.08	32.487
252.45	30.693
252.82	31.658
253.19	31.797
253.56	26.636
253.94	32.432
254.31	31.304
254.68	35.088
255.05	31.102
255.42	29.258
255.79	33.591
256.16	31.518
256.54	35.075
256.91	31.559
257.28	30.483
257.65	29.588
258.02	26.596
258.39	31.987
258.76	33.700
259.14	35.216
259.51	30.421
259.88	35.395
260.25	31.699
260.62	39.931
260.99	34.576
261.36	31.164
261.73	30.063
262.10	38.298
262.47	31.902
262.85	30.094
263.22	33.231
263.59	33.956
263.96	31.988
264.33	35.152
264.70	32.143
265.07	30.655
265.44	35.411
265.81	32.203
266.18	33.607
266.55	33.676
266.92	35.492
267.29	33.420
267.66	32.481
268.03	31.937
268.40	31.854
268.77	34.492
269.14	33.813
269.51	32.134
269.88	31.671
270.25	31.378
270.62	30.000
270.99	32.481
271.36	30.562
271.73	31.925
272.10	35.036
272.47	35.934
272.84	28.713
273.21	32.251
273.58	32.530
273.95	31.350
274.32	31.871
274.69	30.543
275.06	33.482
275.43	32.200
275.80	31.788
276.17	34.483
276.54	30.621
276.91	30.921
277.28	32.969
277.65	31.405
278.02	29.787
278.39	33.042
278.76	32.495
279.13	30.705
279.50	31.723
279.87	30.022
280.23	28.172
280.60	33.138
280.97	30.101
281.34	30.000
281.71	34.086
282.08	29.857
282.45	30.333
282.82	28.185
283.19	29.207
283.56	29.672
283.92	31.689
284.29	29.231
284.66	28.682
285.03	29.273
285.40	30.624
285.77	31.107
286.14	31.227
286.51	31.365
286.87	30.165
287.24	29.834
287.61	30.159
287.98	29.825
288.35	29.983
288.72	29.422
289.08	27.604
289.45	29.350
289.82	28.846
290.19	27.474
290.56	27.273
290.93	26.431
291.29	26.194
291.66	29.449
292.03	26.954
292.40	26.129
292.77	25.997
293.13	22.890
293.50	23.520
293.87	26.107
294.24	26.893
294.60	23.249
294.97	26.488
295.34	24.387
295.71	23.249
296.08	24.963
296.44	21.479
296.81	23.611
297.18	22.464
297.55	25.474
297.91	23.836
298.28	24.802
298.65	22.117
299.02	21.159
299.38	22.709
299.75	23.172
300.12	20.026
300.48	23.715
300.85	22.814
301.22	23.117
301.59	23.684
301.95	23.544
302.32	22.698
302.69	21.269
303.05	21.906
303.42	21.295
303.79	22.313
304.15	22.342
304.52	19.857
304.89	22.105
305.25	20.823
305.62	21.354
305.99	20.468
306.35	21.503
306.72	20.135
307.09	22.235
307.45	21.699
307.82	21.528
308.19	23.229
308.55	21.265
308.92	21.895
309.29	20.335
309.65	21.206
310.02	21.342
310.38	21.405
310.75	21.311
311.12	21.636
311.48	21.421
311.85	20.105
312.22	20.781
312.58	21.762
312.95	20.277
313.31	20.807
313.68	22.618
314.05	20.612
314.41	22.371
314.78	22.165
315.14	21.891
315.51	22.567
315.87	23.361
316.24	24.065
316.61	22.244
316.97	23.413
317.34	21.289
317.70	22.180
318.07	22.885
318.43	24.020
318.80	22.254
319.16	23.535
319.53	24.786
319.89	23.917
320.26	23.887
320.62	25.777
320.99	24.530
321.35	24.460
321.72	25.857
322.08	25.982
322.45	27.411
322.81	25.049
323.18	26.202
323.54	26.544
323.91	27.264
324.27	27.539
324.64	27.809
325.00	28.650
325.37	29.109
325.73	27.743
326.10	28.883
326.46	29.238
326.83	29.921
327.19	30.602
327.56	30.843
327.92	31.074
328.29	30.000
328.65	30.660
329.01	31.066
329.38	30.507
329.74	31.822
330.11	30.491
330.47	31.725
330.84	31.058
331.20	33.650
331.56	30.833
331.93	31.598
332.29	32.906
332.66	32.579
333.02	32.249
333.38	31.989
333.75	34.158
334.11	31.692
334.48	33.726
334.84	34.158
335.20	32.571
335.57	32.094
335.93	33.153
336.29	34.346
336.66	33.787
337.02	32.528
337.38	32.130
337.75	33.273
338.11	32.822
338.47	34.854
338.84	32.532
339.20	33.821
339.56	34.220
339.93	32.587
340.29	34.495
340.65	32.796
341.02	32.447
341.38	33.894
341.74	31.802
342.11	31.629
342.47	34.075
342.83	32.958
343.20	33.362
343.56	34.348
343.92	34.012
344.28	33.305
344.65	33.765
345.01	33.276
345.37	32.212
345.73	34.979
346.10	32.614
346.46	32.632
346.82	33.224
347.19	33.250
347.55	32.832
347.91	33.414
348.27	32.902
348.63	33.560
349.00	32.814
349.36	33.001
349.72	34.328
350.08	33.770
350.45	33.599
350.81	32.890
351.17	33.143
351.53	33.061
351.89	32.865
352.26	32.640
352.62	32.742
352.98	33.494
353.34	32.045
353.70	33.495
354.07	33.710
354.43	33.787
354.79	33.113
355.15	33.095
355.51	34.335
355.87	32.686
356.24	31.974
356.60	33.064
356.96	33.175
357.32	32.588
357.68	33.151
358.04	32.633
358.40	32.878
358.77	33.014
359.13	32.826
359.49	32.280
359.85	32.527
360.21	32.695
360.57	33.206
360.93	32.829
361.29	31.873
361.66	32.053
362.02	33.485
362.38	32.673
362.74	32.173
363.10	34.989
363.46	34.025
363.82	34.260
364.18	33.653
364.54	32.868
364.90	32.903
365.26	33.115
365.62	33.212
365.98	33.284
366.35	34.669
366.71	35.033
367.07	33.164
367.43	32.063
367.79	33.569
368.15	32.304
368.51	33.576
368.87	33.309
369.23	33.791
369.59	33.673
369.95	33.578
370.31	32.948
370.67	33.433
371.03	33.084
371.39	33.042
371.75	33.114
372.11	32.596
372.47	33.950
372.83	33.570
373.19	33.096
373.55	32.202
373.91	32.685
374.27	35.011
374.63	34.602
374.99	32.837
375.35	33.914
375.71	33.846
376.07	33.989
376.42	34.694
376.78	33.087
377.14	33.785
377.50	34.728
377.86	34.739
378.22	33.376
378.58	33.462
378.94	34.405
379.30	32.439
379.66	33.856
380.02	33.292
380.38	33.354
380.74	33.154
381.09	33.681
381.45	33.639
381.81	33.621
382.17	34.010
382.53	32.417
382.89	34.338
383.25	34.225
383.61	34.329
383.97	33.714
384.32	33.521
384.68	34.613
385.04	33.640
385.40	32.918
385.76	33.459
386.12	33.959
386.48	33.972
386.83	32.911
387.19	34.249
387.55	34.191
387.91	34.535
388.27	34.310
388.62	33.984
388.98	34.131
389.34	33.042
389.70	33.748
390.06	33.040
390.42	32.254
390.77	33.551
391.13	33.480
391.49	33.765
391.85	33.983
392.20	32.768
392.56	33.630
392.92	33.823
393.28	33.844
393.64	33.814
393.99	33.981
394.35	33.080
394.71	33.908
395.07	32.244
395.42	32.848
395.78	32.964
396.14	32.724
396.50	33.925
396.85	32.775
397.21	33.396
397.57	32.602
397.92	33.493
398.28	33.046
398.64	31.928
399.00	33.747
399.35	32.957
399.71	32.108
400.07	32.769
400.42	31.151
400.78	33.680
401.14	32.849
401.49	32.817
401.85	32.419
402.21	31.928
402.57	32.312
402.92	32.434
403.28	32.895
403.63	32.976
403.99	32.334
404.35	33.104
404.70	32.321
405.06	31.434
405.42	32.070
405.77	31.784
406.13	31.898
406.49	31.202
406.84	33.007
407.20	32.631
407.55	31.037
407.91	31.217
408.27	31.230
408.62	32.185
408.98	32.101
409.34	32.342
409.69	30.556
410.05	31.466
410.40	31.975
410.76	31.665
411.11	31.312
411.47	31.427
411.83	30.760
412.18	31.403
412.54	31.149
412.89	30.973
413.25	31.528
413.60	31.180
413.96	31.043
414.31	31.280
414.67	30.981
415.03	30.892
415.38	31.136
415.74	31.531
416.09	31.287
416.45	32.073
416.80	31.461
417.16	32.044
417.51	30.713
417.87	30.117
418.22	31.606
418.58	31.237
418.93	32.226
419.29	28.809
419.64	30.655
420.00	31.171
420.35	29.552
420.71	30.863
421.06	31.062
421.42	30.529
421.77	30.462
422.12	30.250
422.48	31.294
422.83	29.988
423.19	31.321
423.54	31.335
423.90	30.565
424.25	31.228
424.61	30.906
424.96	31.359
425.31	32.987
425.67	31.279
426.02	31.743
426.38	31.997
426.73	31.477
427.09	31.709
427.44	30.706
427.79	31.173
428.15	31.553
428.50	31.012
428.85	29.484
429.21	30.843
429.56	31.429
429.92	31.228
430.27	30.977
430.62	30.058
430.98	31.316
431.33	31.703
431.68	31.083
432.04	31.302
432.39	30.462
432.74	31.149
433.10	31.724
433.45	31.004
433.80	31.050
434.16	30.582
434.51	31.183
434.86	31.649
435.22	30.679
435.57	30.443
435.92	31.078
436.28	30.531
436.63	30.519
436.98	29.490
437.34	30.913
437.69	30.769
438.04	30.712
438.39	29.811
438.75	30.905
439.10	30.560
439.45	31.163
439.81	30.214
440.16	31.295
440.51	30.507
440.86	31.541
441.22	30.204
441.57	30.574
441.92	31.112
442.27	31.486
442.63	30.889
442.98	31.132
443.33	29.994
443.68	30.928
444.03	30.999
444.39	30.398
444.74	30.825
445.09	31.236
445.44	30.769
445.79	31.511
446.15	31.333
446.50	29.506
446.85	31.031
447.20	30.240
447.55	31.362
447.91	30.400
448.26	30.450
448.61	30.685
448.96	31.038
449.31	30.867
449.66	30.139
450.02	30.462
450.37	30.646
450.72	30.584
451.07	31.456
451.42	29.838
451.77	30.500
452.12	30.024
452.47	29.491
452.83	30.271
453.18	29.728
453.53	30.531
453.88	29.508
454.23	29.564
454.58	30.416
454.93	29.961
455.28	28.889
455.63	29.882
455.98	29.886
456.34	29.757
456.69	28.780
457.04	30.939
457.39	30.437
457.74	29.625
458.09	28.899
458.44	29.257
458.79	28.739
459.14	29.920
459.49	29.851
459.84	30.344
460.19	29.976
460.54	30.073
460.89	30.000
461.24	29.255
461.59	30.048
461.94	29.560
462.29	29.735
462.64	29.767
462.99	29.452
463.34	29.833
463.69	29.601
464.04	28.753
464.39	28.866
464.74	29.509
465.09	29.320
465.44	29.717
465.79	29.025
466.14	30.559
466.49	28.695
466.84	29.447
467.19	29.161
467.54	28.480
467.89	28.301
468.24	28.650
468.59	29.270
468.94	28.825
469.29	28.656
469.64	29.392
469.99	28.591
470.34	29.283
470.68	28.859
471.03	28.662
471.38	29.315
471.73	29.902
472.08	28.358
472.43	28.188
472.78	28.101
473.13	30.000
473.48	28.339
473.83	28.394
474.17	29.210
474.52	28.526
474.87	28.364
475.22	28.981
475.57	27.724
475.92	28.908
476.27	28.813
476.61	28.356
476.96	27.496
477.31	28.177
477.66	27.921
478.01	27.513
478.36	28.050
478.70	27.787
479.05	28.681
479.40	27.822
479.75	27.424
480.10	28.725
480.45	28.250
480.79	29.154
481.14	27.869
481.49	26.601
481.84	28.089
482.19	27.783
482.53	28.249
482.88	28.210
483.23	28.455
483.58	28.019
483.92	27.977
484.27	27.256
484.62	27.611
484.97	26.783
485.31	27.312
485.66	26.545
486.01	27.166
486.36	26.640
486.70	27.694
487.05	28.010
487.40	27.870
487.75	26.930
488.09	26.669
488.44	27.476
488.79	27.307
489.13	26.923
489.48	27.106
489.83	27.040
490.17	26.427
490.52	26.836
490.87	27.302
491.22	26.648
491.56	26.660
491.91	26.673
492.26	26.835
492.60	26.967
492.95	27.103
493.30	26.771
493.64	26.670
493.99	26.618
494.34	26.602
494.68	26.762
495.03	25.791
495.37	26.595
495.72	26.199
496.07	27.024
496.41	26.368
496.76	26.670
497.11	26.502
497.45	26.969
497.80	27.144
498.14	25.882
498.49	26.359
498.84	26.647
499.18	27.259
499.53	26.091
499.87	25.875
500.22	26.459
500.56	27.030
500.91	25.653
501.26	26.100
501.60	26.217
501.95	27.026
502.29	26.634
502.64	25.193
502.98	26.098
503.33	25.744
503.67	26.410
504.02	26.344
504.36	25.136
504.71	26.212
505.06	25.617
505.40	25.990
505.75	26.598
506.09	25.393
506.44	25.924
506.78	25.408
507.13	26.525
507.47	26.110
507.82	25.855
508.16	26.572
508.51	26.967
508.85	25.850
509.19	25.386
509.54	26.381
509.88	25.189
510.23	25.498
510.57	25.869
510.92	25.426
511.26	25.859
511.61	26.238
511.95	26.740
512.30	26.275
512.64	25.153
512.98	25.154
513.33	26.189
513.67	25.924
514.02	27.002
514.36	26.286
514.70	26.748
515.05	26.851
515.39	26.210
515.74	26.826
516.08	26.479
516.42	27.680
516.77	27.209
517.11	26.231
517.46	26.272
517.80	26.460
518.14	25.842
518.49	26.142
518.83	26.792
519.17	25.773
519.52	24.985
519.86	25.690
520.20	26.306
520.55	25.766
520.89	26.600
521.23	26.472
521.58	26.309
521.92	26.218
522.26	26.350
522.61	25.325
522.95	26.093
523.29	25.604
523.64	26.620
523.98	25.988
524.32	25.644
524.66	26.633
525.01	27.208
525.35	26.442
525.69	24.916
526.04	25.661
526.38	26.848
526.72	25.703
527.06	26.329
527.41	26.913
527.75	26.072
528.09	25.382
528.43	26.266
528.78	25.677
529.12	26.258
529.46	26.056
529.80	25.902
530.15	27.393
530.49	26.734
530.83	26.607
531.17	25.655
531.51	26.402
531.86	26.377
532.20	26.166
532.54	26.140
532.88	25.394
533.22	25.470
533.57	26.212
533.91	25.653
534.25	27.083
534.59	26.812
534.93	26.117
535.27	25.635
535.62	25.340
535.96	25.701
536.30	26.715
536.64	26.327
536.98	26.481
537.32	26.743
537.66	26.858
538.01	26.853
538.35	26.214
538.69	25.965
539.03	25.564
539.37	26.245
539.71	26.312
540.05	26.477
540.39	25.069
540.73	25.941
541.07	25.000
541.42	25.470
541.76	26.703
542.10	25.396
542.44	26.755
542.78	24.019
543.12	25.275
543.46	25.243
543.80	25.052
544.14	25.367
544.48	25.650
544.82	26.521
545.16	25.888
545.50	26.101
545.84	26.487
546.18	25.957
546.52	25.811
546.86	25.377
547.20	25.751
547.54	24.452
547.88	26.155
548.22	25.312
548.56	25.264
548.90	25.337
549.24	25.275
549.58	25.670
549.92	24.875
550.26	25.201
550.60	25.725
550.94	26.064
551.28	25.580
551.62	25.154
551.96	25.038
552.30	25.219
552.64	24.542
552.98	24.824
553.32	25.250
553.66	24.165
554.00	25.985
554.34	25.628
554.68	25.221
555.02	25.149
555.36	24.009
555.69	24.469
556.03	24.839
556.37	25.053
556.71	24.621
557.05	25.056
557.39	24.164
557.73	25.037
558.07	25.113
558.41	25.038
558.75	24.942
559.08	24.192
559.42	25.079
559.76	25.380
560.10	24.388
560.44	25.019
560.78	25.175
561.12	25.176
561.45	26.072
561.79	25.210
562.13	25.550
562.47	24.460
562.81	25.504
563.15	25.176
563.48	25.248
563.82	24.296
564.16	25.279
564.50	23.716
564.84	24.565
565.17	24.681
565.51	25.137
565.85	24.691
566.19	24.403
566.52	24.732
566.86	25.835
567.20	24.658
567.54	24.696
567.88	25.015
568.21	24.717
568.55	24.674
568.89	25.462
569.23	25.325
569.56	24.518
569.90	24.929
570.24	24.302
570.57	24.255
570.91	25.131
571.25	24.663
571.59	23.606
571.92	23.941
572.26	24.275
572.60	23.907
572.93	24.067
573.27	23.574
573.61	24.016
573.95	24.031
574.28	23.676
574.62	23.544
574.96	23.884
575.29	23.221
575.63	22.752
575.97	23.773
576.30	23.587
576.64	22.649
576.98	23.629
577.31	24.109
577.65	23.968
577.98	23.943
578.32	23.650
578.66	23.060
578.99	23.023
579.33	23.432
579.67	23.063
580.00	23.620
580.34	23.234
580.67	22.502
581.01	23.415
581.35	23.019
581.68	23.243
582.02	23.215
582.35	23.064
582.69	23.296
583.02	23.179
583.36	23.161
583.70	23.962
584.03	23.575
584.37	23.885
584.70	23.516
585.04	22.927
585.37	23.391
585.71	23.278
586.04	23.222
586.38	23.046
586.72	23.673
587.05	23.541
587.39	23.455
587.72	23.592
588.06	23.498
588.39	23.441
588.73	23.413
589.06	23.875
589.40	23.678
589.73	23.476
590.07	23.640
590.40	23.413
590.73	23.353
591.07	23.198
591.40	23.419
591.74	23.484
592.07	23.794
592.41	22.880
592.74	23.218
593.08	23.786
593.41	22.932
593.75	22.506
594.08	23.241
594.41	22.707
594.75	22.290
595.08	23.420
595.42	23.077
595.75	24.146
596.09	23.104
596.42	22.571
596.75	23.224
597.09	22.642
597.42	23.442
597.75	22.858
598.09	22.544
598.42	22.518
598.76	22.179
599.09	22.596
599.42	22.812
599.76	22.799
600.09	22.926
600.42	23.465
600.76	22.437
601.09	22.710
601.42	22.170
601.76	22.191
602.09	22.896
602.42	22.957
602.76	22.411
603.09	22.633
603.42	23.704
603.76	22.621
604.09	22.479
604.42	22.885
604.76	23.409
605.09	23.583
605.42	22.528
605.75	22.285
606.09	22.675
606.42	22.269
606.75	22.294
607.09	22.593
607.42	21.976
607.75	22.735
608.08	21.833
608.42	22.111
608.75	22.602
609.08	22.720
609.41	22.538
609.75	22.429
610.08	23.115
610.41	22.126
610.74	23.306
611.07	22.584
611.41	22.159
611.74	22.122
612.07	22.216
612.40	22.812
612.73	22.655
613.07	21.991
613.40	22.757
613.73	21.880
614.06	23.261
614.39	22.391
614.72	22.017
615.06	22.402
615.39	22.162
615.72	22.659
616.05	23.017
616.38	21.880
616.71	22.446
617.05	22.174
617.38	22.250
617.71	22.704
618.04	22.857
618.37	23.707
618.70	22.838
619.03	23.125
619.36	21.997
619.69	22.593
620.03	23.448
620.36	22.318
620.69	21.913
621.02	22.783
621.35	22.988
621.68	21.684
622.01	22.500
622.34	21.548
622.67	22.476
623.00	23.354
623.33	22.713
623.66	22.438
623.99	22.542
624.32	22.738
624.65	22.707
624.99	22.649
625.32	21.986
625.65	22.702
625.98	21.918
626.31	20.865
626.64	21.664
626.97	23.735
627.30	22.592
627.63	22.964
627.96	23.001
628.29	21.832
628.62	22.616
628.95	23.347
629.28	22.984
629.61	22.134
629.94	23.265
630.26	22.530
630.59	23.309
630.92	21.949
631.25	21.949
631.58	22.577
631.91	21.711
632.24	20.757
632.57	24.205
632.90	23.725
633.23	22.353
633.56	21.788
633.89	21.702
634.22	24.074
634.55	21.474
634.88	23.244
635.20	21.282
635.53	23.600
635.86	21.847
636.19	22.122
636.52	23.342
636.85	21.092
637.18	21.006
637.51	23.396
637.83	23.522
638.16	22.783
638.49	22.071
638.82	23.158
639.15	20.217
639.48	22.971
639.81	21.757
640.13	20.779
640.46	20.991
640.79	21.502
641.12	22.157
641.45	22.222
641.77	22.963
642.10	21.327
642.43	22.347
642.76	22.277
643.09	22.456
643.41	22.977
643.74	20.099
644.07	22.332
644.40	22.635
644.73	21.541
645.05	22.148
645.38	21.517
645.71	20.922
646.04	23.519
646.36	22.872
646.69	22.122
647.02	24.008
647.35	21.082
647.67	21.755
648.00	22.575
648.33	22.526
648.66	22.881
648.98	20.771
649.31	21.488
649.64	21.978
649.96	21.718
650.29	21.635
650.62	22.906
650.94	20.926
651.27	19.926
651.60	22.703
651.92	20.280
652.25	19.893
652.58	23.167
652.90	23.499
653.23	22.017
653.56	21.320
653.88	19.759
654.21	19.615
654.54	22.241
654.86	23.599
655.19	21.491
655.52	23.994
655.84	21.894
656.17	24.474
656.49	32.631
656.82	33.859
657.15	25.407
657.47	18.857
657.80	14.042
658.13	13.857
658.45	21.564
658.78	20.831
659.10	20.595
659.43	20.325
659.75	20.375
660.08	20.069
660.41	19.612
660.73	20.028
661.06	22.704
661.38	21.135
661.71	19.302
662.03	21.888
662.36	21.978
662.68	18.805
663.01	25.983
663.33	21.346
663.66	21.628
663.98	22.093
664.31	22.601
664.63	20.276
664.96	16.087
665.28	20.751
665.61	19.264
665.93	21.522
666.26	22.777
666.58	18.792
666.91	19.294
667.23	22.170
667.56	23.934
667.88	21.103
668.21	21.480
668.53	21.986
668.86	23.585
669.18	18.868
669.50	20.823
669.83	23.488
670.15	22.145
670.48	19.856
670.80	22.581
671.13	17.226
671.45	18.721
671.77	23.820
672.10	19.802
672.42	22.285
672.75	20.249
673.07	23.614
673.39	22.569
673.72	19.132
674.04	19.167
674.37	20.551
674.69	18.844
675.01	22.889
675.34	20.270
675.66	24.074
675.98	24.169
676.31	21.789
676.63	21.140
676.95	19.545
677.28	24.941
677.60	23.614
677.92	22.018
678.25	22.101
678.57	18.831
678.89	21.639
679.22	23.490
679.54	20.884
679.86	18.887
680.18	22.524
680.51	21.212
680.83	20.080
681.15	21.200
681.48	25.205
681.80	21.074
682.12	19.758
682.44	19.874
682.77	22.958
683.09	20.366
683.41	19.773
683.73	23.733
684.06	22.566
684.38	20.000
684.70	19.172
685.02	17.427
685.34	20.553
685.67	20.450
685.99	20.253
686.31	20.708
686.63	21.336
686.96	19.011
687.28	17.778
687.60	19.011
687.92	22.828
688.24	21.573
688.56	20.742
688.89	20.536
689.21	21.556
689.53	19.490
689.85	20.000
690.17	23.884
690.49	19.622
690.82	18.204
691.14	20.714
691.46	20.794
691.78	21.171
692.10	22.796
692.42	19.048
692.74	20.085
693.06	22.072
693.39	18.326
693.71	20.814
694.03	18.245
694.35	19.626
694.67	20.707
694.99	19.582
695.31	21.932
695.63	22.250
695.95	18.939
696.27	16.580
696.59	21.389
696.91	21.569
697.23	18.252
697.56	19.554
697.88	23.656
698.20	20.729
698.52	20.941
698.84	17.703
699.16	21.500
699.48	21.554
699.80	23.325
700.12	19.946
700.44	22.409
700.76	16.570
701.08	17.273
701.40	18.373
701.72	26.543
702.04	19.142
702.36	20.067
702.68	17.417
703.00	22.424
703.32	19.355
703.64	20.339
703.96	21.739
704.28	19.325
704.60	20.635
704.91	15.773
705.23	17.608
705.55	28.622
705.87	24.910
706.19	20.370
706.51	18.557
706.83	18.328
707.15	15.888
707.47	18.768
707.79	18.750
708.11	20.500
708.43	21.750
708.74	21.447
709.06	23.944
709.38	23.853
709.70	21.598
710.02	24.522
710.34	21.362
710.66	18.910
710.98	19.205
711.29	19.344
711.61	20.339
711.93	21.498
712.25	20.275
712.57	18.681
712.89	16.418
713.20	19.723
713.52	19.164
713.84	19.454
714.16	17.526
714.48	20.323
714.80	23.077
715.11	19.453
715.43	16.301
715.75	16.667
716.07	16.611
716.39	16.443
716.70	16.974
717.02	19.847
717.34	19.028
717.66	20.354
717.97	19.130
718.29	17.155
718.61	23.228
718.93	14.341
719.24	18.251
719.56	20.080
719.88	20.619
720.20	15.909
720.51	18.008
720.83	18.919
721.15	15.126
721.46	16.935
721.78	17.787
722.10	14.126
722.42	17.012
722.73	16.735
723.05	21.633
723.37	19.492
723.68	18.018
724.00	17.949
724.32	13.778
724.63	19.091
724.95	21.397
725.27	20.737
725.58	18.220
725.90	15.873
726.22	18.533
726.53	22.034
726.85	17.228
727.16	20.000
727.48	18.219
727.80	16.194
728.11	14.407
728.43	16.863
728.74	16.129
729.06	21.200
729.38	23.308
729.69	17.928
730.01	15.000
730.32	20.522
730.64	18.021
730.96	18.491
731.27	22.333
731.59	21.356
731.90	17.197
732.22	20.189
732.53	20.598
732.85	22.340
733.16	20.539
733.48	19.065
733.80	18.478
734.11	19.322
734.43	17.182
734.74	19.091
735.06	13.681
735.37	20.846
735.69	19.192
736.00	19.861
736.32	19.799
736.63	20.070
736.95	20.478
737.26	15.302
737.58	16.107
737.89	18.315
738.21	18.045
738.52	18.930
738.83	22.707
739.15	15.284
739.46	22.835
739.78	15.751
740.09	16.013
740.41	19.565
740.72	14.567
741.04	18.623
741.35	18.298
741.66	19.431
741.98	16.327
742.29	21.782
742.61	20.419
742.92	14.218
743.23	10.185
743.55	16.290
743.86	15.789
744.18	15.311
744.49	15.426
744.80	13.043
745.12	24.599
745.43	18.049
745.74	22.917
746.06	20.000
746.37	18.848
746.68	17.062
747.00	17.553
747.31	18.905
747.62	15.049
747.94	16.268
748.25	15.347
748.56	21.858
748.88	17.801
749.19	16.489
749.50	18.719
749.82	12.736
750.13	20.183
750.44	21.053
750.75	18.657
751.07	27.737
751.38	18.008
751.69	16.863
752.01	20.155
752.32	14.741
752.63	16.601
752.94	13.793
753.26	24.268
753.57	15.837
753.88	16.814
754.19	14.583
754.51	13.636
754.82	17.814
755.13	22.500
755.44	17.742
755.75	24.609
756.07	20.623
756.38	18.113
756.69	11.111
757.00	18.667
757.31	19.281
757.63	16.768
757.94	17.500
758.25	15.890
758.56	16.223
758.87	17.564
759.18	19.315
759.50	18.545
759.81	19.064
760.12	18.065
760.43	17.273
760.74	16.049
761.05	16.923
761.36	16.193
761.67	19.697
761.99	20.748
762.30	18.545
762.61	18.182
762.92	22.624
763.23	13.514
763.54	13.551
763.85	19.492
764.16	20.747
764.47	11.290
764.78	16.850
765.10	19.192
765.41	21.451
765.72	20.635
766.03	17.293
766.34	17.518
766.65	17.928
766.96	18.687
767.27	19.149
767.58	14.368
767.89	14.184
768.20	17.045
768.51	13.187
768.82	20.197
769.13	12.903
769.44	18.884
769.75	19.635
770.06	14.655
770.37	13.462
770.68	17.259
770.99	18.100
771.30	25.490
771.61	17.647
771.92	20.690
772.23	25.616
772.54	17.204
772.85	15.432
773.16	12.360
773.47	22.222
773.78	16.993
774.09	22.754
774.39	18.667
774.70	17.197
775.01	21.379
775.32	15.000
775.63	6.612
775.94	12.214
776.25	12.598
776.56	9.167
776.87	7.692
777.18	16.239
777.48	16.379
777.79	11.304
778.10	0.000
778.41	10.811
778.72	10.317
779.03	12.030
779.34	16.312
779.65	19.863
779.95	16.438
780.26	19.310
780.57	8.130
780.88	5.512
781.19	13.793
781.50	9.302
781.80	18.343
782.11	10.063
782.42	12.308
782.73	12.230
783.04	22.222
783.34	11.806
783.65	2.564
783.96	12.295
784.27	26.207
784.57	16.260
784.88	23.437
785.19	14.000
785.50	14.000
785.81	14.655
786.11	13.793
786.42	15.534
786.73	29.091
787.04	11.224
787.34	21.429
787.65	14.286
787.96	12.389
788.26	13.636
788.57	15.385
788.88	10.937
789.19	19.048
789.49	14.783
789.80	6.122
790.11	0.000
790.41	7.273
790.72	13.043
791.03	10.227
791.33	6.250
791.64	20.000
791.95	11.628
792.25	15.957
792.56	29.213
792.87	12.329
793.17	20.290
793.48	9.333
793.79	10.000
794.09	21.250
794.40	13.208
794.70	10.680
795.01	16.260
795.32	10.256
795.62	10.476
795.93	15.686
796.23	17.925
796.54	12.500
796.85	8.824
797.15	9.859
797.46	12.500
797.76	6.061
798.07	18.605
798.37	1.316
798.68	-4.545
798.99	18.519
799.29	17.143
799.60	4.348
799.90	12.000
800.21	24.590
800.51	-3.077
800.82	23.729
801.12	5.797
801.43	13.115
801.73	25.397
802.04	10.000
802.34	11.940
802.65	3.846
802.95	16.071
803.26	3.846
803.56	9.804
803.87	-23.913
804.17	22.667
804.48	23.810
804.78	-12.963
805.09	-8.696
805.39	8.889
805.70	9.259
806.00	12.281
806.30	18.310
806.61	15.714
806.91	-5.556
807.22	11.842
807.52	18.667
807.83	27.273
808.13	11.111
808.43	13.235
808.74	5.970
809.04	5.085
809.35	0.000
809.65	17.188
809.95	-10.811
810.26	-2.273
810.56	13.699
810.86	-2.381
811.17	-2.000
811.47	12.245
811.77	-26.316
812.08	-9.091
812.38	-7.547
812.69	7.500
812.99	-27.273
813.29	7.895
813.59	-14.286
813.90	9.091
814.20	15.385
814.50	7.692
814.81	18.868
815.11	-4.255
815.41	32.203
815.72	11.905
816.02	25.490
816.32	10.417
816.62	-7.317
816.93	10.811
817.23	-8.571
817.53	6.250
817.84	15.217
818.14	21.154
818.44	-10.526
818.74	28.261
819.04	-25.000
819.35	-18.919
819.65	-8.824
819.95	5.556
820.25	11.905
820.56	40.000
820.86	-62.069
821.16	2.500
821.46	25.532
821.76	15.000
822.07	4.651
822.37	-27.027
822.67	-21.875
822.97	7.143
823.27	-39.286
823.57	12.000
823.88	-40.741
824.18	35.714
824.48	17.647
824.78	0.000
825.08	0.000
825.38	-9.091
825.69	-12.500
825.99	-5.263
826.29	-19.444
826.59	6.667
826.89	-23.810
827.19	32.609
827.49	0.000
827.79	17.143
828.09	-14.286
828.39	-24.242
828.70	10.811
829.00	10.714
829.30	-23.810
829.60	16.667
829.90	9.375
830.20	0.000
830.50	-40.741
830.80	0.000
831.10	-50.000
831.40	51.515
831.70	48.387
832.00	23.810
832.30	-52.381
832.60	-50.000
832.90	-10.345
833.20	-90.000
833.50	9.091
833.80	-22.222
834.10	23.077
834.40	6.250
834.70	-44.444
835.00	-63.158
835.30	15.385
835.60	60.000
835.90	9.677
836.20	-13.636
836.50	57.143
836.80	-15.385
837.10	-3.571
837.40	-666.667
837.70	-31.818
838.00	-72.727
838.30	34.783
838.60	-84.615
838.90	31.818
839.19	-3.571
839.49	23.333
839.79	-92.308
840.09	-91.667
840.39	14.286
840.69	-3.571
840.99	-11.538
841.29	-63.158
841.59	-80.000
841.88	18.182
842.18	-60.000
842.48	-6.250
842.78	26.667
843.08	-25.926
843.38	-170.000
843.68	0.000
843.97	-60.000
844.27	-46.667
844.57	-20.000
844.87	-11.111
845.17	-23.810
845.47	53.333
845.76	-42.857
846.06	-29.412
846.36	-90.000
846.66	-71.429
846.96	-33.333
847.25	-150.000
847.55	14.286
847.85	-87.500
848.15	-50.000
848.44	-333.333
848.74	15.000
849.04	0.000
849.34	-63.636
849.63	-316.667
849.93	-280.000
850.23	-22.222
850.53	30.000
850.82	-84.615
851.12	-44.444
851.42	-33.333
851.71	15.385
852.01	-14.286
852.31	-450.000
852.61	-72.727
852.90	-20.000
853.20	-36.842
853.50	41.667
853.79	0.000
854.09	29.167
854.39	5.263
854.68	4.167
854.98	29.032
855.28	3.846
855.57	-30.000
855.87	-22.222
856.17	29.630
856.46	14.286
856.76	-33.333
857.05	22.222
857.35	28.000
857.65	0.000
857.94	-76.923
858.24	10.345
858.53	33.333
858.83	18.519
859.13	36.364
859.42	4.348
859.72	-125.000
860.01	-266.667
860.31	0.000
860.60	-14.286
860.90	-366.667
861.20	-113.333
861.49	-650.000
861.79	-66.667
862.08	5.000
862.38	53.333
862.67	-60.000
862.97	-66.667
863.26	8.333
863.56	16.667
863.85	-233.333
864.15	0.000
864.44	-50.000
864.74	-71.429
865.03	300.000
865.33	-200.000
865.62	-16.667
865.92	-133.333
866.21	-266.667
866.51	-43.750
866.80	-63.636
867.10	-350.000
867.39	-33.333
867.69	0.000
867.98	-38.462
868.27	-366.667
868.57	6.667
868.86	16.667
869.16	-61.538
869.45	13.333
869.75	-2100.000
870.04	0.000
870.33	-42.857
870.63	0.000
870.92	633.333
871.22	-220.000
871.51	-700.000
871.80	-88.889
872.10	500.000
>>>>>End Processed Spectral Data<<<<<
