SpectraSuite Data File
++++++++++++++++++++++++++++++++++++
Date: Fri May 15 20:59:33 PDT 2015
User: schluterlab
Dark Spectrum Present: Yes
Reference Spectrum Present: Yes
Number of Sampled Component Spectra: 1
Spectrometers: USB2E3373
Integration Time (usec): 3000 (USB2E3373)
Spectra Averaged: 3 (USB2E3373)
Boxcar Smoothing: 0 (USB2E3373)
Correct for Electrical Dark: No (USB2E3373)
Strobe/Lamp Enabled: No (USB2E3373)
Correct for Detector Non-linearity: No (USB2E3373)
Correct for Stray Light: No (USB2E3373)
Number of Pixels in Processed Spectrum: 2048
>>>>>Begin Processed Spectral Data<<<<<
178.53	0.000
178.91	0.000
179.29	100.000
179.67	100.000
180.04	114.286
180.42	-125.000
180.80	200.000
181.18	33.333
181.56	400.000
181.94	-50.000
182.31	-400.000
182.69	-80.000
183.07	-500.000
183.45	-160.000
183.83	33.333
184.20	-90.909
184.58	188.889
184.96	-0.000
185.34	-100.000
185.72	-150.000
186.09	69.231
186.47	-300.000
186.85	150.000
187.23	188.889
187.61	100.000
187.98	-366.667
188.36	-44.444
188.74	-366.667
189.12	41.176
189.49	16.667
189.87	0.000
190.25	14.286
190.63	0.000
191.00	-366.667
191.38	-21.053
191.76	100.000
192.14	-25.000
192.51	300.000
192.89	-122.222
193.27	-185.714
193.65	316.667
194.02	236.364
194.40	-30.000
194.78	-87.500
195.15	33.333
195.53	-87.500
195.91	250.000
196.29	-75.000
196.66	100.000
197.04	-0.000
197.42	-22.222
197.79	-366.667
198.17	-61.538
198.55	2000.000
198.92	-200.000
199.30	-300.000
199.68	-280.000
200.05	66.667
200.43	0.000
200.81	-366.667
201.18	33.333
201.56	700.000
201.94	-550.000
202.31	-100.000
202.69	-340.000
203.07	125.000
203.44	-400.000
203.82	0.000
204.19	50.000
204.57	-600.000
204.95	112.500
205.32	-20.000
205.70	-57.143
206.08	-125.000
206.45	66.667
206.83	107.143
207.20	0.000
207.58	600.000
207.96	-133.333
208.33	-50.000
208.71	-325.000
209.08	-216.667
209.46	-1100.000
209.84	-260.000
210.21	-1800.000
210.59	-28.571
210.96	16.667
211.34	-275.000
211.71	6.667
212.09	-114.286
212.46	-1500.000
212.84	0.000
213.22	-20.000
213.59	650.000
213.97	-46.154
214.34	63.636
214.72	-116.667
215.09	525.000
215.47	7.692
215.84	-27.273
216.22	-466.667
216.59	-125.000
216.97	-50.000
217.34	-200.000
217.72	-120.000
218.09	12.500
218.47	187.500
218.84	-900.000
219.22	-177.778
219.59	-200.000
219.97	300.000
220.34	200.000
220.72	-57.143
221.09	-200.000
221.47	-250.000
221.84	-350.000
222.22	-400.000
222.59	54.545
222.97	0.000
223.34	66.667
223.72	28.571
224.09	38.095
224.46	17.857
224.84	366.667
225.21	-30.000
225.59	20.000
225.96	-250.000
226.34	525.000
226.71	14.286
227.08	-16.667
227.46	112.500
227.83	-550.000
228.21	-55.556
228.58	-45.455
228.95	-50.000
229.33	130.000
229.70	25.000
230.08	-37.500
230.45	-100.000
230.82	42.857
231.20	-66.667
231.57	71.429
231.95	57.143
232.32	-140.000
232.69	7.143
233.07	-66.667
233.44	0.000
233.81	-120.000
234.19	22.222
234.56	-17.647
234.93	100.000
235.31	50.000
235.68	-240.000
236.05	-107.692
236.43	0.000
236.80	58.824
237.17	9.375
237.55	5.000
237.92	3.704
238.29	38.889
238.67	43.333
239.04	2.941
239.41	0.000
239.79	16.667
240.16	17.073
240.53	-15.789
240.91	17.391
241.28	26.984
241.65	28.571
242.02	39.726
242.40	0.000
242.77	23.729
243.14	7.576
243.51	31.250
243.89	33.333
244.26	21.839
244.63	36.905
245.00	31.959
245.38	39.175
245.75	25.843
246.12	26.724
246.49	28.099
246.87	27.885
247.24	35.294
247.61	21.930
247.98	30.894
248.36	28.750
248.73	26.974
249.10	25.974
249.47	35.443
249.84	27.451
250.22	34.118
250.59	28.105
250.96	32.864
251.33	26.163
251.70	34.706
252.08	27.411
252.45	29.703
252.82	31.156
253.19	34.101
253.56	26.636
253.94	31.982
254.31	37.391
254.68	35.965
255.05	34.646
255.42	34.934
255.79	30.888
256.16	31.907
256.54	37.687
256.91	29.658
257.28	30.112
257.65	34.457
258.02	29.078
258.39	35.690
258.76	32.601
259.14	36.213
259.51	34.628
259.88	31.615
260.25	32.680
260.62	36.111
260.99	33.898
261.36	33.219
261.73	31.646
262.10	31.003
262.47	30.675
262.85	32.288
263.22	35.077
263.59	31.776
263.96	34.472
264.33	35.758
264.70	33.929
265.07	33.333
265.44	33.994
265.81	29.944
266.18	32.787
266.55	33.419
266.92	33.161
267.29	33.420
267.66	32.225
268.03	32.199
268.40	33.681
268.77	34.759
269.14	32.614
269.51	35.476
269.88	33.416
270.25	32.908
270.62	32.683
270.99	31.969
271.36	33.007
271.73	33.099
272.10	30.900
272.47	32.624
272.84	34.901
273.21	34.107
273.58	33.494
273.95	32.265
274.32	32.102
274.69	29.638
275.06	35.714
275.43	29.025
275.80	32.450
276.17	31.724
276.54	30.193
276.91	32.018
277.28	30.131
277.65	30.165
278.02	31.277
278.39	31.510
278.76	30.608
279.13	28.838
279.50	31.723
279.87	30.454
280.23	30.323
280.60	29.630
280.97	33.939
281.34	30.000
281.71	32.854
282.08	29.448
282.45	31.115
282.82	28.185
283.19	32.689
283.56	29.865
283.92	31.499
284.29	30.577
284.66	30.620
285.03	29.273
285.40	31.758
285.77	27.944
286.14	29.964
286.51	32.288
286.87	28.885
287.24	32.044
287.61	28.748
287.98	31.930
288.35	29.289
288.72	31.349
289.08	27.083
289.45	30.404
289.82	29.720
290.19	29.010
290.56	26.758
290.93	29.966
291.29	27.427
291.66	26.929
292.03	26.635
292.40	26.129
292.77	28.230
293.13	24.675
293.50	25.038
293.87	27.023
294.24	24.730
294.60	26.379
294.97	24.256
295.34	24.693
295.71	23.100
296.08	24.215
296.44	24.040
296.81	23.889
297.18	22.609
297.55	23.171
297.91	24.795
298.28	23.615
298.65	21.167
299.02	22.776
299.38	23.529
299.75	23.448
300.12	21.859
300.48	22.003
300.85	23.701
301.22	23.506
301.59	22.763
301.95	24.177
302.32	24.514
302.69	22.637
303.05	22.525
303.42	22.665
303.79	23.364
304.15	22.700
304.52	20.690
304.89	23.626
305.25	22.155
305.62	20.770
305.99	21.170
306.35	21.387
306.72	21.485
307.09	20.867
307.45	21.814
307.82	22.569
308.19	21.487
308.55	21.374
308.92	24.074
309.29	20.782
309.65	20.990
310.02	21.782
310.38	21.844
310.75	22.951
311.12	23.251
311.48	20.785
311.85	22.304
312.22	21.203
312.58	21.231
312.95	21.558
313.31	22.257
313.68	21.466
314.05	21.735
314.41	22.371
314.78	23.711
315.14	23.227
315.51	24.741
315.87	23.361
316.24	24.368
316.61	23.720
316.97	23.413
317.34	24.316
317.70	24.474
318.07	24.327
318.43	23.627
318.80	24.148
319.16	26.172
319.53	26.876
319.89	26.575
320.26	24.899
320.62	26.179
320.99	25.157
321.35	26.002
321.72	27.934
322.08	28.097
322.45	29.442
322.81	30.845
323.18	29.342
323.54	29.440
323.91	28.627
324.27	30.078
324.64	30.712
325.00	31.296
325.37	33.242
325.73	29.193
326.10	30.972
326.46	33.184
326.83	33.683
327.19	32.956
327.56	34.318
327.92	35.739
328.29	35.893
328.65	34.811
329.01	35.938
329.38	36.406
329.74	37.677
330.11	35.125
330.47	34.972
330.84	36.250
331.20	39.068
331.56	36.852
331.93	39.726
332.29	38.130
332.66	37.014
333.02	38.383
333.38	37.764
333.75	40.385
334.11	38.317
334.48	39.801
334.84	39.103
335.20	39.707
335.57	39.438
335.93	38.934
336.29	40.516
336.66	39.146
337.02	39.405
337.38	40.556
337.75	39.727
338.11	40.577
338.47	39.872
338.84	41.035
339.20	38.848
339.56	40.092
339.93	40.107
340.29	40.550
340.65	40.054
341.02	40.248
341.38	40.708
341.74	39.223
342.11	38.475
342.47	40.302
342.83	41.696
343.20	38.676
343.56	40.000
343.92	40.833
344.28	40.820
344.65	38.774
345.01	40.104
345.37	39.108
345.73	40.753
346.10	41.242
346.46	39.781
346.82	40.016
347.19	39.485
347.55	40.184
347.91	40.534
348.27	40.582
348.63	41.738
349.00	40.197
349.36	41.230
349.72	42.620
350.08	40.574
350.45	41.421
350.81	41.113
351.17	39.169
351.53	41.796
351.89	40.793
352.26	40.720
352.62	40.887
352.98	40.964
353.34	41.707
353.70	41.667
354.07	40.565
354.43	41.313
354.79	41.123
355.15	41.508
355.51	42.009
355.87	42.638
356.24	41.109
356.60	40.744
356.96	41.587
357.32	41.933
357.68	41.126
358.04	41.599
358.40	41.881
358.77	42.265
359.13	42.274
359.49	40.216
359.85	41.810
360.21	42.265
360.57	41.239
360.93	42.890
361.29	39.728
361.66	41.379
362.02	41.591
362.38	42.041
362.74	43.906
363.10	43.266
363.46	43.069
363.82	44.027
364.18	42.140
364.54	42.132
364.90	42.581
365.26	41.849
365.62	44.234
365.98	43.768
366.35	44.720
366.71	43.385
367.07	43.396
367.43	43.781
367.79	43.463
368.15	43.216
368.51	43.918
368.87	43.647
369.23	43.321
369.59	43.950
369.95	43.548
370.31	43.714
370.67	44.030
371.03	44.436
371.39	44.858
371.75	43.736
372.11	43.153
372.47	45.266
372.83	44.003
373.19	44.080
373.55	44.188
373.91	44.132
374.27	44.933
374.63	45.083
374.99	44.468
375.35	44.847
375.71	44.755
376.07	44.312
376.42	44.762
376.78	46.107
377.14	46.107
377.50	44.887
377.86	45.917
378.22	44.352
378.58	45.833
378.94	44.612
379.30	45.415
379.66	45.705
380.02	45.923
380.38	44.614
380.74	45.482
381.09	47.301
381.45	45.566
381.81	46.761
382.17	47.018
382.53	46.783
382.89	46.955
383.25	47.853
383.61	46.829
383.97	46.794
384.32	45.403
384.68	47.245
385.04	46.017
385.40	47.044
385.76	48.113
386.12	47.413
386.48	48.084
386.83	48.256
387.19	47.436
387.55	49.812
387.91	48.533
388.27	47.314
388.62	49.528
388.98	48.803
389.34	47.970
389.70	50.466
390.06	48.899
390.42	47.863
390.77	49.117
391.13	48.235
391.49	50.065
391.85	50.552
392.20	48.588
392.56	48.570
392.92	49.442
393.28	50.531
393.64	49.610
393.99	50.909
394.35	49.273
394.71	50.000
395.07	50.346
395.42	50.213
395.78	50.749
396.14	49.180
396.50	49.524
396.85	51.256
397.21	50.251
397.57	50.470
397.92	50.509
398.28	50.057
398.64	49.880
399.00	50.113
399.35	49.944
399.71	51.063
400.07	50.544
400.42	50.551
400.78	50.949
401.14	51.180
401.49	51.281
401.85	51.066
402.21	50.843
402.57	51.562
402.92	50.251
403.28	52.381
403.63	51.828
403.99	51.276
404.35	52.280
404.70	51.845
405.06	51.528
405.42	51.212
405.77	51.075
406.13	51.572
406.49	51.687
406.84	52.873
407.20	52.077
407.55	51.771
407.91	50.468
408.27	52.199
408.62	52.554
408.98	52.311
409.34	52.478
409.69	52.261
410.05	51.293
410.40	51.914
410.76	53.860
411.11	53.188
411.47	52.794
411.83	51.915
412.18	52.960
412.54	52.185
412.89	53.017
413.25	52.407
413.60	53.602
413.96	52.515
414.31	53.720
414.67	52.085
415.03	52.796
415.38	53.590
415.74	53.355
416.09	54.540
416.45	55.571
416.80	53.272
417.16	55.456
417.51	53.231
417.87	52.999
418.22	55.246
418.58	54.381
418.93	54.044
419.29	52.625
419.64	54.439
420.00	55.290
420.35	53.433
420.71	53.402
421.06	54.819
421.42	53.726
421.77	54.798
422.12	54.711
422.48	55.441
422.83	54.466
423.19	55.700
423.54	55.614
423.90	54.005
424.25	56.544
424.61	55.875
424.96	55.807
425.31	56.557
425.67	56.455
426.02	56.949
426.38	57.984
426.73	56.598
427.09	56.835
427.44	56.412
427.79	56.158
428.15	57.342
428.50	56.632
428.85	54.545
429.21	57.951
429.56	58.059
429.92	56.035
430.27	55.038
430.62	56.926
430.98	56.582
431.33	56.940
431.68	56.358
432.04	58.133
432.39	56.532
432.74	56.584
433.10	57.759
433.45	57.945
433.80	56.994
434.16	57.008
434.51	57.581
434.86	56.678
435.22	57.768
435.57	58.765
435.92	57.305
436.28	58.020
436.63	58.471
436.98	57.358
437.34	58.258
437.69	59.332
438.04	58.234
438.39	57.972
438.75	60.352
439.10	59.479
439.45	60.195
439.81	58.532
440.16	60.808
440.51	60.358
440.86	60.725
441.22	58.201
441.57	59.327
441.92	59.864
442.27	60.421
442.63	59.315
442.98	58.472
443.33	59.043
443.68	58.939
444.03	59.463
444.39	59.764
444.74	60.033
445.09	59.131
445.44	59.715
445.79	60.805
446.15	61.233
446.50	58.735
446.85	60.733
447.20	59.645
447.55	61.217
447.91	60.632
448.26	60.672
448.61	59.470
448.96	61.503
449.31	60.405
449.66	61.208
450.02	60.354
450.37	60.877
450.72	60.252
451.07	61.835
451.42	60.487
451.77	60.277
452.12	60.945
452.47	60.786
452.83	60.718
453.18	60.531
453.53	61.884
453.88	61.627
454.23	60.787
454.58	61.839
454.93	61.147
455.28	60.127
455.63	62.306
455.98	60.132
456.34	60.983
456.69	62.389
457.04	60.933
457.39	59.417
457.74	60.822
458.09	59.741
458.44	60.503
458.79	60.896
459.14	61.442
459.49	61.851
459.84	61.534
460.19	61.286
460.54	62.592
460.89	61.591
461.24	61.118
461.59	61.936
461.94	60.377
462.29	61.520
462.64	62.193
462.99	62.627
463.34	60.709
463.69	61.004
464.04	59.746
464.39	61.431
464.74	60.675
465.09	63.007
465.44	61.339
465.79	59.524
466.14	62.144
466.49	60.265
466.84	60.797
467.19	60.513
467.54	61.430
467.89	61.908
468.24	60.158
468.59	62.222
468.94	60.889
469.29	60.393
469.64	60.834
469.99	61.808
470.34	61.365
470.68	62.565
471.03	62.916
471.38	62.197
471.73	63.655
472.08	61.805
472.43	62.349
472.78	62.440
473.13	63.741
473.48	61.238
473.83	61.146
474.17	62.759
474.52	60.625
474.87	60.970
475.22	62.294
475.57	60.813
475.92	61.327
476.27	62.107
476.61	61.574
476.96	59.007
477.31	61.817
477.66	61.180
478.01	61.763
478.36	61.166
478.70	63.676
479.05	62.527
479.40	60.678
479.75	60.167
480.10	61.086
480.45	61.650
480.79	62.437
481.14	62.910
481.49	61.232
481.84	61.728
482.19	60.851
482.53	61.631
482.88	60.859
483.23	59.885
483.58	60.613
483.92	61.036
484.27	60.483
484.62	60.959
484.97	60.945
485.31	59.321
485.66	56.878
486.01	56.413
486.36	57.086
486.70	58.775
487.05	60.286
487.40	59.902
487.75	60.761
488.09	60.939
488.44	61.417
488.79	61.375
489.13	62.099
489.48	60.453
489.83	60.583
490.17	61.124
490.52	61.478
490.87	60.111
491.22	61.557
491.56	61.006
491.91	60.038
492.26	61.595
492.60	60.940
492.95	61.633
493.30	60.283
493.64	61.640
493.99	61.498
494.34	61.214
494.68	60.429
495.03	60.535
495.37	60.599
495.72	62.241
496.07	62.049
496.41	60.943
496.76	60.848
497.11	60.410
497.45	60.907
497.80	62.412
498.14	61.103
498.49	60.894
498.84	60.429
499.18	62.199
499.53	60.665
499.87	60.117
500.22	62.315
500.56	61.271
500.91	62.048
501.26	60.652
501.60	61.240
501.95	61.669
502.29	60.436
502.64	61.776
502.98	61.125
503.33	59.270
503.67	60.000
504.02	61.828
504.36	61.455
504.71	59.848
505.06	60.443
505.40	61.269
505.75	61.443
506.09	60.568
506.44	61.396
506.78	60.867
507.13	61.375
507.47	60.940
507.82	59.936
508.16	60.803
508.51	61.962
508.85	61.068
509.19	61.629
509.54	61.019
509.88	60.356
510.23	61.915
510.57	61.678
510.92	59.968
511.26	62.029
511.61	61.771
511.95	60.712
512.30	61.752
512.64	61.380
512.98	61.538
513.33	61.220
513.67	62.081
514.02	62.986
514.36	61.714
514.70	62.937
515.05	62.280
515.39	61.334
515.74	63.234
516.08	63.120
516.42	62.485
516.77	62.142
517.11	62.730
517.46	62.777
517.80	62.396
518.14	63.013
518.49	61.599
518.83	62.029
519.17	62.341
519.52	62.345
519.86	60.804
520.20	62.394
520.55	61.726
520.89	61.543
521.23	61.811
521.58	62.902
521.92	63.013
522.26	62.655
522.61	63.961
522.95	64.238
523.29	63.024
523.64	62.579
523.98	62.735
524.32	61.985
524.66	62.804
525.01	62.857
525.35	62.994
525.69	62.424
526.04	61.706
526.38	63.359
526.72	61.740
527.06	61.284
527.41	61.741
527.75	61.863
528.09	61.927
528.43	63.741
528.78	61.122
529.12	61.871
529.46	61.728
529.80	61.368
530.15	62.442
530.49	62.559
530.83	62.722
531.17	61.921
531.51	62.517
531.86	61.591
532.20	62.213
532.54	61.538
532.88	61.191
533.22	62.433
533.57	61.337
533.91	61.684
534.25	61.523
534.59	60.231
534.93	60.541
535.27	59.645
535.62	59.494
535.96	62.231
536.30	61.148
536.64	61.957
536.98	61.394
537.32	63.087
537.66	61.220
538.01	62.517
538.35	60.957
538.69	60.919
539.03	60.014
539.37	60.767
539.71	60.804
540.05	59.403
540.39	60.457
540.73	61.994
541.07	61.809
541.42	60.282
541.76	62.491
542.10	59.532
542.44	60.459
542.78	59.188
543.12	60.508
543.46	60.292
543.80	59.958
544.14	59.746
544.48	60.027
544.82	60.629
545.16	60.314
545.50	60.481
545.84	60.057
546.18	60.993
546.52	62.076
546.86	59.885
547.20	61.373
547.54	59.505
547.88	58.696
548.22	58.974
548.56	57.784
548.90	59.164
549.24	59.160
549.58	58.674
549.92	58.971
550.26	60.659
550.60	58.810
550.94	59.223
551.28	60.433
551.62	59.308
551.96	59.774
552.30	59.503
552.64	59.027
552.98	59.564
553.32	57.703
553.66	59.507
554.00	59.416
554.34	60.561
554.68	58.555
555.02	59.524
555.36	59.461
555.69	58.974
556.03	58.530
556.37	58.149
556.71	57.834
557.05	58.837
557.39	58.067
557.73	59.370
558.07	61.237
558.41	58.882
558.75	60.016
559.08	59.574
559.42	59.365
559.76	58.767
560.10	59.557
560.44	57.707
560.78	57.832
561.12	58.956
561.45	57.554
561.79	60.364
562.13	57.842
562.47	58.273
562.81	58.285
563.15	58.110
563.48	57.779
563.82	58.476
564.16	57.382
564.50	55.270
564.84	57.363
565.17	57.277
565.51	58.333
565.85	57.819
566.19	57.560
566.52	58.579
566.86	57.648
567.20	56.413
567.54	57.238
567.88	56.942
568.21	56.448
568.55	54.891
568.89	56.314
569.23	55.079
569.56	55.254
569.90	54.486
570.24	52.698
570.57	53.855
570.91	54.061
571.25	52.253
571.59	52.414
571.92	51.526
572.26	52.748
572.60	52.527
572.93	52.902
573.27	52.414
573.61	51.342
573.95	51.666
574.28	51.271
574.62	51.208
574.96	51.533
575.29	50.530
575.63	50.298
575.97	50.529
576.30	51.448
576.64	50.675
576.98	51.583
577.31	51.290
577.65	50.894
577.98	50.719
578.32	50.511
578.66	50.355
578.99	50.328
579.33	51.386
579.67	50.139
580.00	51.215
580.34	51.318
580.67	49.827
581.01	50.744
581.35	50.301
581.68	49.695
582.02	49.055
582.35	49.694
582.69	49.942
583.02	50.929
583.36	50.840
583.70	51.454
584.03	52.377
584.37	52.936
584.70	50.714
585.04	49.482
585.37	49.214
585.71	49.864
586.04	50.126
586.38	49.693
586.72	50.560
587.05	50.116
587.39	50.321
587.72	50.902
588.06	50.927
588.39	51.410
588.73	51.526
589.06	51.011
589.40	50.398
589.73	51.260
590.07	51.511
590.40	51.432
590.73	52.224
591.07	51.315
591.40	51.959
591.74	51.403
592.07	52.273
592.41	51.148
592.74	49.582
593.08	47.992
593.41	48.995
593.75	49.722
594.08	49.331
594.41	49.199
594.75	49.542
595.08	50.359
595.42	49.430
595.75	50.169
596.09	51.173
596.42	50.723
596.75	50.888
597.09	50.706
597.42	49.503
597.75	50.023
598.09	49.706
598.42	48.782
598.76	48.863
599.09	49.479
599.42	47.897
599.76	47.743
600.09	47.662
600.42	48.370
600.76	47.548
601.09	48.740
601.42	48.414
601.76	48.630
602.09	48.927
602.42	51.011
602.76	48.854
603.09	49.917
603.42	49.624
603.76	49.113
604.09	48.927
604.42	49.281
604.76	49.622
605.09	49.223
605.42	48.623
605.75	49.037
606.09	48.238
606.42	48.165
606.75	47.792
607.09	48.571
607.42	47.497
607.75	47.558
608.08	47.619
608.42	47.739
608.75	49.012
609.08	48.779
609.41	48.985
609.75	48.992
610.08	49.026
610.41	47.778
610.74	48.562
611.07	49.612
611.41	49.299
611.74	48.827
612.07	48.448
612.40	48.687
612.73	48.644
613.07	48.425
613.40	48.632
613.73	48.461
614.06	48.692
614.39	48.054
614.72	48.011
615.06	47.877
615.39	47.434
615.72	46.502
616.05	48.603
616.38	46.667
616.71	49.664
617.05	49.166
617.38	49.214
617.71	48.679
618.04	50.857
618.37	48.865
618.70	49.637
619.03	50.069
619.36	49.204
619.69	50.417
620.03	50.548
620.36	48.641
620.69	48.965
621.02	49.312
621.35	51.867
621.68	51.020
622.01	49.833
622.34	48.125
622.67	49.211
623.00	49.005
623.33	48.018
623.66	47.794
623.99	48.411
624.32	49.202
624.65	48.722
624.99	49.511
625.32	47.688
625.65	49.411
625.98	50.201
626.31	49.127
626.64	51.473
626.97	50.262
627.30	49.562
627.63	49.567
627.96	50.404
628.29	49.399
628.62	50.147
628.95	50.301
629.28	51.613
629.61	49.053
629.94	51.026
630.26	48.419
630.59	51.197
630.92	50.462
631.25	49.949
631.58	51.432
631.91	50.877
632.24	50.803
632.57	52.727
632.90	50.178
633.23	51.294
633.56	53.526
633.89	52.281
634.22	53.086
634.55	50.826
634.88	51.213
635.20	49.103
635.53	51.733
635.86	51.756
636.19	50.582
636.52	51.276
636.85	50.000
637.18	50.314
637.51	50.943
637.83	50.723
638.16	51.842
638.49	50.272
638.82	51.316
639.15	50.204
639.48	50.894
639.81	49.930
640.13	52.814
640.46	50.437
640.79	49.485
641.12	49.631
641.45	50.450
641.77	49.778
642.10	53.081
642.43	50.000
642.76	51.980
643.09	50.565
643.41	50.809
643.74	51.400
644.07	51.067
644.40	51.858
644.73	53.065
645.05	51.846
645.38	53.263
645.71	52.305
646.04	52.603
646.36	50.000
646.69	52.878
647.02	55.388
647.35	52.612
647.67	52.102
648.00	51.866
648.33	49.147
648.66	49.831
648.98	49.749
649.31	48.099
649.64	49.608
649.96	45.381
650.29	48.382
650.62	50.256
650.94	52.778
651.27	51.210
651.60	50.991
651.92	50.350
652.25	48.135
652.58	49.500
652.90	50.600
653.23	47.563
653.56	46.531
653.88	48.454
654.21	47.461
654.54	48.387
654.86	49.745
655.19	47.515
655.52	46.053
655.84	38.876
656.17	42.008
656.49	57.086
656.82	60.664
657.15	48.062
657.47	37.067
657.80	27.948
658.13	27.862
658.45	43.963
658.78	44.984
659.10	45.370
659.43	44.882
659.75	45.634
660.08	44.759
660.41	46.476
660.73	46.685
661.06	50.260
661.38	47.750
661.71	47.023
662.03	49.142
662.36	47.912
662.68	45.796
663.01	50.437
663.33	47.100
663.66	49.070
663.98	47.442
664.31	49.680
664.63	46.083
664.96	45.652
665.28	48.565
665.61	46.537
665.93	48.043
666.26	50.542
666.58	47.204
666.91	49.412
667.23	48.349
667.56	47.393
667.88	52.278
668.21	46.778
668.53	47.754
668.86	47.406
669.18	45.755
669.50	47.942
669.83	46.279
670.15	46.154
670.48	49.043
670.80	47.926
671.13	42.282
671.45	44.292
671.77	47.854
672.10	47.327
672.42	45.131
672.75	43.872
673.07	43.649
673.39	44.037
673.72	44.181
674.04	45.625
674.37	45.763
674.69	42.827
675.01	48.444
675.34	44.820
675.66	47.917
675.98	46.785
676.31	48.394
676.63	44.656
676.95	43.864
677.28	48.941
677.60	44.578
677.92	42.431
678.25	45.514
678.57	44.589
678.89	43.908
679.22	44.966
679.54	44.779
679.86	43.539
680.18	45.437
680.51	45.455
680.83	45.527
681.15	43.400
681.48	45.082
681.80	41.322
682.12	41.129
682.44	43.933
682.77	44.592
683.09	44.394
683.41	45.227
683.73	45.161
684.06	42.920
684.38	40.645
684.70	46.405
685.02	42.739
685.34	41.304
685.67	43.152
685.99	42.315
686.31	39.292
686.63	40.631
686.96	39.163
687.28	41.010
687.60	38.403
687.92	44.242
688.24	39.516
688.56	46.070
688.89	44.420
689.21	42.889
689.53	42.227
689.85	42.791
690.17	43.750
690.49	42.317
690.82	41.748
691.14	43.810
691.46	45.561
691.78	40.090
692.10	41.505
692.42	41.342
692.74	41.880
693.06	41.892
693.39	42.986
693.71	39.140
694.03	39.261
694.35	40.187
694.67	44.192
694.99	40.209
695.31	44.125
695.63	42.500
695.95	40.657
696.27	38.083
696.59	43.333
696.91	41.176
697.23	39.332
697.56	39.851
697.88	42.151
698.20	40.319
698.52	38.353
698.84	37.560
699.16	39.500
699.48	43.860
699.80	37.965
700.12	40.431
700.44	42.857
700.76	44.767
701.08	40.303
701.40	39.759
701.72	48.765
702.04	43.564
702.36	42.140
702.68	41.141
703.00	38.788
703.32	43.109
703.64	37.571
703.96	41.159
704.28	37.423
704.60	44.127
704.91	40.379
705.23	39.203
705.55	47.350
705.87	38.989
706.19	40.000
706.51	42.268
706.83	37.942
707.15	37.072
707.47	39.776
707.79	38.281
708.11	38.500
708.43	40.250
708.74	39.535
709.06	39.718
709.38	43.119
709.70	36.686
710.02	40.446
710.34	42.105
710.66	36.538
710.98	38.411
711.29	39.672
711.61	35.932
711.93	39.414
712.25	43.986
712.57	39.560
712.89	38.433
713.20	36.332
713.52	37.979
713.84	39.590
714.16	42.268
714.48	38.710
714.80	38.462
715.11	37.690
715.43	37.931
715.75	37.333
716.07	35.548
716.39	36.242
716.70	38.745
717.02	33.969
717.34	39.271
717.66	39.823
717.97	37.826
718.29	38.075
718.61	37.795
718.93	41.085
719.24	37.643
719.56	37.349
719.88	40.893
720.20	40.530
720.51	39.464
720.83	41.313
721.15	38.655
721.46	39.919
721.78	36.364
722.10	37.175
722.42	33.610
722.73	34.694
723.05	46.531
723.37	38.983
723.68	44.595
724.00	39.744
724.32	36.444
724.63	37.727
724.95	35.808
725.27	34.562
725.58	36.864
725.90	33.730
726.22	35.521
726.53	34.576
726.85	38.951
727.16	42.264
727.48	34.413
727.80	36.032
728.11	35.593
728.43	37.647
728.74	28.629
729.06	32.800
729.38	42.105
729.69	29.880
730.01	35.769
730.32	36.940
730.64	36.042
730.96	35.094
731.27	36.667
731.59	36.949
731.90	33.439
732.22	35.016
732.53	34.884
732.85	32.979
733.16	37.374
733.48	33.813
733.80	31.522
734.11	33.220
734.43	31.271
734.74	35.152
735.06	36.808
735.37	35.952
735.69	35.690
736.00	35.889
736.32	32.215
736.63	37.676
736.95	33.788
737.26	34.520
737.58	30.872
737.89	32.234
738.21	36.842
738.52	37.449
738.83	35.371
739.15	31.878
739.46	40.945
739.78	34.799
740.09	34.641
740.41	34.783
740.72	30.315
741.04	33.603
741.35	29.787
741.66	32.227
741.98	33.673
742.29	32.673
742.61	36.126
742.92	32.227
743.23	32.870
743.55	35.294
743.86	31.579
744.18	33.014
744.49	35.638
744.80	29.891
745.12	38.503
745.43	28.780
745.74	35.417
746.06	34.634
746.37	37.696
746.68	34.123
747.00	32.979
747.31	40.299
747.62	29.612
747.94	33.971
748.25	35.644
748.56	39.344
748.88	31.414
749.19	38.830
749.50	37.438
749.82	26.415
750.13	32.110
750.44	34.962
750.75	36.194
751.07	35.036
751.38	32.184
751.69	36.471
752.01	33.721
752.32	34.263
752.63	33.202
752.94	34.052
753.26	39.749
753.57	29.412
753.88	32.301
754.19	30.000
754.51	30.165
754.82	25.101
755.13	40.833
755.44	31.855
755.75	38.281
756.07	33.463
756.38	29.057
756.69	32.567
757.00	32.000
757.31	27.124
757.63	28.659
757.94	31.389
758.25	29.315
758.56	30.319
758.87	26.062
759.18	32.087
759.50	28.000
759.81	32.776
760.12	32.903
760.43	29.394
760.74	33.642
761.05	32.308
761.36	32.102
761.67	31.212
761.99	34.014
762.30	30.545
762.61	28.458
762.92	32.579
763.23	27.027
763.54	30.374
763.85	29.661
764.16	31.535
764.47	30.242
764.78	31.502
765.10	36.700
765.41	31.230
765.72	29.524
766.03	29.323
766.34	30.292
766.65	34.263
766.96	35.354
767.27	28.723
767.58	32.184
767.89	33.333
768.20	28.409
768.51	26.923
768.82	31.527
769.13	31.797
769.44	30.472
769.75	30.137
770.06	33.190
770.37	31.731
770.68	31.472
770.99	27.602
771.30	36.765
771.61	33.937
771.92	31.034
772.23	41.379
772.54	30.108
772.85	33.951
773.16	35.393
773.47	35.294
773.78	35.948
774.09	23.353
774.39	22.000
774.70	29.299
775.01	39.310
775.32	30.000
775.63	19.008
775.94	35.115
776.25	31.496
776.56	35.000
776.87	37.500
777.18	39.316
777.48	25.000
777.79	24.348
778.10	26.667
778.41	26.126
778.72	36.508
779.03	22.556
779.34	26.950
779.65	25.342
779.95	32.192
780.26	28.966
780.57	19.512
780.88	37.795
781.19	30.172
781.50	34.109
781.80	31.361
782.11	27.044
782.42	36.154
782.73	25.899
783.04	29.630
783.34	28.472
783.65	21.368
783.96	27.869
784.27	35.862
784.57	21.138
784.88	28.906
785.19	33.000
785.50	38.000
785.81	21.552
786.11	24.138
786.42	25.243
786.73	30.000
787.04	30.612
787.34	18.750
787.65	22.857
787.96	18.584
788.26	30.000
788.57	18.803
788.88	35.156
789.19	17.460
789.49	24.348
789.80	28.571
790.11	30.303
790.41	26.364
790.72	32.609
791.03	27.273
791.33	27.500
791.64	26.250
791.95	20.930
792.25	28.723
792.56	19.101
792.87	31.507
793.17	24.638
793.48	22.667
793.79	23.750
794.09	42.500
794.40	20.755
794.70	23.301
795.01	18.699
795.32	24.786
795.62	31.429
795.93	30.392
796.23	24.528
796.54	41.667
796.85	32.353
797.15	16.901
797.46	31.944
797.76	22.727
798.07	20.930
798.37	26.316
798.68	16.667
798.99	18.519
799.29	30.000
799.60	37.681
799.90	30.667
800.21	40.984
800.51	21.538
800.82	33.898
801.12	11.594
801.43	27.869
801.73	28.571
802.04	30.000
802.34	13.433
802.65	48.077
802.95	5.357
803.26	23.077
803.56	11.765
803.87	0.000
804.17	16.000
804.48	28.571
804.78	11.111
805.09	2.174
805.39	0.000
805.70	20.370
806.00	5.263
806.30	32.394
806.61	32.857
806.91	15.278
807.22	30.263
807.52	21.333
807.83	5.455
808.13	0.000
808.43	35.294
808.74	17.910
809.04	8.475
809.35	21.154
809.65	25.000
809.95	-5.405
810.26	0.000
810.56	19.178
810.86	38.095
811.17	0.000
811.47	2.041
811.77	13.158
812.08	18.182
812.38	32.075
812.69	10.000
812.99	21.212
813.29	23.684
813.59	-5.714
813.90	9.091
814.20	12.821
814.50	15.385
814.81	22.642
815.11	-8.511
815.41	27.119
815.72	-9.524
816.02	25.490
816.32	-4.167
816.62	4.878
816.93	2.703
817.23	-25.714
817.53	25.000
817.84	0.000
818.14	25.000
818.44	2.632
818.74	28.261
819.04	-15.000
819.35	43.243
819.65	5.882
819.95	-25.000
820.25	21.429
820.56	40.000
820.86	-31.034
821.16	52.500
821.46	19.149
821.76	25.000
822.07	18.605
822.37	5.405
822.67	21.875
822.97	45.238
823.27	10.714
823.57	8.000
823.88	29.630
824.18	17.857
824.48	0.000
824.78	9.677
825.08	-8.696
825.38	42.424
825.69	-62.500
825.99	28.947
826.29	16.667
826.59	26.667
826.89	-28.571
827.19	13.043
827.49	-12.500
827.79	11.429
828.09	17.857
828.39	27.273
828.70	59.459
829.00	21.429
829.30	-52.381
829.60	10.000
829.90	43.750
830.20	26.316
830.50	37.037
830.80	8.696
831.10	-13.636
831.40	39.394
831.70	35.484
832.00	47.619
832.30	-28.571
832.60	-125.000
832.90	3.448
833.20	-40.000
833.50	9.091
833.80	7.407
834.10	34.615
834.40	0.000
834.70	-55.556
835.00	21.053
835.30	34.615
835.60	6.667
835.90	41.935
836.20	27.273
836.50	42.857
836.80	-50.000
837.10	3.571
837.40	-200.000
837.70	13.636
838.00	-27.273
838.30	17.391
838.60	69.231
838.90	22.727
839.19	10.714
839.49	6.667
839.79	-30.769
840.09	-66.667
840.39	46.429
840.69	14.286
840.99	-19.231
841.29	-52.632
841.59	-80.000
841.88	-9.091
842.18	-20.000
842.48	12.500
842.78	0.000
843.08	18.519
843.38	-100.000
843.68	39.130
843.97	60.000
844.27	-73.333
844.57	0.000
844.87	27.778
845.17	14.286
845.47	-13.333
845.76	-9.524
846.06	5.882
846.36	-30.000
846.66	14.286
846.96	20.000
847.25	-187.500
847.55	42.857
847.85	-125.000
848.15	-27.273
848.44	-533.333
848.74	45.000
849.04	37.037
849.34	36.364
849.63	-250.000
849.93	-40.000
850.23	0.000
850.53	-10.000
850.82	0.000
851.12	-11.111
851.42	-20.000
851.71	-50.000
852.01	35.714
852.31	-250.000
852.61	36.364
852.90	5.000
853.20	0.000
853.50	8.333
853.79	-21.739
854.09	12.500
854.39	63.158
854.68	37.500
854.98	32.258
855.28	-3.846
855.57	10.000
855.87	0.000
856.17	37.037
856.46	28.571
856.76	-46.667
857.05	77.778
857.35	36.000
857.65	-66.667
857.94	0.000
858.24	31.034
858.53	-16.667
858.83	29.630
859.13	27.273
859.42	-4.348
859.72	-25.000
860.01	-200.000
860.31	8.000
860.60	14.286
860.90	-566.667
861.20	-13.333
861.49	200.000
861.79	-26.667
862.08	0.000
862.38	80.000
862.67	-120.000
862.97	-33.333
863.26	0.000
863.56	33.333
863.85	-266.667
864.15	50.000
864.44	-20.000
864.74	57.143
865.03	300.000
865.33	-220.000
865.62	33.333
865.92	-41.667
866.21	-316.667
866.51	12.500
866.80	-81.818
867.10	0.000
867.39	66.667
867.69	0.000
867.98	-7.692
868.27	-500.000
868.57	-6.667
868.86	5.556
869.16	-61.538
869.45	26.667
869.75	-1500.000
870.04	0.000
870.33	-142.857
870.63	14.286
870.92	466.667
871.22	-320.000
871.51	-500.000
871.80	33.333
872.10	500.000
>>>>>End Processed Spectral Data<<<<<
