SpectraSuite Data File
++++++++++++++++++++++++++++++++++++
Date: Fri May 15 20:41:34 PDT 2015
User: schluterlab
Dark Spectrum Present: Yes
Reference Spectrum Present: Yes
Number of Sampled Component Spectra: 1
Spectrometers: USB2E3373
Integration Time (usec): 3000 (USB2E3373)
Spectra Averaged: 3 (USB2E3373)
Boxcar Smoothing: 0 (USB2E3373)
Correct for Electrical Dark: No (USB2E3373)
Strobe/Lamp Enabled: No (USB2E3373)
Correct for Detector Non-linearity: No (USB2E3373)
Correct for Stray Light: No (USB2E3373)
Number of Pixels in Processed Spectrum: 2048
>>>>>Begin Processed Spectral Data<<<<<
178.53	0.000
178.91	0.000
179.29	0.000
179.67	-400.000
180.04	-14.286
180.42	200.000
180.80	-900.000
181.18	-66.667
181.56	350.000
181.94	50.000
182.31	500.000
182.69	-60.000
183.07	-233.333
183.45	40.000
183.83	66.667
184.20	-9.091
184.58	77.778
184.96	50.000
185.34	33.333
185.72	-200.000
186.09	115.385
186.47	-100.000
186.85	133.333
187.23	166.667
187.61	1200.000
187.98	-233.333
188.36	100.000
188.74	33.333
189.12	29.412
189.49	16.667
189.87	0.000
190.25	-28.571
190.63	200.000
191.00	-300.000
191.38	-10.526
191.76	0.000
192.14	-25.000
192.51	350.000
192.89	88.889
193.27	-142.857
193.65	200.000
194.02	154.545
194.40	30.000
194.78	-125.000
195.15	-41.667
195.53	-162.500
195.91	200.000
196.29	-150.000
196.66	92.308
197.04	-0.000
197.42	44.444
197.79	-333.333
198.17	-161.538
198.55	2100.000
198.92	-200.000
199.30	500.000
199.68	20.000
200.05	-300.000
200.43	0.000
200.81	-233.333
201.18	-166.667
201.56	1300.000
201.94	-300.000
202.31	266.667
202.69	-180.000
203.07	225.000
203.44	300.000
203.82	0.000
204.19	0.000
204.57	-466.667
204.95	200.000
205.32	10.000
205.70	157.143
206.08	-250.000
206.45	111.111
206.83	50.000
207.20	-71.429
207.58	-0.000
207.96	-533.333
208.33	-200.000
208.71	-125.000
209.08	-216.667
209.46	-700.000
209.84	0.000
210.21	-1000.000
210.59	42.857
210.96	-50.000
211.34	125.000
211.71	100.000
212.09	-85.714
212.46	-1700.000
212.84	0.000
213.22	0.000
213.59	-200.000
213.97	53.846
214.34	9.091
214.72	-183.333
215.09	475.000
215.47	-23.077
215.84	-63.636
216.22	0.000
216.59	37.500
216.97	-350.000
217.34	-75.000
217.72	-80.000
218.09	-25.000
218.47	100.000
218.84	-1100.000
219.22	-122.222
219.59	-120.000
219.97	400.000
220.34	250.000
220.72	-228.571
221.09	-200.000
221.47	100.000
221.84	-500.000
222.22	-550.000
222.59	0.000
222.97	58.333
223.34	-333.333
223.72	-42.857
224.09	-4.762
224.46	32.143
224.84	733.333
225.21	80.000
225.59	-6.667
225.96	-150.000
226.34	300.000
226.71	0.000
227.08	116.667
227.46	100.000
227.83	-250.000
228.21	-44.444
228.58	45.455
228.95	-12.500
229.33	-60.000
229.70	12.500
230.08	-25.000
230.45	-100.000
230.82	100.000
231.20	-33.333
231.57	-21.429
231.95	28.571
232.32	-50.000
232.69	21.429
233.07	0.000
233.44	-120.000
233.81	-110.000
234.19	111.111
234.56	-23.529
234.93	400.000
235.31	-125.000
235.68	-20.000
236.05	-100.000
236.43	-50.000
236.80	17.647
237.17	28.125
237.55	-55.000
237.92	-11.111
238.29	-22.222
238.67	20.000
239.04	-11.765
239.41	-29.268
239.79	-36.667
240.16	9.756
240.53	-31.579
240.91	-13.043
241.28	4.762
241.65	16.071
242.02	5.479
242.40	-1.667
242.77	-1.695
243.14	-6.061
243.51	8.750
243.89	5.747
244.26	2.299
244.63	1.190
245.00	3.093
245.38	9.278
245.75	-4.494
246.12	-0.862
246.49	0.000
246.87	-5.769
247.24	0.840
247.61	-7.018
247.98	-6.504
248.36	9.375
248.73	0.658
249.10	8.442
249.47	3.797
249.84	3.268
250.22	-0.588
250.59	3.268
250.96	9.859
251.33	-0.581
251.70	2.941
252.08	1.015
252.45	6.436
252.82	-1.508
253.19	4.608
253.56	-7.477
253.94	4.054
254.31	0.870
254.68	4.825
255.05	3.937
255.42	-1.747
255.79	3.475
256.16	1.946
256.54	5.597
256.91	1.521
257.28	3.717
257.65	0.375
258.02	0.709
258.39	7.744
258.76	2.564
259.14	4.983
259.51	4.207
259.88	0.687
260.25	3.268
260.62	1.389
260.99	-0.339
261.36	0.342
261.73	3.797
262.10	5.775
262.47	3.681
262.85	2.821
263.22	4.308
263.59	4.673
263.96	2.174
264.33	1.515
264.70	-2.679
265.07	2.976
265.44	7.649
265.81	4.237
266.18	5.191
266.55	6.170
266.92	2.332
267.29	2.350
267.66	3.325
268.03	5.759
268.40	4.961
268.77	5.348
269.14	6.954
269.51	4.884
269.88	4.239
270.25	2.296
270.62	2.683
270.99	2.302
271.36	0.733
271.73	4.930
272.10	3.163
272.47	3.783
272.84	4.208
273.21	6.497
273.58	1.446
273.95	6.178
274.32	0.231
274.69	2.489
275.06	5.357
275.43	3.401
275.80	2.428
276.17	0.690
276.54	4.497
276.91	2.851
277.28	1.310
277.65	4.959
278.02	2.340
278.39	5.033
278.76	3.145
279.13	0.830
279.50	2.731
279.87	2.808
280.23	2.366
280.60	5.458
280.97	4.242
281.34	1.923
281.71	1.848
282.08	3.885
282.45	3.914
282.82	1.158
283.19	3.288
283.56	4.624
283.92	2.467
284.29	2.115
284.66	2.132
285.03	2.947
285.40	4.159
285.77	4.569
286.14	5.054
286.51	3.137
286.87	3.108
287.24	3.683
287.61	2.822
287.98	5.263
288.35	2.080
288.72	4.904
289.08	1.562
289.45	3.866
289.82	4.196
290.19	2.901
290.56	1.544
290.93	0.505
291.29	3.082
291.66	5.354
292.03	1.754
292.40	2.742
292.77	2.711
293.13	0.649
293.50	1.973
293.87	1.221
294.24	4.637
294.60	3.279
294.97	2.679
295.34	3.221
295.71	2.385
296.08	2.691
296.44	0.711
296.81	2.917
297.18	2.464
297.55	4.607
297.91	3.014
298.28	4.485
298.65	5.156
299.02	1.617
299.38	0.684
299.75	1.793
300.12	1.832
300.48	1.713
300.85	3.169
301.22	3.247
301.59	1.316
301.95	4.051
302.32	3.243
302.69	3.856
303.05	2.723
303.42	2.740
303.79	4.439
304.15	3.106
304.52	2.973
304.89	1.871
305.25	3.390
305.62	2.684
305.99	2.690
306.35	2.197
306.72	2.137
307.09	2.395
307.45	3.789
307.82	1.736
308.19	3.252
308.55	2.617
308.92	4.248
309.29	1.788
309.65	2.906
310.02	2.750
310.38	3.183
310.75	3.607
311.12	3.337
311.48	3.924
311.85	3.770
312.22	3.059
312.58	2.972
312.95	3.629
313.31	4.244
313.68	3.874
314.05	4.286
314.41	5.052
314.78	3.299
315.14	5.550
315.51	6.108
315.87	5.225
316.24	6.775
316.61	6.398
316.97	7.143
317.34	6.738
317.70	6.023
318.07	6.923
318.43	7.549
318.80	8.333
319.16	8.398
319.53	9.022
319.89	8.957
320.26	9.211
320.62	9.428
320.99	9.499
321.35	10.483
321.72	9.865
322.08	11.078
322.45	10.964
322.81	11.788
323.18	13.346
323.54	12.838
323.91	13.048
324.27	14.648
324.64	14.513
325.00	16.606
325.37	15.978
325.73	16.772
326.10	17.620
326.46	17.130
326.83	17.498
327.19	19.180
327.56	18.679
327.92	21.215
328.29	20.982
328.65	21.981
329.01	21.415
329.38	21.843
329.74	22.568
330.11	21.223
330.47	22.078
330.84	23.654
331.20	26.521
331.56	23.611
331.93	23.927
332.29	26.123
332.66	24.525
333.02	25.651
333.38	23.465
333.75	25.916
334.11	26.321
334.48	26.473
334.84	26.557
335.20	27.539
335.57	26.020
335.93	27.191
336.29	28.361
336.66	27.066
337.02	27.045
337.38	27.407
337.75	27.182
338.11	29.486
338.47	29.836
338.84	28.466
339.20	28.154
339.56	28.532
339.93	27.484
340.29	29.541
340.65	27.151
341.02	28.989
341.38	27.788
341.74	28.092
342.11	27.643
342.47	29.270
342.83	29.066
343.20	28.223
343.56	28.957
343.92	28.964
344.28	29.633
344.65	28.670
345.01	28.522
345.37	29.016
345.73	29.958
346.10	31.148
346.46	30.109
346.82	29.705
347.19	28.761
347.55	29.741
347.91	30.663
348.27	28.618
348.63	30.324
349.00	30.107
349.36	29.842
349.72	29.768
350.08	29.918
350.45	30.966
350.81	30.316
351.17	29.642
351.53	30.286
351.89	29.975
352.26	29.680
352.62	30.968
352.98	30.522
353.34	29.952
353.70	31.311
354.07	29.677
354.43	29.223
354.79	29.893
355.15	31.190
355.51	30.775
355.87	30.906
356.24	30.750
356.60	30.719
356.96	31.905
357.32	31.949
357.68	30.336
358.04	31.745
358.40	30.707
358.77	31.100
359.13	30.825
359.49	30.200
359.85	30.577
360.21	32.376
360.57	31.293
360.93	31.619
361.29	30.514
361.66	31.818
362.02	31.136
362.38	32.369
362.74	30.810
363.10	32.581
363.46	31.579
363.82	32.081
364.18	31.292
364.54	30.882
364.90	30.538
365.26	30.640
365.62	32.993
365.98	31.672
366.35	32.556
366.71	32.151
367.07	32.221
367.43	30.769
367.79	31.166
368.15	31.730
368.51	32.921
368.87	31.156
369.23	31.552
369.59	31.268
369.95	31.158
370.31	32.009
370.67	32.687
371.03	31.964
371.39	31.802
371.75	33.187
372.11	31.027
372.47	32.470
372.83	32.079
373.19	31.027
373.55	30.469
373.91	32.829
374.27	32.318
374.63	31.874
374.99	32.270
375.35	31.964
375.71	32.028
376.07	31.390
376.42	30.816
376.78	32.550
377.14	32.837
377.50	31.673
377.86	31.593
378.22	30.887
378.58	31.474
378.94	30.876
379.30	31.503
379.66	30.972
380.02	31.330
380.38	30.615
380.74	31.239
381.09	31.963
381.45	31.621
381.81	30.598
382.17	31.472
382.53	31.230
382.89	31.073
383.25	31.425
383.61	31.402
383.97	30.730
384.32	31.895
384.68	31.827
385.04	31.066
385.40	29.932
385.76	31.950
386.12	31.759
386.48	32.439
386.83	30.755
387.19	31.258
387.55	31.995
387.91	31.418
388.27	31.074
388.62	31.089
388.98	31.246
389.34	30.856
389.70	32.070
390.06	30.334
390.42	30.376
390.77	30.674
391.13	28.878
391.49	31.242
391.85	30.799
392.20	30.069
392.56	30.515
392.92	30.006
393.28	30.601
393.64	30.511
393.99	32.476
394.35	31.689
394.71	31.034
395.07	31.113
395.42	29.630
395.78	30.423
396.14	29.256
396.50	30.818
396.85	29.942
397.21	30.013
397.57	28.840
397.92	30.318
398.28	29.540
398.64	28.855
399.00	30.023
399.35	28.894
399.71	29.294
400.07	29.444
400.42	29.009
400.78	30.190
401.14	29.462
401.49	30.554
401.85	29.921
402.21	28.976
402.57	30.125
402.92	28.984
403.28	29.699
403.63	28.878
403.99	29.401
404.35	29.919
404.70	28.095
405.06	28.085
405.42	28.713
405.77	27.252
406.13	28.754
406.49	29.011
406.84	28.729
407.20	28.958
407.55	28.268
407.91	27.206
408.27	27.916
408.62	28.615
408.98	27.726
409.34	28.129
409.69	27.003
410.05	26.293
410.40	28.333
410.76	27.563
411.11	27.688
411.47	28.205
411.83	27.370
412.18	28.121
412.54	28.215
412.89	27.401
413.25	27.738
413.60	26.894
413.96	26.074
414.31	27.500
414.67	27.197
415.03	25.965
415.38	27.611
415.74	27.883
416.09	27.237
416.45	27.346
416.80	27.231
417.16	28.039
417.51	25.983
417.87	26.076
418.22	26.813
418.58	26.421
418.93	27.649
419.29	25.288
419.64	26.960
420.00	27.771
420.35	26.388
420.71	27.035
421.06	26.028
421.42	26.382
421.77	26.647
422.12	26.163
422.48	26.367
422.83	25.986
423.19	26.129
423.54	24.927
423.90	25.442
424.25	25.947
424.61	27.479
424.96	25.087
425.31	26.170
425.67	26.467
426.02	26.148
426.38	26.738
426.73	26.392
427.09	26.013
427.44	26.412
427.79	27.401
428.15	25.910
428.50	25.500
428.85	25.061
429.21	26.486
429.56	25.606
429.92	24.961
430.27	25.113
430.62	24.569
430.98	26.062
431.33	27.182
431.68	24.856
432.04	25.601
432.39	25.841
432.74	25.075
433.10	25.632
433.45	25.209
433.80	25.827
434.16	24.321
434.51	25.914
434.86	25.494
435.22	25.407
435.57	24.891
435.92	25.449
436.28	25.283
436.63	25.214
436.98	24.623
437.34	24.380
437.69	25.999
438.04	24.672
438.39	24.252
438.75	25.258
439.10	24.958
439.45	24.467
439.81	24.343
440.16	25.000
440.51	25.612
440.86	25.136
441.22	24.604
441.57	24.779
441.92	25.131
442.27	24.723
442.63	25.321
442.98	24.526
443.33	24.040
443.68	24.085
444.03	24.739
444.39	24.939
444.74	26.031
445.09	24.666
445.44	24.387
445.79	25.838
446.15	25.000
446.50	23.627
446.85	24.495
447.20	24.505
447.55	25.112
447.91	24.365
448.26	25.157
448.61	25.446
448.96	24.383
449.31	24.451
449.66	23.810
450.02	23.503
450.37	24.778
450.72	25.029
451.07	24.557
451.42	24.469
451.77	24.774
452.12	24.043
452.47	24.469
452.83	25.442
453.18	24.415
453.53	24.968
453.88	23.983
454.23	24.647
454.58	25.063
454.93	24.742
455.28	23.175
455.63	24.799
455.98	24.233
456.34	23.180
456.69	24.841
457.04	25.079
457.39	24.119
457.74	24.063
458.09	23.131
458.44	23.523
458.79	23.810
459.14	25.114
459.49	24.418
459.84	24.591
460.19	22.755
460.54	24.756
460.89	23.693
461.24	23.851
461.59	23.990
461.94	23.082
462.29	23.583
462.64	23.588
462.99	22.749
463.34	22.601
463.69	23.102
464.04	23.487
464.39	22.923
464.74	22.515
465.09	23.144
465.44	22.504
465.79	22.166
466.14	23.945
466.49	22.772
466.84	23.319
467.19	23.154
467.54	22.031
467.89	22.047
468.24	22.871
468.59	21.968
468.94	22.222
469.29	23.016
469.64	23.103
469.99	23.546
470.34	21.980
470.68	23.415
471.03	23.142
471.38	23.039
471.73	22.269
472.08	21.303
472.43	22.819
472.78	21.247
473.13	22.993
473.48	22.736
473.83	21.856
474.17	22.021
474.52	20.421
474.87	22.061
475.22	21.415
475.57	20.723
475.92	21.887
476.27	21.653
476.61	20.718
476.96	20.970
477.31	21.525
477.66	21.685
478.01	21.056
478.36	21.133
478.70	21.860
479.05	21.319
479.40	20.774
479.75	20.699
480.10	20.635
480.45	20.900
480.79	21.903
481.14	20.850
481.49	20.197
481.84	20.270
482.19	20.299
482.53	20.671
482.88	21.241
483.23	20.393
483.58	21.415
483.92	21.297
484.27	19.371
484.62	19.991
484.97	20.066
485.31	19.725
485.66	19.237
486.01	19.230
486.36	18.962
486.70	19.189
487.05	19.031
487.40	19.623
487.75	19.493
488.09	19.221
488.44	19.945
488.79	20.060
489.13	20.112
489.48	20.180
489.83	19.641
490.17	19.326
490.52	19.630
490.87	18.973
491.22	19.914
491.56	19.355
491.91	19.503
492.26	20.175
492.60	19.002
492.95	20.216
493.30	18.319
493.64	18.959
493.99	19.952
494.34	18.932
494.68	18.905
495.03	19.027
495.37	19.185
495.72	19.536
496.07	19.268
496.41	19.151
496.76	19.116
497.11	18.910
497.45	19.570
497.80	19.173
498.14	18.977
498.49	18.334
498.84	19.162
499.18	18.424
499.53	18.155
499.87	18.337
500.22	18.645
500.56	18.255
500.91	17.821
501.26	18.240
501.60	17.954
501.95	18.001
502.29	18.063
502.64	18.388
502.98	18.007
503.33	18.012
503.67	17.831
504.02	18.426
504.36	18.110
504.71	17.626
505.06	17.916
505.40	17.919
505.75	17.165
506.09	17.739
506.44	18.737
506.78	17.806
507.13	17.373
507.47	16.867
507.82	16.934
508.16	17.433
508.51	17.104
508.85	17.739
509.19	16.871
509.54	17.265
509.88	17.260
510.23	16.945
510.57	17.424
510.92	16.738
511.26	17.403
511.61	17.162
511.95	17.808
512.30	17.572
512.64	17.529
512.98	16.732
513.33	17.180
513.67	16.885
514.02	18.307
514.36	17.943
514.70	18.182
515.05	17.274
515.39	17.414
515.74	17.305
516.08	17.992
516.42	17.903
516.77	17.203
517.11	16.795
517.46	17.056
517.80	17.342
518.14	16.840
518.49	16.226
518.83	16.586
519.17	16.980
519.52	16.696
519.86	16.867
520.20	17.132
520.55	16.886
520.89	17.189
521.23	16.086
521.58	16.909
521.92	16.282
522.26	15.875
522.61	15.519
522.95	16.623
523.29	17.154
523.64	16.963
523.98	16.721
524.32	15.786
524.66	16.325
525.01	17.273
525.35	16.008
525.69	16.296
526.04	14.947
526.38	16.861
526.72	16.285
527.06	16.213
527.41	16.359
527.75	15.483
528.09	15.415
528.43	17.353
528.78	15.842
529.12	15.290
529.46	15.854
529.80	16.023
530.15	16.106
530.49	15.758
530.83	15.937
531.17	15.581
531.51	16.758
531.86	15.772
532.20	15.588
532.54	16.406
532.88	16.290
533.22	15.793
533.57	15.203
533.91	14.360
534.25	15.755
534.59	14.881
534.93	14.537
535.27	14.467
535.62	14.776
535.96	14.808
536.30	15.435
536.64	15.851
536.98	14.774
537.32	15.576
537.66	16.059
538.01	15.874
538.35	14.771
538.69	15.180
539.03	14.354
539.37	15.276
539.71	14.997
540.05	15.750
540.39	15.859
540.73	14.993
541.07	15.124
541.42	15.726
541.76	15.279
542.10	14.659
542.44	14.802
542.78	13.489
543.12	14.423
543.46	14.951
543.80	14.781
544.14	14.085
544.48	15.656
544.82	14.217
545.16	14.139
545.50	14.486
545.84	15.439
546.18	15.532
546.52	14.924
546.86	14.162
547.20	14.664
547.54	13.640
547.88	15.557
548.22	14.004
548.56	14.248
548.90	14.757
549.24	13.912
549.58	14.457
549.92	13.009
550.26	14.212
550.60	13.755
550.94	14.787
551.28	12.133
551.62	14.769
551.96	13.985
552.30	13.743
552.64	13.188
552.98	14.627
553.32	14.622
553.66	13.062
554.00	14.380
554.34	14.106
554.68	13.938
555.02	14.658
555.36	13.239
555.69	13.040
556.03	13.062
556.37	13.665
556.71	13.502
557.05	13.945
557.39	12.491
557.73	14.318
558.07	13.650
558.41	14.701
558.75	14.263
559.08	13.160
559.42	13.492
559.76	14.572
560.10	13.685
560.44	13.105
560.78	13.846
561.12	13.963
561.45	13.422
561.79	12.885
562.13	13.272
562.47	13.094
562.81	12.896
563.15	14.175
563.48	13.508
563.82	13.864
564.16	12.744
564.50	13.514
564.84	13.655
565.17	12.542
565.51	14.071
565.85	12.209
566.19	12.865
566.52	13.606
566.86	13.368
567.20	12.702
567.54	12.530
567.88	12.419
568.21	13.575
568.55	12.065
568.89	13.090
569.23	12.903
569.56	12.916
569.90	12.586
570.24	12.319
570.57	12.182
570.91	12.025
571.25	11.345
571.59	11.398
571.92	11.496
572.26	11.473
572.60	11.411
572.93	11.829
573.27	11.630
573.61	11.456
573.95	11.797
574.28	10.911
574.62	11.187
574.96	11.194
575.29	11.383
575.63	10.961
575.97	10.762
576.30	10.964
576.64	11.258
576.98	10.965
577.31	11.084
577.65	11.032
577.98	11.074
578.32	10.761
578.66	11.047
578.99	10.927
579.33	11.067
579.67	10.825
580.00	11.342
580.34	10.721
580.67	11.177
581.01	10.999
581.35	11.047
581.68	10.943
582.02	10.773
582.35	10.511
582.69	10.596
583.02	10.681
583.36	10.575
583.70	11.371
584.03	11.037
584.37	11.237
584.70	10.907
585.04	10.622
585.37	11.007
585.71	10.713
586.04	10.767
586.38	10.536
586.72	11.133
587.05	10.774
587.39	11.155
587.72	11.017
588.06	10.711
588.39	11.079
588.73	11.172
589.06	11.285
589.40	11.649
589.73	11.099
590.07	11.178
590.40	11.107
590.73	11.161
591.07	10.645
591.40	11.042
591.74	10.950
592.07	11.827
592.41	11.307
592.74	10.753
593.08	10.513
593.41	11.071
593.75	10.435
594.08	11.123
594.41	10.917
594.75	10.611
595.08	10.783
595.42	11.005
595.75	10.702
596.09	10.829
596.42	10.914
596.75	11.101
597.09	11.298
597.42	11.382
597.75	11.361
598.09	10.819
598.42	10.469
598.76	10.553
599.09	10.216
599.42	10.800
599.76	10.421
600.09	10.520
600.42	11.069
600.76	10.773
601.09	10.802
601.42	10.537
601.76	10.441
602.09	10.809
602.42	10.531
602.76	10.314
603.09	11.420
603.42	10.619
603.76	10.242
604.09	10.369
604.42	10.998
604.76	10.992
605.09	10.649
605.42	10.203
605.75	10.814
606.09	10.191
606.42	10.300
606.75	10.909
607.09	10.857
607.42	9.836
607.75	10.480
608.08	10.512
608.42	10.461
608.75	11.036
609.08	10.713
609.41	10.761
609.75	10.937
610.08	11.033
610.41	10.531
610.74	10.580
611.07	10.026
611.41	10.586
611.74	10.928
612.07	10.600
612.40	10.667
612.73	11.073
613.07	9.899
613.40	10.996
613.73	10.800
614.06	10.573
614.39	10.660
614.72	10.644
615.06	10.503
615.39	10.262
615.72	10.334
616.05	11.061
616.38	9.345
616.71	11.009
617.05	10.377
617.38	11.188
617.71	10.755
618.04	10.921
618.37	10.908
618.70	11.155
619.03	12.222
619.36	9.913
619.69	9.856
620.03	10.665
620.36	11.516
620.69	11.349
621.02	10.780
621.35	11.120
621.68	11.139
622.01	9.750
622.34	12.291
622.67	11.435
623.00	11.179
623.33	11.052
623.66	10.022
623.99	11.346
624.32	11.863
624.65	10.602
624.99	11.211
625.32	9.553
625.65	11.548
625.98	10.878
626.31	10.806
626.64	11.612
626.97	13.089
627.30	11.734
627.63	11.785
627.96	11.321
628.29	12.766
628.62	11.603
628.95	11.122
629.28	11.290
629.61	10.768
629.94	13.001
630.26	12.253
630.59	13.215
630.92	12.000
631.25	11.692
631.58	11.454
631.91	10.417
632.24	11.583
632.57	13.409
632.90	10.676
633.23	12.000
633.56	9.950
633.89	9.618
634.22	12.222
634.55	11.436
634.88	11.877
635.20	11.026
635.53	11.733
635.86	10.793
636.19	12.419
636.52	12.117
636.85	10.546
637.18	11.321
637.51	11.824
637.83	11.827
638.16	12.551
638.49	9.673
638.82	13.158
639.15	9.905
639.48	11.279
639.81	12.273
640.13	11.833
640.46	13.265
640.79	11.635
641.12	11.078
641.45	10.661
641.77	11.852
642.10	11.374
642.43	11.254
642.76	11.716
643.09	13.086
643.41	12.298
643.74	12.850
644.07	13.300
644.40	11.486
644.73	13.485
645.05	10.570
645.38	13.757
645.71	11.879
646.04	11.311
646.36	11.348
646.69	15.108
647.02	12.665
647.35	13.433
647.67	13.163
648.00	12.500
648.33	12.799
648.66	12.542
648.98	9.883
649.31	11.240
649.64	12.716
649.96	9.562
650.29	12.095
650.62	11.966
650.94	10.185
651.27	11.546
651.60	13.153
651.92	14.510
652.25	9.414
652.58	13.000
652.90	13.208
653.23	9.580
653.56	10.829
653.88	10.481
654.21	8.231
654.54	11.036
654.86	11.885
655.19	10.088
655.52	11.300
655.84	8.422
656.17	9.393
656.49	12.338
656.82	13.135
657.15	10.181
657.47	7.759
657.80	5.803
658.13	5.746
658.45	8.812
658.78	9.011
659.10	8.866
659.43	9.222
659.75	9.324
660.08	9.034
660.41	11.032
660.73	10.221
661.06	12.478
661.38	11.546
661.71	8.008
662.03	11.588
662.36	9.890
662.68	11.726
663.01	11.354
663.33	10.441
663.66	10.000
663.98	9.302
664.31	10.448
664.63	8.986
664.96	8.043
665.28	9.934
665.61	11.255
665.93	12.174
666.26	11.497
666.58	10.067
666.91	10.588
667.23	11.792
667.56	10.664
667.88	9.832
668.21	10.979
668.53	12.530
668.86	10.377
669.18	9.198
669.50	11.622
669.83	12.326
670.15	12.121
670.48	10.287
670.80	12.903
671.13	12.975
671.45	10.959
671.77	13.948
672.10	12.079
672.42	10.112
672.75	12.966
673.07	12.880
673.39	13.578
673.72	9.073
674.04	8.958
674.37	13.559
674.69	10.064
675.01	12.222
675.34	10.135
675.66	13.194
675.98	11.530
676.31	14.220
676.63	9.976
676.95	9.545
677.28	13.176
677.60	12.048
677.92	11.239
678.25	10.503
678.57	9.091
678.89	11.555
679.22	10.067
679.54	12.450
679.86	8.549
680.18	12.039
680.51	10.227
680.83	8.350
681.15	11.000
681.48	12.705
681.80	12.603
682.12	10.484
682.44	10.251
682.77	12.583
683.09	12.128
683.41	9.773
683.73	11.982
684.06	11.726
684.38	8.602
684.70	7.843
685.02	8.506
685.34	9.091
685.67	9.006
685.99	10.307
686.31	10.619
686.63	10.575
686.96	9.886
687.28	6.061
687.60	9.506
687.92	8.081
688.24	11.694
688.56	11.354
688.89	10.491
689.21	17.333
689.53	12.529
689.85	8.372
690.17	8.036
690.49	10.165
690.82	8.738
691.14	10.238
691.46	9.112
691.78	10.135
692.10	11.828
692.42	10.823
692.74	10.470
693.06	8.784
693.39	8.824
693.71	11.086
694.03	10.393
694.35	11.215
694.67	10.606
694.99	10.444
695.31	14.360
695.63	10.500
695.95	7.576
696.27	10.363
696.59	13.056
696.91	10.364
697.23	9.512
697.56	8.168
697.88	9.462
698.20	9.567
698.52	9.882
698.84	3.110
699.16	9.000
699.48	9.774
699.80	10.422
700.12	11.051
700.44	14.846
700.76	6.686
701.08	10.000
701.40	7.530
701.72	13.889
702.04	8.251
702.36	8.027
702.68	9.009
703.00	8.182
703.32	7.038
703.64	9.040
703.96	8.406
704.28	9.816
704.60	12.381
704.91	12.303
705.23	5.980
705.55	12.014
705.87	11.552
706.19	7.037
706.51	12.027
706.83	12.862
707.15	4.984
707.47	11.204
707.79	8.594
708.11	11.500
708.43	11.250
708.74	10.594
709.06	10.986
709.38	11.621
709.70	10.947
710.02	10.828
710.34	10.217
710.66	8.013
710.98	4.636
711.29	9.836
711.61	12.542
711.93	8.795
712.25	14.089
712.57	11.722
712.89	11.567
713.20	9.689
713.52	11.150
713.84	14.334
714.16	9.622
714.48	7.419
714.80	10.256
715.11	10.334
715.43	7.210
715.75	6.000
716.07	5.648
716.39	8.054
716.70	8.118
717.02	9.160
717.34	10.121
717.66	9.735
717.97	12.174
718.29	10.042
718.61	12.205
718.93	7.752
719.24	9.506
719.56	6.827
719.88	8.591
720.20	8.712
720.51	5.747
720.83	7.722
721.15	10.504
721.46	7.661
721.78	9.881
722.10	11.152
722.42	12.033
722.73	9.796
723.05	10.204
723.37	11.864
723.68	11.712
724.00	8.974
724.32	8.000
724.63	7.273
724.95	13.974
725.27	16.590
725.58	13.136
725.90	4.365
726.22	10.425
726.53	15.254
726.85	14.607
727.16	11.698
727.48	6.883
727.80	14.170
728.11	2.966
728.43	9.020
728.74	4.435
729.06	7.200
729.38	14.286
729.69	7.171
730.01	3.077
730.32	11.940
730.64	11.307
730.96	6.038
731.27	11.000
731.59	8.475
731.90	11.783
732.22	13.565
732.53	8.970
732.85	8.511
733.16	11.448
733.48	3.237
733.80	7.971
734.11	6.441
734.43	4.124
734.74	12.121
735.06	5.212
735.37	11.480
735.69	9.091
736.00	6.272
736.32	6.376
736.63	7.746
736.95	4.096
737.26	10.320
737.58	9.396
737.89	8.425
738.21	6.015
738.52	7.819
738.83	6.114
739.15	9.170
739.46	10.630
739.78	6.960
740.09	5.882
740.41	10.507
740.72	4.724
741.04	10.121
741.35	11.064
741.66	9.479
741.98	10.204
742.29	7.921
742.61	3.665
742.92	0.948
743.23	1.389
743.55	9.502
743.86	8.612
744.18	5.742
744.49	3.723
744.80	4.891
745.12	18.182
745.43	11.707
745.74	12.500
746.06	8.780
746.37	8.901
746.68	10.427
747.00	10.106
747.31	11.443
747.62	5.340
747.94	8.612
748.25	3.465
748.56	7.104
748.88	6.806
749.19	9.574
749.50	9.852
749.82	-1.887
750.13	6.422
750.44	10.526
750.75	9.328
751.07	11.679
751.38	6.897
751.69	2.745
752.01	11.240
752.32	7.968
752.63	7.115
752.94	6.466
753.26	15.063
753.57	8.597
753.88	9.292
754.19	6.250
754.51	5.372
754.82	8.097
755.13	10.833
755.44	11.290
755.75	8.203
756.07	2.724
756.38	5.283
756.69	1.533
757.00	8.333
757.31	8.170
757.63	6.707
757.94	6.944
758.25	8.493
758.56	8.245
758.87	5.382
759.18	7.477
759.50	5.455
759.81	8.027
760.12	9.032
760.43	8.182
760.74	4.630
761.05	6.462
761.36	8.807
761.67	9.091
761.99	12.925
762.30	8.364
762.61	9.486
762.92	7.692
763.23	4.054
763.54	1.869
763.85	7.627
764.16	5.809
764.47	6.855
764.78	4.762
765.10	12.121
765.41	5.047
765.72	6.032
766.03	4.887
766.34	9.124
766.65	12.749
766.96	6.566
767.27	8.511
767.58	3.448
767.89	2.837
768.20	8.523
768.51	13.736
768.82	9.360
769.13	2.765
769.44	6.009
769.75	3.653
770.06	9.483
770.37	7.212
770.68	5.076
770.99	5.430
771.30	11.765
771.61	4.072
771.92	10.345
772.23	9.852
772.54	16.667
772.85	6.173
773.16	9.551
773.47	9.150
773.78	13.725
774.09	7.186
774.39	2.667
774.70	8.280
775.01	16.552
775.32	12.143
775.63	13.223
775.94	2.290
776.25	9.449
776.56	10.000
776.87	-0.962
777.18	1.709
777.48	6.897
777.79	4.348
778.10	3.810
778.41	7.207
778.72	13.492
779.03	8.271
779.34	16.312
779.65	8.219
779.95	2.740
780.26	6.897
780.57	-2.439
780.88	17.323
781.19	10.345
781.50	10.853
781.80	6.509
782.11	5.660
782.42	6.154
782.73	-0.719
783.04	8.148
783.34	4.861
783.65	-10.256
783.96	0.000
784.27	12.414
784.57	15.447
784.88	10.156
785.19	2.000
785.50	2.000
785.81	3.448
786.11	0.862
786.42	-0.971
786.73	20.000
787.04	8.163
787.34	0.000
787.65	17.143
787.96	6.195
788.26	0.909
788.57	9.402
788.88	15.625
789.19	3.175
789.49	-0.870
789.80	9.184
790.11	0.000
790.41	9.091
790.72	15.217
791.03	9.091
791.33	13.750
791.64	3.750
791.95	10.465
792.25	15.957
792.56	10.112
792.87	-12.329
793.17	5.797
793.48	1.333
793.79	3.750
794.09	18.750
794.40	4.717
794.70	-2.913
795.01	4.065
795.32	5.983
795.62	4.762
795.93	0.000
796.23	13.208
796.54	10.417
796.85	17.647
797.15	1.408
797.46	-2.778
797.76	10.606
798.07	11.628
798.37	2.632
798.68	-6.061
798.99	3.704
799.29	18.571
799.60	1.449
799.90	12.000
800.21	9.836
800.51	6.154
800.82	-8.475
801.12	20.290
801.43	6.557
801.73	23.810
802.04	-22.000
802.34	4.478
802.65	-11.538
802.95	-16.071
803.26	-7.692
803.56	3.922
803.87	-8.696
804.17	5.333
804.48	19.048
804.78	-7.407
805.09	8.696
805.39	2.222
805.70	9.259
806.00	-10.526
806.30	9.859
806.61	8.571
806.91	2.778
807.22	18.421
807.52	8.000
807.83	-3.636
808.13	9.722
808.43	10.294
808.74	-8.955
809.04	-6.780
809.35	13.462
809.65	10.938
809.95	-48.649
810.26	-18.182
810.56	8.219
810.86	-7.143
811.17	10.000
811.47	2.041
811.77	-39.474
812.08	-9.091
812.38	5.660
812.69	-25.000
812.99	-27.273
813.29	5.263
813.59	-11.429
813.90	-18.182
814.20	-7.692
814.50	11.538
814.81	18.868
815.11	-19.149
815.41	5.085
815.72	23.810
816.02	15.686
816.32	10.417
816.62	-14.634
816.93	-2.703
817.23	-28.571
817.53	20.833
817.84	2.174
818.14	1.923
818.44	0.000
818.74	4.348
819.04	-7.500
819.35	18.919
819.65	-8.824
819.95	-13.889
820.25	-9.524
820.56	5.000
820.86	-51.724
821.16	37.500
821.46	2.128
821.76	-2.500
822.07	-13.953
822.37	-10.811
822.67	-3.125
822.97	28.571
823.27	-14.286
823.57	-48.000
823.88	-37.037
824.18	3.571
824.48	2.941
824.78	3.226
825.08	-8.696
825.38	36.364
825.69	-33.333
825.99	15.789
826.29	-2.778
826.59	-26.667
826.89	-61.905
827.19	13.043
827.49	0.000
827.79	22.857
828.09	32.143
828.39	0.000
828.70	18.919
829.00	-25.000
829.30	-19.048
829.60	16.667
829.90	9.375
830.20	5.263
830.50	-62.963
830.80	-4.348
831.10	22.727
831.40	39.394
831.70	0.000
832.00	23.810
832.30	-33.333
832.60	-25.000
832.90	0.000
833.20	-35.000
833.50	21.212
833.80	7.407
834.10	7.692
834.40	-3.125
834.70	-22.222
835.00	-21.053
835.30	42.308
835.60	6.667
835.90	12.903
836.20	22.727
836.50	14.286
836.80	-50.000
837.10	25.000
837.40	-300.000
837.70	18.182
838.00	-54.545
838.30	-8.696
838.60	-38.462
838.90	-22.727
839.19	10.714
839.49	23.333
839.79	-15.385
840.09	-75.000
840.39	14.286
840.69	-28.571
840.99	-53.846
841.29	-31.579
841.59	-130.000
841.88	-90.909
842.18	-50.000
842.48	37.500
842.78	-46.667
843.08	22.222
843.38	-170.000
843.68	0.000
843.97	0.000
844.27	-66.667
844.57	40.000
844.87	16.667
845.17	-14.286
845.47	-66.667
845.76	-19.048
846.06	-41.176
846.36	0.000
846.66	-57.143
846.96	-26.667
847.25	-225.000
847.55	-14.286
847.85	0.000
848.15	-27.273
848.44	-300.000
848.74	25.000
849.04	29.630
849.34	-9.091
849.63	-66.667
849.93	-240.000
850.23	-38.889
850.53	60.000
850.82	-15.385
851.12	-33.333
851.42	66.667
851.71	-30.769
852.01	-21.429
852.31	-125.000
852.61	-18.182
852.90	0.000
853.20	10.526
853.50	16.667
853.79	-17.391
854.09	16.667
854.39	-10.526
854.68	-25.000
854.98	-12.903
855.28	26.923
855.57	-35.000
855.87	22.222
856.17	33.333
856.46	-64.286
856.76	20.000
857.05	55.556
857.35	-8.000
857.65	-38.889
857.94	15.385
858.24	17.241
858.53	5.556
858.83	40.741
859.13	22.727
859.42	39.130
859.72	50.000
860.01	-400.000
860.31	4.000
860.60	-9.524
860.90	-166.667
861.20	-33.333
861.49	-650.000
861.79	-40.000
862.08	45.000
862.38	53.333
862.67	-200.000
862.97	-50.000
863.26	-75.000
863.56	22.222
863.85	-100.000
864.15	5.556
864.44	10.000
864.74	-14.286
865.03	225.000
865.33	-260.000
865.62	83.333
865.92	-25.000
866.21	-16.667
866.51	25.000
866.80	-45.455
867.10	-250.000
867.39	50.000
867.69	0.000
867.98	-69.231
868.27	-166.667
868.57	20.000
868.86	-5.556
869.16	-92.308
869.45	26.667
869.75	-1100.000
870.04	0.000
870.33	-257.143
870.63	9.524
870.92	733.333
871.22	-200.000
871.51	-600.000
871.80	144.444
872.10	300.000
>>>>>End Processed Spectral Data<<<<<
