SpectraSuite Data File
++++++++++++++++++++++++++++++++++++
Date: Fri May 15 20:53:48 PDT 2015
User: schluterlab
Dark Spectrum Present: Yes
Reference Spectrum Present: Yes
Number of Sampled Component Spectra: 1
Spectrometers: USB2E3373
Integration Time (usec): 3000 (USB2E3373)
Spectra Averaged: 3 (USB2E3373)
Boxcar Smoothing: 0 (USB2E3373)
Correct for Electrical Dark: No (USB2E3373)
Strobe/Lamp Enabled: No (USB2E3373)
Correct for Detector Non-linearity: No (USB2E3373)
Correct for Stray Light: No (USB2E3373)
Number of Pixels in Processed Spectrum: 2048
>>>>>Begin Processed Spectral Data<<<<<
178.53	0.000
178.91	0.000
179.29	125.000
179.67	-200.000
180.04	57.143
180.42	-75.000
180.80	-500.000
181.18	-33.333
181.56	750.000
181.94	-450.000
182.31	400.000
182.69	-80.000
183.07	-100.000
183.45	20.000
183.83	-0.000
184.20	63.636
184.58	222.222
184.96	75.000
185.34	200.000
185.72	-100.000
186.09	107.692
186.47	-1100.000
186.85	33.333
187.23	144.444
187.61	700.000
187.98	-233.333
188.36	-22.222
188.74	-333.333
189.12	17.647
189.49	72.222
189.87	0.000
190.25	42.857
190.63	-250.000
191.00	-166.667
191.38	-10.526
191.76	250.000
192.14	-75.000
192.51	150.000
192.89	-88.889
193.27	71.429
193.65	316.667
194.02	154.545
194.40	-20.000
194.78	-75.000
195.15	-58.333
195.53	-25.000
195.91	275.000
196.29	-75.000
196.66	138.462
197.04	42.857
197.42	-77.778
197.79	-400.000
198.17	-46.154
198.55	1500.000
198.92	-233.333
199.30	-800.000
199.68	-60.000
200.05	-533.333
200.43	0.000
200.81	-66.667
201.18	66.667
201.56	1400.000
201.94	300.000
202.31	66.667
202.69	-220.000
203.07	250.000
203.44	200.000
203.82	0.000
204.19	71.429
204.57	-733.333
204.95	50.000
205.32	-30.000
205.70	-42.857
206.08	-50.000
206.45	144.444
206.83	78.571
207.20	57.143
207.58	800.000
207.96	-200.000
208.33	-180.000
208.71	-75.000
209.08	-150.000
209.46	-700.000
209.84	200.000
210.21	-400.000
210.59	-28.571
210.96	-33.333
211.34	-50.000
211.71	60.000
212.09	-157.143
212.46	-1700.000
212.84	0.000
213.22	-20.000
213.59	300.000
213.97	38.462
214.34	63.636
214.72	66.667
215.09	600.000
215.47	7.692
215.84	9.091
216.22	-33.333
216.59	-37.500
216.97	400.000
217.34	150.000
217.72	-160.000
218.09	112.500
218.47	12.500
218.84	-400.000
219.22	-77.778
219.59	20.000
219.97	400.000
220.34	350.000
220.72	-85.714
221.09	-200.000
221.47	100.000
221.84	-900.000
222.22	-750.000
222.59	18.182
222.97	-8.333
223.34	133.333
223.72	-92.857
224.09	-38.095
224.46	-35.714
224.84	733.333
225.21	-50.000
225.59	93.333
225.96	100.000
226.34	175.000
226.71	-14.286
227.08	33.333
227.46	0.000
227.83	-250.000
228.21	0.000
228.58	81.818
228.95	-225.000
229.33	50.000
229.70	0.000
230.08	-125.000
230.45	-85.714
230.82	-42.857
231.20	-26.667
231.57	35.714
231.95	-114.286
232.32	0.000
232.69	100.000
233.07	-33.333
233.44	-160.000
233.81	-130.000
234.19	44.444
234.56	-29.412
234.93	400.000
235.31	200.000
235.68	-100.000
236.05	-84.615
236.43	-90.000
236.80	-5.882
237.17	-6.250
237.55	-50.000
237.92	-25.926
238.29	2.778
238.67	6.667
239.04	-5.882
239.41	-17.073
239.79	-23.333
240.16	4.878
240.53	-23.684
240.91	-2.174
241.28	11.111
241.65	12.500
242.02	1.370
242.40	15.000
242.77	-1.695
243.14	3.030
243.51	0.000
243.89	6.897
244.26	-8.046
244.63	2.381
245.00	-1.031
245.38	9.278
245.75	-2.247
246.12	-5.172
246.49	1.653
246.87	-10.577
247.24	-22.689
247.61	-14.912
247.98	3.252
248.36	1.250
248.73	-5.921
249.10	-7.792
249.47	-2.532
249.84	-3.922
250.22	2.353
250.59	-0.654
250.96	4.695
251.33	-9.302
251.70	-0.588
252.08	2.030
252.45	1.485
252.82	-1.508
253.19	-1.843
253.56	-3.738
253.94	6.306
254.31	2.609
254.68	1.316
255.05	1.575
255.42	1.747
255.79	1.544
256.16	-0.778
256.54	3.731
256.91	-4.943
257.28	-1.115
257.65	-1.498
258.02	-0.709
258.39	3.367
258.76	1.832
259.14	3.322
259.51	0.324
259.88	0.344
260.25	0.327
260.62	1.042
260.99	-0.678
261.36	0.000
261.73	0.949
262.10	1.824
262.47	1.534
262.85	0.000
263.22	-2.154
263.59	1.869
263.96	2.174
264.33	-2.424
264.70	-1.190
265.07	0.298
265.44	1.416
265.81	-1.412
266.18	0.273
266.55	0.771
266.92	-1.036
267.29	0.522
267.66	0.256
268.03	2.094
268.40	-2.872
268.77	2.139
269.14	1.439
269.51	1.285
269.88	-1.496
270.25	-1.786
270.62	0.244
270.99	0.512
271.36	-0.733
271.73	1.408
272.10	1.217
272.47	0.946
272.84	-0.743
273.21	0.464
273.58	1.205
273.95	1.602
274.32	-1.848
274.69	0.679
275.06	1.116
275.43	0.227
275.80	-0.662
276.17	-1.839
276.54	2.355
276.91	1.535
277.28	-0.437
277.65	0.826
278.02	2.128
278.39	0.000
278.76	1.468
279.13	-2.282
279.50	1.681
279.87	0.864
280.23	-2.151
280.60	4.483
280.97	1.212
281.34	-0.577
281.71	3.491
282.08	0.000
282.45	-0.391
282.82	-0.193
283.19	1.934
283.56	-0.193
283.92	-1.328
284.29	0.000
284.66	-0.388
285.03	0.786
285.40	-1.134
285.77	0.527
286.14	1.625
286.51	0.369
286.87	-1.463
287.24	0.552
287.61	0.529
287.98	2.632
288.35	1.386
288.72	1.401
289.08	-0.174
289.45	2.988
289.82	0.874
290.19	0.683
290.56	0.343
290.93	-0.337
291.29	0.308
291.66	2.992
292.03	-1.116
292.40	2.258
292.77	0.000
293.13	-0.487
293.50	0.759
293.87	1.069
294.24	-0.773
294.60	0.745
294.97	1.339
295.34	-0.767
295.71	0.596
296.08	-0.149
296.44	0.569
296.81	0.972
297.18	0.580
297.55	2.439
297.91	1.233
298.28	1.451
298.65	0.814
299.02	0.270
299.38	-0.684
299.75	2.345
300.12	0.393
300.48	-0.132
300.85	2.281
301.22	1.039
301.59	1.053
301.95	1.772
302.32	1.946
302.69	0.622
303.05	1.361
303.42	1.370
303.79	1.869
304.15	2.389
304.52	1.070
304.89	0.117
305.25	0.484
305.62	-0.117
305.99	1.637
306.35	0.231
306.72	0.337
307.09	1.254
307.45	2.296
307.82	1.273
308.19	1.626
308.55	0.763
308.92	1.961
309.29	0.894
309.65	1.399
310.02	1.320
310.38	2.195
310.75	2.623
311.12	2.476
311.48	1.909
311.85	3.246
312.22	1.793
312.58	2.442
312.95	2.241
313.31	1.863
313.68	2.408
314.05	2.959
314.41	3.299
314.78	2.990
315.14	5.755
315.51	4.451
315.87	3.586
316.24	5.966
316.61	5.512
316.97	6.052
317.34	6.348
317.70	6.405
318.07	6.346
318.43	8.333
318.80	7.292
319.16	8.496
319.53	8.927
319.89	8.563
320.26	9.615
320.62	10.732
320.99	11.065
321.35	12.127
321.72	12.669
322.08	13.092
322.45	14.010
322.81	13.752
323.18	14.917
323.54	15.541
323.91	15.774
324.27	17.188
324.64	18.914
325.00	20.438
325.37	21.671
325.73	22.031
326.10	21.889
326.46	23.049
326.83	24.059
327.19	25.806
327.56	26.846
327.92	28.257
328.29	27.946
328.65	30.377
329.01	30.423
329.38	30.415
329.74	31.634
330.11	32.067
330.47	32.931
330.84	33.269
331.20	36.502
331.56	33.426
331.93	35.890
332.29	36.939
332.66	36.652
333.02	36.524
333.38	37.489
333.75	39.377
334.11	38.317
334.48	39.529
334.84	40.018
335.20	39.799
335.57	40.526
335.93	40.650
336.29	40.055
336.66	41.508
337.02	40.242
337.38	40.463
337.75	41.455
338.11	42.561
338.47	42.153
338.84	42.421
339.20	41.133
339.56	43.303
339.93	42.077
340.29	43.119
340.65	43.280
341.02	41.933
341.38	42.566
341.74	41.873
342.11	40.815
342.47	43.416
342.83	43.772
343.20	41.376
343.56	44.174
343.92	43.667
344.28	42.869
344.65	43.696
345.01	42.697
345.37	42.389
345.73	44.603
346.10	44.521
346.46	43.146
346.82	44.272
347.19	43.142
347.55	43.860
347.91	44.175
348.27	43.492
348.63	44.974
349.00	44.053
349.36	43.807
349.72	45.357
350.08	44.180
350.45	44.214
350.81	44.767
351.17	43.322
351.53	44.490
351.89	43.931
352.26	44.880
352.62	46.774
352.98	44.418
353.34	43.478
353.70	45.874
354.07	45.323
354.43	45.396
354.79	45.665
355.15	45.873
355.51	47.152
355.87	45.307
356.24	46.003
356.60	45.028
356.96	45.238
357.32	46.805
357.68	46.208
358.04	46.204
358.40	45.579
358.77	46.890
359.13	47.158
359.49	44.761
359.85	46.022
360.21	47.608
360.57	45.448
360.93	47.277
361.29	46.375
361.66	46.395
362.02	47.121
362.38	47.601
362.74	46.783
363.10	49.059
363.46	49.073
363.82	49.437
364.18	46.421
364.54	47.132
364.90	47.670
365.26	48.326
365.62	48.832
365.98	48.240
366.35	49.745
366.71	48.707
367.07	48.694
367.43	48.670
367.79	47.703
368.15	48.887
368.51	50.182
368.87	49.677
369.23	47.942
369.59	48.980
369.95	49.707
370.31	50.506
370.67	49.776
371.03	48.992
371.39	50.182
371.75	49.963
372.11	49.786
372.47	50.962
372.83	50.532
373.19	50.143
373.55	50.181
373.91	49.820
374.27	50.602
374.63	51.543
374.99	51.277
375.35	50.418
375.71	51.119
376.07	51.896
376.42	51.497
376.78	51.342
377.14	53.081
377.50	52.855
377.86	52.477
378.22	51.691
378.58	53.141
378.94	51.040
379.30	50.530
379.66	51.912
380.02	50.705
380.38	52.039
380.74	52.783
381.09	52.515
381.45	52.477
381.81	52.252
382.17	52.602
382.53	51.718
382.89	54.175
383.25	54.512
383.61	54.085
383.97	52.635
384.32	53.471
384.68	53.622
385.04	53.064
385.40	52.956
385.76	54.465
386.12	54.916
386.48	55.747
386.83	54.534
387.19	53.907
387.55	55.332
387.91	55.379
388.27	54.090
388.62	55.884
388.98	54.082
389.34	55.965
389.70	55.625
390.06	54.374
390.42	54.598
390.77	54.545
391.13	54.918
391.49	55.110
391.85	55.880
392.20	54.739
392.56	55.308
392.92	55.608
393.28	54.127
393.64	54.655
393.99	57.680
394.35	56.104
394.71	56.258
395.07	53.991
395.42	54.402
395.78	57.394
396.14	55.801
396.50	56.753
396.85	56.536
397.21	56.704
397.57	55.799
397.92	54.464
398.28	56.207
398.64	54.157
399.00	55.587
399.35	53.781
399.71	54.968
400.07	56.469
400.42	54.590
400.78	55.358
401.14	55.717
401.49	55.747
401.85	55.271
402.21	55.964
402.57	55.125
402.92	54.705
403.28	56.830
403.63	56.620
403.99	55.357
404.35	56.152
404.70	54.524
405.06	55.699
405.42	53.822
405.77	55.491
406.13	55.879
406.49	54.707
406.84	54.829
407.20	54.666
407.55	54.668
407.91	55.281
408.27	53.856
408.62	53.785
408.98	54.221
409.34	54.027
409.69	54.716
410.05	53.510
410.40	53.272
410.76	53.378
411.11	55.062
411.47	54.569
411.83	53.547
412.18	55.019
412.54	52.684
412.89	53.140
413.25	54.633
413.60	54.658
413.96	52.822
414.31	52.927
414.67	53.047
415.03	53.662
415.38	54.112
415.74	54.853
416.09	54.213
416.45	53.815
416.80	53.866
417.16	55.525
417.51	54.164
417.87	53.716
418.22	54.793
418.58	55.920
418.93	55.110
419.29	53.841
419.64	53.856
420.00	55.290
420.35	53.134
420.71	54.617
421.06	54.205
421.42	53.425
421.77	54.798
422.12	53.008
422.48	53.817
422.83	53.886
423.19	53.273
423.54	54.027
423.90	53.592
424.25	53.904
424.61	55.814
424.96	53.891
425.31	55.228
425.67	54.636
426.02	55.889
426.38	55.729
426.73	54.964
427.09	56.519
427.44	55.471
427.79	55.510
428.15	55.279
428.50	55.784
428.85	55.283
429.21	55.405
429.56	56.496
429.92	54.545
430.27	54.185
430.62	54.783
430.98	54.246
431.33	55.310
431.68	54.055
432.04	54.891
432.39	55.961
432.74	54.480
433.10	56.897
433.45	55.795
433.80	56.529
434.16	56.066
434.51	55.699
434.86	57.375
435.22	56.702
435.57	58.079
435.92	58.563
436.28	57.066
436.63	57.330
436.98	57.590
437.34	57.653
437.69	58.438
438.04	58.519
438.39	58.155
438.75	60.291
439.10	59.819
439.45	59.769
439.81	60.367
440.16	61.995
440.51	61.731
440.86	62.296
441.22	59.842
441.57	61.921
441.92	63.169
442.27	63.304
442.63	62.741
442.98	62.321
443.33	62.994
443.68	63.342
444.03	64.630
444.39	64.584
444.74	65.440
445.09	64.866
445.44	65.527
445.79	66.426
446.15	64.923
446.50	66.167
446.85	66.631
447.20	67.362
447.55	67.913
447.91	68.246
448.26	69.095
448.61	68.336
448.96	69.478
449.31	69.538
449.66	69.454
450.02	70.051
450.37	70.658
450.72	69.530
451.07	70.886
451.42	70.412
451.77	69.982
452.12	70.275
452.47	70.509
452.83	71.437
453.18	70.588
453.53	72.314
453.88	72.374
454.23	71.604
454.58	73.048
454.93	71.972
455.28	71.111
455.63	72.722
455.98	71.858
456.34	73.244
456.69	72.745
457.04	73.283
457.39	72.722
457.74	73.337
458.09	71.925
458.44	73.142
458.79	71.877
459.14	73.741
459.49	73.552
459.84	72.702
460.19	73.180
460.54	73.472
460.89	74.261
461.24	73.602
461.59	73.278
461.94	73.333
462.29	74.125
462.64	73.754
462.99	73.866
463.34	73.505
463.69	73.230
464.04	73.426
464.39	74.287
464.74	72.945
465.09	75.795
465.44	74.668
465.79	72.166
466.14	74.401
466.49	74.008
466.84	74.004
467.19	74.155
467.54	73.436
467.89	73.342
468.24	74.027
468.59	75.238
468.94	73.206
469.29	74.098
469.64	74.710
469.99	76.734
470.34	74.198
470.68	76.137
471.03	74.735
471.38	76.462
471.73	76.190
472.08	75.237
472.43	75.034
472.78	72.790
473.13	75.170
473.48	74.593
473.83	73.848
474.17	75.453
474.52	74.601
474.87	74.242
475.22	74.680
475.57	74.308
475.92	74.163
476.27	75.320
476.61	74.884
476.96	74.010
477.31	74.310
477.66	73.483
478.01	74.228
478.36	74.401
478.70	75.856
479.05	76.099
479.40	73.185
479.75	73.410
480.10	72.299
480.45	74.900
480.79	75.076
481.14	74.641
481.49	73.793
481.84	75.965
482.19	73.854
482.53	74.868
482.88	73.126
483.23	73.944
483.58	73.868
483.92	73.814
484.27	72.425
484.62	73.823
484.97	72.720
485.31	72.001
485.66	69.425
486.01	69.731
486.36	69.354
486.70	70.360
487.05	70.829
487.40	70.734
487.75	71.408
488.09	71.106
488.44	70.839
488.79	72.469
489.13	73.357
489.48	72.339
489.83	72.466
490.17	73.258
490.52	72.979
490.87	72.050
491.22	74.499
491.56	73.387
491.91	73.566
492.26	73.845
492.60	72.841
492.95	75.012
493.30	73.425
493.64	73.379
493.99	73.575
494.34	73.301
494.68	72.667
495.03	73.139
495.37	73.454
495.72	74.962
496.07	73.415
496.41	72.406
496.76	73.975
497.11	71.635
497.45	72.601
497.80	75.126
498.14	72.479
498.49	73.083
498.84	73.154
499.18	75.100
499.53	73.611
499.87	72.325
500.22	73.343
500.56	73.222
500.91	72.892
501.26	72.813
501.60	72.750
501.95	72.344
502.29	72.688
502.64	73.504
502.98	73.508
503.33	71.422
503.67	71.422
504.02	73.069
504.36	72.736
504.71	71.616
505.06	71.616
505.40	71.878
505.75	73.557
506.09	72.428
506.44	73.152
506.78	73.265
507.13	72.906
507.47	72.219
507.82	72.703
508.16	73.270
508.51	71.616
508.85	73.103
509.19	73.177
509.54	72.601
509.88	72.438
510.23	73.158
510.57	72.956
510.92	71.269
511.26	73.432
511.61	72.607
511.95	72.712
512.30	72.062
512.64	73.066
512.98	71.701
513.33	72.692
513.67	72.257
514.02	73.398
514.36	73.771
514.70	74.942
515.05	75.088
515.39	73.140
515.74	75.509
516.08	73.162
516.42	74.087
516.77	73.727
517.11	73.116
517.46	73.908
517.80	73.719
518.14	74.342
518.49	71.274
518.83	73.815
519.17	72.711
519.52	72.647
519.86	72.149
520.20	72.236
520.55	73.046
520.89	74.279
521.23	73.718
521.58	72.114
521.92	73.013
522.26	74.821
522.61	74.351
522.95	75.298
523.29	72.872
523.64	74.460
523.98	75.891
524.32	72.745
524.66	73.816
525.01	74.545
525.35	73.882
525.69	74.411
526.04	73.148
526.38	74.319
526.72	70.438
527.06	72.438
527.41	72.889
527.75	72.721
528.09	72.890
528.43	74.679
528.78	73.069
529.12	72.645
529.46	72.190
529.80	70.931
530.15	73.069
530.49	73.064
530.83	74.282
531.17	71.189
531.51	73.529
531.86	71.992
532.20	72.373
532.54	72.634
532.88	71.869
533.22	71.640
533.57	71.101
533.91	70.822
534.25	72.786
534.59	71.905
534.93	69.918
535.27	69.797
535.62	70.577
535.96	71.559
536.30	70.580
536.64	72.846
536.98	71.707
537.32	71.764
537.66	71.669
538.01	72.168
538.35	70.874
538.69	69.707
539.03	70.062
539.37	69.650
539.71	69.189
540.05	68.975
540.39	71.468
540.73	69.805
541.07	70.718
541.42	69.556
541.76	71.645
542.10	70.337
542.44	69.562
542.78	68.479
543.12	69.299
543.46	69.193
543.80	68.980
544.14	68.024
544.48	68.488
544.82	68.763
545.16	71.038
545.50	67.757
545.84	70.184
546.18	70.071
546.52	69.863
546.86	69.590
547.20	69.385
547.54	67.703
547.88	68.750
548.22	66.601
548.56	67.546
548.90	68.059
549.24	67.080
549.58	68.336
549.92	67.763
550.26	68.645
550.60	67.138
550.94	69.231
551.28	68.238
551.62	69.923
551.96	67.594
552.30	67.982
552.64	67.137
552.98	67.300
553.32	67.261
553.66	67.344
554.00	68.613
554.34	68.390
554.68	67.920
555.02	67.262
555.36	68.437
555.69	68.205
556.03	67.024
556.37	65.409
556.71	67.870
557.05	67.636
557.39	65.799
557.73	65.967
558.07	67.798
558.41	67.228
558.75	69.369
559.08	67.533
559.42	70.000
559.76	69.015
560.10	68.731
560.44	67.089
560.78	67.413
561.12	66.502
561.45	68.517
561.79	67.017
562.13	66.288
562.47	66.259
562.81	67.147
563.15	65.656
563.48	67.327
563.82	67.879
564.16	66.713
564.50	66.419
564.84	65.663
565.17	66.264
565.51	67.623
565.85	66.461
566.19	65.451
566.52	65.885
566.86	65.488
567.20	64.695
567.54	65.815
567.88	64.616
568.21	64.197
568.55	65.217
568.89	62.526
569.23	62.638
569.56	62.522
569.90	62.241
570.24	60.588
570.57	61.091
570.91	61.067
571.25	60.441
571.59	58.549
571.92	57.630
572.26	59.541
572.60	57.953
572.93	58.801
573.27	58.934
573.61	59.189
573.95	58.793
574.28	57.521
574.62	57.234
574.96	56.520
575.29	57.370
575.63	56.647
575.97	55.896
576.30	57.183
576.64	57.166
576.98	58.069
577.31	56.943
577.65	57.202
577.98	56.910
578.32	56.267
578.66	55.233
578.99	56.434
579.33	56.658
579.67	55.917
580.00	56.532
580.34	57.264
580.67	56.652
581.01	56.796
581.35	56.115
581.68	56.209
582.02	55.551
582.35	55.339
582.69	56.116
583.02	55.821
583.36	57.038
583.70	57.399
584.03	58.076
584.37	58.272
584.70	56.703
585.04	56.036
585.37	55.676
585.71	56.875
586.04	55.018
586.38	56.282
586.72	56.786
587.05	57.163
587.39	56.807
587.72	58.010
588.06	56.601
588.39	56.508
588.73	56.166
589.06	57.404
589.40	58.244
589.73	59.146
590.07	57.855
590.40	58.553
590.73	59.926
591.07	57.718
591.40	59.484
591.74	58.778
592.07	60.019
592.41	59.408
592.74	57.587
593.08	56.863
593.41	57.232
593.75	56.853
594.08	56.986
594.41	56.441
594.75	57.939
595.08	58.305
595.42	57.048
595.75	57.529
596.09	58.249
596.42	58.413
596.75	58.881
597.09	57.358
597.42	58.085
597.75	59.276
598.09	56.949
598.42	56.724
598.76	56.585
599.09	56.851
599.42	55.892
599.76	56.020
600.09	56.787
600.42	55.724
600.76	55.089
601.09	56.489
601.42	57.070
601.76	57.364
602.09	57.921
602.42	58.088
602.76	57.598
603.09	57.849
603.42	59.615
603.76	56.976
604.09	57.027
604.42	56.768
604.76	58.300
605.09	57.358
605.42	56.614
605.75	57.487
606.09	56.348
606.42	56.422
606.75	56.104
607.09	56.264
607.42	55.516
607.75	56.261
608.08	55.615
608.42	55.413
608.75	57.639
609.08	57.947
609.41	58.325
609.75	57.208
610.08	57.963
610.41	56.812
610.74	57.045
611.07	58.811
611.41	58.225
611.74	59.115
612.07	57.066
612.40	57.823
612.73	59.266
613.07	58.211
613.40	57.166
613.73	58.366
614.06	58.264
614.39	58.940
614.72	56.919
615.06	57.095
615.39	56.386
615.72	57.696
616.05	57.654
616.38	55.954
616.71	57.982
617.05	59.914
617.38	58.705
617.71	58.616
618.04	59.619
618.37	59.647
618.70	60.528
619.03	61.111
619.36	59.551
619.69	60.121
620.03	59.679
620.36	60.300
620.69	60.457
621.02	60.703
621.35	59.336
621.68	63.010
622.01	62.750
622.34	61.532
622.67	60.962
623.00	58.806
623.33	60.671
623.66	58.489
623.99	59.834
624.32	60.913
624.65	60.451
624.99	59.293
625.32	58.529
625.65	61.115
625.98	62.611
626.31	59.850
626.64	62.565
626.97	63.002
627.30	64.448
627.63	61.265
627.96	62.534
628.29	62.720
628.62	63.127
628.95	64.729
629.28	63.911
629.61	64.008
629.94	62.854
630.26	61.265
630.59	66.181
630.92	64.308
631.25	60.308
631.58	63.436
631.91	62.719
632.24	64.106
632.57	65.909
632.90	64.769
633.23	63.059
633.56	65.365
633.89	66.831
634.22	66.049
634.55	66.963
634.88	65.390
635.20	65.641
635.53	67.333
635.86	64.759
636.19	65.459
636.52	64.158
636.85	64.764
637.18	65.283
637.51	64.277
637.83	64.783
638.16	65.348
638.49	65.259
638.82	66.184
639.15	62.280
639.48	65.199
639.81	66.109
640.13	65.657
640.46	66.618
640.79	66.127
641.12	66.617
641.45	66.366
641.77	63.852
642.10	66.983
642.43	65.113
642.76	68.812
643.09	65.913
643.41	66.181
643.74	65.733
644.07	66.010
644.40	70.101
644.73	67.250
645.05	68.121
645.38	65.785
645.71	68.794
646.04	69.479
646.36	68.440
646.69	68.885
647.02	71.645
647.35	68.097
647.67	67.642
648.00	70.149
648.33	62.969
648.66	65.932
648.98	63.987
649.31	63.967
649.64	64.207
649.96	60.778
650.29	66.610
650.62	67.350
650.94	67.593
651.27	70.764
651.60	65.766
651.92	64.336
652.25	65.364
652.58	63.167
652.90	68.782
653.23	64.706
653.56	64.975
653.88	62.199
654.21	63.573
654.54	61.460
654.86	64.516
655.19	60.526
655.52	56.502
655.84	47.421
656.17	51.205
656.49	69.014
656.82	71.133
657.15	54.886
657.47	41.504
657.80	31.195
658.13	30.925
658.45	47.921
658.78	47.445
659.10	47.755
659.43	48.680
659.75	50.518
660.08	51.655
660.41	55.567
660.73	58.425
661.06	59.445
661.38	63.014
661.71	64.682
662.03	68.240
662.36	65.055
662.68	66.593
663.01	65.502
663.33	68.677
663.66	65.116
663.98	63.023
664.31	65.458
664.63	65.668
664.96	60.870
665.28	61.589
665.61	65.584
665.93	65.000
666.26	61.388
666.58	66.219
666.91	65.882
667.23	66.981
667.56	65.403
667.88	67.866
668.21	67.780
668.53	66.430
668.86	64.623
669.18	63.915
669.50	64.407
669.83	63.953
670.15	68.065
670.48	65.311
670.80	61.521
671.13	63.087
671.45	60.959
671.77	64.378
672.10	58.812
672.42	60.112
672.75	58.792
673.07	61.360
673.39	58.899
673.72	57.791
674.04	60.833
674.37	60.169
674.69	61.670
675.01	64.667
675.34	61.712
675.66	63.889
675.98	63.415
676.31	62.385
676.63	59.620
676.95	62.045
677.28	64.235
677.60	60.964
677.92	62.156
678.25	59.081
678.57	59.740
678.89	58.613
679.22	62.192
679.54	57.028
679.86	55.666
680.18	59.223
680.51	58.144
680.83	57.654
681.15	61.200
681.48	61.475
681.80	63.017
682.12	59.879
682.44	58.159
682.77	61.148
683.09	62.700
683.41	57.273
683.73	58.295
684.06	59.735
684.38	56.344
684.70	58.824
685.02	56.017
685.34	56.719
685.67	53.471
685.99	54.430
686.31	53.982
686.63	54.917
686.96	53.612
687.28	55.152
687.60	56.084
687.92	56.566
688.24	58.669
688.56	56.769
688.89	57.143
689.21	56.222
689.53	57.077
689.85	55.814
690.17	58.036
690.49	58.629
690.82	56.796
691.14	56.667
691.46	55.140
691.78	56.532
692.10	54.839
692.42	57.792
692.74	57.051
693.06	58.333
693.39	54.751
693.71	53.846
694.03	54.965
694.35	55.374
694.67	58.838
694.99	55.352
695.31	58.486
695.63	57.000
695.95	55.556
696.27	56.995
696.59	55.000
696.91	59.384
697.23	57.069
697.56	56.683
697.88	53.763
698.20	56.492
698.52	56.235
698.84	51.196
699.16	53.750
699.48	56.642
699.80	52.605
700.12	55.526
700.44	59.944
700.76	52.035
701.08	56.364
701.40	56.325
701.72	61.420
702.04	59.076
702.36	62.207
702.68	54.955
703.00	55.758
703.32	56.598
703.64	52.825
703.96	56.522
704.28	55.828
704.60	54.286
704.91	57.413
705.23	55.482
705.55	64.664
705.87	59.928
706.19	58.889
706.51	56.701
706.83	63.344
707.15	47.352
707.47	53.221
707.79	48.177
708.11	54.250
708.43	48.250
708.74	53.230
709.06	54.930
709.38	56.575
709.70	55.917
710.02	56.051
710.34	57.276
710.66	51.923
710.98	60.265
711.29	51.148
711.61	50.508
711.93	53.746
712.25	60.825
712.57	56.044
712.89	59.701
713.20	55.017
713.52	55.052
713.84	52.901
714.16	58.076
714.48	50.323
714.80	53.205
715.11	54.711
715.43	49.216
715.75	50.000
716.07	55.150
716.39	50.336
716.70	50.923
717.02	51.527
717.34	56.275
717.66	53.540
717.97	53.478
718.29	60.251
718.61	53.937
718.93	51.938
719.24	55.894
719.56	53.815
719.88	47.766
720.20	50.000
720.51	49.808
720.83	51.351
721.15	52.941
721.46	53.226
721.78	51.383
722.10	48.699
722.42	49.378
722.73	50.612
723.05	54.694
723.37	57.627
723.68	51.351
724.00	51.282
724.32	48.889
724.63	51.364
724.95	58.952
725.27	55.300
725.58	52.119
725.90	51.587
726.22	53.282
726.53	50.169
726.85	49.813
727.16	50.189
727.48	42.510
727.80	55.466
728.11	50.424
728.43	50.980
728.74	48.387
729.06	52.000
729.38	54.135
729.69	52.191
730.01	47.692
730.32	48.881
730.64	48.763
730.96	51.321
731.27	49.333
731.59	48.475
731.90	46.178
732.22	47.634
732.53	46.844
732.85	51.418
733.16	52.189
733.48	44.604
733.80	43.116
734.11	46.780
734.43	47.079
734.74	44.545
735.06	40.391
735.37	48.338
735.69	45.791
736.00	44.599
736.32	48.993
736.63	46.831
736.95	47.099
737.26	45.552
737.58	43.289
737.89	45.788
738.21	47.368
738.52	48.971
738.83	47.162
739.15	48.908
739.46	50.787
739.78	43.223
740.09	44.118
740.41	48.913
740.72	42.520
741.04	47.368
741.35	45.106
741.66	47.867
741.98	56.633
742.29	50.000
742.61	52.356
742.92	48.341
743.23	42.593
743.55	49.321
743.86	44.976
744.18	43.062
744.49	47.872
744.80	47.283
745.12	55.080
745.43	49.756
745.74	51.042
746.06	44.878
746.37	50.785
746.68	48.815
747.00	47.340
747.31	47.264
747.62	50.485
747.94	44.019
748.25	52.475
748.56	50.820
748.88	49.215
749.19	51.596
749.50	50.739
749.82	42.453
750.13	46.789
750.44	46.617
750.75	46.642
751.07	47.810
751.38	42.529
751.69	42.353
752.01	45.736
752.32	44.622
752.63	44.269
752.94	43.103
753.26	50.209
753.57	46.606
753.88	46.460
754.19	45.417
754.51	41.322
754.82	45.749
755.13	49.583
755.44	45.565
755.75	42.969
756.07	47.471
756.38	39.623
756.69	42.912
757.00	40.667
757.31	42.810
757.63	40.549
757.94	36.944
758.25	38.356
758.56	40.160
758.87	37.394
759.18	39.564
759.50	43.636
759.81	43.478
760.12	42.258
760.43	37.879
760.74	45.679
761.05	40.308
761.36	39.489
761.67	45.152
761.99	44.898
762.30	39.636
762.61	44.269
762.92	45.249
763.23	45.495
763.54	39.720
763.85	45.763
764.16	41.909
764.47	38.710
764.78	39.927
765.10	40.741
765.41	38.170
765.72	37.460
766.03	38.346
766.34	41.241
766.65	43.426
766.96	47.980
767.27	46.809
767.58	44.828
767.89	35.461
768.20	36.932
768.51	43.407
768.82	43.350
769.13	39.631
769.44	36.481
769.75	33.790
770.06	37.500
770.37	35.577
770.68	41.117
770.99	34.389
771.30	41.667
771.61	33.032
771.92	39.655
772.23	39.901
772.54	46.237
772.85	39.506
773.16	41.573
773.47	54.902
773.78	47.712
774.09	39.521
774.39	42.000
774.70	41.401
775.01	43.448
775.32	49.286
775.63	42.975
775.94	44.275
776.25	49.606
776.56	42.500
776.87	41.346
777.18	37.607
777.48	43.103
777.79	42.609
778.10	23.810
778.41	46.847
778.72	42.063
779.03	40.602
779.34	46.809
779.65	45.205
779.95	36.301
780.26	40.690
780.57	36.585
780.88	31.496
781.19	39.655
781.50	39.535
781.80	35.503
782.11	27.044
782.42	37.692
782.73	38.129
783.04	38.519
783.34	37.500
783.65	26.496
783.96	33.607
784.27	33.103
784.57	38.211
784.88	39.844
785.19	48.000
785.50	41.000
785.81	43.966
786.11	37.931
786.42	34.951
786.73	38.182
787.04	40.816
787.34	34.821
787.65	41.905
787.96	35.398
788.26	29.091
788.57	43.590
788.88	39.062
789.19	29.365
789.49	36.522
789.80	37.755
790.11	38.384
790.41	24.545
790.72	45.652
791.03	30.682
791.33	38.750
791.64	40.000
791.95	33.721
792.25	27.660
792.56	42.697
792.87	39.726
793.17	44.928
793.48	18.667
793.79	53.750
794.09	41.250
794.40	44.340
794.70	32.039
795.01	26.829
795.32	35.897
795.62	36.190
795.93	44.118
796.23	35.849
796.54	28.125
796.85	41.176
797.15	39.437
797.46	45.833
797.76	51.515
798.07	38.372
798.37	27.632
798.68	43.939
798.99	38.272
799.29	34.286
799.60	30.435
799.90	49.333
800.21	47.541
800.51	35.385
800.82	44.068
801.12	47.826
801.43	24.590
801.73	41.270
802.04	48.000
802.34	49.254
802.65	53.846
802.95	26.786
803.26	13.462
803.56	21.569
803.87	28.261
804.17	14.667
804.48	46.032
804.78	29.630
805.09	26.087
805.39	33.333
805.70	35.185
806.00	3.509
806.30	29.577
806.61	34.286
806.91	26.389
807.22	48.684
807.52	44.000
807.83	23.636
808.13	29.167
808.43	23.529
808.74	44.776
809.04	22.034
809.35	19.231
809.65	29.688
809.95	-21.622
810.26	22.727
810.56	23.288
810.86	42.857
811.17	18.000
811.47	36.735
811.77	44.737
812.08	31.818
812.38	43.396
812.69	40.000
812.99	21.212
813.29	39.474
813.59	5.714
813.90	56.818
814.20	7.692
814.50	36.538
814.81	26.415
815.11	25.532
815.41	50.847
815.72	9.524
816.02	25.490
816.32	-4.167
816.62	26.829
816.93	21.622
817.23	48.571
817.53	29.167
817.84	21.739
818.14	15.385
818.44	42.105
818.74	41.304
819.04	-2.500
819.35	54.054
819.65	38.235
819.95	33.333
820.25	16.667
820.56	65.000
820.86	-20.690
821.16	67.500
821.46	42.553
821.76	40.000
822.07	44.186
822.37	-8.108
822.67	15.625
822.97	26.190
823.27	10.714
823.57	-4.000
823.88	-33.333
824.18	17.857
824.48	26.471
824.78	16.129
825.08	21.739
825.38	21.212
825.69	-12.500
825.99	10.526
826.29	30.556
826.59	26.667
826.89	-28.571
827.19	50.000
827.49	17.500
827.79	37.143
828.09	42.857
828.39	36.364
828.70	59.459
829.00	14.286
829.30	-28.571
829.60	36.667
829.90	9.375
830.20	0.000
830.50	3.704
830.80	26.087
831.10	18.182
831.40	24.242
831.70	35.484
832.00	28.571
832.30	28.571
832.60	-50.000
832.90	27.586
833.20	-25.000
833.50	72.727
833.80	7.407
834.10	19.231
834.40	37.500
834.70	-66.667
835.00	-26.316
835.30	42.308
835.60	73.333
835.90	38.710
836.20	68.182
836.50	39.286
836.80	19.231
837.10	32.143
837.40	-233.333
837.70	-18.182
838.00	63.636
838.30	34.783
838.60	7.692
838.90	27.273
839.19	7.143
839.49	63.333
839.79	61.538
840.09	-50.000
840.39	57.143
840.69	17.857
840.99	7.692
841.29	-10.526
841.59	-20.000
841.88	27.273
842.18	-50.000
842.48	18.750
842.78	-13.333
843.08	51.852
843.38	-50.000
843.68	34.783
843.97	-60.000
844.27	-33.333
844.57	15.000
844.87	-16.667
845.17	19.048
845.47	40.000
845.76	-14.286
846.06	29.412
846.36	-10.000
846.66	28.571
846.96	13.333
847.25	-100.000
847.55	21.429
847.85	-87.500
848.15	4.545
848.44	-466.667
848.74	30.000
849.04	62.963
849.34	-36.364
849.63	-33.333
849.93	-120.000
850.23	0.000
850.53	60.000
850.82	-7.692
851.12	33.333
851.42	33.333
851.71	19.231
852.01	14.286
852.31	75.000
852.61	27.273
852.90	-15.000
853.20	-15.789
853.50	41.667
853.79	47.826
854.09	54.167
854.39	31.579
854.68	16.667
854.98	16.129
855.28	61.538
855.57	35.000
855.87	50.000
856.17	37.037
856.46	57.143
856.76	-26.667
857.05	44.444
857.35	12.000
857.65	11.111
857.94	15.385
858.24	68.966
858.53	27.778
858.83	25.926
859.13	13.636
859.42	-34.783
859.72	-50.000
860.01	-566.667
860.31	0.000
860.60	-14.286
860.90	133.333
861.20	-20.000
861.49	-300.000
861.79	-13.333
862.08	5.000
862.38	80.000
862.67	0.000
862.97	116.667
863.26	-41.667
863.56	27.778
863.85	-533.333
864.15	22.222
864.44	-50.000
864.74	0.000
865.03	-125.000
865.33	-100.000
865.62	150.000
865.92	-25.000
866.21	-100.000
866.51	25.000
866.80	9.091
867.10	-150.000
867.39	-25.000
867.69	0.000
867.98	46.154
868.27	0.000
868.57	-40.000
868.86	-27.778
869.16	-7.692
869.45	46.667
869.75	-1500.000
870.04	0.000
870.33	-28.571
870.63	4.762
870.92	300.000
871.22	-400.000
871.51	500.000
871.80	66.667
872.10	566.667
>>>>>End Processed Spectral Data<<<<<
