SpectraSuite Data File
++++++++++++++++++++++++++++++++++++
Date: Fri May 15 21:09:37 PDT 2015
User: schluterlab
Dark Spectrum Present: Yes
Reference Spectrum Present: Yes
Number of Sampled Component Spectra: 1
Spectrometers: USB2E3373
Integration Time (usec): 3000 (USB2E3373)
Spectra Averaged: 3 (USB2E3373)
Boxcar Smoothing: 0 (USB2E3373)
Correct for Electrical Dark: No (USB2E3373)
Strobe/Lamp Enabled: No (USB2E3373)
Correct for Detector Non-linearity: No (USB2E3373)
Correct for Stray Light: No (USB2E3373)
Number of Pixels in Processed Spectrum: 2048
>>>>>Begin Processed Spectral Data<<<<<
178.53	0.000
178.91	0.000
179.29	25.000
179.67	-250.000
180.04	42.857
180.42	175.000
180.80	-100.000
181.18	66.667
181.56	500.000
181.94	-50.000
182.31	200.000
182.69	-60.000
183.07	66.667
183.45	-160.000
183.83	83.333
184.20	-54.545
184.58	111.111
184.96	-0.000
185.34	300.000
185.72	-400.000
186.09	100.000
186.47	-500.000
186.85	66.667
187.23	244.444
187.61	-900.000
187.98	-166.667
188.36	-44.444
188.74	-66.667
189.12	5.882
189.49	11.111
189.87	0.000
190.25	14.286
190.63	100.000
191.00	-466.667
191.38	31.579
191.76	350.000
192.14	25.000
192.51	-250.000
192.89	-88.889
193.27	-28.571
193.65	250.000
194.02	181.818
194.40	-70.000
194.78	-112.500
195.15	-25.000
195.53	-200.000
195.91	175.000
196.29	-275.000
196.66	7.692
197.04	157.143
197.42	44.444
197.79	-500.000
198.17	-115.385
198.55	300.000
198.92	-66.667
199.30	-700.000
199.68	-260.000
200.05	-500.000
200.43	0.000
200.81	-300.000
201.18	-33.333
201.56	1800.000
201.94	-250.000
202.31	-200.000
202.69	-120.000
203.07	325.000
203.44	-200.000
203.82	0.000
204.19	-14.286
204.57	-166.667
204.95	25.000
205.32	20.000
205.70	-42.857
206.08	125.000
206.45	144.444
206.83	42.857
207.20	85.714
207.58	200.000
207.96	-300.000
208.33	-110.000
208.71	-100.000
209.08	-166.667
209.46	-700.000
209.84	-20.000
210.21	-300.000
210.59	-42.857
210.96	-83.333
211.34	-100.000
211.71	40.000
212.09	-171.429
212.46	-2100.000
212.84	0.000
213.22	10.000
213.59	300.000
213.97	-23.077
214.34	0.000
214.72	0.000
215.09	325.000
215.47	23.077
215.84	0.000
216.22	-433.333
216.59	-75.000
216.97	150.000
217.34	-100.000
217.72	-260.000
218.09	-25.000
218.47	137.500
218.84	-1200.000
219.22	-55.556
219.59	0.000
219.97	433.333
220.34	525.000
220.72	-14.286
221.09	-125.000
221.47	-200.000
221.84	-450.000
222.22	-850.000
222.59	-36.364
222.97	-16.667
223.34	-100.000
223.72	-42.857
224.09	4.762
224.46	-17.857
224.84	433.333
225.21	-30.000
225.59	40.000
225.96	-350.000
226.34	375.000
226.71	-171.429
227.08	-33.333
227.46	12.500
227.83	-200.000
228.21	-22.222
228.58	-36.364
228.95	-62.500
229.33	120.000
229.70	6.250
230.08	-87.500
230.45	-185.714
230.82	-42.857
231.20	26.667
231.57	57.143
231.95	-142.857
232.32	-50.000
232.69	35.714
233.07	166.667
233.44	-80.000
233.81	-70.000
234.19	11.111
234.56	-58.824
234.93	100.000
235.31	125.000
235.68	-240.000
236.05	-138.462
236.43	-50.000
236.80	-17.647
237.17	-9.375
237.55	15.000
237.92	3.704
238.29	5.556
238.67	-3.333
239.04	5.882
239.41	-24.390
239.79	-10.000
240.16	31.707
240.53	2.632
240.91	-4.348
241.28	0.000
241.65	19.643
242.02	16.438
242.40	18.333
242.77	1.695
243.14	9.091
243.51	1.250
243.89	17.241
244.26	11.494
244.63	5.952
245.00	10.309
245.38	19.588
245.75	2.247
246.12	6.897
246.49	15.702
246.87	15.385
247.24	4.202
247.61	0.877
247.98	7.317
248.36	9.375
248.73	19.737
249.10	12.987
249.47	11.392
249.84	14.379
250.22	12.941
250.59	13.072
250.96	17.371
251.33	11.047
251.70	18.235
252.08	22.335
252.45	13.366
252.82	11.055
253.19	13.825
253.56	12.150
253.94	18.018
254.31	19.565
254.68	19.298
255.05	15.748
255.42	15.721
255.79	16.988
256.16	19.844
256.54	20.896
256.91	16.730
257.28	15.613
257.65	15.356
258.02	14.184
258.39	19.865
258.76	20.879
259.14	17.608
259.51	15.858
259.88	15.464
260.25	19.935
260.62	19.097
260.99	17.966
261.36	13.699
261.73	15.823
262.10	17.021
262.47	16.564
262.85	18.182
263.22	14.769
263.59	18.069
263.96	19.565
264.33	17.273
264.70	17.560
265.07	18.155
265.44	19.830
265.81	16.102
266.18	19.672
266.55	20.823
266.92	18.394
267.29	18.016
267.66	19.437
268.03	16.492
268.40	14.883
268.77	19.519
269.14	19.904
269.51	20.051
269.88	16.209
270.25	17.347
270.62	16.829
270.99	14.066
271.36	16.626
271.73	17.840
272.10	15.572
272.47	17.967
272.84	18.812
273.21	17.401
273.58	20.000
273.95	16.247
274.32	15.935
274.69	16.742
275.06	16.741
275.43	17.007
275.80	18.102
276.17	14.943
276.54	16.702
276.91	16.228
277.28	15.939
277.65	19.215
278.02	14.681
278.39	15.755
278.76	16.352
279.13	13.071
279.50	16.597
279.87	17.279
280.23	17.634
280.60	19.688
280.97	17.576
281.34	15.192
281.71	18.070
282.08	16.973
282.45	16.438
282.82	15.251
283.19	16.441
283.56	17.341
283.92	13.852
284.29	16.731
284.66	14.729
285.03	15.914
285.40	14.556
285.77	14.938
286.14	15.523
286.51	19.926
286.87	14.808
287.24	15.838
287.61	14.109
287.98	17.368
288.35	16.464
288.72	16.813
289.08	14.931
289.45	15.817
289.82	18.007
290.19	13.481
290.56	14.923
290.93	15.320
291.29	14.792
291.66	16.378
292.03	14.673
292.40	15.806
292.77	13.876
293.13	13.799
293.50	13.657
293.87	16.641
294.24	13.447
294.60	14.456
294.97	15.327
295.34	14.264
295.71	13.264
296.08	12.706
296.44	12.802
296.81	13.194
297.18	12.319
297.55	15.176
297.91	13.973
298.28	13.720
298.65	13.704
299.02	13.208
299.38	10.944
299.75	10.483
300.12	10.995
300.48	12.121
300.85	13.561
301.22	12.338
301.59	13.026
301.95	13.038
302.32	14.008
302.69	11.692
303.05	11.386
303.42	13.076
303.79	13.785
304.15	13.740
304.52	10.820
304.89	11.930
305.25	10.775
305.62	10.035
305.99	10.058
306.35	11.214
306.72	11.699
307.09	12.315
307.45	13.433
307.82	12.500
308.19	12.195
308.55	11.668
308.92	12.854
309.29	12.291
309.65	12.271
310.02	12.871
310.38	12.843
310.75	12.678
311.12	13.240
311.48	12.407
311.85	11.937
312.22	12.131
312.58	13.482
312.95	11.633
313.31	12.319
313.68	11.728
314.05	12.041
314.41	13.196
314.78	14.124
315.14	14.388
315.51	14.286
315.87	15.676
316.24	15.774
316.61	16.339
316.97	16.270
317.34	15.137
317.70	15.392
318.07	15.481
318.43	17.353
318.80	16.383
319.16	16.699
319.53	18.613
319.89	17.618
320.26	19.028
320.62	20.060
320.99	19.833
321.35	20.452
321.72	21.184
322.08	21.249
322.45	21.015
322.81	23.772
323.18	22.767
323.54	23.069
323.91	23.953
324.27	25.293
324.64	26.124
325.00	26.825
325.37	28.007
325.73	26.927
326.10	29.155
326.46	30.673
326.83	29.921
327.19	31.299
327.56	30.582
327.92	33.011
328.29	31.429
328.65	33.868
329.01	33.548
329.38	34.470
329.74	32.956
330.11	35.681
330.47	35.807
330.84	35.769
331.20	37.833
331.56	35.185
331.93	37.900
332.29	38.038
332.66	37.828
333.02	37.732
333.38	37.580
333.75	38.919
334.11	38.317
334.48	39.529
334.84	39.103
335.20	39.524
335.57	38.803
335.93	41.102
336.29	40.331
336.66	39.873
337.02	40.892
337.38	38.241
337.75	38.727
338.11	41.930
338.47	40.967
338.84	41.497
339.20	40.676
339.56	40.459
339.93	41.271
340.29	42.477
340.65	42.294
341.02	40.869
341.38	40.354
341.74	41.078
342.11	40.035
342.47	41.815
342.83	41.522
343.20	40.854
343.56	41.826
343.92	42.338
344.28	41.076
344.65	40.846
345.01	40.277
345.37	41.211
345.73	41.506
346.10	43.054
346.46	40.791
346.82	41.817
347.19	40.150
347.55	41.771
347.91	41.990
348.27	42.037
348.63	42.589
349.00	40.197
349.36	42.145
349.72	41.376
350.08	41.475
350.45	40.623
350.81	41.777
351.17	41.205
351.53	41.551
351.89	40.462
352.26	40.000
352.62	41.371
352.98	40.964
353.34	40.902
353.70	41.828
354.07	40.484
354.43	40.753
354.79	41.949
355.15	42.143
355.51	41.218
355.87	42.233
356.24	40.946
356.60	41.148
356.96	41.905
357.32	40.655
357.68	41.204
358.04	41.195
358.40	40.836
358.77	41.866
359.13	40.592
359.49	40.524
359.85	41.888
360.21	41.069
360.57	40.321
360.93	40.696
361.29	41.541
361.66	41.301
362.02	41.818
362.38	42.270
362.74	41.938
363.10	41.761
363.46	41.883
363.82	41.698
364.18	39.779
364.54	41.029
364.90	41.720
365.26	41.776
365.62	42.847
365.98	41.935
366.35	41.733
366.71	40.872
367.07	41.509
367.43	40.906
367.79	41.696
368.15	42.714
368.51	40.859
368.87	41.565
369.23	40.217
369.59	41.254
369.95	42.229
370.31	41.618
370.67	42.761
371.03	41.150
371.39	41.284
371.75	41.026
372.11	40.799
372.47	42.234
372.83	42.087
373.19	40.585
373.55	40.578
373.91	40.821
374.27	41.318
374.63	41.780
374.99	41.560
375.35	42.061
375.71	41.748
376.07	41.784
376.42	41.769
376.78	41.611
377.14	40.555
377.50	40.372
377.86	40.027
378.22	41.289
378.58	41.603
378.94	41.210
379.30	40.861
379.66	41.881
380.02	42.060
380.38	40.840
380.74	40.395
381.09	41.718
381.45	41.284
381.81	39.975
382.17	40.990
382.53	41.037
382.89	40.615
383.25	41.630
383.61	42.561
383.97	40.762
384.32	40.088
384.68	40.743
385.04	39.828
385.40	40.075
385.76	41.824
386.12	41.462
386.48	41.315
386.83	40.647
387.19	40.904
387.55	42.221
387.91	41.076
388.27	39.499
388.62	40.906
388.98	40.454
389.34	40.662
389.70	41.268
390.06	40.025
390.42	40.479
390.77	40.419
391.13	41.173
391.49	40.362
391.85	40.546
392.20	40.301
392.56	40.559
392.92	39.225
393.28	40.684
393.64	40.060
393.99	41.317
394.35	40.797
394.71	41.635
395.07	39.598
395.42	39.526
395.78	40.261
396.14	40.605
396.50	41.471
396.85	39.730
397.21	40.163
397.57	40.439
397.92	39.365
398.28	39.425
398.64	37.470
399.00	40.237
399.35	38.713
399.71	38.886
400.07	40.810
400.42	38.556
400.78	40.478
401.14	39.443
401.49	39.428
401.85	39.001
402.21	39.096
402.57	40.250
402.92	39.147
403.28	39.724
403.63	39.723
403.99	40.561
404.35	38.976
404.70	37.500
405.06	39.365
405.42	38.906
405.77	38.582
406.13	38.533
406.49	38.129
406.84	38.814
407.20	40.397
407.55	38.571
407.91	39.104
408.27	37.859
408.62	38.523
408.98	39.125
409.34	39.343
409.69	37.468
410.05	37.315
410.40	37.407
410.76	38.661
411.11	38.625
411.47	38.462
411.83	37.602
412.18	37.387
412.54	37.953
412.89	37.746
413.25	38.087
413.60	37.516
413.96	36.871
414.31	37.134
414.67	37.973
415.03	37.550
415.38	37.859
415.74	37.720
416.09	37.753
416.45	37.677
416.80	37.673
417.16	38.674
417.51	36.775
417.87	37.679
418.22	37.565
418.58	37.191
418.93	37.179
419.29	36.620
419.64	38.820
420.00	37.154
420.35	36.537
420.71	36.330
421.06	36.157
421.42	37.320
421.77	36.821
422.12	36.947
422.48	36.004
422.83	37.181
423.19	36.287
423.54	36.567
423.90	36.514
424.25	36.625
424.61	36.965
424.96	36.295
425.31	36.626
425.67	36.913
426.02	36.455
426.38	36.443
426.73	36.864
427.09	36.456
427.44	37.000
427.79	35.651
428.15	36.226
428.50	36.402
428.85	35.074
429.21	35.257
429.56	36.765
429.92	35.901
430.27	35.188
430.62	34.867
430.98	35.881
431.33	35.752
431.68	35.583
432.04	35.215
432.39	35.311
432.74	35.478
433.10	36.609
433.45	36.201
433.80	35.636
434.16	35.291
434.51	35.591
434.86	34.553
435.22	35.390
435.57	36.120
435.92	35.329
436.28	35.003
436.63	35.197
436.98	34.299
437.34	34.967
437.69	35.301
438.04	35.385
438.39	33.965
438.75	35.944
439.10	34.748
439.45	35.606
439.81	34.434
440.16	35.570
440.51	34.866
440.86	35.770
441.22	36.029
441.57	34.603
441.92	35.257
442.27	34.756
442.63	34.797
442.98	35.439
443.33	34.057
443.68	34.111
444.03	35.171
444.39	34.284
444.74	36.232
445.09	35.412
445.44	34.758
445.79	34.812
446.15	34.031
446.50	33.943
446.85	35.175
447.20	34.150
447.55	35.714
447.91	33.954
448.26	34.548
448.61	34.773
448.96	34.710
449.31	33.526
449.66	33.914
450.02	33.771
450.37	34.736
450.72	34.135
451.07	34.937
451.42	34.457
451.77	34.840
452.12	33.254
452.47	33.870
452.83	33.569
453.18	34.219
453.53	34.387
453.88	34.669
454.23	34.604
454.58	35.705
454.93	35.052
455.28	33.016
455.63	34.098
455.98	34.396
456.34	33.589
456.69	33.799
457.04	34.783
457.39	33.475
457.74	33.011
458.09	32.549
458.44	32.943
458.79	32.941
459.14	33.524
459.49	34.030
459.84	33.503
460.19	33.556
460.54	34.230
460.89	33.807
461.24	33.168
461.59	33.967
461.94	32.830
462.29	33.052
462.64	34.153
462.99	33.785
463.34	32.615
463.69	33.205
464.04	33.898
464.39	32.929
464.74	32.822
465.09	33.313
465.44	33.353
465.79	32.653
466.14	33.865
466.49	33.122
466.84	32.362
467.19	32.854
467.54	33.653
467.89	32.154
468.24	32.786
468.59	33.714
468.94	31.619
469.29	33.246
469.64	33.698
469.99	33.287
470.34	32.423
470.68	34.228
471.03	34.112
471.38	33.238
471.73	32.633
472.08	31.615
472.43	32.483
472.78	32.351
473.13	33.265
473.48	32.508
473.83	32.316
474.17	33.031
474.52	32.163
474.87	32.848
475.22	31.727
475.57	32.637
475.92	32.693
476.27	32.712
476.61	32.697
476.96	32.125
477.31	31.693
477.66	32.079
478.01	32.903
478.36	31.754
478.70	32.735
479.05	32.143
479.40	32.220
479.75	30.970
480.10	31.848
480.45	32.100
480.79	32.931
481.14	32.633
481.49	31.576
481.84	31.612
482.19	32.601
482.53	32.566
482.88	31.599
483.23	31.478
483.58	31.368
483.92	31.171
484.27	30.766
484.62	30.928
484.97	30.970
485.31	29.769
485.66	28.506
486.01	28.462
486.36	28.543
486.70	28.721
487.05	29.908
487.40	29.085
487.75	29.690
488.09	29.265
488.44	29.677
488.79	30.743
489.13	30.609
489.48	30.868
489.83	30.628
490.17	31.146
490.52	30.439
490.87	30.541
491.22	31.041
491.56	31.262
491.91	30.545
492.26	30.627
492.60	31.094
492.95	31.972
493.30	30.728
493.64	30.992
493.99	31.546
494.34	30.680
494.68	30.476
495.03	29.878
495.37	30.569
495.72	31.196
496.07	30.439
496.41	30.849
496.76	29.894
497.11	30.927
497.45	30.788
497.80	30.676
498.14	30.651
498.49	31.336
498.84	30.190
499.18	30.723
499.53	30.258
499.87	29.815
500.22	29.377
500.56	30.509
500.91	29.518
501.26	28.571
501.60	29.759
501.95	30.762
502.29	29.734
502.64	30.357
502.98	29.551
503.33	28.915
503.67	29.590
504.02	30.010
504.36	30.035
504.71	30.707
505.06	29.844
505.40	29.848
505.75	30.670
506.09	30.613
506.44	31.263
506.78	31.122
507.13	30.248
507.47	28.512
507.82	29.380
508.16	29.160
508.51	30.273
508.85	30.508
509.19	29.218
509.54	29.651
509.88	29.450
510.23	29.371
510.57	30.144
510.92	29.531
511.26	30.005
511.61	29.703
511.95	29.534
512.30	29.989
512.64	29.939
512.98	29.085
513.33	30.218
513.67	29.449
514.02	30.149
514.36	30.114
514.70	30.886
515.05	31.081
515.39	30.283
515.74	30.719
516.08	30.126
516.42	30.624
516.77	30.544
517.11	30.623
517.46	31.718
517.80	29.738
518.14	30.374
518.49	29.387
518.83	30.012
519.17	29.230
519.52	28.893
519.86	30.372
520.20	29.526
520.55	29.769
520.89	29.925
521.23	29.069
521.58	30.158
521.92	29.295
522.26	30.124
522.61	30.455
522.95	31.325
523.29	30.623
523.64	30.877
523.98	30.655
524.32	28.930
524.66	29.449
525.01	29.740
525.35	30.525
525.69	29.899
526.04	29.960
526.38	30.674
526.72	29.366
527.06	30.545
527.41	29.881
527.75	30.295
528.09	29.967
528.43	30.047
528.78	28.845
529.12	28.774
529.46	28.915
529.80	28.626
530.15	29.901
530.49	29.764
530.83	28.728
531.17	28.946
531.51	30.164
531.86	29.232
532.20	29.088
532.54	30.020
532.88	30.664
533.22	29.301
533.57	28.571
533.91	29.112
534.25	29.362
534.59	28.736
534.93	27.690
535.27	27.157
535.62	27.414
535.96	28.637
536.30	27.968
536.64	29.428
536.98	29.338
537.32	29.587
537.66	28.612
538.01	29.231
538.35	28.363
538.69	28.162
539.03	28.025
539.37	28.197
539.71	28.085
540.05	27.766
540.39	28.809
540.73	28.591
541.07	28.729
541.42	28.159
541.76	28.424
542.10	28.493
542.44	27.658
542.78	26.910
543.12	28.228
543.46	28.303
543.80	28.036
544.14	27.170
544.48	27.049
544.82	27.683
545.16	28.893
545.50	27.103
545.84	27.620
546.18	28.085
546.52	27.902
546.86	27.678
547.20	27.969
547.54	26.360
547.88	27.038
548.22	26.364
548.56	26.913
548.90	27.695
549.24	27.824
549.58	27.010
549.92	26.090
550.26	26.960
550.60	28.030
550.94	28.081
551.28	27.898
551.62	29.923
551.96	28.271
552.30	27.412
552.64	27.151
552.98	26.793
553.32	27.461
553.66	27.068
554.00	26.569
554.34	28.287
554.68	27.434
555.02	28.274
555.36	27.076
555.69	26.154
556.03	26.695
556.37	26.192
556.71	26.498
557.05	27.591
557.39	26.468
557.73	26.762
558.07	26.471
558.41	26.953
558.75	27.592
559.08	27.581
559.42	27.222
559.76	27.702
560.10	27.370
560.44	26.731
560.78	26.993
561.12	27.292
561.45	26.704
561.79	25.770
562.13	26.331
562.47	26.978
562.81	26.801
563.15	26.023
563.48	26.874
563.82	27.179
564.16	26.114
564.50	25.811
564.84	26.707
565.17	25.553
565.51	27.322
565.85	26.269
566.19	25.928
566.52	26.005
566.86	25.964
567.20	25.903
567.54	25.912
567.88	25.600
568.21	24.830
568.55	24.783
568.89	25.616
569.23	24.555
569.56	23.905
569.90	24.198
570.24	23.260
570.57	23.309
570.91	23.214
571.25	22.756
571.59	22.236
571.92	21.867
572.26	21.709
572.60	22.574
572.93	22.435
573.27	22.320
573.61	22.196
573.95	21.737
574.28	21.822
574.62	21.409
574.96	21.690
575.29	21.353
575.63	21.094
575.97	20.954
576.30	21.451
576.64	21.033
576.98	21.364
577.31	21.455
577.65	21.170
577.98	21.492
578.32	20.918
578.66	20.632
578.99	20.590
579.33	20.834
579.67	20.666
580.00	21.418
580.34	20.970
580.67	20.549
581.01	21.350
581.35	20.801
581.68	20.823
582.02	20.261
582.35	20.501
582.69	20.374
583.02	20.722
583.36	21.055
583.70	21.080
584.03	21.129
584.37	21.570
584.70	21.291
585.04	20.518
585.37	21.106
585.71	20.143
586.04	20.978
586.38	20.592
586.72	21.263
587.05	21.231
587.39	21.079
587.72	21.597
588.06	21.257
588.39	21.475
588.73	21.551
589.06	21.722
589.40	21.569
589.73	21.760
590.07	22.281
590.40	21.943
590.73	22.117
591.07	21.289
591.40	22.173
591.74	22.534
592.07	22.866
592.41	22.217
592.74	22.382
593.08	20.852
593.41	21.219
593.75	21.099
594.08	20.700
594.41	21.397
594.75	21.298
595.08	21.718
595.42	21.752
595.75	21.404
596.09	21.423
596.42	21.455
596.75	21.448
597.09	22.096
597.42	21.725
597.75	21.347
598.09	21.548
598.42	21.435
598.76	21.021
599.09	21.314
599.42	21.220
599.76	21.144
600.09	21.267
600.42	21.380
600.76	20.357
601.09	20.038
601.42	20.682
601.76	21.477
602.09	21.205
602.42	21.188
602.76	21.307
603.09	21.055
603.42	20.987
603.76	20.444
604.09	20.980
604.42	21.193
604.76	21.495
605.09	21.755
605.42	21.129
605.75	21.322
606.09	20.849
606.42	20.517
606.75	21.039
607.09	21.714
607.42	20.691
607.75	20.737
608.08	20.845
608.42	21.288
608.75	22.072
609.08	21.475
609.41	21.980
609.75	21.069
610.08	21.518
610.41	20.918
610.74	21.648
611.07	22.067
611.41	21.951
611.74	22.388
612.07	21.146
612.40	22.374
612.73	21.808
613.07	21.822
613.40	21.663
613.73	22.160
614.06	21.870
614.39	21.827
614.72	21.905
615.06	21.676
615.39	21.998
615.72	21.529
616.05	21.341
616.38	21.937
616.71	22.569
617.05	22.483
617.38	22.439
617.71	23.145
618.04	22.540
618.37	22.762
618.70	21.650
619.03	22.917
619.36	21.201
619.69	23.124
620.03	23.302
620.36	22.747
620.69	22.627
621.02	23.089
621.35	23.817
621.68	23.980
622.01	23.500
622.34	23.863
622.67	24.842
623.00	23.737
623.33	23.095
623.66	22.812
623.99	22.769
624.32	24.639
624.65	21.805
624.99	22.950
625.32	22.745
625.65	24.195
625.98	23.046
626.31	22.693
626.64	23.744
626.97	23.997
627.30	24.256
627.63	24.783
627.96	23.450
628.29	24.607
628.62	24.484
628.95	24.649
629.28	25.504
629.61	25.125
629.94	25.318
630.26	24.605
630.59	26.951
630.92	25.333
631.25	25.128
631.58	26.322
631.91	24.123
632.24	25.229
632.57	24.432
632.90	24.199
633.23	25.294
633.56	26.826
633.89	26.141
634.22	26.049
634.55	26.811
634.88	25.287
635.20	25.128
635.53	26.000
635.86	24.967
636.19	27.296
636.52	24.617
636.85	25.062
637.18	25.031
637.51	25.535
637.83	24.047
638.16	27.149
638.49	25.068
638.82	26.842
639.15	24.559
639.48	25.447
639.81	27.336
640.13	25.541
640.46	26.968
640.79	26.804
641.12	25.997
641.45	26.577
641.77	25.630
642.10	27.646
642.43	27.331
642.76	27.393
643.09	26.656
643.41	25.890
643.74	27.512
644.07	27.586
644.40	28.041
644.73	28.021
645.05	28.356
645.38	26.808
645.71	25.532
646.04	28.546
646.36	28.723
646.69	32.014
647.02	26.276
647.35	28.172
647.67	28.336
648.00	30.784
648.33	27.816
648.66	25.763
648.98	24.288
649.31	25.455
649.64	28.571
649.96	24.635
650.29	26.235
650.62	27.009
650.94	28.333
651.27	27.747
651.60	26.847
651.92	27.273
652.25	24.334
652.58	27.833
652.90	26.072
653.23	25.378
653.56	25.212
653.88	26.117
654.21	23.468
654.54	24.448
654.86	28.183
655.19	23.538
655.52	22.755
655.84	17.598
656.17	18.973
656.49	25.605
656.82	26.175
657.15	20.056
657.47	14.939
657.80	11.188
658.13	11.227
658.45	17.645
658.78	17.719
659.10	17.705
659.43	18.553
659.75	19.438
660.08	19.931
660.41	21.450
660.73	22.099
661.06	26.170
661.38	23.679
661.71	23.409
662.03	27.897
662.36	27.253
662.68	27.212
663.01	27.948
663.33	24.826
663.66	26.977
663.98	25.814
664.31	28.145
664.63	25.806
664.96	25.000
665.28	26.490
665.61	28.355
665.93	29.130
666.26	28.200
666.58	26.174
666.91	28.941
667.23	26.179
667.56	28.673
667.88	31.415
668.21	27.924
668.53	26.714
668.86	29.009
669.18	28.066
669.50	26.634
669.83	24.651
670.15	27.273
670.48	25.837
670.80	28.571
671.13	25.951
671.45	26.027
671.77	26.824
672.10	27.129
672.42	25.843
672.75	25.222
673.07	26.834
673.39	28.073
673.72	22.485
674.04	25.208
674.37	25.424
674.69	24.625
675.01	26.667
675.34	26.126
675.66	27.778
675.98	26.608
676.31	26.376
676.63	25.653
676.95	26.136
677.28	27.294
677.60	29.880
677.92	24.771
678.25	26.696
678.57	27.922
678.89	26.681
679.22	25.503
679.54	24.096
679.86	20.676
680.18	23.689
680.51	24.811
680.83	23.857
681.15	26.800
681.48	25.615
681.80	26.033
682.12	24.597
682.44	26.569
682.77	27.373
683.09	25.400
683.41	26.591
683.73	25.346
684.06	23.673
684.38	23.011
684.70	25.054
685.02	21.577
685.34	24.308
685.67	22.139
685.99	24.051
686.31	22.301
686.63	21.892
686.96	21.673
687.28	22.424
687.60	22.433
687.92	25.051
688.24	25.000
688.56	25.328
688.89	25.000
689.21	26.444
689.53	23.898
689.85	23.256
690.17	28.348
690.49	24.350
690.82	22.816
691.14	25.476
691.46	23.598
691.78	24.775
692.10	27.312
692.42	26.407
692.74	25.000
693.06	24.324
693.39	25.339
693.71	19.457
694.03	22.864
694.35	22.897
694.67	26.263
694.99	22.193
695.31	27.415
695.63	25.000
695.95	20.707
696.27	27.720
696.59	24.444
696.91	26.050
697.23	25.193
697.56	24.505
697.88	24.086
698.20	22.551
698.52	23.059
698.84	20.096
699.16	20.250
699.48	24.311
699.80	24.566
700.12	23.720
700.44	25.770
700.76	20.640
701.08	22.727
701.40	23.193
701.72	29.630
702.04	26.403
702.36	25.753
702.68	25.526
703.00	25.758
703.32	23.754
703.64	23.729
703.96	24.058
704.28	26.687
704.60	26.984
704.91	24.921
705.23	26.578
705.55	27.915
705.87	29.242
706.19	23.333
706.51	25.086
706.83	25.080
707.15	19.938
707.47	24.930
707.79	22.396
708.11	24.250
708.43	20.500
708.74	20.413
709.06	26.761
709.38	22.324
709.70	27.219
710.02	26.752
710.34	24.458
710.66	27.564
710.98	21.523
711.29	22.295
711.61	23.390
711.93	25.407
712.25	26.804
712.57	24.908
712.89	24.254
713.20	27.336
713.52	22.648
713.84	22.867
714.16	25.430
714.48	21.613
714.80	23.397
715.11	23.708
715.43	20.376
715.75	18.000
716.07	22.591
716.39	26.174
716.70	23.616
717.02	22.901
717.34	21.457
717.66	26.549
717.97	21.304
718.29	26.778
718.61	27.953
718.93	22.868
719.24	24.335
719.56	22.892
719.88	24.399
720.20	24.621
720.51	22.989
720.83	21.236
721.15	23.529
721.46	23.387
721.78	20.553
722.10	24.907
722.42	19.917
722.73	23.265
723.05	27.755
723.37	26.271
723.68	23.874
724.00	25.641
724.32	26.222
724.63	24.545
724.95	25.328
725.27	23.041
725.58	27.966
725.90	23.810
726.22	23.166
726.53	23.051
726.85	23.596
727.16	23.396
727.48	19.838
727.80	23.887
728.11	20.763
728.43	23.137
728.74	20.161
729.06	20.800
729.38	27.444
729.69	19.920
730.01	20.000
730.32	24.254
730.64	25.442
730.96	23.019
731.27	21.333
731.59	23.390
731.90	21.975
732.22	24.606
732.53	23.588
732.85	24.468
733.16	24.242
733.48	17.626
733.80	22.101
734.11	22.373
734.43	20.275
734.74	19.394
735.06	19.870
735.37	22.659
735.69	23.232
736.00	18.815
736.32	25.503
736.63	19.366
736.95	23.208
737.26	20.641
737.58	18.121
737.89	19.048
738.21	19.549
738.52	26.749
738.83	20.961
739.15	23.144
739.46	21.654
739.78	19.780
740.09	20.588
740.41	18.116
740.72	19.291
741.04	23.887
741.35	24.681
741.66	20.853
741.98	22.449
742.29	28.713
742.61	20.942
742.92	12.796
743.23	17.130
743.55	18.552
743.86	19.617
744.18	20.574
744.49	20.213
744.80	25.000
745.12	26.738
745.43	24.390
745.74	21.875
746.06	26.341
746.37	18.325
746.68	25.118
747.00	19.681
747.31	20.398
747.62	14.563
747.94	27.273
748.25	22.772
748.56	22.951
748.88	20.419
749.19	26.596
749.50	28.079
749.82	19.811
750.13	17.890
750.44	26.316
750.75	27.985
751.07	25.182
751.38	18.774
751.69	21.569
752.01	18.605
752.32	18.327
752.63	23.715
752.94	21.983
753.26	28.452
753.57	21.719
753.88	18.584
754.19	23.750
754.51	18.595
754.82	19.028
755.13	25.417
755.44	20.161
755.75	23.828
756.07	19.455
756.38	15.094
756.69	16.092
757.00	19.000
757.31	20.261
757.63	16.159
757.94	18.333
758.25	18.082
758.56	18.351
758.87	17.847
759.18	17.445
759.50	20.727
759.81	21.405
760.12	19.355
760.43	18.788
760.74	18.519
761.05	17.538
761.36	24.716
761.67	19.091
761.99	19.048
762.30	17.091
762.61	19.763
762.92	15.385
763.23	20.270
763.54	18.224
763.85	18.220
764.16	18.672
764.47	22.581
764.78	18.315
765.10	20.539
765.41	17.981
765.72	20.317
766.03	14.662
766.34	19.343
766.65	17.530
766.96	22.222
767.27	18.617
767.58	16.667
767.89	24.823
768.20	22.159
768.51	18.681
768.82	25.123
769.13	16.129
769.44	16.738
769.75	18.265
770.06	20.690
770.37	18.750
770.68	19.289
770.99	17.647
771.30	18.137
771.61	15.837
771.92	18.103
772.23	23.153
772.54	23.656
772.85	14.815
773.16	21.348
773.47	31.373
773.78	18.301
774.09	18.563
774.39	19.333
774.70	22.930
775.01	19.310
775.32	25.000
775.63	10.744
775.94	16.794
776.25	17.323
776.56	26.667
776.87	16.346
777.18	16.239
777.48	31.897
777.79	21.739
778.10	5.714
778.41	15.315
778.72	15.873
779.03	15.789
779.34	19.149
779.65	23.973
779.95	15.068
780.26	20.000
780.57	16.260
780.88	17.323
781.19	22.414
781.50	17.829
781.80	14.201
782.11	13.208
782.42	16.923
782.73	10.791
783.04	17.778
783.34	15.972
783.65	0.855
783.96	16.393
784.27	18.621
784.57	18.699
784.88	19.531
785.19	29.000
785.50	23.000
785.81	18.103
786.11	14.655
786.42	17.476
786.73	20.000
787.04	13.265
787.34	21.429
787.65	9.524
787.96	23.894
788.26	20.909
788.57	7.692
788.88	17.969
789.19	11.111
789.49	19.130
789.80	16.327
790.11	18.182
790.41	7.273
790.72	27.174
791.03	13.636
791.33	25.000
791.64	15.000
791.95	15.116
792.25	18.085
792.56	11.236
792.87	6.849
793.17	20.290
793.48	17.333
793.79	10.000
794.09	31.250
794.40	20.755
794.70	18.447
795.01	7.317
795.32	12.821
795.62	20.000
795.93	26.471
796.23	14.151
796.54	22.917
796.85	22.059
797.15	1.408
797.46	27.778
797.76	31.818
798.07	9.302
798.37	1.316
798.68	-9.091
798.99	22.222
799.29	22.857
799.60	15.942
799.90	13.333
800.21	19.672
800.51	15.385
800.82	20.339
801.12	15.942
801.43	18.033
801.73	25.397
802.04	4.000
802.34	14.925
802.65	25.000
802.95	8.929
803.26	3.846
803.56	50.980
803.87	-15.217
804.17	13.333
804.48	44.444
804.78	20.370
805.09	19.565
805.39	4.444
805.70	16.667
806.00	-12.281
806.30	22.535
806.61	25.714
806.91	15.278
807.22	17.105
807.52	26.667
807.83	16.364
808.13	13.889
808.43	25.000
808.74	2.985
809.04	-3.390
809.35	15.385
809.65	18.750
809.95	10.811
810.26	-13.636
810.56	17.808
810.86	21.429
811.17	10.000
811.47	14.286
811.77	2.632
812.08	34.091
812.38	24.528
812.69	5.000
812.99	-9.091
813.29	10.526
813.59	-37.143
813.90	20.455
814.20	-5.128
814.50	21.154
814.81	15.094
815.11	-4.255
815.41	27.119
815.72	4.762
816.02	11.765
816.32	4.167
816.62	0.000
816.93	5.405
817.23	-11.429
817.53	-4.167
817.84	-2.174
818.14	15.385
818.44	0.000
818.74	41.304
819.04	-5.000
819.35	5.405
819.65	14.706
819.95	16.667
820.25	23.810
820.56	37.500
820.86	-37.931
821.16	25.000
821.46	12.766
821.76	30.000
822.07	2.326
822.37	-18.919
822.67	-3.125
822.97	21.429
823.27	-10.714
823.57	4.000
823.88	-3.704
824.18	21.429
824.48	-14.706
824.78	-6.452
825.08	-52.174
825.38	27.273
825.69	-16.667
825.99	7.895
826.29	-22.222
826.59	6.667
826.89	-33.333
827.19	23.913
827.49	7.500
827.79	14.286
828.09	53.571
828.39	12.121
828.70	54.054
829.00	-10.714
829.30	-52.381
829.60	43.333
829.90	-12.500
830.20	-5.263
830.50	22.222
830.80	-34.783
831.10	-9.091
831.40	27.273
831.70	3.226
832.00	-9.524
832.30	-14.286
832.60	8.333
832.90	-3.448
833.20	-50.000
833.50	30.303
833.80	3.704
834.10	26.923
834.40	3.125
834.70	-22.222
835.00	36.842
835.30	34.615
835.60	13.333
835.90	32.258
836.20	0.000
836.50	-7.143
836.80	-61.538
837.10	-10.714
837.40	133.333
837.70	36.364
838.00	-54.545
838.30	4.348
838.60	15.385
838.90	36.364
839.19	-28.571
839.49	16.667
839.79	0.000
840.09	0.000
840.39	21.429
840.69	7.143
840.99	19.231
841.29	-57.895
841.59	-130.000
841.88	27.273
842.18	-120.000
842.48	-31.250
842.78	-20.000
843.08	3.704
843.38	-60.000
843.68	21.739
843.97	13.333
844.27	20.000
844.57	15.000
844.87	-33.333
845.17	9.524
845.47	-26.667
845.76	9.524
846.06	23.529
846.36	-80.000
846.66	7.143
846.96	-33.333
847.25	-50.000
847.55	-14.286
847.85	12.500
848.15	0.000
848.44	-133.333
848.74	-10.000
849.04	51.852
849.34	-9.091
849.63	-200.000
849.93	-220.000
850.23	27.778
850.53	-110.000
850.82	-23.077
851.12	-66.667
851.42	33.333
851.71	26.923
852.01	-7.143
852.31	-25.000
852.61	-81.818
852.90	-40.000
853.20	-36.842
853.50	-91.667
853.79	30.435
854.09	16.667
854.39	-21.053
854.68	4.167
854.98	0.000
855.28	73.077
855.57	15.000
855.87	11.111
856.17	22.222
856.46	57.143
856.76	-66.667
857.05	-33.333
857.35	4.000
857.65	-5.556
857.94	-15.385
858.24	34.483
858.53	-11.111
858.83	7.407
859.13	4.545
859.42	-52.174
859.72	-175.000
860.01	-566.667
860.31	40.000
860.60	0.000
860.90	-233.333
861.20	-6.667
861.49	-700.000
861.79	-26.667
862.08	20.000
862.38	60.000
862.67	-320.000
862.97	-100.000
863.26	8.333
863.56	27.778
863.85	-600.000
864.15	50.000
864.44	-100.000
864.74	28.571
865.03	425.000
865.33	-220.000
865.62	116.667
865.92	33.333
866.21	-150.000
866.51	-6.250
866.80	-100.000
867.10	-400.000
867.39	-16.667
867.69	0.000
867.98	-61.538
868.27	-166.667
868.57	20.000
868.86	16.667
869.16	-7.692
869.45	-73.333
869.75	-1600.000
870.04	0.000
870.33	-100.000
870.63	14.286
870.92	133.333
871.22	-260.000
871.51	-900.000
871.80	88.889
872.10	433.333
>>>>>End Processed Spectral Data<<<<<
