SpectraSuite Data File
++++++++++++++++++++++++++++++++++++
Date: Fri May 15 21:11:16 PDT 2015
User: schluterlab
Dark Spectrum Present: Yes
Reference Spectrum Present: Yes
Number of Sampled Component Spectra: 1
Spectrometers: USB2E3373
Integration Time (usec): 3000 (USB2E3373)
Spectra Averaged: 3 (USB2E3373)
Boxcar Smoothing: 0 (USB2E3373)
Correct for Electrical Dark: No (USB2E3373)
Strobe/Lamp Enabled: No (USB2E3373)
Correct for Detector Non-linearity: No (USB2E3373)
Correct for Stray Light: No (USB2E3373)
Number of Pixels in Processed Spectrum: 2048
>>>>>Begin Processed Spectral Data<<<<<
178.53	0.000
178.91	0.000
179.29	-87.500
179.67	-400.000
180.04	14.286
180.42	0.000
180.80	-300.000
181.18	133.333
181.56	650.000
181.94	150.000
182.31	1200.000
182.69	-20.000
183.07	33.333
183.45	-120.000
183.83	250.000
184.20	-72.727
184.58	133.333
184.96	75.000
185.34	-100.000
185.72	-800.000
186.09	53.846
186.47	-700.000
186.85	116.667
187.23	66.667
187.61	-500.000
187.98	-200.000
188.36	44.444
188.74	0.000
189.12	-5.882
189.49	-16.667
189.87	0.000
190.25	50.000
190.63	0.000
191.00	-366.667
191.38	21.053
191.76	-50.000
192.14	275.000
192.51	-200.000
192.89	-77.778
193.27	-42.857
193.65	283.333
194.02	90.909
194.40	30.000
194.78	-200.000
195.15	-8.333
195.53	-100.000
195.91	275.000
196.29	-50.000
196.66	92.308
197.04	14.286
197.42	-100.000
197.79	-133.333
198.17	-61.538
198.55	800.000
198.92	-333.333
199.30	-200.000
199.68	-140.000
200.05	-366.667
200.43	0.000
200.81	-133.333
201.18	-200.000
201.56	1700.000
201.94	-650.000
202.31	166.667
202.69	-220.000
203.07	275.000
203.44	600.000
203.82	0.000
204.19	-7.143
204.57	-400.000
204.95	75.000
205.32	40.000
205.70	-100.000
206.08	-25.000
206.45	200.000
206.83	7.143
207.20	-128.571
207.58	100.000
207.96	-166.667
208.33	-50.000
208.71	-75.000
209.08	-116.667
209.46	-1400.000
209.84	80.000
210.21	-1600.000
210.59	-14.286
210.96	-100.000
211.34	50.000
211.71	-6.667
212.09	-114.286
212.46	-1000.000
212.84	0.000
213.22	-50.000
213.59	450.000
213.97	15.385
214.34	-36.364
214.72	-300.000
215.09	400.000
215.47	-38.462
215.84	-118.182
216.22	0.000
216.59	-137.500
216.97	-400.000
217.34	-350.000
217.72	-140.000
218.09	137.500
218.47	212.500
218.84	-1300.000
219.22	-144.444
219.59	-240.000
219.97	300.000
220.34	425.000
220.72	-71.429
221.09	-100.000
221.47	-150.000
221.84	-700.000
222.22	-900.000
222.59	-81.818
222.97	-16.667
223.34	-266.667
223.72	-21.429
224.09	-23.810
224.46	17.857
224.84	166.667
225.21	0.000
225.59	0.000
225.96	-500.000
226.34	375.000
226.71	-42.857
227.08	-133.333
227.46	-87.500
227.83	-800.000
228.21	44.444
228.58	-36.364
228.95	-50.000
229.33	50.000
229.70	18.750
230.08	-12.500
230.45	-157.143
230.82	42.857
231.20	-40.000
231.57	21.429
231.95	-114.286
232.32	-30.000
232.69	-14.286
233.07	-66.667
233.44	20.000
233.81	-140.000
234.19	-133.333
234.56	-23.529
234.93	450.000
235.31	0.000
235.68	-420.000
236.05	-53.846
236.43	-60.000
236.80	-41.176
237.17	-6.250
237.55	-45.000
237.92	-22.222
238.29	-8.333
238.67	13.333
239.04	-17.647
239.41	-34.146
239.79	-33.333
240.16	4.878
240.53	-50.000
240.91	-21.739
241.28	4.762
241.65	1.786
242.02	6.849
242.40	-16.667
242.77	1.695
243.14	6.061
243.51	-10.000
243.89	13.793
244.26	-8.046
244.63	-11.905
245.00	-14.433
245.38	2.062
245.75	-14.607
246.12	1.724
246.49	2.479
246.87	0.000
247.24	-7.563
247.61	-12.281
247.98	2.439
248.36	4.375
248.73	5.263
249.10	-2.597
249.47	-8.228
249.84	-5.882
250.22	-1.176
250.59	5.882
250.96	7.042
251.33	-7.558
251.70	1.176
252.08	-1.523
252.45	1.485
252.82	4.020
253.19	2.765
253.56	-2.336
253.94	4.505
254.31	1.304
254.68	3.070
255.05	1.969
255.42	3.930
255.79	4.633
256.16	1.556
256.54	0.373
256.91	-1.521
257.28	-0.372
257.65	1.498
258.02	-3.546
258.39	1.684
258.76	1.465
259.14	3.322
259.51	4.531
259.88	1.375
260.25	1.634
260.62	2.083
260.99	2.034
261.36	-1.027
261.73	2.532
262.10	1.520
262.47	-0.307
262.85	3.448
263.22	0.615
263.59	4.361
263.96	5.590
264.33	2.727
264.70	-2.083
265.07	-0.893
265.44	3.683
265.81	2.260
266.18	3.825
266.55	3.085
266.92	2.591
267.29	1.044
267.66	2.302
268.03	3.403
268.40	1.305
268.77	4.278
269.14	3.118
269.51	2.314
269.88	2.244
270.25	-1.020
270.62	1.463
270.99	-0.512
271.36	0.489
271.73	3.286
272.10	1.703
272.47	2.837
272.84	1.238
273.21	2.320
273.58	2.410
273.95	2.975
274.32	0.231
274.69	0.679
275.06	2.679
275.43	1.361
275.80	1.766
276.17	-0.230
276.54	2.784
276.91	2.193
277.28	-0.437
277.65	1.653
278.02	0.851
278.39	0.656
278.76	0.629
279.13	-1.660
279.50	0.210
279.87	1.512
280.23	0.215
280.60	3.509
280.97	2.626
281.34	0.385
281.71	1.848
282.08	0.409
282.45	0.783
282.82	1.351
283.19	0.967
283.56	1.349
283.92	-0.949
284.29	1.538
284.66	2.132
285.03	2.947
285.40	1.512
285.77	-0.351
286.14	1.805
286.51	3.137
286.87	-0.183
287.24	0.552
287.61	-0.705
287.98	3.684
288.35	0.173
288.72	3.327
289.08	1.910
289.45	2.460
289.82	2.448
290.19	1.706
290.56	2.401
290.93	1.010
291.29	1.387
291.66	2.205
292.03	0.478
292.40	1.774
292.77	1.754
293.13	-0.325
293.50	0.000
293.87	3.053
294.24	2.782
294.60	2.683
294.97	2.679
295.34	0.000
295.71	3.726
296.08	0.897
296.44	1.138
296.81	0.833
297.18	1.159
297.55	4.743
297.91	2.055
298.28	3.562
298.65	0.950
299.02	1.752
299.38	-0.547
299.75	1.379
300.12	1.440
300.48	0.395
300.85	2.408
301.22	0.779
301.59	2.895
301.95	2.278
302.32	4.799
302.69	0.871
303.05	2.847
303.42	3.736
303.79	2.804
304.15	2.748
304.52	0.357
304.89	1.871
305.25	0.363
305.62	0.933
305.99	0.936
306.35	1.040
306.72	1.687
307.09	2.965
307.45	2.641
307.82	3.009
308.19	2.787
308.55	0.981
308.92	2.941
309.29	1.788
309.65	2.045
310.02	2.530
310.38	4.171
310.75	3.388
311.12	3.875
311.48	2.439
311.85	3.665
312.22	2.848
312.58	3.822
312.95	2.988
313.31	2.277
313.68	2.827
314.05	3.571
314.41	5.052
314.78	5.258
315.14	4.933
315.51	5.176
315.87	5.328
316.24	6.471
316.61	6.594
316.97	6.052
317.34	6.348
317.70	5.736
318.07	7.019
318.43	6.765
318.80	6.723
319.16	7.715
319.53	9.592
319.89	8.465
320.26	9.615
320.62	10.532
320.99	9.395
321.35	10.894
321.72	11.630
322.08	12.185
322.45	12.995
322.81	12.377
323.18	12.267
323.54	12.066
323.91	14.021
324.27	15.723
324.64	16.105
325.00	16.788
325.37	18.090
325.73	17.860
326.10	19.164
326.46	19.283
326.83	20.647
327.19	21.099
327.56	22.155
327.92	25.088
328.29	25.804
328.65	25.189
329.01	24.816
329.38	26.912
329.74	26.818
330.11	28.360
330.47	28.479
330.84	29.231
331.20	31.274
331.56	29.537
331.93	31.598
332.29	31.347
332.66	32.308
333.02	30.948
333.38	31.714
333.75	32.418
334.11	31.782
334.48	35.811
334.84	33.516
335.20	34.401
335.57	33.636
335.93	35.230
336.29	35.727
336.66	34.060
337.02	34.944
337.38	34.259
337.75	36.091
338.11	36.339
338.47	35.584
338.84	36.044
339.20	35.923
339.56	37.523
339.93	37.064
340.29	35.963
340.65	36.201
341.02	39.450
341.38	35.929
341.74	36.219
342.11	35.789
342.47	38.434
342.83	37.284
343.20	36.934
343.56	37.043
343.92	37.555
344.28	38.087
344.65	37.133
345.01	37.424
345.37	37.006
345.73	37.071
346.10	37.274
346.46	37.090
346.82	35.925
347.19	36.409
347.55	37.510
347.91	38.430
348.27	37.348
348.63	38.586
349.00	37.162
349.36	37.988
349.72	38.723
350.08	37.213
350.45	38.547
350.81	38.372
351.17	37.459
351.53	38.857
351.89	37.572
352.26	37.200
352.62	38.306
352.98	36.707
353.34	37.198
353.70	37.379
354.07	37.258
354.43	37.790
354.79	37.737
355.15	37.698
355.51	37.737
355.87	39.725
356.24	38.662
356.60	38.561
356.96	39.524
357.32	37.859
357.68	38.311
358.04	38.126
358.40	39.068
358.77	39.155
359.13	37.790
359.49	37.057
359.85	37.207
360.21	37.560
360.57	37.950
360.93	37.595
361.29	38.746
361.66	39.498
362.02	39.242
362.38	40.213
362.74	37.093
363.10	40.105
363.46	39.066
363.82	39.669
364.18	38.524
364.54	39.338
364.90	38.710
365.26	39.229
365.62	39.562
365.98	38.416
366.35	39.476
366.71	40.724
367.07	39.405
367.43	39.037
367.79	39.011
368.15	38.909
368.51	38.820
368.87	39.483
369.23	37.401
369.59	40.160
369.95	39.076
370.31	39.234
370.67	39.104
371.03	39.059
371.39	39.096
371.75	39.780
372.11	38.516
372.47	39.275
372.83	40.454
373.19	38.659
373.55	37.762
373.91	40.029
374.27	39.830
374.63	39.770
374.99	38.085
375.35	39.903
375.71	40.699
376.07	39.958
376.42	39.524
376.78	40.940
377.14	38.795
377.50	39.442
377.86	39.826
378.22	39.949
378.58	40.000
378.94	39.635
379.30	39.676
379.66	39.937
380.02	39.853
380.38	39.623
380.74	39.318
381.09	40.000
381.45	39.511
381.81	40.777
382.17	40.038
382.53	39.413
382.89	41.055
383.25	40.448
383.61	40.000
383.97	39.492
384.32	38.336
384.68	40.619
385.04	39.645
385.40	39.141
385.76	41.132
386.12	39.392
386.48	40.996
386.83	39.569
387.19	39.927
387.55	40.276
387.91	39.731
388.27	39.072
388.62	41.598
388.98	39.840
389.34	39.725
389.70	40.025
390.06	39.081
390.42	39.184
390.77	39.372
391.13	38.651
391.49	39.327
391.85	39.636
392.20	39.485
392.56	40.114
392.92	40.047
393.28	39.800
393.64	40.060
393.99	40.188
394.35	40.038
394.71	40.421
395.07	39.409
395.42	38.434
395.78	38.632
396.14	40.290
396.50	40.140
396.85	39.730
397.21	39.474
397.57	38.871
397.92	38.646
398.28	40.460
398.64	38.193
399.00	39.334
399.35	38.770
399.71	39.058
400.07	39.661
400.42	38.372
400.78	40.049
401.14	39.080
401.49	39.488
401.85	39.732
402.21	38.735
402.57	38.625
402.92	38.018
403.28	38.033
403.63	39.281
403.99	39.541
404.35	40.287
404.70	38.631
405.06	38.132
405.42	38.533
405.77	38.001
406.13	38.591
406.49	37.951
406.84	39.731
407.20	38.170
407.55	38.377
407.91	38.369
408.27	38.687
408.62	38.708
408.98	38.386
409.34	38.848
409.69	38.695
410.05	37.685
410.40	38.889
410.76	38.963
411.11	37.937
411.47	39.908
411.83	37.351
412.18	39.189
412.54	38.265
412.89	37.315
413.25	38.087
413.60	38.261
413.96	38.037
414.31	38.171
414.67	37.973
415.03	38.748
415.38	37.924
415.74	38.762
416.09	37.622
416.45	38.623
416.80	37.541
417.16	39.710
417.51	38.241
417.87	38.396
418.22	39.378
418.58	38.595
418.93	38.307
419.29	38.348
419.64	38.043
420.00	39.736
420.35	37.910
420.71	38.578
421.06	39.533
421.42	38.642
421.77	39.884
422.12	38.422
422.48	38.874
422.83	39.095
423.19	39.729
423.54	37.978
423.90	38.516
424.25	39.265
424.61	39.902
424.96	39.373
425.31	39.919
425.67	39.906
426.02	39.929
426.38	40.075
426.73	39.649
427.09	42.785
427.44	40.294
427.79	40.365
428.15	40.777
428.50	40.157
428.85	39.373
429.21	40.804
429.56	41.132
429.92	39.753
430.27	39.549
430.62	39.676
430.98	40.499
431.33	40.904
431.68	40.241
432.04	40.805
432.39	40.160
432.74	39.928
433.10	41.552
433.45	41.159
433.80	40.975
434.16	40.499
434.51	40.753
434.86	40.941
435.22	40.942
435.57	43.107
435.92	41.856
436.28	41.443
436.63	41.187
436.98	40.962
437.34	41.561
437.69	42.457
438.04	41.652
438.39	41.539
438.75	42.927
439.10	41.313
439.45	43.153
439.81	41.651
440.16	43.230
440.51	42.448
440.86	42.961
441.22	42.647
441.57	43.157
441.92	43.599
442.27	42.960
442.63	42.345
442.98	42.964
443.33	42.126
443.68	42.865
444.03	43.616
444.39	42.646
444.74	44.816
445.09	43.875
445.44	44.160
445.79	44.404
446.15	42.291
446.50	42.762
446.85	43.464
447.20	42.961
447.55	43.527
447.91	43.373
448.26	43.256
448.61	44.041
448.96	44.291
449.31	44.335
449.66	43.148
450.02	43.925
450.37	44.161
450.72	44.330
451.07	44.684
451.42	43.883
451.77	43.339
452.12	43.301
452.47	43.722
452.83	44.464
453.18	43.454
453.53	45.512
453.88	44.687
454.23	44.315
454.58	46.033
454.93	44.265
455.28	43.492
455.63	45.629
455.98	44.197
456.34	44.125
456.69	44.917
457.04	45.495
457.39	45.018
457.74	45.949
458.09	43.673
458.44	45.231
458.79	44.034
459.14	45.023
459.49	45.552
459.84	44.614
460.19	45.328
460.54	45.905
460.89	45.568
461.24	44.969
461.59	45.368
461.94	44.025
462.29	45.537
462.64	45.648
462.99	44.279
463.34	45.341
463.69	44.595
464.04	45.218
464.39	44.269
464.74	45.521
465.09	44.479
465.44	44.605
465.79	44.274
466.14	45.382
466.49	44.048
466.84	46.222
467.19	45.244
467.54	45.785
467.89	45.104
468.24	45.438
468.59	45.778
468.94	45.397
469.29	45.836
469.64	45.660
469.99	46.461
470.34	46.212
470.68	46.010
471.03	46.921
471.38	46.362
471.73	46.289
472.08	46.540
472.43	45.705
472.78	45.099
473.13	46.190
473.48	46.580
473.83	44.894
474.17	48.381
474.52	46.650
474.87	46.000
475.22	46.004
475.57	45.455
475.92	47.340
476.27	46.158
476.61	46.296
476.96	44.618
477.31	45.592
477.66	46.292
478.01	45.536
478.36	45.370
478.70	46.765
479.05	45.989
479.40	46.423
479.75	44.578
480.10	45.673
480.45	45.600
480.79	46.677
481.14	45.441
481.49	45.025
481.84	45.849
482.19	45.370
482.53	45.612
482.88	45.442
483.23	45.585
483.58	45.802
483.92	44.773
484.27	45.305
484.62	45.137
484.97	45.108
485.31	44.798
485.66	43.149
486.01	43.410
486.36	43.565
486.70	44.000
487.05	43.913
487.40	44.002
487.75	44.592
488.09	44.283
488.44	43.948
488.79	44.714
489.13	44.752
489.48	44.720
489.83	44.619
490.17	45.169
490.52	45.266
490.87	45.396
491.22	46.227
491.56	45.588
491.91	45.507
492.26	46.378
492.60	46.209
492.95	46.631
493.30	44.700
493.64	45.825
493.99	45.314
494.34	44.951
494.68	45.952
495.03	44.818
495.37	45.780
495.72	46.290
496.07	45.659
496.41	45.472
496.76	45.371
497.11	44.248
497.45	46.062
497.80	47.023
498.14	45.007
498.49	46.166
498.84	45.359
499.18	46.185
499.53	44.841
499.87	44.455
500.22	44.955
500.56	46.394
500.91	45.030
501.26	44.488
501.60	45.499
501.95	45.803
502.29	45.666
502.64	46.187
502.98	46.325
503.33	44.573
503.67	45.928
504.02	44.966
504.36	45.324
504.71	45.253
505.06	44.992
505.40	45.787
505.75	46.186
506.09	45.819
506.44	45.380
506.78	46.173
507.13	46.484
507.47	45.796
507.82	46.207
508.16	45.800
508.51	46.065
508.85	45.264
509.19	45.343
509.54	46.542
509.88	45.739
510.23	45.777
510.57	46.339
510.92	45.309
511.26	45.008
511.61	45.655
511.95	45.644
512.30	46.729
512.64	45.687
512.98	45.424
513.33	45.943
513.67	45.310
514.02	46.568
514.36	47.086
514.70	46.911
515.05	45.300
515.39	45.750
515.74	48.024
516.08	47.041
516.42	46.584
516.77	47.806
517.11	47.893
517.46	46.200
517.80	46.365
518.14	46.601
518.49	45.913
518.83	45.808
519.17	46.149
519.52	46.418
519.86	45.438
520.20	46.173
520.55	45.341
520.89	45.797
521.23	45.218
521.58	45.931
521.92	47.051
522.26	46.519
522.61	46.948
522.95	47.483
523.29	46.252
523.64	46.633
523.98	46.857
524.32	45.876
524.66	46.095
525.01	47.143
525.35	46.403
525.69	46.667
526.04	46.296
526.38	46.757
526.72	45.128
527.06	47.082
527.41	46.768
527.75	47.252
528.09	46.379
528.43	47.130
528.78	45.017
529.12	45.806
529.46	44.899
529.80	45.028
530.15	46.865
530.49	45.791
530.83	46.101
531.17	44.997
531.51	45.964
531.86	46.091
532.20	45.511
532.54	44.792
532.88	46.543
533.22	46.102
533.57	44.758
533.91	44.778
534.25	45.378
534.59	43.297
534.93	43.612
535.27	44.353
535.62	43.357
535.96	43.770
536.30	44.591
536.64	45.072
536.98	43.484
537.32	44.026
537.66	44.180
538.01	44.825
538.35	44.452
538.69	44.541
539.03	42.994
539.37	44.818
539.71	43.899
540.05	44.671
540.39	44.114
540.73	43.445
541.07	44.959
541.42	44.624
541.76	45.286
542.10	43.014
542.44	43.433
542.78	42.670
543.12	42.239
543.46	44.228
543.80	44.344
544.14	42.790
544.48	43.837
544.82	43.267
545.16	44.057
545.50	43.525
545.84	42.776
546.18	44.043
546.52	43.691
546.86	42.559
547.20	43.562
547.54	42.544
547.88	42.595
548.22	42.275
548.56	42.414
548.90	43.261
549.24	42.218
549.58	42.313
549.92	40.743
550.26	41.465
550.60	43.494
550.94	42.942
551.28	43.354
551.62	42.769
551.96	43.158
552.30	41.301
552.64	41.467
552.98	40.647
553.32	41.013
553.66	42.453
554.00	42.847
554.34	41.359
554.68	41.667
555.02	43.452
555.36	43.082
555.69	41.465
556.03	40.542
556.37	41.851
556.71	41.444
557.05	42.655
557.39	41.190
557.73	41.829
558.07	42.157
558.41	42.190
558.75	41.231
559.08	41.923
559.42	41.905
559.76	42.514
560.10	41.361
560.44	41.772
560.78	40.699
561.12	41.467
561.45	42.727
561.79	42.367
562.13	41.590
562.47	41.871
562.81	40.562
563.15	40.832
563.48	41.089
563.82	41.867
564.16	40.111
564.50	39.932
564.84	41.232
565.17	39.504
565.51	40.915
565.85	40.192
566.19	41.711
566.52	40.617
566.86	40.746
567.20	40.847
567.54	39.538
567.88	39.309
568.21	39.989
568.55	38.696
568.89	39.887
569.23	38.806
569.56	38.441
569.90	38.896
570.24	36.807
570.57	37.236
570.91	37.539
571.25	36.633
571.59	36.219
571.92	35.526
572.26	35.568
572.60	36.341
572.93	36.492
573.27	35.862
573.61	35.829
573.95	35.773
574.28	35.222
574.62	34.757
574.96	35.153
575.29	34.503
575.63	34.128
575.97	34.725
576.30	34.636
576.64	33.881
576.98	34.698
577.31	34.775
577.65	35.550
577.98	34.531
578.32	34.077
578.66	33.570
578.99	34.277
579.33	33.850
579.67	34.015
580.00	34.430
580.34	33.881
580.67	33.803
581.01	34.126
581.35	34.001
581.68	33.576
582.02	33.364
582.35	33.649
582.69	33.970
583.02	33.732
583.36	33.546
583.70	34.164
584.03	34.390
584.37	35.263
584.70	34.478
585.04	33.290
585.37	34.005
585.71	33.819
586.04	33.434
586.38	33.289
586.72	34.347
587.05	34.720
587.39	34.610
587.72	34.144
588.06	34.127
588.39	34.264
588.73	33.913
589.06	34.834
589.40	34.635
589.73	34.976
590.07	34.781
590.40	34.985
590.73	35.544
591.07	35.284
591.40	34.550
591.74	34.842
592.07	35.250
592.41	35.203
592.74	34.289
593.08	33.531
593.41	33.674
593.75	33.464
594.08	33.059
594.41	34.389
594.75	34.351
595.08	33.636
595.42	34.229
595.75	33.796
596.09	34.402
596.42	34.064
596.75	34.591
597.09	34.442
597.42	34.553
597.75	34.677
598.09	34.224
598.42	34.341
598.76	33.548
599.09	33.454
599.42	33.384
599.76	33.032
600.09	33.145
600.42	33.738
600.76	33.247
601.09	32.901
601.42	32.902
601.76	33.624
602.09	32.962
602.42	34.288
602.76	33.447
603.09	33.929
603.42	34.156
603.76	33.548
604.09	33.171
604.42	33.756
604.76	34.090
605.09	33.775
605.42	33.273
605.75	32.443
606.09	32.696
606.42	32.652
606.75	32.900
607.09	33.319
607.42	32.344
607.75	32.593
608.08	32.884
608.42	32.069
608.75	33.542
609.08	32.935
609.41	33.959
609.75	32.359
610.08	33.650
610.41	32.174
610.74	32.667
611.07	34.057
611.41	33.627
611.74	32.996
612.07	32.655
612.40	33.042
612.73	33.785
613.07	32.677
613.40	32.659
613.73	33.408
614.06	32.165
614.39	33.051
614.72	32.269
615.06	33.296
615.39	32.041
615.72	33.315
616.05	32.682
616.38	31.795
616.71	32.722
617.05	33.169
617.38	32.810
617.71	32.453
618.04	34.794
618.37	33.102
618.70	33.003
619.03	34.236
619.36	33.792
619.69	34.951
620.03	35.573
620.36	33.476
620.69	34.190
621.02	34.327
621.35	35.021
621.68	34.779
622.01	33.750
622.34	33.679
622.67	34.306
623.00	32.925
623.33	33.460
623.66	33.283
623.99	32.829
624.32	33.764
624.65	32.105
624.99	33.860
625.32	32.828
625.65	33.464
625.98	33.521
626.31	33.333
626.64	34.142
626.97	34.817
627.30	34.063
627.63	33.622
627.96	34.052
628.29	33.950
628.62	35.005
628.95	35.170
629.28	35.887
629.61	34.895
629.94	34.702
630.26	33.794
630.59	34.443
630.92	36.103
631.25	33.949
631.58	37.115
631.91	35.307
632.24	33.601
632.57	33.409
632.90	34.045
633.23	35.412
633.56	36.272
633.89	35.882
634.22	35.062
634.55	35.324
634.88	34.100
635.20	33.974
635.53	36.133
635.86	34.850
636.19	36.481
636.52	35.077
636.85	34.243
637.18	33.459
637.51	32.704
637.83	35.480
638.16	35.061
638.49	35.559
638.82	34.605
639.15	34.600
639.48	35.076
639.81	34.589
640.13	35.498
640.46	34.985
640.79	34.021
641.12	34.121
641.45	35.886
641.77	35.407
642.10	36.651
642.43	34.887
642.76	35.974
643.09	37.157
643.41	33.981
643.74	33.937
644.07	34.319
644.40	36.318
644.73	36.077
645.05	33.893
645.38	37.037
645.71	32.979
646.04	38.779
646.36	36.879
646.69	38.309
647.02	36.862
647.35	35.261
647.67	36.746
648.00	37.500
648.33	35.154
648.66	37.458
648.98	31.993
649.31	33.884
649.64	33.909
649.96	33.387
650.29	34.753
650.62	31.453
650.94	34.630
651.27	31.471
651.60	35.676
651.92	33.916
652.25	33.925
652.58	32.500
652.90	35.849
653.23	31.933
653.56	32.487
653.88	33.162
654.21	32.925
654.54	31.579
654.86	32.937
655.19	30.994
655.52	30.108
655.84	27.036
656.17	29.345
656.49	39.461
656.82	40.349
657.15	31.005
657.47	23.099
657.80	17.306
658.13	16.984
658.45	25.801
658.78	24.965
659.10	25.224
659.43	25.497
659.75	26.542
660.08	25.862
660.41	30.644
660.73	30.525
661.06	31.542
661.38	32.485
661.71	32.033
662.03	34.764
662.36	34.286
662.68	33.407
663.01	35.590
663.33	33.643
663.66	32.558
663.98	35.349
664.31	34.328
664.63	30.876
664.96	30.000
665.28	33.996
665.61	32.684
665.93	31.087
666.26	33.406
666.58	29.978
666.91	33.412
667.23	34.670
667.56	35.545
667.88	31.894
668.21	31.742
668.53	34.515
668.86	33.962
669.18	32.311
669.50	31.235
669.83	32.326
670.15	34.266
670.48	33.971
670.80	33.641
671.13	30.425
671.45	31.050
671.77	36.481
672.10	31.089
672.42	29.775
672.75	33.570
673.07	31.485
673.39	32.294
673.72	28.994
674.04	30.000
674.37	33.475
674.69	32.762
675.01	32.222
675.34	30.856
675.66	33.796
675.98	33.703
676.31	29.128
676.63	29.929
676.95	33.864
677.28	32.471
677.60	32.530
677.92	31.651
678.25	30.853
678.57	30.736
678.89	31.092
679.22	28.859
679.54	28.715
679.86	27.038
680.18	29.515
680.51	30.114
680.83	29.026
681.15	30.000
681.48	31.762
681.80	29.752
682.12	30.444
682.44	27.406
682.77	31.126
683.09	29.062
683.41	26.364
683.73	28.341
684.06	30.973
684.38	27.527
684.70	28.758
685.02	28.838
685.34	25.296
685.67	27.580
685.99	29.476
686.31	28.142
686.63	26.160
686.96	28.707
687.28	25.657
687.60	26.806
687.92	29.091
688.24	28.629
688.56	28.821
688.89	26.562
689.21	30.889
689.53	29.930
689.85	26.047
690.17	29.241
690.49	27.660
690.82	28.641
691.14	27.857
691.46	30.140
691.78	28.153
692.10	28.602
692.42	27.706
692.74	29.701
693.06	25.676
693.39	27.828
693.71	27.828
694.03	27.252
694.35	31.542
694.67	32.576
694.99	27.415
695.31	32.898
695.63	29.500
695.95	27.020
696.27	28.238
696.59	28.333
696.91	28.291
697.23	28.278
697.56	26.485
697.88	28.602
698.20	26.651
698.52	28.000
698.84	26.077
699.16	25.750
699.48	27.569
699.80	29.777
700.12	25.067
700.44	27.171
700.76	25.581
701.08	25.152
701.40	28.313
701.72	30.247
702.04	29.043
702.36	31.438
702.68	27.928
703.00	25.758
703.32	28.152
703.64	25.141
703.96	27.826
704.28	25.460
704.60	29.524
704.91	23.028
705.23	28.571
705.55	31.095
705.87	29.964
706.19	28.519
706.51	28.522
706.83	31.833
707.15	23.053
707.47	27.731
707.79	25.521
708.11	26.250
708.43	26.500
708.74	23.514
709.06	28.169
709.38	29.969
709.70	26.923
710.02	27.707
710.34	26.625
710.66	26.282
710.98	25.166
711.29	26.557
711.61	29.831
711.93	27.362
712.25	26.804
712.57	28.571
712.89	25.000
713.20	24.567
713.52	27.526
713.84	25.256
714.16	29.553
714.48	23.226
714.80	26.282
715.11	24.620
715.43	23.197
715.75	24.333
716.07	28.571
716.39	25.503
716.70	22.509
717.02	26.718
717.34	26.721
717.66	24.336
717.97	27.391
718.29	28.870
718.61	25.591
718.93	27.132
719.24	27.757
719.56	24.900
719.88	25.773
720.20	26.136
720.51	21.456
720.83	24.324
721.15	23.529
721.46	29.839
721.78	26.877
722.10	24.535
722.42	23.237
722.73	23.673
723.05	26.531
723.37	30.932
723.68	27.928
724.00	27.778
724.32	18.222
724.63	20.909
724.95	27.948
725.27	24.424
725.58	26.271
725.90	28.968
726.22	20.849
726.53	24.068
726.85	25.468
727.16	28.302
727.48	23.887
727.80	22.672
728.11	26.271
728.43	23.137
728.74	18.952
729.06	24.800
729.38	27.820
729.69	21.116
730.01	18.077
730.32	24.627
730.64	28.622
730.96	27.170
731.27	20.000
731.59	21.356
731.90	26.433
732.22	25.237
732.53	25.914
732.85	24.113
733.16	24.579
733.48	17.626
733.80	24.638
734.11	21.356
734.43	23.711
734.74	19.697
735.06	22.801
735.37	24.471
735.69	23.569
736.00	24.042
736.32	23.490
736.63	24.296
736.95	24.573
737.26	20.996
737.58	23.154
737.89	21.245
738.21	20.301
738.52	26.749
738.83	17.904
739.15	18.341
739.46	24.016
739.78	22.344
740.09	21.895
740.41	20.290
740.72	19.685
741.04	24.291
741.35	17.021
741.66	21.327
741.98	19.898
742.29	22.277
742.61	21.990
742.92	10.427
743.23	21.296
743.55	21.267
743.86	25.359
744.18	18.182
744.49	18.617
744.80	15.761
745.12	24.064
745.43	15.610
745.74	22.917
746.06	26.341
746.37	27.225
746.68	22.275
747.00	23.936
747.31	25.373
747.62	18.932
747.94	21.531
748.25	22.772
748.56	20.219
748.88	15.707
749.19	28.723
749.50	23.645
749.82	19.811
750.13	18.349
750.44	24.436
750.75	25.000
751.07	27.737
751.38	22.989
751.69	22.353
752.01	24.419
752.32	22.709
752.63	17.787
752.94	25.000
753.26	30.544
753.57	19.005
753.88	23.894
754.19	21.667
754.51	19.421
754.82	19.433
755.13	20.833
755.44	20.968
755.75	21.484
756.07	19.844
756.38	21.132
756.69	18.774
757.00	18.667
757.31	18.301
757.63	17.073
757.94	22.500
758.25	16.712
758.56	17.553
758.87	20.397
759.18	17.134
759.50	14.182
759.81	23.411
760.12	19.032
760.43	19.697
760.74	22.531
761.05	21.846
761.36	19.886
761.67	23.030
761.99	19.048
762.30	19.636
762.61	23.715
762.92	19.005
763.23	18.919
763.54	16.822
763.85	17.373
764.16	21.992
764.47	16.129
764.78	16.850
765.10	24.579
765.41	18.297
765.72	20.952
766.03	18.421
766.34	19.708
766.65	21.116
766.96	22.727
767.27	18.085
767.58	14.943
767.89	11.348
768.20	27.273
768.51	21.978
768.82	19.212
769.13	14.747
769.44	15.880
769.75	16.895
770.06	19.828
770.37	20.192
770.68	25.888
770.99	16.290
771.30	20.588
771.61	20.362
771.92	22.414
772.23	20.197
772.54	18.817
772.85	25.926
773.16	23.034
773.47	28.758
773.78	24.183
774.09	12.575
774.39	20.667
774.70	20.382
775.01	19.310
775.32	25.714
775.63	13.223
775.94	18.321
776.25	16.535
776.56	19.167
776.87	10.577
777.18	17.094
777.48	12.931
777.79	13.913
778.10	8.571
778.41	13.514
778.72	20.635
779.03	15.038
779.34	20.567
779.65	14.384
779.95	12.329
780.26	13.793
780.57	9.756
780.88	25.197
781.19	16.379
781.50	23.256
781.80	15.385
782.11	13.836
782.42	13.077
782.73	15.108
783.04	14.074
783.34	16.667
783.65	12.821
783.96	17.213
784.27	21.379
784.57	17.073
784.88	18.750
785.19	31.000
785.50	16.000
785.81	13.793
786.11	16.379
786.42	4.854
786.73	23.636
787.04	13.265
787.34	16.071
787.65	27.619
787.96	7.080
788.26	19.091
788.57	9.402
788.88	20.312
789.19	16.667
789.49	8.696
789.80	8.163
790.11	19.192
790.41	0.000
790.72	18.478
791.03	23.864
791.33	18.750
791.64	2.500
791.95	9.302
792.25	21.277
792.56	19.101
792.87	21.918
793.17	14.493
793.48	17.333
793.79	16.250
794.09	22.500
794.40	6.604
794.70	7.767
795.01	6.504
795.32	11.966
795.62	10.476
795.93	13.725
796.23	14.151
796.54	17.708
796.85	19.118
797.15	25.352
797.46	12.500
797.76	28.788
798.07	24.419
798.37	3.947
798.68	4.545
798.99	19.753
799.29	24.286
799.60	-2.899
799.90	26.667
800.21	8.197
800.51	7.692
800.82	13.559
801.12	8.696
801.43	14.754
801.73	25.397
802.04	4.000
802.34	4.478
802.65	7.692
802.95	5.357
803.26	13.462
803.56	37.255
803.87	-2.174
804.17	22.667
804.48	19.048
804.78	31.481
805.09	4.348
805.39	-13.333
805.70	7.407
806.00	-8.772
806.30	32.394
806.61	5.714
806.91	0.000
807.22	22.368
807.52	32.000
807.83	-3.636
808.13	18.056
808.43	22.059
808.74	13.433
809.04	10.169
809.35	-9.615
809.65	0.000
809.95	2.703
810.26	-15.909
810.56	16.438
810.86	-4.762
811.17	4.000
811.47	38.776
811.77	-7.895
812.08	6.818
812.38	3.774
812.69	-2.500
812.99	12.121
813.29	7.895
813.59	-25.714
813.90	-9.091
814.20	-5.128
814.50	13.462
814.81	28.302
815.11	-17.021
815.41	22.034
815.72	2.381
816.02	7.843
816.32	33.333
816.62	12.195
816.93	8.108
817.23	-11.429
817.53	16.667
817.84	21.739
818.14	-3.846
818.44	-10.526
818.74	28.261
819.04	-35.000
819.35	13.514
819.65	2.941
819.95	-8.333
820.25	45.238
820.56	32.500
820.86	-24.138
821.16	20.000
821.46	8.511
821.76	22.500
822.07	4.651
822.37	-21.622
822.67	12.500
822.97	16.667
823.27	-21.429
823.57	-8.000
823.88	-14.815
824.18	3.571
824.48	-23.529
824.78	25.806
825.08	26.087
825.38	18.182
825.69	-41.667
825.99	7.895
826.29	-2.778
826.59	6.667
826.89	-19.048
827.19	28.261
827.49	22.500
827.79	5.714
828.09	14.286
828.39	9.091
828.70	48.649
829.00	-46.429
829.30	-80.952
829.60	26.667
829.90	6.250
830.20	-2.632
830.50	-48.148
830.80	-43.478
831.10	-27.273
831.40	24.242
831.70	25.806
832.00	9.524
832.30	-61.905
832.60	-75.000
832.90	-24.138
833.20	-35.000
833.50	27.273
833.80	14.815
834.10	0.000
834.40	-15.625
834.70	-166.667
835.00	-15.789
835.30	57.692
835.60	0.000
835.90	29.032
836.20	-18.182
836.50	17.857
836.80	-23.077
837.10	7.143
837.40	-500.000
837.70	-13.636
838.00	-72.727
838.30	8.696
838.60	-23.077
838.90	18.182
839.19	17.857
839.49	20.000
839.79	-15.385
840.09	-33.333
840.39	10.714
840.69	7.143
840.99	3.846
841.29	-42.105
841.59	-140.000
841.88	-45.455
842.18	30.000
842.48	31.250
842.78	6.667
843.08	0.000
843.38	-110.000
843.68	-26.087
843.97	-13.333
844.27	-40.000
844.57	-15.000
844.87	44.444
845.17	-47.619
845.47	6.667
845.76	-28.571
846.06	0.000
846.36	-50.000
846.66	7.143
846.96	-20.000
847.25	-100.000
847.55	-28.571
847.85	-62.500
848.15	-72.727
848.44	-166.667
848.74	-30.000
849.04	33.333
849.34	-81.818
849.63	-183.333
849.93	-180.000
850.23	11.111
850.53	40.000
850.82	0.000
851.12	-33.333
851.42	0.000
851.71	-38.462
852.01	-28.571
852.31	125.000
852.61	-27.273
852.90	-35.000
853.20	36.842
853.50	58.333
853.79	4.348
854.09	37.500
854.39	-15.789
854.68	37.500
854.98	9.677
855.28	-23.077
855.57	20.000
855.87	-66.667
856.17	7.407
856.46	-71.429
856.76	33.333
857.05	22.222
857.35	8.000
857.65	-11.111
857.94	-46.154
858.24	37.931
858.53	5.556
858.83	22.222
859.13	18.182
859.42	0.000
859.72	-225.000
860.01	-433.333
860.31	12.000
860.60	47.619
860.90	-533.333
861.20	-13.333
861.49	-650.000
861.79	-26.667
862.08	-45.000
862.38	33.333
862.67	-280.000
862.97	-166.667
863.26	-8.333
863.56	-5.556
863.85	-100.000
864.15	38.889
864.44	-100.000
864.74	28.571
865.03	225.000
865.33	-280.000
865.62	116.667
865.92	-16.667
866.21	-183.333
866.51	43.750
866.80	-100.000
867.10	-250.000
867.39	16.667
867.69	0.000
867.98	23.077
868.27	-233.333
868.57	-6.667
868.86	44.444
869.16	-23.077
869.45	66.667
869.75	-1200.000
870.04	0.000
870.33	-57.143
870.63	23.810
870.92	400.000
871.22	-340.000
871.51	-700.000
871.80	-77.778
872.10	466.667
>>>>>End Processed Spectral Data<<<<<
