SpectraSuite Data File
++++++++++++++++++++++++++++++++++++
Date: Fri May 15 21:03:22 PDT 2015
User: schluterlab
Dark Spectrum Present: Yes
Reference Spectrum Present: Yes
Number of Sampled Component Spectra: 1
Spectrometers: USB2E3373
Integration Time (usec): 3000 (USB2E3373)
Spectra Averaged: 3 (USB2E3373)
Boxcar Smoothing: 0 (USB2E3373)
Correct for Electrical Dark: No (USB2E3373)
Strobe/Lamp Enabled: No (USB2E3373)
Correct for Detector Non-linearity: No (USB2E3373)
Correct for Stray Light: No (USB2E3373)
Number of Pixels in Processed Spectrum: 2048
>>>>>Begin Processed Spectral Data<<<<<
178.53	0.000
178.91	0.000
179.29	-37.500
179.67	-550.000
180.04	142.857
180.42	-125.000
180.80	300.000
181.18	33.333
181.56	500.000
181.94	-500.000
182.31	800.000
182.69	-100.000
183.07	-200.000
183.45	-80.000
183.83	133.333
184.20	9.091
184.58	211.111
184.96	75.000
185.34	66.667
185.72	-400.000
186.09	161.538
186.47	-2200.000
186.85	233.333
187.23	155.556
187.61	800.000
187.98	-100.000
188.36	-66.667
188.74	-333.333
189.12	23.529
189.49	-44.444
189.87	0.000
190.25	28.571
190.63	-50.000
191.00	-466.667
191.38	5.263
191.76	0.000
192.14	150.000
192.51	-600.000
192.89	-100.000
193.27	-171.429
193.65	266.667
194.02	254.545
194.40	-60.000
194.78	-187.500
195.15	-33.333
195.53	-150.000
195.91	175.000
196.29	-75.000
196.66	107.692
197.04	257.143
197.42	-122.222
197.79	-766.667
198.17	-138.462
198.55	2700.000
198.92	-366.667
199.30	-400.000
199.68	-120.000
200.05	-233.333
200.43	0.000
200.81	0.000
201.18	-300.000
201.56	700.000
201.94	-200.000
202.31	100.000
202.69	-480.000
203.07	375.000
203.44	300.000
203.82	0.000
204.19	-28.571
204.57	-700.000
204.95	112.500
205.32	-110.000
205.70	-42.857
206.08	-175.000
206.45	200.000
206.83	7.143
207.20	-100.000
207.58	400.000
207.96	-66.667
208.33	-120.000
208.71	-275.000
209.08	-150.000
209.46	-900.000
209.84	-160.000
210.21	-900.000
210.59	-114.286
210.96	-50.000
211.34	-300.000
211.71	-20.000
212.09	-71.429
212.46	-2300.000
212.84	0.000
213.22	20.000
213.59	550.000
213.97	0.000
214.34	-90.909
214.72	-133.333
215.09	225.000
215.47	-84.615
215.84	-9.091
216.22	-266.667
216.59	-75.000
216.97	100.000
217.34	-175.000
217.72	-180.000
218.09	-25.000
218.47	275.000
218.84	-500.000
219.22	-55.556
219.59	-240.000
219.97	466.667
220.34	325.000
220.72	-85.714
221.09	-175.000
221.47	-50.000
221.84	-100.000
222.22	-550.000
222.59	27.273
222.97	-50.000
223.34	-233.333
223.72	-92.857
224.09	-28.571
224.46	7.143
224.84	566.667
225.21	30.000
225.59	33.333
225.96	-150.000
226.34	350.000
226.71	71.429
227.08	-66.667
227.46	-75.000
227.83	-200.000
228.21	0.000
228.58	-9.091
228.95	-25.000
229.33	160.000
229.70	-37.500
230.08	-137.500
230.45	-257.143
230.82	-71.429
231.20	-6.667
231.57	7.143
231.95	-85.714
232.32	-170.000
232.69	50.000
233.07	-166.667
233.44	-260.000
233.81	-60.000
234.19	0.000
234.56	-17.647
234.93	500.000
235.31	-75.000
235.68	-280.000
236.05	-15.385
236.43	5.000
236.80	-11.765
237.17	6.250
237.55	-45.000
237.92	-40.741
238.29	19.444
238.67	0.000
239.04	-17.647
239.41	-31.707
239.79	-40.000
240.16	17.073
240.53	5.263
240.91	6.522
241.28	14.286
241.65	25.000
242.02	8.219
242.40	18.333
242.77	5.085
243.14	19.697
243.51	16.250
243.89	24.138
244.26	8.046
244.63	11.905
245.00	6.186
245.38	19.588
245.75	13.483
246.12	12.069
246.49	18.182
246.87	17.308
247.24	9.244
247.61	14.035
247.98	12.195
248.36	13.750
248.73	14.474
249.10	12.338
249.47	9.494
249.84	19.608
250.22	8.235
250.59	20.261
250.96	23.944
251.33	15.116
251.70	17.059
252.08	20.305
252.45	13.861
252.82	19.598
253.19	15.668
253.56	16.355
253.94	19.369
254.31	20.870
254.68	19.737
255.05	15.354
255.42	13.974
255.79	21.622
256.16	19.455
256.54	21.269
256.91	16.730
257.28	17.472
257.65	15.730
258.02	17.376
258.39	16.498
258.76	20.513
259.14	19.601
259.51	15.534
259.88	19.931
260.25	20.261
260.62	19.097
260.99	13.559
261.36	19.178
261.73	17.722
262.10	18.845
262.47	17.791
262.85	20.690
263.22	19.077
263.59	19.626
263.96	19.255
264.33	19.091
264.70	18.155
265.07	18.750
265.44	21.246
265.81	18.079
266.18	19.945
266.55	19.280
266.92	16.321
267.29	19.060
267.66	19.949
268.03	19.634
268.40	19.843
268.77	23.262
269.14	18.945
269.51	22.108
269.88	16.958
270.25	17.092
270.62	19.024
270.99	19.693
271.36	17.115
271.73	19.953
272.10	18.978
272.47	18.203
272.84	18.069
273.21	21.114
273.58	19.759
273.95	18.764
274.32	17.783
274.69	17.195
275.06	19.196
275.43	18.821
275.80	19.426
276.17	15.402
276.54	18.415
276.91	18.640
277.28	18.777
277.65	17.975
278.02	19.787
278.39	16.193
278.76	17.400
279.13	14.938
279.50	16.807
279.87	19.654
280.23	16.129
280.60	18.519
280.97	19.798
281.34	18.269
281.71	20.123
282.08	16.564
282.45	17.613
282.82	16.602
283.19	16.828
283.56	16.956
283.92	14.611
284.29	18.269
284.66	16.279
285.03	16.110
285.40	17.769
285.77	15.817
286.14	16.787
286.51	18.635
286.87	16.271
287.24	17.495
287.61	15.873
287.98	19.298
288.35	15.425
288.72	18.564
289.08	16.840
289.45	14.938
289.82	15.909
290.19	16.382
290.56	16.123
290.93	14.646
291.29	15.100
291.66	16.850
292.03	14.833
292.40	15.968
292.77	15.470
293.13	13.312
293.50	13.050
293.87	14.504
294.24	14.683
294.60	15.052
294.97	14.286
295.34	13.190
295.71	15.350
296.08	14.499
296.44	13.656
296.81	12.778
297.18	13.913
297.55	15.854
297.91	13.973
298.28	15.172
298.65	12.754
299.02	12.938
299.38	13.133
299.75	13.655
300.12	13.089
300.48	12.385
300.85	12.928
301.22	13.117
301.59	11.579
301.95	13.165
302.32	14.267
302.69	12.438
303.05	14.233
303.42	13.699
303.79	13.668
304.15	13.740
304.52	11.415
304.89	11.930
305.25	11.985
305.62	11.085
305.99	12.982
306.35	11.214
306.72	12.261
307.09	11.174
307.45	12.170
307.82	12.153
308.19	12.660
308.55	10.469
308.92	12.309
309.29	11.285
309.65	10.872
310.02	13.091
310.38	12.294
310.75	11.148
311.12	12.056
311.48	12.195
311.85	11.518
312.22	11.392
312.58	13.057
312.95	10.672
313.31	11.905
313.68	10.681
314.05	12.959
314.41	13.196
314.78	13.299
315.14	13.977
315.51	12.526
315.87	13.320
316.24	14.358
316.61	13.681
316.97	14.087
317.34	13.770
317.70	14.914
318.07	13.462
318.43	14.804
318.80	14.489
319.16	15.820
319.53	16.714
319.89	14.370
320.26	15.891
320.62	15.948
320.99	14.927
321.35	17.163
321.72	18.380
322.08	18.328
322.45	19.188
322.81	19.352
323.18	18.744
323.54	19.691
323.91	20.351
324.27	20.312
324.64	20.131
325.00	22.628
325.37	22.498
325.73	21.215
326.10	22.434
326.46	23.946
326.83	23.097
327.19	24.499
327.56	24.414
327.92	26.408
328.29	26.071
328.65	25.943
329.01	24.908
329.38	26.820
329.74	25.118
330.11	27.989
330.47	26.623
330.84	27.885
331.20	27.471
331.56	26.667
331.93	29.772
332.29	29.331
332.66	28.326
333.02	29.182
333.38	28.323
333.75	28.846
334.11	28.021
334.48	29.737
334.84	28.297
335.20	29.552
335.57	28.558
335.93	30.262
336.29	30.295
336.66	30.609
337.02	28.903
337.38	30.278
337.75	30.636
338.11	31.380
338.47	30.748
338.84	30.222
339.20	31.170
339.56	29.817
339.93	31.244
340.29	30.642
340.65	31.362
341.02	31.383
341.38	30.619
341.74	29.329
342.11	29.983
342.47	30.338
342.83	31.834
343.20	29.878
343.56	30.609
343.92	32.772
344.28	31.597
344.65	31.261
345.01	31.029
345.37	30.950
345.73	31.381
346.10	31.061
346.46	31.371
346.82	31.260
347.19	30.341
347.55	32.164
347.91	32.120
348.27	30.558
348.63	31.857
349.00	31.501
349.36	30.590
349.72	31.509
350.08	31.639
350.45	31.684
350.81	31.395
351.17	30.293
351.53	32.408
351.89	31.874
352.26	31.440
352.62	31.371
352.98	31.084
353.34	31.804
353.70	31.796
354.07	31.613
354.43	31.625
354.79	31.957
355.15	31.587
355.51	32.911
355.87	32.848
356.24	31.321
356.60	32.013
356.96	31.746
357.32	31.550
357.68	32.291
358.04	32.149
358.40	31.431
358.77	33.333
359.13	33.787
359.49	32.820
359.85	31.747
360.21	32.536
360.57	32.517
360.93	32.980
361.29	31.193
361.66	33.621
362.02	33.788
362.38	32.826
362.74	31.643
363.10	34.387
363.46	32.024
363.82	34.410
364.18	32.841
364.54	32.353
364.90	32.616
365.26	31.223
365.62	34.161
365.98	33.871
366.35	34.232
366.71	32.890
367.07	33.817
367.43	33.501
367.79	34.346
368.15	33.166
368.51	34.814
368.87	33.309
369.23	32.996
369.59	34.038
369.95	36.290
370.31	33.526
370.67	34.925
371.03	33.458
371.39	34.646
371.75	34.432
372.11	33.524
372.47	34.393
372.83	34.776
373.19	35.806
373.55	34.801
373.91	35.205
374.27	35.507
374.63	35.678
374.99	34.965
375.35	34.819
375.71	36.503
376.07	36.376
376.42	35.646
376.78	35.570
377.14	36.561
377.50	36.189
377.86	36.078
378.22	36.886
378.58	37.628
378.94	36.358
379.30	36.681
379.66	36.991
380.02	36.971
380.38	37.614
380.74	36.984
381.09	37.607
381.45	36.820
381.81	36.829
382.17	36.548
382.53	38.226
382.89	38.481
383.25	39.141
383.61	38.659
383.97	37.333
384.32	37.523
384.68	38.762
385.04	38.725
385.40	37.150
385.76	39.874
386.12	38.098
386.48	40.038
386.83	38.681
387.19	39.072
387.55	39.711
387.91	39.670
388.27	39.194
388.62	38.704
388.98	38.674
389.34	39.288
389.70	41.144
390.06	39.270
390.42	39.119
390.77	39.176
391.13	39.849
391.49	40.880
391.85	39.896
392.20	39.799
392.56	39.224
392.92	40.693
393.28	40.212
393.64	40.901
393.99	41.630
394.35	40.797
394.71	40.996
395.07	40.352
395.42	40.680
395.78	40.130
396.14	39.912
396.50	41.408
396.85	40.760
397.21	41.980
397.57	41.755
397.92	40.324
398.28	41.322
398.64	41.024
399.00	42.494
399.35	40.745
399.71	40.551
400.07	41.415
400.42	40.208
400.78	41.886
401.14	42.710
401.49	41.751
401.85	40.829
402.21	41.747
402.57	41.688
402.92	41.217
403.28	41.792
403.63	41.236
403.99	40.370
404.35	43.161
404.70	41.726
405.06	41.716
405.42	42.200
405.77	41.604
406.13	41.851
406.49	41.741
406.84	42.971
407.20	42.324
407.55	41.017
407.91	42.848
408.27	41.236
408.62	41.538
408.98	42.206
409.34	41.636
409.69	41.537
410.05	41.564
410.40	42.099
410.76	42.762
411.11	42.625
411.47	41.617
411.83	42.498
412.18	42.600
412.54	41.323
412.89	41.441
413.25	42.900
413.60	41.739
413.96	41.166
414.31	42.561
414.67	41.629
415.03	42.477
415.38	40.796
415.74	41.824
416.09	42.652
416.45	42.336
416.80	42.961
417.16	43.094
417.51	43.971
417.87	42.243
418.22	42.487
418.58	43.478
418.93	42.508
419.29	41.101
419.64	42.709
420.00	43.262
420.35	42.030
420.71	42.892
421.06	42.603
421.42	43.029
421.77	42.254
422.12	42.792
422.48	42.231
422.83	41.531
423.19	42.438
423.54	41.211
423.90	42.344
424.25	43.111
424.61	42.962
424.96	42.567
425.31	43.443
425.67	44.249
426.02	43.757
426.38	45.398
426.73	43.765
427.09	44.114
427.44	43.412
427.79	43.194
428.15	43.022
428.50	44.034
428.85	42.813
429.21	42.615
429.56	43.989
429.92	42.527
430.27	42.657
430.62	42.185
430.98	42.834
431.33	43.375
431.68	43.433
432.04	43.991
432.39	43.354
432.74	42.694
433.10	43.793
433.45	43.548
433.80	44.573
434.16	44.211
434.51	43.871
434.86	43.206
435.22	44.588
435.57	43.356
435.92	43.653
436.28	42.636
436.63	45.180
436.98	43.163
437.34	43.920
437.69	44.544
438.04	44.672
438.39	43.311
438.75	44.869
439.10	44.086
439.45	43.883
439.81	44.954
440.16	44.834
440.51	45.134
440.86	45.498
441.22	43.948
441.57	44.040
441.92	45.068
442.27	44.568
442.63	45.075
442.98	44.170
443.33	45.075
443.68	44.403
444.03	45.007
444.39	44.663
444.74	45.429
445.09	45.768
445.44	46.097
445.79	46.467
446.15	45.925
446.50	45.036
446.85	45.590
447.20	43.900
447.55	45.759
447.91	45.065
448.26	45.304
448.61	45.538
448.96	45.439
449.31	45.260
449.66	45.470
450.02	45.693
450.37	46.414
450.72	44.731
451.07	46.772
451.42	44.881
451.77	45.570
452.12	44.617
452.47	45.782
452.83	45.347
453.18	45.288
453.53	45.891
453.88	45.537
454.23	44.438
454.58	45.970
454.93	46.392
455.28	44.000
455.63	45.939
455.98	45.340
456.34	46.041
456.69	45.426
457.04	45.180
457.39	44.714
457.74	45.345
458.09	44.497
458.44	44.880
458.79	44.258
459.14	44.451
459.49	45.254
459.84	44.388
460.19	44.964
460.54	44.988
460.89	45.170
461.24	45.528
461.59	45.606
461.94	43.899
462.29	44.632
462.64	46.246
462.99	45.701
463.34	44.784
463.69	43.951
464.04	44.855
464.39	44.391
464.74	44.356
465.09	45.477
465.44	44.432
465.79	43.991
466.14	44.413
466.49	43.646
466.84	44.557
467.19	44.180
467.54	42.593
467.89	43.841
468.24	43.917
468.59	44.762
468.94	44.635
469.29	43.672
469.64	44.156
469.99	44.779
470.34	44.437
470.68	45.265
471.03	44.091
471.38	44.151
471.73	43.487
472.08	42.334
472.43	43.490
472.78	43.386
473.13	44.490
473.48	45.863
473.83	43.462
474.17	44.560
474.52	44.033
474.87	43.818
475.22	42.770
475.57	42.857
475.92	43.171
476.27	44.005
476.61	44.097
476.96	42.108
477.31	42.023
477.66	43.034
478.01	43.234
478.36	42.593
478.70	43.448
479.05	43.132
479.40	43.508
479.75	41.971
480.10	42.550
480.45	43.100
480.79	44.260
481.14	44.160
481.49	43.645
481.84	42.954
482.19	41.955
482.53	42.494
482.88	42.482
483.23	42.706
483.58	41.887
483.92	42.014
484.27	41.340
484.62	42.447
484.97	41.791
485.31	40.679
485.66	38.850
486.01	40.247
486.36	40.110
486.70	41.856
487.05	41.255
487.40	40.460
487.75	41.577
488.09	41.069
488.44	40.818
488.79	41.390
489.13	41.587
489.48	41.599
489.83	41.166
490.17	40.629
490.52	40.508
490.87	40.583
491.22	42.550
491.56	41.034
491.91	40.249
492.26	41.565
492.60	40.115
492.95	41.958
493.30	40.547
493.64	41.012
493.99	41.063
494.34	40.194
494.68	40.381
495.03	40.097
495.37	39.647
495.72	41.595
496.07	39.951
496.41	40.519
496.76	40.258
497.11	40.149
497.45	40.573
497.80	40.414
498.14	40.537
498.49	38.852
498.84	39.920
499.18	40.713
499.53	40.079
499.87	39.202
500.22	39.911
500.56	40.746
500.91	39.910
501.26	38.952
501.60	39.498
501.95	39.495
502.29	39.903
502.64	40.010
502.98	40.454
503.33	38.761
503.67	38.892
504.02	38.514
504.36	40.228
504.71	39.192
505.06	39.205
505.40	38.934
505.75	38.969
506.09	38.469
506.44	39.374
506.78	38.214
507.13	38.366
507.47	38.747
507.82	39.156
508.16	39.408
508.51	38.458
508.85	39.142
509.19	37.573
509.54	38.552
509.88	38.619
510.23	37.870
510.57	38.055
510.92	37.420
511.26	37.534
511.61	37.899
511.95	37.370
512.30	38.304
512.64	38.063
512.98	38.293
513.33	38.220
513.67	38.090
514.02	39.188
514.36	38.514
514.70	38.228
515.05	37.955
515.39	37.603
515.74	38.743
516.08	38.673
516.42	37.927
516.77	37.917
517.11	39.228
517.46	37.463
517.80	37.723
518.14	38.273
518.49	37.740
518.83	38.092
519.17	37.538
519.52	37.655
519.86	37.635
520.20	37.606
520.55	36.648
520.89	37.077
521.23	36.859
521.58	37.161
521.92	36.987
522.26	37.215
522.61	37.597
522.95	38.013
523.29	36.150
523.64	37.166
523.98	37.459
524.32	35.696
524.66	38.348
525.01	36.818
525.35	37.265
525.69	35.354
526.04	35.516
526.38	37.678
526.72	36.233
527.06	36.187
527.41	37.071
527.75	35.858
528.09	35.681
528.43	37.340
528.78	35.974
529.12	35.032
529.46	36.647
529.80	36.479
530.15	36.436
530.49	36.027
530.83	36.457
531.17	36.199
531.51	36.936
531.86	35.078
532.20	34.656
532.54	34.717
532.88	35.387
533.22	35.551
533.57	34.862
533.91	35.444
534.25	36.784
534.59	34.958
534.93	35.746
535.27	33.756
535.62	33.895
535.96	35.877
536.30	35.488
536.64	35.148
536.98	34.564
537.32	35.775
537.66	35.063
538.01	35.035
538.35	34.189
538.69	33.688
539.03	34.108
539.37	33.782
539.71	34.424
540.05	33.809
540.39	33.657
540.73	33.961
541.07	34.530
541.42	34.476
541.76	34.962
542.10	34.205
542.44	34.538
542.78	33.173
543.12	33.791
543.46	33.866
543.80	33.518
544.14	33.178
544.48	34.177
544.82	34.176
545.16	34.221
545.50	33.044
545.84	33.215
546.18	34.397
546.52	33.526
546.86	33.285
547.20	32.904
547.54	31.943
547.88	33.016
548.22	32.150
548.56	33.509
548.90	33.693
549.24	32.025
549.58	33.075
549.92	32.595
550.26	32.601
550.60	34.275
550.94	32.636
551.28	32.998
551.62	32.231
551.96	31.579
552.30	32.749
552.64	31.735
552.98	32.208
553.32	32.382
553.66	32.511
554.00	31.898
554.34	32.349
554.68	31.711
555.02	32.292
555.36	32.386
555.69	31.648
556.03	30.835
556.37	31.530
556.71	32.419
557.05	32.438
557.39	31.078
557.73	31.784
558.07	32.353
558.41	32.236
558.75	31.489
559.08	31.048
559.42	31.508
559.76	32.026
560.10	31.193
560.44	31.794
560.78	31.119
561.12	32.087
561.45	32.256
561.79	31.303
562.13	31.228
562.47	31.007
562.81	31.052
563.15	30.959
563.48	30.976
563.82	30.336
564.16	30.850
564.50	30.811
564.84	30.321
565.17	30.248
565.51	32.172
565.85	30.727
566.19	31.167
566.52	31.032
566.86	32.069
567.20	30.075
567.54	30.961
567.88	30.931
568.21	31.448
568.55	30.598
568.89	30.493
569.23	30.621
569.56	29.597
569.90	30.816
570.24	29.736
570.57	29.818
570.91	30.220
571.25	29.332
571.59	29.710
571.92	28.474
572.26	29.136
572.60	29.209
572.93	29.244
573.27	28.401
573.61	29.326
573.95	28.973
574.28	28.708
574.62	28.350
574.96	28.896
575.29	28.546
575.63	27.598
575.97	28.138
576.30	27.945
576.64	28.450
576.98	28.700
577.31	28.557
577.65	28.670
577.98	28.233
578.32	28.613
578.66	27.789
578.99	28.358
579.33	28.429
579.67	27.580
580.00	28.228
580.34	28.234
580.67	27.745
581.01	28.074
581.35	27.541
581.68	28.085
582.02	27.712
582.35	27.799
582.69	28.418
583.02	27.964
583.36	28.105
583.70	28.998
584.03	27.884
584.37	28.713
584.70	28.269
585.04	27.824
585.37	27.936
585.71	27.845
586.04	27.433
586.38	27.447
586.72	28.522
587.05	28.365
587.39	28.180
587.72	28.568
588.06	27.872
588.39	27.912
588.73	28.632
589.06	28.408
589.40	28.310
589.73	28.514
590.07	28.172
590.40	27.902
590.73	28.295
591.07	28.075
591.40	28.050
591.74	28.371
592.07	28.618
592.41	28.445
592.74	27.718
593.08	26.930
593.41	27.348
593.75	27.674
594.08	27.360
594.41	27.729
594.75	27.481
595.08	27.658
595.42	27.825
595.75	27.450
596.09	28.108
596.42	27.573
596.75	28.330
597.09	27.335
597.42	27.236
597.75	27.256
598.09	27.071
598.42	27.347
598.76	26.684
599.09	27.404
599.42	26.980
599.76	26.674
600.09	26.998
600.42	27.369
600.76	26.263
601.09	26.870
601.42	26.596
601.76	26.360
602.09	26.939
602.42	27.338
602.76	27.122
603.09	26.993
603.42	27.801
603.76	26.855
604.09	26.610
604.42	27.073
604.76	27.770
605.09	27.148
605.42	26.817
605.75	26.138
606.09	26.624
606.42	26.397
606.75	27.056
607.09	27.077
607.42	26.141
607.75	26.332
608.08	26.370
608.42	25.628
608.75	27.470
609.08	26.956
609.41	26.599
609.75	25.554
610.08	27.409
610.41	26.135
610.74	26.182
611.07	26.718
611.41	26.933
611.74	27.612
612.07	26.231
612.40	28.173
612.73	26.384
613.07	26.265
613.40	26.641
613.73	25.741
614.06	26.489
614.39	26.509
614.72	25.714
615.06	25.922
615.39	25.764
615.72	25.780
616.05	26.480
616.38	26.040
616.71	26.911
617.05	25.942
617.38	26.398
617.71	26.478
618.04	27.619
618.37	27.932
618.70	26.997
619.03	27.431
619.36	26.483
619.69	27.445
620.03	26.297
620.36	27.325
620.69	26.909
621.02	26.606
621.35	27.220
621.68	26.956
622.01	25.917
622.34	26.018
622.67	26.656
623.00	26.417
623.33	26.448
623.66	26.627
623.99	26.324
624.32	26.464
624.65	25.564
624.99	26.787
625.32	25.777
625.65	26.159
625.98	25.463
626.31	25.187
626.64	25.997
626.97	27.749
627.30	26.445
627.63	26.776
627.96	26.325
628.29	26.549
628.62	27.729
628.95	25.451
629.28	26.109
629.61	25.025
629.94	26.686
630.26	25.494
630.59	27.471
630.92	25.641
631.25	25.231
631.58	26.432
631.91	27.412
632.24	24.771
632.57	26.250
632.90	26.928
633.23	26.941
633.56	25.441
633.89	25.771
634.22	26.049
634.55	26.302
634.88	25.543
635.20	25.513
635.53	25.467
635.86	25.748
636.19	26.520
636.52	25.638
636.85	25.682
637.18	24.528
637.51	26.164
637.83	27.070
638.16	25.102
638.49	25.477
638.82	27.632
639.15	24.288
639.48	26.410
639.81	27.197
640.13	28.283
640.46	26.531
640.79	25.626
641.12	25.554
641.45	25.375
641.77	25.037
642.10	25.908
642.43	26.045
642.76	28.383
643.09	24.233
643.41	26.052
643.74	27.183
644.07	27.915
644.40	26.351
644.73	25.219
645.05	26.846
645.38	26.455
645.71	23.936
646.04	27.469
646.36	24.645
646.69	28.237
647.02	26.843
647.35	28.172
647.67	27.971
648.00	24.627
648.33	26.621
648.66	24.746
648.98	22.446
649.31	25.124
649.64	24.804
649.96	25.446
650.29	25.894
650.62	27.179
650.94	25.370
651.27	24.581
651.60	24.685
651.92	24.825
652.25	23.446
652.58	24.000
652.90	25.729
653.23	25.042
653.56	23.350
653.88	25.430
654.21	20.315
654.54	25.297
654.86	24.788
655.19	24.269
655.52	25.851
655.84	23.125
656.17	25.615
656.49	35.215
656.82	36.746
657.15	28.312
657.47	21.114
657.80	15.789
658.13	15.357
658.45	23.553
658.78	23.897
659.10	23.148
659.43	23.689
659.75	23.828
660.08	23.862
660.41	24.515
660.73	24.171
661.06	24.090
661.38	24.462
661.71	21.561
662.03	28.112
662.36	26.154
662.68	21.018
663.01	25.764
663.33	21.578
663.66	23.488
663.98	20.930
664.31	24.947
664.63	22.811
664.96	22.609
665.28	20.971
665.61	25.325
665.93	23.696
666.26	25.380
666.58	24.609
666.91	21.882
667.23	23.585
667.56	23.460
667.88	22.302
668.21	22.912
668.53	27.896
668.86	23.585
669.18	21.698
669.50	24.939
669.83	22.791
670.15	25.641
670.48	22.967
670.80	21.889
671.13	25.280
671.45	19.635
671.77	23.820
672.10	24.356
672.42	21.161
672.75	23.268
673.07	24.150
673.39	25.688
673.72	22.485
674.04	22.083
674.37	23.941
674.69	23.340
675.01	26.222
675.34	22.072
675.66	25.000
675.98	24.612
676.31	25.229
676.63	22.328
676.95	21.818
677.28	24.000
677.60	23.614
677.92	24.083
678.25	22.319
678.57	20.996
678.89	23.529
679.22	25.503
679.54	21.285
679.86	21.272
680.18	25.631
680.51	23.485
680.83	20.875
681.15	23.400
681.48	23.156
681.80	22.521
682.12	21.169
682.44	21.757
682.77	23.620
683.09	22.883
683.41	23.636
683.73	23.272
684.06	25.442
684.38	21.935
684.70	25.272
685.02	19.917
685.34	20.553
685.67	23.452
685.99	22.061
686.31	22.832
686.63	21.521
686.96	23.194
687.28	21.010
687.60	21.483
687.92	26.263
688.24	22.782
688.56	21.397
688.89	21.652
689.21	23.333
689.53	22.274
689.85	21.860
690.17	24.107
690.49	25.059
690.82	21.602
691.14	21.429
691.46	19.393
691.78	21.622
692.10	22.581
692.42	20.563
692.74	21.795
693.06	22.072
693.39	20.362
693.71	20.588
694.03	20.785
694.35	20.794
694.67	21.717
694.99	22.454
695.31	22.715
695.63	21.250
695.95	19.192
696.27	20.207
696.59	23.611
696.91	21.289
697.23	21.337
697.56	22.772
697.88	23.226
698.20	21.868
698.52	21.882
698.84	22.010
699.16	22.250
699.48	19.549
699.80	22.333
700.12	21.833
700.44	22.969
700.76	21.221
701.08	23.333
701.40	21.988
701.72	23.765
702.04	24.752
702.36	23.746
702.68	20.120
703.00	22.727
703.32	21.994
703.64	18.644
703.96	20.000
704.28	21.779
704.60	19.365
704.91	22.082
705.23	18.272
705.55	20.848
705.87	22.383
706.19	21.481
706.51	18.213
706.83	25.402
707.15	18.692
707.47	23.529
707.79	21.354
708.11	21.750
708.43	19.250
708.74	21.189
709.06	21.972
709.38	21.101
709.70	21.006
710.02	21.975
710.34	20.433
710.66	18.590
710.98	19.536
711.29	20.984
711.61	21.017
711.93	19.870
712.25	24.055
712.57	27.106
712.89	20.149
713.20	22.145
713.52	20.209
713.84	24.915
714.16	17.526
714.48	22.903
714.80	21.474
715.11	20.669
715.43	14.420
715.75	18.667
716.07	17.940
716.39	20.470
716.70	22.509
717.02	19.847
717.34	19.838
717.66	19.469
717.97	16.957
718.29	20.502
718.61	19.685
718.93	19.380
719.24	21.673
719.56	17.269
719.88	18.213
720.20	20.455
720.51	17.625
720.83	20.463
721.15	21.429
721.46	19.758
721.78	12.253
722.10	20.818
722.42	18.257
722.73	15.918
723.05	17.143
723.37	26.271
723.68	20.721
724.00	16.667
724.32	15.111
724.63	17.727
724.95	21.397
725.27	17.972
725.58	15.678
725.90	16.667
726.22	16.988
726.53	22.373
726.85	20.974
727.16	22.264
727.48	19.028
727.80	22.267
728.11	13.559
728.43	17.255
728.74	14.919
729.06	20.000
729.38	24.436
729.69	15.139
730.01	15.385
730.32	17.910
730.64	22.968
730.96	23.396
731.27	15.667
731.59	16.610
731.90	18.153
732.22	23.028
732.53	21.262
732.85	18.440
733.16	21.886
733.48	17.626
733.80	20.290
734.11	18.983
734.43	19.931
734.74	18.788
735.06	18.893
735.37	20.242
735.69	20.875
736.00	17.422
736.32	18.121
736.63	24.296
736.95	22.184
737.26	18.149
737.58	20.134
737.89	14.286
738.21	16.917
738.52	15.638
738.83	18.777
739.15	19.214
739.46	16.929
739.78	18.315
740.09	17.647
740.41	18.116
740.72	14.961
741.04	21.457
741.35	21.277
741.66	20.379
741.98	14.796
742.29	18.317
742.61	17.801
742.92	6.161
743.23	13.426
743.55	20.362
743.86	21.053
744.18	18.660
744.49	12.234
744.80	16.304
745.12	17.647
745.43	14.146
745.74	20.312
746.06	19.512
746.37	16.230
746.68	17.536
747.00	17.553
747.31	23.881
747.62	16.990
747.94	24.402
748.25	18.812
748.56	17.486
748.88	15.707
749.19	16.489
749.50	20.690
749.82	16.038
750.13	22.936
750.44	22.556
750.75	20.522
751.07	21.168
751.38	16.858
751.69	13.333
752.01	17.054
752.32	20.717
752.63	14.229
752.94	12.500
753.26	25.941
753.57	17.647
753.88	21.239
754.19	12.500
754.51	16.116
754.82	16.194
755.13	22.083
755.44	18.952
755.75	22.266
756.07	15.953
756.38	16.604
756.69	15.326
757.00	19.667
757.31	19.608
757.63	16.463
757.94	15.833
758.25	17.260
758.56	20.213
758.87	18.130
759.18	16.511
759.50	17.818
759.81	17.391
760.12	21.290
760.43	15.152
760.74	20.679
761.05	18.154
761.36	19.034
761.67	21.212
761.99	20.748
762.30	15.636
762.61	17.391
762.92	16.742
763.23	15.766
763.54	14.486
763.85	14.831
764.16	14.938
764.47	17.742
764.78	15.751
765.10	21.212
765.41	17.035
765.72	16.825
766.03	13.910
766.34	17.153
766.65	21.514
766.96	21.212
767.27	16.489
767.58	9.195
767.89	13.475
768.20	13.068
768.51	17.582
768.82	19.704
769.13	17.512
769.44	19.742
769.75	14.612
770.06	20.259
770.37	14.423
770.68	12.690
770.99	19.005
771.30	16.176
771.61	15.837
771.92	18.103
772.23	18.719
772.54	13.441
772.85	9.877
773.16	20.225
773.47	22.222
773.78	18.954
774.09	17.365
774.39	15.333
774.70	16.561
775.01	19.310
775.32	20.000
775.63	9.917
775.94	16.794
776.25	18.110
776.56	10.833
776.87	0.962
777.18	22.222
777.48	1.724
777.79	5.217
778.10	6.667
778.41	8.108
778.72	13.492
779.03	16.541
779.34	24.113
779.65	20.548
779.95	9.589
780.26	11.724
780.57	7.317
780.88	7.087
781.19	14.655
781.50	17.054
781.80	15.976
782.11	15.723
782.42	13.846
782.73	12.230
783.04	10.370
783.34	11.806
783.65	-5.128
783.96	7.377
784.27	15.862
784.57	12.195
784.88	14.844
785.19	21.000
785.50	22.000
785.81	21.552
786.11	12.069
786.42	10.680
786.73	20.909
787.04	11.224
787.34	9.821
787.65	18.095
787.96	10.619
788.26	11.818
788.57	14.530
788.88	16.406
789.19	20.635
789.49	13.913
789.80	9.184
790.11	4.040
790.41	9.091
790.72	18.478
791.03	9.091
791.33	11.250
791.64	-1.250
791.95	6.977
792.25	20.213
792.56	16.854
792.87	19.178
793.17	11.594
793.48	4.000
793.79	1.250
794.09	15.000
794.40	10.377
794.70	6.796
795.01	4.065
795.32	10.256
795.62	1.905
795.93	12.745
796.23	16.038
796.54	11.458
796.85	19.118
797.15	8.451
797.46	12.500
797.76	6.061
798.07	9.302
798.37	-7.895
798.68	0.000
798.99	2.469
799.29	20.000
799.60	-8.696
799.90	21.333
800.21	29.508
800.51	-3.077
800.82	28.814
801.12	11.594
801.43	9.836
801.73	9.524
802.04	0.000
802.34	13.433
802.65	13.462
802.95	8.929
803.26	13.462
803.56	-9.804
803.87	-23.913
804.17	14.667
804.48	22.222
804.78	12.963
805.09	10.870
805.39	17.778
805.70	16.667
806.00	-1.754
806.30	18.310
806.61	14.286
806.91	2.778
807.22	10.526
807.52	6.667
807.83	1.818
808.13	20.833
808.43	20.588
808.74	-11.940
809.04	-1.695
809.35	-11.538
809.65	6.250
809.95	-51.351
810.26	-31.818
810.56	-5.479
810.86	4.762
811.17	-2.000
811.47	10.204
811.77	-28.947
812.08	9.091
812.38	1.887
812.69	0.000
812.99	-9.091
813.29	21.053
813.59	-40.000
813.90	-9.091
814.20	-23.077
814.50	1.923
814.81	7.547
815.11	-21.277
815.41	16.949
815.72	-2.381
816.02	-5.882
816.32	-6.250
816.62	-4.878
816.93	-10.811
817.23	8.571
817.53	12.500
817.84	6.522
818.14	19.231
818.44	-31.579
818.74	15.217
819.04	-32.500
819.35	16.216
819.65	-26.471
819.95	-8.333
820.25	-23.810
820.56	10.000
820.86	-20.690
821.16	20.000
821.46	17.021
821.76	-2.500
822.07	-6.977
822.37	-24.324
822.67	-31.250
822.97	-4.762
823.27	-35.714
823.57	-12.000
823.88	-81.481
824.18	-10.714
824.48	17.647
824.78	-12.903
825.08	-26.087
825.38	-21.212
825.69	-54.167
825.99	-10.526
826.29	8.333
826.59	-53.333
826.89	-33.333
827.19	4.348
827.49	-17.500
827.79	0.000
828.09	-21.429
828.39	-3.030
828.70	29.730
829.00	7.143
829.30	-33.333
829.60	-20.000
829.90	6.250
830.20	-5.263
830.50	-22.222
830.80	-43.478
831.10	-27.273
831.40	39.394
831.70	19.355
832.00	0.000
832.30	-42.857
832.60	-133.333
832.90	-31.034
833.20	-30.000
833.50	6.061
833.80	0.000
834.10	-7.692
834.40	37.500
834.70	-66.667
835.00	-42.105
835.30	46.154
835.60	-20.000
835.90	16.129
836.20	-18.182
836.50	-21.429
836.80	-30.769
837.10	-7.143
837.40	-366.667
837.70	-27.273
838.00	-100.000
838.30	-39.130
838.60	-38.462
838.90	31.818
839.19	-25.000
839.49	0.000
839.79	-107.692
840.09	-75.000
840.39	14.286
840.69	-35.714
840.99	-23.077
841.29	-89.474
841.59	-190.000
841.88	-109.091
842.18	-60.000
842.48	-18.750
842.78	-73.333
843.08	-22.222
843.38	-210.000
843.68	-34.783
843.97	6.667
844.27	-113.333
844.57	-75.000
844.87	-44.444
845.17	-52.381
845.47	-33.333
845.76	-47.619
846.06	-17.647
846.36	10.000
846.66	-64.286
846.96	-33.333
847.25	-237.500
847.55	7.143
847.85	-137.500
848.15	-50.000
848.44	-600.000
848.74	0.000
849.04	11.111
849.34	-9.091
849.63	-266.667
849.93	-300.000
850.23	-50.000
850.53	40.000
850.82	-84.615
851.12	0.000
851.42	-20.000
851.71	7.692
852.01	-107.143
852.31	-125.000
852.61	-181.818
852.90	-20.000
853.20	15.789
853.50	-16.667
853.79	17.391
854.09	4.167
854.39	-68.421
854.68	-25.000
854.98	-19.355
855.28	46.154
855.57	-35.000
855.87	44.444
856.17	25.926
856.46	7.143
856.76	-113.333
857.05	-122.222
857.35	-16.000
857.65	-61.111
857.94	-7.692
858.24	24.138
858.53	33.333
858.83	3.704
859.13	36.364
859.42	-47.826
859.72	-150.000
860.01	-433.333
860.31	4.000
860.60	-33.333
860.90	-300.000
861.20	-20.000
861.49	-800.000
861.79	20.000
862.08	15.000
862.38	140.000
862.67	-160.000
862.97	-250.000
863.26	-8.333
863.56	-11.111
863.85	-133.333
864.15	22.222
864.44	-120.000
864.74	21.429
865.03	450.000
865.33	-360.000
865.62	0.000
865.92	0.000
866.21	-250.000
866.51	31.250
866.80	-127.273
867.10	-400.000
867.39	25.000
867.69	0.000
867.98	-46.154
868.27	-633.333
868.57	-53.333
868.86	-11.111
869.16	-84.615
869.45	20.000
869.75	-1800.000
870.04	0.000
870.33	-157.143
870.63	9.524
870.92	266.667
871.22	-60.000
871.51	-1000.000
871.80	-22.222
872.10	400.000
>>>>>End Processed Spectral Data<<<<<
