SpectraSuite Data File
++++++++++++++++++++++++++++++++++++
Date: Fri May 15 21:07:44 PDT 2015
User: schluterlab
Dark Spectrum Present: Yes
Reference Spectrum Present: Yes
Number of Sampled Component Spectra: 1
Spectrometers: USB2E3373
Integration Time (usec): 3000 (USB2E3373)
Spectra Averaged: 3 (USB2E3373)
Boxcar Smoothing: 0 (USB2E3373)
Correct for Electrical Dark: No (USB2E3373)
Strobe/Lamp Enabled: No (USB2E3373)
Correct for Detector Non-linearity: No (USB2E3373)
Correct for Stray Light: No (USB2E3373)
Number of Pixels in Processed Spectrum: 2048
>>>>>Begin Processed Spectral Data<<<<<
178.53	0.000
178.91	0.000
179.29	25.000
179.67	-350.000
180.04	-0.000
180.42	-75.000
180.80	-200.000
181.18	66.667
181.56	700.000
181.94	0.000
182.31	100.000
182.69	20.000
183.07	-166.667
183.45	-160.000
183.83	200.000
184.20	0.000
184.58	200.000
184.96	-25.000
185.34	-66.667
185.72	-300.000
186.09	115.385
186.47	-800.000
186.85	150.000
187.23	33.333
187.61	-300.000
187.98	-266.667
188.36	-33.333
188.74	-533.333
189.12	11.765
189.49	11.111
189.87	0.000
190.25	50.000
190.63	0.000
191.00	-266.667
191.38	-10.526
191.76	-250.000
192.14	250.000
192.51	-200.000
192.89	-55.556
193.27	-114.286
193.65	83.333
194.02	154.545
194.40	-20.000
194.78	-87.500
195.15	-66.667
195.53	-75.000
195.91	450.000
196.29	-250.000
196.66	161.538
197.04	114.286
197.42	-133.333
197.79	-600.000
198.17	-115.385
198.55	1600.000
198.92	-566.667
199.30	-1400.000
199.68	60.000
200.05	-466.667
200.43	0.000
200.81	166.667
201.18	-233.333
201.56	700.000
201.94	-550.000
202.31	-33.333
202.69	-320.000
203.07	300.000
203.44	-600.000
203.82	0.000
204.19	14.286
204.57	-266.667
204.95	162.500
205.32	-10.000
205.70	0.000
206.08	-175.000
206.45	166.667
206.83	92.857
207.20	0.000
207.58	-100.000
207.96	-133.333
208.33	-60.000
208.71	-300.000
209.08	-283.333
209.46	-1300.000
209.84	-60.000
210.21	-2000.000
210.59	-42.857
210.96	-50.000
211.34	-25.000
211.71	0.000
212.09	-157.143
212.46	-1200.000
212.84	0.000
213.22	20.000
213.59	950.000
213.97	-69.231
214.34	-81.818
214.72	-100.000
215.09	375.000
215.47	-23.077
215.84	-109.091
216.22	-233.333
216.59	-62.500
216.97	200.000
217.34	-150.000
217.72	-100.000
218.09	62.500
218.47	150.000
218.84	-900.000
219.22	-211.111
219.59	-200.000
219.97	266.667
220.34	400.000
220.72	-14.286
221.09	-175.000
221.47	-150.000
221.84	-650.000
222.22	-900.000
222.59	27.273
222.97	-66.667
223.34	-200.000
223.72	-21.429
224.09	9.524
224.46	-7.143
224.84	400.000
225.21	-80.000
225.59	20.000
225.96	-300.000
226.34	350.000
226.71	-200.000
227.08	-133.333
227.46	87.500
227.83	-750.000
228.21	-33.333
228.58	-54.545
228.95	-87.500
229.33	120.000
229.70	31.250
230.08	-162.500
230.45	-114.286
230.82	-28.571
231.20	-26.667
231.57	0.000
231.95	-157.143
232.32	-80.000
232.69	42.857
233.07	-333.333
233.44	-100.000
233.81	-60.000
234.19	0.000
234.56	-47.059
234.93	500.000
235.31	-300.000
235.68	-60.000
236.05	-53.846
236.43	-80.000
236.80	-5.882
237.17	3.125
237.55	-30.000
237.92	-29.630
238.29	-8.333
238.67	3.333
239.04	-5.882
239.41	-43.902
239.79	-26.667
240.16	-26.829
240.53	-36.842
240.91	-23.913
241.28	-3.175
241.65	-14.286
242.02	19.178
242.40	-15.000
242.77	-22.034
243.14	-10.606
243.51	7.500
243.89	10.345
244.26	-1.149
244.63	-10.714
245.00	4.124
245.38	1.031
245.75	-13.483
246.12	-4.310
246.49	-1.653
246.87	1.923
247.24	-4.202
247.61	-15.789
247.98	-2.439
248.36	3.125
248.73	1.974
249.10	-2.597
249.47	2.532
249.84	1.307
250.22	-1.176
250.59	-1.961
250.96	7.981
251.33	-5.814
251.70	-4.118
252.08	1.015
252.45	-0.990
252.82	1.005
253.19	2.304
253.56	-5.607
253.94	-0.450
254.31	-1.304
254.68	4.386
255.05	1.575
255.42	2.183
255.79	1.931
256.16	1.167
256.54	5.597
256.91	0.380
257.28	2.974
257.65	-1.873
258.02	-0.355
258.39	4.714
258.76	0.366
259.14	0.332
259.51	2.265
259.88	0.000
260.25	0.980
260.62	0.000
260.99	-1.356
261.36	-3.425
261.73	-3.481
262.10	4.559
262.47	0.613
262.85	0.313
263.22	4.308
263.59	0.623
263.96	1.863
264.33	1.515
264.70	-0.893
265.07	2.679
265.44	1.416
265.81	0.565
266.18	1.913
266.55	2.057
266.92	3.109
267.29	0.000
267.66	3.581
268.03	2.094
268.40	0.000
268.77	1.872
269.14	-0.240
269.51	3.856
269.88	1.247
270.25	-2.806
270.62	0.000
270.99	1.279
271.36	0.489
271.73	1.408
272.10	0.973
272.47	3.073
272.84	1.485
273.21	-0.232
273.58	0.482
273.95	0.915
274.32	1.386
274.69	1.131
275.06	2.455
275.43	1.587
275.80	0.883
276.17	0.920
276.54	1.713
276.91	1.754
277.28	0.000
277.65	2.686
278.02	2.128
278.39	-2.188
278.76	1.677
279.13	-4.149
279.50	1.050
279.87	1.728
280.23	-1.075
280.60	1.754
280.97	0.606
281.34	2.115
281.71	1.437
282.08	0.613
282.45	0.391
282.82	0.579
283.19	0.967
283.56	1.734
283.92	-0.190
284.29	1.346
284.66	0.000
285.03	0.982
285.40	2.268
285.77	0.879
286.14	1.805
286.51	2.030
286.87	0.183
287.24	0.737
287.61	2.116
287.98	3.509
288.35	1.733
288.72	2.452
289.08	2.951
289.45	1.933
289.82	1.923
290.19	0.512
290.56	1.201
290.93	0.000
291.29	1.079
291.66	3.150
292.03	0.159
292.40	2.742
292.77	1.116
293.13	0.000
293.50	0.759
293.87	0.611
294.24	1.082
294.60	2.235
294.97	2.976
295.34	0.460
295.71	0.149
296.08	1.046
296.44	0.427
296.81	1.667
297.18	2.029
297.55	3.117
297.91	1.918
298.28	3.034
298.65	2.307
299.02	2.022
299.38	0.410
299.75	1.103
300.12	2.356
300.48	0.791
300.85	2.915
301.22	1.948
301.59	1.579
301.95	2.658
302.32	2.594
302.69	2.363
303.05	1.238
303.42	2.117
303.79	2.687
304.15	4.540
304.52	1.546
304.89	2.924
305.25	3.269
305.62	2.217
305.99	2.924
306.35	1.965
306.72	2.925
307.09	2.509
307.45	2.755
307.82	0.579
308.19	2.787
308.55	3.162
308.92	3.050
309.29	2.570
309.65	3.660
310.02	3.960
310.38	2.744
310.75	4.372
311.12	3.660
311.48	3.712
311.85	2.932
312.22	3.270
312.58	4.246
312.95	4.589
313.31	3.727
313.68	4.503
314.05	5.000
314.41	4.948
314.78	4.845
315.14	5.344
315.51	6.522
315.87	6.352
316.24	7.685
316.61	6.890
316.97	6.845
317.34	5.762
317.70	6.501
318.07	6.154
318.43	8.431
318.80	7.576
319.16	8.105
319.53	9.877
319.89	7.776
320.26	9.008
320.62	10.130
320.99	9.395
321.35	9.661
321.72	10.592
322.08	9.970
322.45	11.980
322.81	12.574
323.18	10.500
323.54	11.776
323.91	12.561
324.27	13.086
324.64	13.764
325.00	14.599
325.37	15.519
325.73	14.325
326.10	14.896
326.46	15.336
326.83	16.710
327.19	16.391
327.56	15.812
327.92	16.989
328.29	17.054
328.65	17.736
329.01	17.463
329.38	18.249
329.74	18.508
330.11	19.370
330.47	17.811
330.84	17.692
331.20	21.198
331.56	19.167
331.93	20.091
332.29	20.440
332.66	20.362
333.02	21.283
333.38	19.065
333.75	20.788
334.11	20.680
334.48	21.306
334.84	22.070
335.20	21.043
335.57	21.034
335.93	21.229
336.29	20.994
336.66	21.072
337.02	21.097
337.38	20.833
337.75	21.182
338.11	20.559
338.47	22.080
338.84	21.719
339.20	21.846
339.56	21.927
339.93	22.381
340.29	21.009
340.65	21.595
341.02	22.163
341.38	21.062
341.74	20.671
342.11	19.497
342.47	22.687
342.83	21.540
343.20	20.470
343.56	20.957
343.92	22.586
344.28	22.118
344.65	20.380
345.01	21.608
345.37	21.110
345.73	21.255
346.10	22.519
346.46	21.783
346.82	21.113
347.19	20.615
347.55	21.053
347.91	20.550
348.27	20.453
348.63	21.039
349.00	20.016
349.36	19.867
349.72	21.476
350.08	18.934
350.45	20.910
350.81	21.013
351.17	20.440
351.53	21.224
351.89	20.231
352.26	20.160
352.62	20.323
352.98	20.723
353.34	20.129
353.70	21.197
354.07	19.597
354.43	19.856
354.79	20.149
355.15	21.587
355.51	20.095
355.87	20.469
356.24	18.923
356.60	19.644
356.96	20.952
357.32	20.288
357.68	19.077
358.04	20.113
358.40	20.177
358.77	19.936
359.13	19.776
359.49	19.260
359.85	19.501
360.21	19.298
360.57	20.046
360.93	19.592
361.29	18.051
361.66	20.376
362.02	20.682
362.38	19.040
362.74	19.833
363.10	20.015
363.46	19.718
363.82	19.459
364.18	20.148
364.54	19.191
364.90	18.996
365.26	18.486
365.62	20.365
365.98	19.428
366.35	19.956
366.71	19.143
367.07	19.811
367.43	18.620
367.79	17.880
368.15	18.449
368.51	19.301
368.87	18.521
369.23	18.845
369.59	19.825
369.95	17.815
370.31	19.581
370.67	19.104
371.03	18.073
371.39	18.600
371.75	18.535
372.11	18.474
372.47	19.231
372.83	19.021
373.19	19.971
373.55	18.773
373.91	19.006
374.27	18.710
374.63	19.670
374.99	19.007
375.35	18.384
375.71	19.580
376.07	18.890
376.42	18.776
376.78	19.530
377.14	19.296
377.50	17.663
377.86	19.277
378.22	18.634
378.58	18.846
378.94	18.147
379.30	17.592
379.66	18.871
380.02	18.516
380.38	17.772
380.74	17.475
381.09	17.791
381.45	18.777
381.81	18.507
382.17	18.909
382.53	18.738
382.89	17.891
383.25	18.108
383.61	18.659
383.97	17.333
384.32	18.386
384.68	17.709
385.04	17.218
385.40	18.171
385.76	18.302
386.12	18.887
386.48	17.688
386.83	16.931
387.19	17.827
387.55	17.817
387.91	18.215
388.27	17.643
388.62	18.376
388.98	17.311
389.34	18.301
389.70	19.080
390.06	17.306
390.42	17.681
390.77	17.789
391.13	17.528
391.49	17.335
391.85	18.064
392.20	17.640
392.56	18.055
392.92	17.792
393.28	16.627
393.64	16.757
393.99	17.994
394.35	16.762
394.71	18.008
395.07	16.530
395.42	16.454
395.78	16.612
396.14	16.961
396.50	16.107
396.85	17.901
397.21	17.105
397.57	16.803
397.92	17.256
398.28	16.897
398.64	15.723
399.00	16.817
399.35	15.971
399.71	16.715
400.07	16.989
400.42	16.585
400.78	17.146
401.14	16.999
401.49	16.617
401.85	16.149
402.21	16.084
402.57	15.500
402.92	15.558
403.28	16.792
403.63	15.889
403.99	15.370
404.35	16.490
404.70	16.012
405.06	15.276
405.42	15.848
405.77	14.875
406.13	16.007
406.49	15.335
406.84	15.465
407.20	16.315
407.55	15.132
407.91	14.639
408.27	15.743
408.62	15.631
408.98	15.588
409.34	15.551
409.69	14.276
410.05	15.764
410.40	15.556
410.76	15.501
411.11	15.750
411.47	14.727
411.83	13.999
412.18	14.929
412.54	14.295
412.89	14.039
413.25	15.283
413.60	13.665
413.96	14.724
414.31	15.549
414.67	14.112
415.03	14.647
415.38	14.817
415.74	14.984
416.09	16.003
416.45	15.192
416.80	14.144
417.16	14.019
417.51	14.124
417.87	13.625
418.22	14.832
418.58	13.645
418.93	14.232
419.29	13.956
419.64	14.258
420.00	14.798
420.35	15.045
420.71	14.399
421.06	14.426
421.42	14.363
421.77	14.509
422.12	13.621
422.48	13.535
422.83	14.211
423.19	14.165
423.54	13.169
423.90	13.310
424.25	13.318
424.61	13.158
424.96	13.647
425.31	14.558
425.67	13.732
426.02	13.899
426.38	13.651
426.73	14.044
427.09	14.177
427.44	14.176
427.79	14.496
428.15	13.956
428.50	13.083
428.85	12.654
429.21	14.035
429.56	13.693
429.92	13.559
430.27	13.835
430.62	12.859
430.98	13.323
431.33	13.933
431.68	12.611
432.04	13.304
432.39	13.349
432.74	13.229
433.10	13.391
433.45	13.262
433.80	13.059
434.16	12.687
434.51	13.011
434.86	12.660
435.22	12.844
435.57	12.913
435.92	12.216
436.28	12.284
436.63	13.349
436.98	12.630
437.34	12.886
437.69	13.119
438.04	12.308
438.39	13.195
438.75	12.690
439.10	12.620
439.45	12.842
439.81	12.661
440.16	12.352
440.51	13.075
440.86	12.991
441.22	13.009
441.57	12.859
441.92	13.484
442.27	12.805
442.63	13.276
442.98	12.981
443.33	12.354
443.68	12.732
444.03	13.214
444.39	12.002
444.74	12.988
445.09	12.416
445.44	12.821
445.79	13.306
446.15	12.059
446.50	12.479
446.85	13.177
447.20	13.347
447.55	13.225
447.91	12.916
448.26	12.408
448.61	12.205
448.96	12.565
449.31	12.139
449.66	12.253
450.02	12.835
450.37	12.685
450.72	13.001
451.07	12.658
451.42	13.046
451.77	12.055
452.12	12.440
452.47	11.912
452.83	12.426
453.18	12.460
453.53	12.642
453.88	13.358
454.23	12.907
454.58	13.476
454.93	13.209
455.28	12.000
455.63	12.461
455.98	12.207
456.34	12.069
456.69	12.071
457.04	12.539
457.39	12.090
457.74	11.971
458.09	12.655
458.44	12.112
458.79	12.437
459.14	13.158
459.49	12.358
459.84	12.126
460.19	12.379
460.54	12.653
460.89	12.443
461.24	12.360
461.59	12.470
461.94	12.327
462.29	12.063
462.64	12.691
462.99	12.729
463.34	12.100
463.69	12.870
464.04	12.651
464.39	12.432
464.74	12.638
465.09	12.477
465.44	11.656
465.79	12.132
466.14	11.859
466.49	11.673
466.84	12.136
467.19	11.827
467.54	12.005
467.89	10.929
468.24	11.861
468.59	12.444
468.94	11.873
469.29	12.590
469.64	12.714
469.99	12.263
470.34	11.468
470.68	13.647
471.03	13.163
471.38	11.912
471.73	12.255
472.08	11.194
472.43	11.275
472.78	11.241
473.13	12.585
473.48	11.922
473.83	11.768
474.17	12.306
474.52	11.487
474.87	12.182
475.22	11.714
475.57	11.745
475.92	11.903
476.27	12.340
476.61	11.285
476.96	11.991
477.31	12.061
477.66	11.854
478.01	11.454
478.36	11.438
478.70	12.670
479.05	12.143
479.40	12.083
479.75	11.157
480.10	11.470
480.45	12.100
480.79	11.782
481.14	11.629
481.49	11.182
481.84	11.245
482.19	11.319
482.53	12.086
482.88	11.456
483.23	11.132
483.58	11.981
483.92	11.713
484.27	11.212
484.62	11.385
484.97	11.194
485.31	10.874
485.66	10.666
486.01	10.784
486.36	10.749
486.70	10.667
487.05	10.945
487.40	10.988
487.75	11.042
488.09	11.403
488.44	11.176
488.79	11.169
489.13	11.979
489.48	11.586
489.83	11.570
490.17	11.101
490.52	11.316
490.87	10.875
491.22	11.700
491.56	10.436
491.91	11.568
492.26	11.424
492.60	11.756
492.95	11.608
493.30	11.480
493.64	11.640
493.99	11.111
494.34	11.165
494.68	10.905
495.03	11.144
495.37	11.433
495.72	11.106
496.07	11.171
496.41	11.651
496.76	11.377
497.11	10.713
497.45	11.551
497.80	11.453
498.14	11.575
498.49	10.919
498.84	10.878
499.18	11.044
499.53	10.962
499.87	10.700
500.22	10.732
500.56	10.842
500.91	10.040
501.26	10.875
501.60	10.674
501.95	11.887
502.29	10.702
502.64	10.618
502.98	10.459
503.33	10.567
503.67	10.506
504.02	10.508
504.36	11.578
504.71	10.707
505.06	11.122
505.40	11.218
505.75	10.979
506.09	10.846
506.44	11.191
506.78	11.480
507.13	10.341
507.47	10.548
507.82	9.882
508.16	11.252
508.51	11.805
508.85	10.832
509.19	10.644
509.54	11.046
509.88	10.841
510.23	11.081
510.57	10.636
510.92	10.501
511.26	11.511
511.61	11.056
511.95	11.507
512.30	10.698
512.64	10.796
512.98	10.275
513.33	10.968
513.67	10.290
514.02	11.442
514.36	11.543
514.70	11.305
515.05	11.281
515.39	10.803
515.74	11.317
516.08	11.596
516.42	10.836
516.77	11.118
517.11	11.098
517.46	12.089
517.80	11.502
518.14	11.145
518.49	10.817
518.83	10.510
519.17	11.158
519.52	10.894
519.86	10.204
520.20	10.450
520.55	10.507
520.89	10.853
521.23	11.653
521.58	11.609
521.92	11.154
522.26	10.865
522.61	10.649
522.95	11.325
523.29	12.071
523.64	11.182
523.98	11.666
524.32	10.116
524.66	11.140
525.01	11.039
525.35	11.017
525.69	9.966
526.04	10.119
526.38	11.543
526.72	11.445
527.06	10.571
527.41	10.752
527.75	11.059
528.09	11.096
528.43	11.884
528.78	10.099
529.12	10.774
529.46	10.526
529.80	10.830
530.15	12.211
530.49	9.495
530.83	10.465
531.17	9.671
531.51	10.944
531.86	10.265
532.20	9.812
532.54	11.028
532.88	11.020
533.22	10.954
533.57	10.288
533.91	10.770
534.25	10.872
534.59	10.263
534.93	9.880
535.27	10.787
535.62	9.786
535.96	11.220
536.30	10.290
536.64	10.820
536.98	10.592
537.32	10.953
537.66	10.729
538.01	11.399
538.35	9.778
538.69	11.119
539.03	10.936
539.37	10.027
539.71	9.884
540.05	10.523
540.39	10.526
540.73	10.600
541.07	11.326
541.42	10.887
541.76	11.012
542.10	10.323
542.44	10.910
542.78	10.048
543.12	9.478
543.46	11.683
543.80	10.548
544.14	10.080
544.48	10.060
544.82	9.979
545.16	10.587
545.50	11.215
545.84	10.340
546.18	11.348
546.52	10.382
546.86	10.784
547.20	10.801
547.54	10.177
547.88	10.054
548.22	10.191
548.56	9.828
548.90	10.243
549.24	10.606
549.58	10.719
549.92	9.650
550.26	9.963
550.60	9.368
550.94	10.754
551.28	10.201
551.62	9.923
551.96	9.850
552.30	10.161
552.64	9.661
552.98	9.634
553.32	10.485
553.66	9.869
554.00	10.511
554.34	10.340
554.68	9.735
555.02	10.417
555.36	9.349
555.69	9.817
556.03	9.921
556.37	10.320
556.71	10.325
557.05	10.365
557.39	9.591
557.73	10.195
558.07	10.030
558.41	9.571
558.75	9.899
559.08	10.481
559.42	9.762
559.76	10.008
560.10	9.862
560.44	9.978
560.78	10.280
561.12	9.450
561.45	9.487
561.79	9.664
562.13	9.865
562.47	9.568
562.81	9.366
563.15	9.661
563.48	9.406
563.82	10.501
564.16	9.680
564.50	10.270
564.84	9.839
565.17	9.121
565.51	9.699
565.85	9.671
566.19	9.881
566.52	10.121
566.86	10.668
567.20	9.589
567.54	9.063
567.88	10.076
568.21	10.238
568.55	9.674
568.89	9.908
569.23	9.581
569.56	9.194
569.90	8.689
570.24	9.453
570.57	8.800
570.91	9.237
571.25	8.418
571.59	8.689
571.92	8.385
572.26	8.575
572.60	8.465
572.93	8.974
573.27	8.652
573.61	8.771
573.95	8.684
574.28	8.448
574.62	8.340
574.96	8.601
575.29	8.430
575.63	8.370
575.97	8.458
576.30	8.350
576.64	8.159
576.98	8.906
577.31	8.503
577.65	8.624
577.98	8.347
578.32	8.488
578.66	8.317
578.99	8.329
579.33	8.319
579.67	8.277
580.00	8.304
580.34	8.607
580.67	8.581
581.01	8.237
581.35	8.096
581.68	8.168
582.02	7.946
582.35	8.245
582.69	8.395
583.02	8.396
583.36	8.209
583.70	8.411
584.03	8.396
584.37	8.554
584.70	8.544
585.04	8.420
585.37	8.305
585.71	8.171
586.04	8.296
586.38	8.162
586.72	8.407
587.05	8.954
587.39	8.471
587.72	8.803
588.06	8.359
588.39	8.317
588.73	8.547
589.06	8.643
589.40	8.745
589.73	9.273
590.07	8.724
590.40	9.056
590.73	8.896
591.07	8.821
591.40	8.727
591.74	9.231
592.07	8.720
592.41	9.408
592.74	8.363
593.08	8.418
593.41	8.468
593.75	8.047
594.08	8.582
594.41	8.261
594.75	8.550
595.08	8.664
595.42	8.392
595.75	7.998
596.09	8.757
596.42	8.268
596.75	8.748
597.09	8.929
597.42	8.537
597.75	8.566
598.09	8.330
598.42	8.484
598.76	8.065
599.09	8.654
599.42	8.412
599.76	8.540
600.09	8.446
600.42	8.302
600.76	8.321
601.09	7.863
601.42	8.617
601.76	7.860
602.09	7.880
602.42	8.846
602.76	8.362
603.09	8.804
603.42	8.779
603.76	8.105
604.09	7.979
604.42	8.883
604.76	8.901
605.09	8.684
605.42	8.172
605.75	8.319
606.09	8.577
606.42	8.257
606.75	7.922
607.09	8.923
607.42	8.463
607.75	8.837
608.08	8.041
608.42	9.045
608.75	9.060
609.08	8.072
609.41	8.934
609.75	8.821
610.08	8.987
610.41	7.826
610.74	8.240
611.07	8.630
611.41	8.874
611.74	9.009
612.07	8.084
612.40	8.096
612.73	9.096
613.07	9.224
613.40	8.807
613.73	8.506
614.06	9.182
614.39	8.686
614.72	7.787
615.06	9.050
615.39	8.079
615.72	8.235
616.05	8.603
616.38	8.319
616.71	7.829
617.05	9.018
617.38	9.239
617.71	8.428
618.04	8.381
618.37	9.142
618.70	8.779
619.03	9.375
619.36	8.755
619.69	9.401
620.03	9.715
620.36	9.156
620.69	8.137
621.02	8.792
621.35	8.963
621.68	9.609
622.01	8.833
622.34	8.939
622.67	10.252
623.00	8.652
623.33	8.689
623.66	7.554
623.99	9.153
624.32	9.202
624.65	7.519
624.99	9.029
625.32	7.885
625.65	9.112
625.98	9.750
626.31	8.229
626.64	8.925
626.97	9.599
627.30	9.720
627.63	9.099
627.96	9.883
628.29	8.233
628.62	10.226
628.95	8.617
629.28	8.468
629.61	9.870
629.94	9.482
630.26	9.387
630.59	9.573
630.92	9.231
631.25	8.000
631.58	9.692
631.91	9.101
632.24	8.716
632.57	9.318
632.90	8.897
633.23	10.353
633.56	10.202
633.89	8.631
634.22	9.383
634.55	9.149
634.88	10.345
635.20	8.077
635.53	8.000
635.86	9.103
636.19	10.996
636.52	9.821
636.85	7.692
637.18	9.937
637.51	9.434
637.83	10.775
638.16	11.323
638.49	7.493
638.82	9.868
639.15	7.598
639.48	8.116
639.81	9.344
640.13	9.091
640.46	9.621
640.79	8.689
641.12	9.601
641.45	10.060
641.77	8.889
642.10	10.427
642.43	8.682
642.76	8.416
643.09	8.724
643.41	8.738
643.74	9.720
644.07	10.016
644.40	10.642
644.73	11.033
645.05	9.732
645.38	9.700
645.71	8.865
646.04	9.874
646.36	10.993
646.69	10.612
647.02	8.885
647.35	11.007
647.67	10.420
648.00	12.687
648.33	9.556
648.66	10.169
648.98	6.198
649.31	8.264
649.64	8.948
649.96	8.752
650.29	9.540
650.62	9.402
650.94	10.741
651.27	8.752
651.60	10.090
651.92	10.839
652.25	7.282
652.58	8.667
652.90	10.292
653.23	9.748
653.56	8.460
653.88	10.481
654.21	7.706
654.54	9.508
654.86	10.866
655.19	7.895
655.52	8.514
655.84	6.975
656.17	7.792
656.49	10.445
656.82	11.056
657.15	8.742
657.47	6.609
657.80	4.763
658.13	4.785
658.45	7.619
658.78	7.664
659.10	7.660
659.43	8.029
659.75	7.597
660.08	7.172
660.41	8.784
660.73	9.530
661.06	8.492
661.38	8.415
661.71	8.008
662.03	11.373
662.36	9.011
662.68	7.301
663.01	10.699
663.33	7.425
663.66	6.512
663.98	7.674
664.31	10.661
664.63	7.604
664.96	6.522
665.28	6.181
665.61	9.524
665.93	9.783
666.26	8.677
666.58	8.949
666.91	9.176
667.23	10.142
667.56	10.190
667.88	9.353
668.21	10.501
668.53	10.875
668.86	8.726
669.18	8.962
669.50	7.990
669.83	9.070
670.15	9.324
670.48	8.134
670.80	8.295
671.13	8.725
671.45	6.393
671.77	10.944
672.10	10.693
672.42	10.112
672.75	9.059
673.07	12.165
673.39	9.358
673.72	7.298
674.04	8.125
674.37	11.441
674.69	7.281
675.01	10.222
675.34	11.261
675.66	9.722
675.98	11.973
676.31	10.321
676.63	6.888
676.95	8.864
677.28	13.647
677.60	8.675
677.92	5.963
678.25	9.190
678.57	9.524
678.89	8.403
679.22	10.515
679.54	7.028
679.86	4.970
680.18	9.126
680.51	9.091
680.83	6.362
681.15	7.800
681.48	11.270
681.80	9.091
682.12	9.274
682.44	9.205
682.77	7.506
683.09	10.069
683.41	10.227
683.73	8.756
684.06	8.850
684.38	6.452
684.70	6.972
685.02	6.432
685.34	9.684
685.67	8.818
685.99	9.403
686.31	9.381
686.63	7.978
686.96	7.224
687.28	6.869
687.60	8.745
687.92	10.505
688.24	7.258
688.56	8.297
688.89	9.152
689.21	12.444
689.53	6.729
689.85	9.070
690.17	8.929
690.49	9.220
690.82	8.252
691.14	8.571
691.46	9.813
691.78	8.333
692.10	9.462
692.42	7.143
692.74	10.043
693.06	9.009
693.39	7.466
693.71	8.145
694.03	6.928
694.35	8.178
694.67	10.101
694.99	7.050
695.31	7.833
695.63	8.250
695.95	4.798
696.27	7.513
696.59	10.833
696.91	8.403
697.23	6.941
697.56	7.426
697.88	10.968
698.20	8.656
698.52	4.941
698.84	6.220
699.16	7.750
699.48	8.772
699.80	8.933
700.12	7.278
700.44	6.723
700.76	5.814
701.08	3.333
701.40	10.542
701.72	10.494
702.04	10.231
702.36	7.692
702.68	8.709
703.00	7.273
703.32	9.384
703.64	7.910
703.96	8.986
704.28	5.828
704.60	9.841
704.91	5.994
705.23	5.980
705.55	9.541
705.87	8.664
706.19	5.926
706.51	5.498
706.83	10.289
707.15	6.231
707.47	6.162
707.79	7.552
708.11	8.500
708.43	6.750
708.74	8.527
709.06	9.859
709.38	6.728
709.70	7.692
710.02	8.917
710.34	9.598
710.66	4.167
710.98	7.285
711.29	5.902
711.61	8.475
711.93	6.840
712.25	8.247
712.57	8.791
712.89	6.343
713.20	10.727
713.52	9.756
713.84	10.239
714.16	8.247
714.48	9.355
714.80	7.051
715.11	7.903
715.43	7.837
715.75	5.000
716.07	3.654
716.39	4.362
716.70	5.166
717.02	9.542
717.34	8.097
717.66	5.752
717.97	2.174
718.29	4.603
718.61	11.024
718.93	5.426
719.24	7.224
719.56	6.024
719.88	4.467
720.20	9.470
720.51	10.345
720.83	6.564
721.15	6.303
721.46	3.629
721.78	5.929
722.10	6.691
722.42	4.149
722.73	7.347
723.05	9.388
723.37	10.593
723.68	11.712
724.00	9.829
724.32	2.222
724.63	6.818
724.95	8.297
725.27	9.217
725.58	7.203
725.90	6.349
726.22	8.108
726.53	11.525
726.85	9.363
727.16	12.830
727.48	6.073
727.80	6.883
728.11	2.966
728.43	7.451
728.74	-0.403
729.06	8.800
729.38	11.278
729.69	5.976
730.01	3.462
730.32	8.582
730.64	13.428
730.96	6.792
731.27	9.000
731.59	4.746
731.90	4.777
732.22	7.256
732.53	8.970
732.85	9.220
733.16	11.785
733.48	3.597
733.80	7.971
734.11	9.153
734.43	5.498
734.74	9.394
735.06	1.629
735.37	7.251
735.69	9.428
736.00	6.620
736.32	4.027
736.63	8.803
736.95	7.509
737.26	4.626
737.58	4.362
737.89	8.059
738.21	7.895
738.52	7.407
738.83	3.930
739.15	6.114
739.46	5.118
739.78	5.495
740.09	5.229
740.41	10.145
740.72	4.724
741.04	4.858
741.35	5.106
741.66	6.161
741.98	6.633
742.29	4.455
742.61	7.853
742.92	-0.948
743.23	0.926
743.55	9.502
743.86	5.742
744.18	7.656
744.49	3.723
744.80	3.804
745.12	11.765
745.43	8.293
745.74	13.542
746.06	5.366
746.37	9.424
746.68	11.848
747.00	3.191
747.31	7.463
747.62	1.456
747.94	3.349
748.25	1.980
748.56	2.732
748.88	6.283
749.19	10.106
749.50	9.852
749.82	-0.472
750.13	1.835
750.44	12.030
750.75	10.075
751.07	9.854
751.38	8.812
751.69	0.392
752.01	6.977
752.32	5.179
752.63	1.186
752.94	7.328
753.26	13.389
753.57	2.262
753.88	4.867
754.19	3.333
754.51	1.653
754.82	8.907
755.13	10.000
755.44	6.855
755.75	5.859
756.07	9.728
756.38	4.151
756.69	4.215
757.00	7.000
757.31	7.190
757.63	4.573
757.94	4.167
758.25	4.658
758.56	5.319
758.87	3.966
759.18	4.984
759.50	3.636
759.81	9.030
760.12	6.129
760.43	4.545
760.74	7.099
761.05	5.846
761.36	5.398
761.67	8.788
761.99	9.184
762.30	6.182
762.61	7.510
762.92	2.262
763.23	6.306
763.54	0.000
763.85	5.508
764.16	6.224
764.47	7.661
764.78	4.762
765.10	8.754
765.41	5.363
765.72	8.571
766.03	3.008
766.34	5.109
766.65	10.359
766.96	11.111
767.27	9.043
767.58	3.448
767.89	2.128
768.20	9.659
768.51	10.989
768.82	3.448
769.13	4.147
769.44	6.867
769.75	5.936
770.06	6.466
770.37	2.404
770.68	-1.015
770.99	2.715
771.30	7.843
771.61	6.335
771.92	5.603
772.23	11.823
772.54	8.065
772.85	3.704
773.16	6.180
773.47	5.882
773.78	10.458
774.09	8.383
774.39	6.000
774.70	10.828
775.01	9.655
775.32	3.571
775.63	-1.653
775.94	-2.290
776.25	5.512
776.56	1.667
776.87	2.885
777.18	5.983
777.48	-0.862
777.79	-2.609
778.10	6.667
778.41	-2.703
778.72	7.937
779.03	8.271
779.34	6.383
779.65	11.644
779.95	4.110
780.26	4.138
780.57	-9.756
780.88	14.961
781.19	7.759
781.50	12.403
781.80	9.467
782.11	-2.516
782.42	-5.385
782.73	4.317
783.04	14.815
783.34	4.861
783.65	-3.419
783.96	1.639
784.27	5.517
784.57	-3.252
784.88	2.344
785.19	7.000
785.50	15.000
785.81	7.759
786.11	2.586
786.42	-3.883
786.73	12.727
787.04	5.102
787.34	-0.893
787.65	9.524
787.96	-3.540
788.26	3.636
788.57	-1.709
788.88	3.125
789.19	3.968
789.49	6.957
789.80	3.061
790.11	4.040
790.41	10.000
790.72	20.652
791.03	1.136
791.33	5.000
791.64	2.500
791.95	2.326
792.25	2.128
792.56	2.247
792.87	6.849
793.17	2.899
793.48	0.000
793.79	0.000
794.09	6.250
794.40	-1.887
794.70	-0.971
795.01	4.065
795.32	-7.692
795.62	0.952
795.93	12.745
796.23	6.604
796.54	5.208
796.85	-4.412
797.15	-8.451
797.46	19.444
797.76	16.667
798.07	-1.163
798.37	-3.947
798.68	-13.636
798.99	12.346
799.29	8.571
799.60	2.899
799.90	18.667
800.21	8.197
800.51	-1.538
800.82	11.864
801.12	4.348
801.43	3.279
801.73	-1.587
802.04	-14.000
802.34	-4.478
802.65	3.846
802.95	5.357
803.26	-9.615
803.56	-7.843
803.87	-2.174
804.17	8.000
804.48	1.587
804.78	-7.407
805.09	-30.435
805.39	-11.111
805.70	-3.704
806.00	3.509
806.30	-7.042
806.61	2.857
806.91	-11.111
807.22	6.579
807.52	13.333
807.83	-3.636
808.13	8.333
808.43	19.118
808.74	-1.493
809.04	-13.559
809.35	-9.615
809.65	4.687
809.95	-13.514
810.26	-20.455
810.56	6.849
810.86	-9.524
811.17	-8.000
811.47	8.163
811.77	-13.158
812.08	-2.273
812.38	-9.434
812.69	-20.000
812.99	-45.455
813.29	-7.895
813.59	-31.429
813.90	11.364
814.20	-33.333
814.50	-25.000
814.81	-5.660
815.11	-6.383
815.41	0.000
815.72	-11.905
816.02	-5.882
816.32	14.583
816.62	0.000
816.93	-27.027
817.23	-17.143
817.53	-6.250
817.84	-13.043
818.14	-3.846
818.44	-10.526
818.74	21.739
819.04	7.500
819.35	-16.216
819.65	0.000
819.95	-11.111
820.25	-4.762
820.56	5.000
820.86	-93.103
821.16	42.500
821.46	-8.511
821.76	2.500
822.07	0.000
822.37	-48.649
822.67	-25.000
822.97	0.000
823.27	-21.429
823.57	-40.000
823.88	-11.111
824.18	-10.714
824.48	-14.706
824.78	-16.129
825.08	-34.783
825.38	-9.091
825.69	-29.167
825.99	-5.263
826.29	-2.778
826.59	-33.333
826.89	-52.381
827.19	-19.565
827.49	-15.000
827.79	14.286
828.09	10.714
828.39	-3.030
828.70	24.324
829.00	0.000
829.30	-66.667
829.60	6.667
829.90	0.000
830.20	-2.632
830.50	-22.222
830.80	-34.783
831.10	0.000
831.40	18.182
831.70	3.226
832.00	33.333
832.30	-42.857
832.60	-83.333
832.90	13.793
833.20	-10.000
833.50	0.000
833.80	-11.111
834.10	-11.538
834.40	-3.125
834.70	-55.556
835.00	-47.368
835.30	50.000
835.60	-20.000
835.90	12.903
836.20	-31.818
836.50	17.857
836.80	-65.385
837.10	-7.143
837.40	-266.667
837.70	13.636
838.00	-36.364
838.30	8.696
838.60	-7.692
838.90	0.000
839.19	-28.571
839.49	10.000
839.79	-69.231
840.09	-83.333
840.39	21.429
840.69	10.714
840.99	3.846
841.29	-68.421
841.59	-170.000
841.88	-163.636
842.18	-70.000
842.48	-37.500
842.78	26.667
843.08	11.111
843.38	-80.000
843.68	-30.435
843.97	6.667
844.27	-60.000
844.57	40.000
844.87	-50.000
845.17	-28.571
845.47	-33.333
845.76	-23.810
846.06	47.059
846.36	60.000
846.66	-21.429
846.96	-26.667
847.25	-187.500
847.55	-7.143
847.85	-37.500
848.15	-31.818
848.44	-533.333
848.74	5.000
849.04	11.111
849.34	-36.364
849.63	-183.333
849.93	-320.000
850.23	-27.778
850.53	40.000
850.82	-84.615
851.12	-33.333
851.42	-46.667
851.71	-42.308
852.01	-7.143
852.31	-350.000
852.61	9.091
852.90	10.000
853.20	26.316
853.50	25.000
853.79	8.696
854.09	33.333
854.39	0.000
854.68	-25.000
854.98	0.000
855.28	19.231
855.57	0.000
855.87	22.222
856.17	3.704
856.46	0.000
856.76	-66.667
857.05	33.333
857.35	28.000
857.65	-33.333
857.94	-53.846
858.24	34.483
858.53	44.444
858.83	25.926
859.13	-18.182
859.42	-8.696
859.72	-175.000
860.01	-566.667
860.31	-4.000
860.60	-33.333
860.90	-200.000
861.20	-33.333
861.49	-1150.000
861.79	-113.333
862.08	-35.000
862.38	53.333
862.67	-340.000
862.97	-100.000
863.26	-50.000
863.56	16.667
863.85	-600.000
864.15	16.667
864.44	-50.000
864.74	-28.571
865.03	75.000
865.33	0.000
865.62	66.667
865.92	-8.333
866.21	-116.667
866.51	18.750
866.80	-136.364
867.10	-400.000
867.39	83.333
867.69	0.000
867.98	-115.385
868.27	-233.333
868.57	-53.333
868.86	-22.222
869.16	-53.846
869.45	-33.333
869.75	-1000.000
870.04	0.000
870.33	-200.000
870.63	-9.524
870.92	733.333
871.22	-260.000
871.51	-1100.000
871.80	-22.222
872.10	566.667
>>>>>End Processed Spectral Data<<<<<
