SpectraSuite Data File
++++++++++++++++++++++++++++++++++++
Date: Fri May 15 20:42:40 PDT 2015
User: schluterlab
Dark Spectrum Present: Yes
Reference Spectrum Present: Yes
Number of Sampled Component Spectra: 1
Spectrometers: USB2E3373
Integration Time (usec): 3000 (USB2E3373)
Spectra Averaged: 3 (USB2E3373)
Boxcar Smoothing: 0 (USB2E3373)
Correct for Electrical Dark: No (USB2E3373)
Strobe/Lamp Enabled: No (USB2E3373)
Correct for Detector Non-linearity: No (USB2E3373)
Correct for Stray Light: No (USB2E3373)
Number of Pixels in Processed Spectrum: 2048
>>>>>Begin Processed Spectral Data<<<<<
178.53	0.000
178.91	0.000
179.29	62.500
179.67	-250.000
180.04	-57.143
180.42	100.000
180.80	200.000
181.18	-133.333
181.56	700.000
181.94	250.000
182.31	400.000
182.69	-100.000
183.07	100.000
183.45	180.000
183.83	16.667
184.20	-81.818
184.58	155.556
184.96	75.000
185.34	-133.333
185.72	-50.000
186.09	115.385
186.47	-900.000
186.85	-16.667
187.23	111.111
187.61	1300.000
187.98	-433.333
188.36	-22.222
188.74	0.000
189.12	5.882
189.49	-16.667
189.87	0.000
190.25	78.571
190.63	-150.000
191.00	-166.667
191.38	-15.789
191.76	350.000
192.14	250.000
192.51	-500.000
192.89	-11.111
193.27	-157.143
193.65	116.667
194.02	190.909
194.40	10.000
194.78	-100.000
195.15	25.000
195.53	-12.500
195.91	200.000
196.29	-50.000
196.66	123.077
197.04	185.714
197.42	-55.556
197.79	-533.333
198.17	-69.231
198.55	2200.000
198.92	-300.000
199.30	-600.000
199.68	-140.000
200.05	-500.000
200.43	0.000
200.81	-33.333
201.18	-200.000
201.56	700.000
201.94	-200.000
202.31	-33.333
202.69	-160.000
203.07	125.000
203.44	700.000
203.82	0.000
204.19	35.714
204.57	-200.000
204.95	75.000
205.32	-100.000
205.70	-42.857
206.08	-200.000
206.45	66.667
206.83	85.714
207.20	-14.286
207.58	-600.000
207.96	-300.000
208.33	-50.000
208.71	50.000
209.08	-300.000
209.46	-900.000
209.84	-180.000
210.21	-900.000
210.59	-42.857
210.96	-100.000
211.34	-275.000
211.71	40.000
212.09	-200.000
212.46	-1000.000
212.84	0.000
213.22	-60.000
213.59	900.000
213.97	84.615
214.34	100.000
214.72	-33.333
215.09	600.000
215.47	-30.769
215.84	-36.364
216.22	-333.333
216.59	0.000
216.97	650.000
217.34	-125.000
217.72	-200.000
218.09	-25.000
218.47	150.000
218.84	-800.000
219.22	-100.000
219.59	-100.000
219.97	133.333
220.34	225.000
220.72	-14.286
221.09	-225.000
221.47	-100.000
221.84	-1000.000
222.22	-200.000
222.59	18.182
222.97	-25.000
223.34	-66.667
223.72	7.143
224.09	28.571
224.46	7.143
224.84	300.000
225.21	30.000
225.59	80.000
225.96	100.000
226.34	425.000
226.71	-28.571
227.08	-116.667
227.46	50.000
227.83	50.000
228.21	-11.111
228.58	36.364
228.95	-37.500
229.33	160.000
229.70	-43.750
230.08	-100.000
230.45	-57.143
230.82	28.571
231.20	-66.667
231.57	0.000
231.95	-85.714
232.32	-190.000
232.69	42.857
233.07	-66.667
233.44	-80.000
233.81	-120.000
234.19	-44.444
234.56	-17.647
234.93	500.000
235.31	-75.000
235.68	-320.000
236.05	-23.077
236.43	-45.000
236.80	-23.529
237.17	18.750
237.55	-25.000
237.92	-18.519
238.29	-2.778
238.67	16.667
239.04	-5.882
239.41	-21.951
239.79	-10.000
240.16	-4.878
240.53	-26.316
240.91	-10.870
241.28	-11.111
241.65	19.643
242.02	23.288
242.40	-6.667
242.77	3.390
243.14	0.000
243.51	10.000
243.89	16.092
244.26	-5.747
244.63	5.952
245.00	4.124
245.38	6.186
245.75	-7.865
246.12	-3.448
246.49	-1.653
246.87	4.808
247.24	-4.202
247.61	-4.386
247.98	0.813
248.36	0.000
248.73	-1.974
249.10	-1.948
249.47	1.899
249.84	-5.229
250.22	-2.353
250.59	-1.307
250.96	5.634
251.33	-4.651
251.70	-4.706
252.08	2.030
252.45	0.990
252.82	-2.513
253.19	7.373
253.56	-0.935
253.94	3.604
254.31	0.435
254.68	1.316
255.05	0.000
255.42	-0.437
255.79	1.544
256.16	1.556
256.54	1.493
256.91	1.901
257.28	5.204
257.65	0.749
258.02	0.000
258.39	3.030
258.76	1.099
259.14	4.983
259.51	0.647
259.88	3.436
260.25	0.654
260.62	4.167
260.99	-2.373
261.36	-3.082
261.73	-2.532
262.10	4.255
262.47	-0.307
262.85	1.881
263.22	1.846
263.59	5.607
263.96	1.863
264.33	-0.909
264.70	-0.893
265.07	0.298
265.44	3.116
265.81	1.695
266.18	0.546
266.55	2.828
266.92	4.922
267.29	3.916
267.66	1.279
268.03	-0.785
268.40	0.783
268.77	5.615
269.14	2.398
269.51	4.370
269.88	1.247
270.25	0.765
270.62	0.244
270.99	0.767
271.36	1.711
271.73	1.643
272.10	0.730
272.47	3.073
272.84	1.485
273.21	4.408
273.58	3.855
273.95	-0.686
274.32	1.848
274.69	-0.679
275.06	3.795
275.43	2.721
275.80	1.545
276.17	1.379
276.54	3.640
276.91	2.193
277.28	1.528
277.65	3.719
278.02	1.915
278.39	0.656
278.76	3.774
279.13	-1.037
279.50	2.521
279.87	1.728
280.23	0.430
280.60	3.509
280.97	4.040
281.34	0.000
281.71	4.312
282.08	0.818
282.45	0.783
282.82	1.351
283.19	2.128
283.56	1.541
283.92	0.949
284.29	2.115
284.66	0.388
285.03	0.196
285.40	0.945
285.77	2.109
286.14	1.264
286.51	2.952
286.87	1.280
287.24	2.026
287.61	1.587
287.98	4.035
288.35	2.600
288.72	2.277
289.08	1.736
289.45	2.285
289.82	1.399
290.19	0.512
290.56	-0.686
290.93	0.505
291.29	1.849
291.66	2.677
292.03	2.073
292.40	1.452
292.77	0.797
293.13	-1.299
293.50	1.517
293.87	2.290
294.24	0.618
294.60	2.683
294.97	3.125
295.34	1.994
295.71	1.937
296.08	1.196
296.44	0.284
296.81	1.528
297.18	0.000
297.55	2.846
297.91	0.548
298.28	2.902
298.65	2.307
299.02	1.617
299.38	0.000
299.75	1.517
300.12	1.178
300.48	0.395
300.85	2.408
301.22	2.857
301.59	0.921
301.95	2.911
302.32	2.724
302.69	3.109
303.05	1.856
303.42	2.491
303.79	3.505
304.15	3.106
304.52	1.308
304.89	1.053
305.25	3.027
305.62	1.634
305.99	1.520
306.35	1.272
306.72	0.675
307.09	0.684
307.45	1.493
307.82	2.199
308.19	2.439
308.55	2.726
308.92	3.159
309.29	1.453
309.65	3.014
310.02	2.310
310.38	3.403
310.75	2.295
311.12	3.552
311.48	1.803
311.85	3.037
312.22	2.321
312.58	3.291
312.95	2.775
313.31	2.795
313.68	2.827
314.05	3.673
314.41	4.948
314.78	4.536
315.14	4.830
315.51	4.762
315.87	4.508
316.24	6.775
316.61	6.299
316.97	6.845
317.34	5.469
317.70	6.788
318.07	7.308
318.43	7.745
318.80	7.386
319.16	7.715
319.53	8.072
319.89	7.579
320.26	10.020
320.62	10.431
320.99	10.334
321.35	10.483
321.72	10.488
322.08	11.178
322.45	10.660
322.81	12.279
323.18	12.169
323.54	11.969
323.91	12.853
324.27	12.988
324.64	13.951
325.00	14.781
325.37	15.794
325.73	13.871
326.10	15.985
326.46	15.605
326.83	17.235
327.19	17.175
327.56	17.984
327.92	19.102
328.29	18.839
328.65	19.811
329.01	19.301
329.38	20.092
329.74	19.736
330.11	20.389
330.47	20.315
330.84	19.135
331.20	23.384
331.56	20.741
331.93	20.731
332.29	21.723
332.66	21.448
333.02	21.840
333.38	20.898
333.75	22.070
334.11	23.366
334.48	22.575
334.84	22.344
335.20	23.239
335.57	22.303
335.93	22.945
336.29	22.192
336.66	22.616
337.02	21.747
337.38	22.407
337.75	23.000
338.11	23.986
338.47	23.631
338.84	23.290
339.20	22.395
339.56	23.486
339.93	23.545
340.29	23.303
340.65	23.297
341.02	23.227
341.38	22.920
341.74	23.322
342.11	21.231
342.47	22.865
342.83	23.702
343.20	21.341
343.56	23.478
343.92	22.852
344.28	22.716
344.65	22.366
345.01	23.423
345.37	23.549
345.73	23.515
346.10	22.951
346.46	23.802
346.82	22.259
347.19	23.026
347.55	22.473
347.91	23.139
348.27	22.555
348.63	23.254
349.00	22.970
349.36	23.441
349.72	23.134
350.08	22.951
350.45	23.783
350.81	23.173
351.17	22.964
351.53	23.347
351.89	22.378
352.26	22.640
352.62	23.065
352.98	22.811
353.34	22.544
353.70	25.324
354.07	22.742
354.43	21.938
354.79	22.791
355.15	23.413
355.51	23.180
355.87	23.867
356.24	23.246
356.60	23.525
356.96	23.571
357.32	23.163
357.68	22.752
358.04	23.748
358.40	23.071
358.77	24.003
359.13	24.179
359.49	23.421
359.85	22.933
360.21	23.923
360.57	22.418
360.93	22.315
361.29	22.885
361.66	23.746
362.02	23.712
362.38	23.534
362.74	23.316
363.10	23.476
363.46	24.537
363.82	24.267
364.18	23.321
364.54	23.456
364.90	23.226
365.26	22.562
365.62	22.993
365.98	23.974
366.35	24.836
366.71	24.021
367.07	23.512
367.43	23.868
367.79	23.958
368.15	22.972
368.51	23.962
368.87	23.331
369.23	23.105
369.59	24.854
369.95	24.340
370.31	25.072
370.67	25.075
371.03	22.778
371.39	23.632
371.75	24.322
372.11	23.894
372.47	24.112
372.83	24.344
373.19	24.536
373.55	23.971
373.91	23.614
374.27	23.955
374.63	23.833
374.99	23.617
375.35	23.468
375.71	26.224
376.07	24.017
376.42	24.082
376.78	24.497
377.14	25.796
377.50	24.037
377.86	24.297
378.22	24.697
378.58	23.974
378.94	24.260
379.30	24.267
379.66	25.016
380.02	24.157
380.38	24.163
380.74	23.878
381.09	25.276
381.45	24.954
381.81	23.874
382.17	24.937
382.53	24.672
382.89	24.670
383.25	24.393
383.61	25.671
383.97	24.698
384.32	23.952
384.68	25.139
385.04	24.142
385.40	24.953
385.76	24.780
386.12	25.226
386.48	25.926
386.83	24.857
387.19	25.153
387.55	24.843
387.91	24.878
388.27	24.786
388.62	25.614
388.98	24.800
389.34	25.734
389.70	25.730
390.06	24.544
390.42	24.741
390.77	25.441
391.13	24.653
391.49	24.256
391.85	25.211
392.20	24.545
392.56	24.921
392.92	24.721
393.28	24.882
393.64	23.123
393.99	25.455
394.35	24.352
394.71	25.990
395.07	24.953
395.42	24.408
395.78	23.909
396.14	24.401
396.50	24.667
396.85	24.598
397.21	24.060
397.57	23.824
397.92	24.506
398.28	24.425
398.64	24.578
399.00	24.153
399.35	24.210
399.71	23.837
400.07	25.030
400.42	23.929
400.78	24.495
401.14	23.956
401.49	24.419
401.85	22.913
402.21	24.277
402.57	24.875
402.92	23.902
403.28	25.188
403.63	23.077
403.99	23.597
404.35	24.422
404.70	22.560
405.06	22.738
405.42	23.928
405.77	22.545
406.13	23.632
406.49	22.795
406.84	23.961
407.20	23.781
407.55	23.052
407.91	23.329
408.27	23.327
408.62	24.000
408.98	22.674
409.34	23.854
409.69	23.191
410.05	22.599
410.40	23.272
410.76	23.643
411.11	23.625
411.47	23.537
411.83	23.289
412.18	23.423
412.54	22.971
412.89	21.921
413.25	22.684
413.60	22.671
413.96	22.331
414.31	23.537
414.67	22.579
415.03	22.570
415.38	22.781
415.74	22.736
416.09	23.906
416.45	24.375
416.80	23.662
417.16	22.790
417.51	23.251
417.87	22.360
418.22	23.769
418.58	22.207
418.93	23.636
419.29	22.279
419.64	23.137
420.00	24.118
420.35	22.746
420.71	23.876
421.06	23.327
421.42	23.137
421.77	23.295
422.12	22.247
422.48	23.281
422.83	22.216
423.19	24.323
423.54	23.104
423.90	23.380
424.25	22.847
424.61	23.868
424.96	24.042
425.31	23.108
425.67	24.002
426.02	23.793
426.38	24.045
426.73	25.182
427.09	24.620
427.44	23.765
427.79	23.748
428.15	25.425
428.50	24.228
428.85	23.587
429.21	23.995
429.56	24.367
429.92	24.756
430.27	23.659
430.62	24.046
430.98	24.151
431.33	23.975
431.68	23.496
432.04	24.930
432.39	24.073
432.74	24.233
433.10	24.253
433.45	24.014
433.80	24.260
434.16	23.601
434.51	24.194
434.86	25.029
435.22	24.397
435.57	24.828
435.92	24.731
436.28	24.329
436.63	23.788
436.98	24.044
437.34	24.017
437.69	24.806
438.04	25.356
438.39	23.763
438.75	24.894
439.10	24.731
439.45	25.320
439.81	25.199
440.16	25.356
440.51	24.657
440.86	25.861
441.22	24.830
441.57	25.221
441.92	25.708
442.27	25.665
442.63	24.946
442.98	25.273
443.33	25.376
443.68	25.570
444.03	25.832
444.39	25.627
444.74	26.254
445.09	25.557
445.44	25.071
445.79	26.715
446.15	25.716
446.50	26.068
446.85	25.877
447.20	26.486
447.55	25.502
447.91	25.099
448.26	26.295
448.61	26.367
448.96	25.818
449.31	25.780
449.66	26.365
450.02	26.412
450.37	25.311
450.72	24.914
451.07	25.823
451.42	25.593
451.77	25.377
452.12	25.000
452.47	25.113
452.83	25.324
453.18	25.427
453.53	26.359
453.88	25.501
454.23	26.429
454.58	25.945
454.93	26.740
455.28	24.635
455.63	26.286
455.98	26.759
456.34	26.309
456.69	26.302
457.04	26.843
457.39	25.881
457.74	26.119
458.09	25.603
458.44	26.156
458.79	25.322
459.14	25.801
459.49	26.866
459.84	26.509
460.19	25.607
460.54	25.978
460.89	26.193
461.24	25.901
461.59	26.781
461.94	25.660
462.29	26.357
462.64	26.844
462.99	26.269
463.34	26.356
463.69	26.062
464.04	26.574
464.39	26.804
464.74	25.521
465.09	26.326
465.44	26.024
465.79	25.964
466.14	25.599
466.49	25.302
466.84	25.877
467.19	26.345
467.54	25.287
467.89	26.216
468.24	25.852
468.59	26.286
468.94	26.159
469.29	25.836
469.64	26.521
469.99	26.629
470.34	26.075
470.68	26.174
471.03	27.459
471.38	25.535
471.73	26.541
472.08	26.526
472.43	25.638
472.78	25.634
473.13	26.190
473.48	26.189
473.83	25.342
474.17	25.907
474.52	26.803
474.87	26.364
475.22	26.113
475.57	25.918
475.92	26.001
476.27	25.669
476.61	25.926
476.96	24.428
477.31	26.176
477.66	25.955
478.01	25.547
478.36	25.599
478.70	26.482
479.05	25.989
479.40	26.338
479.75	25.912
480.10	25.397
480.45	26.050
480.79	26.586
481.14	25.922
481.49	24.680
481.84	26.351
482.19	25.304
482.53	25.516
482.88	25.394
483.23	25.672
483.58	25.943
483.92	25.024
484.27	24.932
484.62	25.146
484.97	24.710
485.31	24.458
485.66	24.234
486.01	23.080
486.36	23.001
486.70	23.495
487.05	23.766
487.40	24.431
487.75	24.085
488.09	24.629
488.44	24.106
488.79	25.215
489.13	24.880
489.48	25.353
489.83	25.650
490.17	25.034
490.52	25.173
490.87	25.312
491.22	25.597
491.56	25.617
491.91	25.000
492.26	25.328
492.60	25.288
492.95	26.217
493.30	25.159
493.64	26.326
493.99	25.266
494.34	24.272
494.68	25.571
495.03	24.769
495.37	24.926
495.72	26.148
496.07	25.512
496.41	25.613
496.76	25.012
497.11	24.732
497.45	25.823
497.80	25.378
498.14	25.137
498.49	24.835
498.84	25.250
499.18	25.100
499.53	24.851
499.87	24.757
500.22	24.926
500.56	24.609
500.91	25.151
501.26	24.469
501.60	25.086
501.95	24.891
502.29	25.133
502.64	24.807
502.98	24.223
503.33	24.784
503.67	24.964
504.02	24.829
504.36	24.988
504.71	24.545
505.06	24.509
505.40	24.315
505.75	25.567
506.09	24.430
506.44	25.051
506.78	25.255
507.13	24.871
507.47	24.543
507.82	24.092
508.16	24.247
508.51	25.079
508.85	24.699
509.19	24.694
509.54	24.558
509.88	24.542
510.23	24.637
510.57	24.800
510.92	24.574
511.26	24.714
511.61	24.422
511.95	24.438
512.30	24.557
512.64	24.708
512.98	24.593
513.33	25.294
513.67	24.105
514.02	26.201
514.36	25.600
514.70	24.709
515.05	24.853
515.39	24.793
515.74	25.689
516.08	25.105
516.42	25.324
516.77	24.985
517.11	24.392
517.46	24.536
517.80	25.149
518.14	24.617
518.49	24.459
518.83	24.544
519.17	24.803
519.52	23.979
519.86	24.670
520.20	25.334
520.55	24.328
520.89	25.345
521.23	25.206
521.58	25.174
521.92	25.962
522.26	24.658
522.61	25.455
522.95	25.960
523.29	24.778
523.64	24.778
523.98	24.498
524.32	24.356
524.66	25.800
525.01	25.844
525.35	25.340
525.69	23.636
526.04	23.214
526.38	25.097
526.72	24.133
527.06	23.995
527.41	24.538
527.75	24.196
528.09	24.385
528.43	24.443
528.78	24.620
529.12	24.710
529.46	24.107
529.80	24.066
530.15	24.884
530.49	24.108
530.83	23.803
531.17	23.640
531.51	24.282
531.86	23.657
532.20	24.148
532.54	24.098
532.88	24.367
533.22	24.328
533.57	23.263
533.91	23.499
534.25	23.112
534.59	23.348
534.93	22.404
535.27	22.525
535.62	22.878
535.96	23.549
536.30	24.142
536.64	22.950
536.98	23.066
537.32	23.684
537.66	24.053
538.01	23.916
538.35	22.746
538.69	23.369
539.03	23.103
539.37	23.149
539.71	23.654
540.05	23.557
540.39	22.784
540.73	23.780
541.07	22.238
541.42	23.387
541.76	22.712
542.10	23.193
542.44	23.767
542.78	21.198
543.12	22.527
543.46	23.227
543.80	22.623
544.14	21.696
544.48	21.985
544.82	22.351
545.16	22.883
545.50	22.697
545.84	22.380
546.18	23.546
546.52	22.783
546.86	22.502
547.20	23.820
547.54	21.837
547.88	22.011
548.22	21.565
548.56	21.372
548.90	22.574
549.24	22.452
549.58	21.580
549.92	21.730
550.26	21.612
550.60	22.305
550.94	22.928
551.28	22.566
551.62	22.462
551.96	22.331
552.30	22.149
552.64	21.298
552.98	22.574
553.32	21.113
553.66	21.263
554.00	22.117
554.34	22.304
554.68	21.829
555.02	22.247
555.36	21.915
555.69	20.440
556.03	21.271
556.37	21.637
556.71	21.949
557.05	22.297
557.39	20.520
557.73	21.439
558.07	21.569
558.41	22.665
558.75	22.214
559.08	22.065
559.42	22.381
559.76	21.697
560.10	21.330
560.44	20.774
560.78	21.888
561.12	20.945
561.45	21.785
561.79	21.429
562.13	21.363
562.47	20.935
562.81	20.965
563.15	19.817
563.48	21.499
563.82	22.237
564.16	20.891
564.50	20.676
564.84	20.214
565.17	20.054
565.51	21.243
565.85	20.850
566.19	20.027
566.52	20.710
566.86	20.887
567.20	19.427
567.54	20.742
567.88	20.094
568.21	20.362
568.55	18.478
568.89	20.175
569.23	18.873
569.56	18.739
569.90	18.798
570.24	18.422
570.57	18.218
570.91	18.543
571.25	17.461
571.59	17.471
571.92	17.096
572.26	16.878
572.60	17.178
572.93	17.477
573.27	16.991
573.61	16.826
573.95	17.040
574.28	16.605
574.62	16.807
574.96	16.405
575.29	16.229
575.63	15.989
575.97	16.265
576.30	16.756
576.64	16.238
576.98	16.499
577.31	16.392
577.65	16.766
577.98	16.779
578.32	15.954
578.66	15.968
578.99	16.214
579.33	16.138
579.67	16.503
580.00	16.557
580.34	16.194
580.67	16.024
581.01	16.402
581.35	15.568
581.68	15.725
582.02	15.948
582.35	15.655
582.69	15.952
583.02	15.958
583.36	15.519
583.70	16.822
584.03	16.625
584.37	17.335
584.70	16.264
585.04	15.907
585.37	16.265
585.71	15.626
586.04	16.112
586.38	15.497
586.72	16.557
587.05	16.349
587.39	16.522
587.72	16.566
588.06	15.970
588.39	16.235
588.73	16.911
589.06	16.536
589.40	17.387
589.73	16.502
590.07	17.409
590.40	17.260
590.73	18.163
591.07	17.260
591.40	16.607
591.74	17.104
592.07	17.718
592.41	16.917
592.74	16.487
593.08	15.927
593.41	16.639
593.75	15.963
594.08	16.100
594.41	16.485
594.75	16.450
595.08	16.269
595.42	16.599
595.75	16.560
596.09	16.419
596.42	16.412
596.75	17.274
597.09	17.312
597.42	17.435
597.75	16.628
598.09	16.116
598.42	16.606
598.76	16.216
599.09	16.587
599.42	16.105
599.76	16.215
600.09	15.950
600.42	15.656
600.76	15.416
601.09	15.153
601.42	15.668
601.76	15.403
602.09	16.048
602.42	16.428
602.76	15.917
603.09	16.154
603.42	16.430
603.76	15.927
604.09	15.836
604.42	16.328
604.76	16.555
605.09	15.859
605.42	16.027
605.75	15.018
606.09	16.093
606.42	15.847
606.75	16.061
607.09	16.703
607.42	15.020
607.75	15.764
608.08	16.038
608.42	16.080
608.75	17.060
609.08	16.542
609.41	15.939
609.75	15.978
610.08	16.076
610.41	15.990
610.74	15.895
611.07	16.176
611.41	16.347
611.74	16.738
612.07	16.328
612.40	16.575
612.73	16.328
613.07	15.411
613.40	16.904
613.73	15.949
614.06	16.917
614.39	17.146
614.72	16.022
615.06	16.369
615.39	16.157
615.72	15.393
616.05	16.480
616.38	15.385
616.71	16.330
617.05	16.492
617.38	17.159
617.71	16.101
618.04	16.127
618.37	16.898
618.70	16.370
619.03	17.361
619.36	16.498
619.69	17.589
620.03	17.896
620.36	16.595
620.69	18.130
621.02	16.361
621.35	17.676
621.68	17.092
622.01	17.167
622.34	16.121
622.67	16.877
623.00	16.922
623.33	17.683
623.66	15.856
623.99	16.641
624.32	15.894
624.65	16.842
624.99	16.855
625.32	16.300
625.65	16.968
625.98	16.841
626.31	15.046
626.64	18.111
626.97	17.976
627.30	16.637
627.63	17.158
627.96	17.161
628.29	17.484
628.62	17.011
628.95	18.337
629.28	17.440
629.61	17.348
629.94	18.768
630.26	17.984
630.59	17.898
630.92	17.538
631.25	16.923
631.58	18.062
631.91	18.202
632.24	17.202
632.57	19.659
632.90	18.031
633.23	18.471
633.56	19.018
633.89	19.359
634.22	18.025
634.55	17.408
634.88	18.902
635.20	18.333
635.53	19.200
635.86	17.815
636.19	20.699
636.52	19.005
636.85	16.253
637.18	18.491
637.51	19.245
637.83	19.317
638.16	19.782
638.49	17.439
638.82	19.211
639.15	17.639
639.48	17.882
639.81	20.363
640.13	18.326
640.46	18.222
640.79	17.673
641.12	17.282
641.45	18.168
641.77	18.370
642.10	21.169
642.43	17.685
642.76	18.812
643.09	19.871
643.41	18.447
643.74	17.792
644.07	20.690
644.40	18.750
644.73	18.389
645.05	20.973
645.38	19.577
645.71	17.908
646.04	19.928
646.36	19.858
646.69	19.784
647.02	19.282
647.35	18.284
647.67	20.658
648.00	19.963
648.33	17.918
648.66	21.017
648.98	16.918
649.31	17.190
649.64	19.152
649.96	18.639
650.29	17.888
650.62	17.265
650.94	19.630
651.27	17.505
651.60	18.919
651.92	17.133
652.25	18.295
652.58	16.500
652.90	19.726
653.23	17.815
653.56	18.274
653.88	18.213
654.21	15.587
654.54	16.978
654.86	18.336
655.19	15.936
655.52	15.325
655.84	12.209
656.17	12.918
656.49	17.539
656.82	18.169
657.15	13.896
657.47	10.510
657.80	8.052
658.13	8.016
658.45	12.353
658.78	12.285
659.10	12.851
659.43	13.092
659.75	13.962
660.08	13.862
660.41	15.730
660.73	16.713
661.06	17.331
661.38	18.004
661.71	14.168
662.03	19.099
662.36	19.560
662.68	18.805
663.01	19.869
663.33	18.329
663.66	18.605
663.98	16.977
664.31	18.337
664.63	17.281
664.96	15.652
665.28	17.219
665.61	18.182
665.93	18.261
666.26	17.570
666.58	17.673
666.91	17.647
667.23	18.396
667.56	17.062
667.88	16.547
668.21	19.093
668.53	20.331
668.86	18.632
669.18	18.160
669.50	15.496
669.83	17.907
670.15	17.483
670.48	21.053
670.80	20.046
671.13	16.107
671.45	15.982
671.77	18.240
672.10	19.208
672.42	18.352
672.75	15.808
673.07	19.857
673.39	18.165
673.72	14.596
674.04	14.167
674.37	17.797
674.69	17.773
675.01	19.111
675.34	18.919
675.66	17.361
675.98	20.177
676.31	16.514
676.63	14.727
676.95	17.727
677.28	18.588
677.60	19.759
677.92	17.431
678.25	16.630
678.57	12.987
678.89	16.597
679.22	14.765
679.54	14.257
679.86	12.922
680.18	17.670
680.51	16.477
680.83	14.314
681.15	16.200
681.48	18.852
681.80	15.496
682.12	16.935
682.44	14.854
682.77	17.439
683.09	18.993
683.41	14.545
683.73	16.820
684.06	17.035
684.38	13.978
684.70	16.122
685.02	15.353
685.34	13.834
685.67	13.508
685.99	15.552
686.31	15.752
686.63	15.770
686.96	15.399
687.28	12.121
687.60	15.019
687.92	16.970
688.24	15.726
688.56	16.157
688.89	15.402
689.21	19.556
689.53	16.937
689.85	16.744
690.17	18.080
690.49	14.894
690.82	17.476
691.14	14.524
691.46	17.757
691.78	14.640
692.10	15.484
692.42	12.987
692.74	15.598
693.06	15.090
693.39	12.670
693.71	12.896
694.03	13.395
694.35	13.084
694.67	15.152
694.99	13.055
695.31	19.321
695.63	15.750
695.95	14.394
696.27	15.285
696.59	18.333
696.91	14.006
697.23	11.825
697.56	12.871
697.88	15.914
698.20	12.301
698.52	15.059
698.84	12.919
699.16	12.500
699.48	14.787
699.80	15.385
700.12	15.903
700.44	15.406
700.76	15.407
701.08	12.121
701.40	16.265
701.72	20.988
702.04	17.162
702.36	16.722
702.68	11.712
703.00	16.061
703.32	14.370
703.64	15.537
703.96	14.203
704.28	17.485
704.60	20.000
704.91	12.618
705.23	14.618
705.55	21.201
705.87	14.440
706.19	11.111
706.51	13.058
706.83	17.042
707.15	10.903
707.47	14.006
707.79	11.458
708.11	16.000
708.43	11.250
708.74	15.245
709.06	16.901
709.38	14.679
709.70	15.680
710.02	13.694
710.34	18.885
710.66	12.500
710.98	11.921
711.29	12.459
711.61	16.271
711.93	15.961
712.25	18.900
712.57	12.454
712.89	13.433
713.20	20.069
713.52	15.679
713.84	13.652
714.16	13.058
714.48	9.032
714.80	14.744
715.11	13.982
715.43	11.285
715.75	12.333
716.07	10.963
716.39	15.772
716.70	9.594
717.02	13.740
717.34	16.599
717.66	14.602
717.97	13.043
718.29	14.644
718.61	22.047
718.93	13.953
719.24	15.970
719.56	15.261
719.88	13.402
720.20	11.364
720.51	13.410
720.83	13.900
721.15	15.546
721.46	13.306
721.78	8.696
722.10	9.665
722.42	9.129
722.73	13.469
723.05	16.735
723.37	18.220
723.68	18.468
724.00	9.402
724.32	13.778
724.63	8.182
724.95	13.974
725.27	14.286
725.58	8.898
725.90	12.302
726.22	17.375
726.53	12.881
726.85	9.738
727.16	14.340
727.48	9.717
727.80	13.360
728.11	10.169
728.43	10.980
728.74	7.661
729.06	15.600
729.38	21.053
729.69	10.757
730.01	9.615
730.32	13.060
730.64	14.841
730.96	9.811
731.27	13.667
731.59	7.458
731.90	13.376
732.22	15.142
732.53	13.953
732.85	12.411
733.16	15.488
733.48	8.993
733.80	13.406
734.11	11.864
734.43	13.058
734.74	12.727
735.06	9.446
735.37	15.710
735.69	12.795
736.00	9.408
736.32	11.745
736.63	12.676
736.95	13.652
737.26	14.947
737.58	10.067
737.89	11.355
738.21	15.414
738.52	13.169
738.83	14.410
739.15	9.607
739.46	14.961
739.78	8.791
740.09	9.150
740.41	11.232
740.72	13.386
741.04	14.170
741.35	11.064
741.66	13.744
741.98	11.735
742.29	11.386
742.61	12.565
742.92	8.531
743.23	12.500
743.55	13.122
743.86	8.612
744.18	9.569
744.49	4.787
744.80	7.065
745.12	12.834
745.43	10.732
745.74	14.062
746.06	12.195
746.37	7.330
746.68	16.588
747.00	7.447
747.31	16.915
747.62	6.796
747.94	11.962
748.25	13.366
748.56	6.557
748.88	10.471
749.19	15.426
749.50	16.256
749.82	8.962
750.13	10.550
750.44	12.782
750.75	14.552
751.07	18.613
751.38	12.644
751.69	13.333
752.01	14.729
752.32	9.163
752.63	5.929
752.94	14.224
753.26	15.900
753.57	8.597
753.88	15.487
754.19	4.583
754.51	9.504
754.82	8.907
755.13	14.583
755.44	13.306
755.75	13.672
756.07	13.619
756.38	5.660
756.69	6.897
757.00	10.000
757.31	12.092
757.63	13.110
757.94	10.278
758.25	7.671
758.56	6.383
758.87	8.499
759.18	11.526
759.50	6.182
759.81	14.047
760.12	13.548
760.43	7.879
760.74	8.333
761.05	10.462
761.36	8.239
761.67	13.333
761.99	10.204
762.30	4.727
762.61	10.672
762.92	9.502
763.23	14.865
763.54	7.477
763.85	10.593
764.16	8.299
764.47	9.274
764.78	7.692
765.10	15.152
765.41	10.410
765.72	11.111
766.03	8.271
766.34	11.679
766.65	14.741
766.96	10.101
767.27	10.106
767.58	5.172
767.89	2.837
768.20	14.205
768.51	15.934
768.82	13.300
769.13	7.834
769.44	10.730
769.75	2.740
770.06	12.931
770.37	7.212
770.68	9.645
770.99	5.430
771.30	14.216
771.61	6.335
771.92	13.362
772.23	13.793
772.54	17.204
772.85	9.259
773.16	14.607
773.47	7.190
773.78	9.804
774.09	10.180
774.39	12.000
774.70	10.191
775.01	13.793
775.32	15.000
775.63	-4.132
775.94	15.267
776.25	6.299
776.56	10.000
776.87	10.577
777.18	8.547
777.48	3.448
777.79	6.957
778.10	-4.762
778.41	8.108
778.72	12.698
779.03	10.526
779.34	14.184
779.65	12.329
779.95	5.479
780.26	14.483
780.57	-1.626
780.88	1.575
781.19	11.207
781.50	17.829
781.80	7.101
782.11	0.000
782.42	-3.077
782.73	5.755
783.04	14.074
783.34	10.417
783.65	-3.419
783.96	7.377
784.27	14.483
784.57	3.252
784.88	12.500
785.19	5.000
785.50	21.000
785.81	11.207
786.11	9.483
786.42	1.942
786.73	12.727
787.04	-4.082
787.34	8.929
787.65	1.905
787.96	3.540
788.26	4.545
788.57	12.821
788.88	10.156
789.19	16.667
789.49	9.565
789.80	4.082
790.11	14.141
790.41	7.273
790.72	10.870
791.03	-1.136
791.33	12.500
791.64	0.000
791.95	12.791
792.25	15.957
792.56	14.607
792.87	2.740
793.17	7.246
793.48	-2.667
793.79	5.000
794.09	18.750
794.40	4.717
794.70	2.913
795.01	10.569
795.32	11.111
795.62	3.810
795.93	5.882
796.23	7.547
796.54	10.417
796.85	4.412
797.15	5.634
797.46	15.278
797.76	15.152
798.07	8.140
798.37	-2.632
798.68	-7.576
798.99	20.988
799.29	8.571
799.60	4.348
799.90	16.000
800.21	18.033
800.51	-6.154
800.82	11.864
801.12	13.043
801.43	13.115
801.73	19.048
802.04	10.000
802.34	5.970
802.65	15.385
802.95	-5.357
803.26	-9.615
803.56	5.882
803.87	-21.739
804.17	22.667
804.48	14.286
804.78	-5.556
805.09	4.348
805.39	-22.222
805.70	14.815
806.00	-8.772
806.30	4.225
806.61	22.857
806.91	-5.556
807.22	14.474
807.52	13.333
807.83	-5.455
808.13	8.333
808.43	16.176
808.74	-2.985
809.04	-8.475
809.35	-21.154
809.65	28.125
809.95	-32.432
810.26	-27.273
810.56	-1.370
810.86	-9.524
811.17	-2.000
811.47	12.245
811.77	-10.526
812.08	4.545
812.38	3.774
812.69	7.500
812.99	6.061
813.29	-7.895
813.59	-14.286
813.90	-6.818
814.20	-5.128
814.50	1.923
814.81	15.094
815.11	-14.894
815.41	5.085
815.72	4.762
816.02	1.961
816.32	2.083
816.62	9.756
816.93	-37.838
817.23	-8.571
817.53	0.000
817.84	4.348
818.14	3.846
818.44	-5.263
818.74	13.043
819.04	-30.000
819.35	-2.703
819.65	5.882
819.95	11.111
820.25	14.286
820.56	30.000
820.86	-55.172
821.16	20.000
821.46	0.000
821.76	25.000
822.07	18.605
822.37	-27.027
822.67	-9.375
822.97	11.905
823.27	-14.286
823.57	-28.000
823.88	0.000
824.18	10.714
824.48	14.706
824.78	-41.935
825.08	26.087
825.38	18.182
825.69	-29.167
825.99	13.158
826.29	5.556
826.59	-20.000
826.89	-47.619
827.19	26.087
827.49	2.500
827.79	8.571
828.09	-14.286
828.39	18.182
828.70	35.135
829.00	-39.286
829.30	-28.571
829.60	-10.000
829.90	3.125
830.20	15.789
830.50	-7.407
830.80	-34.783
831.10	0.000
831.40	33.333
831.70	19.355
832.00	-14.286
832.30	-19.048
832.60	-58.333
832.90	13.793
833.20	-50.000
833.50	51.515
833.80	-3.704
834.10	3.846
834.40	25.000
834.70	-55.556
835.00	31.579
835.30	50.000
835.60	100.000
835.90	0.000
836.20	13.636
836.50	17.857
836.80	-23.077
837.10	-17.857
837.40	-33.333
837.70	13.636
838.00	-136.364
838.30	-34.783
838.60	-92.308
838.90	31.818
839.19	-7.143
839.49	-26.667
839.79	-15.385
840.09	-133.333
840.39	35.714
840.69	25.000
840.99	-15.385
841.29	-26.316
841.59	-110.000
841.88	-9.091
842.18	60.000
842.48	-18.750
842.78	0.000
843.08	3.704
843.38	-110.000
843.68	-8.696
843.97	13.333
844.27	-20.000
844.57	5.000
844.87	22.222
845.17	-47.619
845.47	-26.667
845.76	-38.095
846.06	0.000
846.36	30.000
846.66	35.714
846.96	-6.667
847.25	-37.500
847.55	-14.286
847.85	-75.000
848.15	0.000
848.44	-633.333
848.74	20.000
849.04	44.444
849.34	-100.000
849.63	-133.333
849.93	-20.000
850.23	33.333
850.53	-20.000
850.82	-7.692
851.12	-88.889
851.42	-26.667
851.71	-26.923
852.01	14.286
852.31	-125.000
852.61	-45.455
852.90	10.000
853.20	-15.789
853.50	16.667
853.79	39.130
854.09	41.667
854.39	-31.579
854.68	-45.833
854.98	-12.903
855.28	11.538
855.57	20.000
855.87	-5.556
856.17	33.333
856.46	57.143
856.76	-46.667
857.05	122.222
857.35	0.000
857.65	11.111
857.94	-38.462
858.24	10.345
858.53	55.556
858.83	18.519
859.13	-45.455
859.42	-17.391
859.72	25.000
860.01	-366.667
860.31	16.000
860.60	-38.095
860.90	-233.333
861.20	-20.000
861.49	-100.000
861.79	-26.667
862.08	30.000
862.38	53.333
862.67	-120.000
862.97	-166.667
863.26	25.000
863.56	-16.667
863.85	-166.667
864.15	16.667
864.44	30.000
864.74	14.286
865.03	300.000
865.33	-100.000
865.62	83.333
865.92	-16.667
866.21	-100.000
866.51	37.500
866.80	-154.545
867.10	-850.000
867.39	-58.333
867.69	0.000
867.98	15.385
868.27	-333.333
868.57	-13.333
868.86	72.222
869.16	7.692
869.45	100.000
869.75	-2300.000
870.04	0.000
870.33	-100.000
870.63	23.810
870.92	366.667
871.22	-280.000
871.51	-800.000
871.80	33.333
872.10	300.000
>>>>>End Processed Spectral Data<<<<<
