SpectraSuite Data File
++++++++++++++++++++++++++++++++++++
Date: Fri May 15 21:02:49 PDT 2015
User: schluterlab
Dark Spectrum Present: Yes
Reference Spectrum Present: Yes
Number of Sampled Component Spectra: 1
Spectrometers: USB2E3373
Integration Time (usec): 3000 (USB2E3373)
Spectra Averaged: 3 (USB2E3373)
Boxcar Smoothing: 0 (USB2E3373)
Correct for Electrical Dark: No (USB2E3373)
Strobe/Lamp Enabled: No (USB2E3373)
Correct for Detector Non-linearity: No (USB2E3373)
Correct for Stray Light: No (USB2E3373)
Number of Pixels in Processed Spectrum: 2048
>>>>>Begin Processed Spectral Data<<<<<
178.53	0.000
178.91	0.000
179.29	50.000
179.67	-150.000
180.04	71.429
180.42	350.000
180.80	100.000
181.18	300.000
181.56	200.000
181.94	-850.000
182.31	1100.000
182.69	-180.000
183.07	-100.000
183.45	-200.000
183.83	266.667
184.20	-63.636
184.58	222.222
184.96	100.000
185.34	66.667
185.72	-700.000
186.09	161.538
186.47	-800.000
186.85	266.667
187.23	122.222
187.61	-100.000
187.98	-366.667
188.36	-66.667
188.74	0.000
189.12	-5.882
189.49	-5.556
189.87	0.000
190.25	57.143
190.63	0.000
191.00	-166.667
191.38	-21.053
191.76	100.000
192.14	50.000
192.51	0.000
192.89	-66.667
193.27	-42.857
193.65	250.000
194.02	172.727
194.40	-80.000
194.78	-137.500
195.15	-66.667
195.53	-175.000
195.91	475.000
196.29	-200.000
196.66	130.769
197.04	114.286
197.42	-111.111
197.79	-600.000
198.17	-146.154
198.55	1500.000
198.92	-366.667
199.30	-500.000
199.68	-240.000
200.05	-100.000
200.43	0.000
200.81	-500.000
201.18	-100.000
201.56	1300.000
201.94	-400.000
202.31	333.333
202.69	-300.000
203.07	350.000
203.44	-800.000
203.82	0.000
204.19	7.143
204.57	-633.333
204.95	162.500
205.32	10.000
205.70	14.286
206.08	-300.000
206.45	100.000
206.83	-21.429
207.20	-157.143
207.58	200.000
207.96	-133.333
208.33	-160.000
208.71	-100.000
209.08	-233.333
209.46	-700.000
209.84	-140.000
210.21	-200.000
210.59	-57.143
210.96	33.333
211.34	-325.000
211.71	40.000
212.09	-142.857
212.46	-900.000
212.84	0.000
213.22	-10.000
213.59	450.000
213.97	61.538
214.34	9.091
214.72	-133.333
215.09	350.000
215.47	-92.308
215.84	-45.455
216.22	-666.667
216.59	-62.500
216.97	-200.000
217.34	-125.000
217.72	-400.000
218.09	-50.000
218.47	175.000
218.84	-1600.000
219.22	-133.333
219.59	-160.000
219.97	200.000
220.34	375.000
220.72	-157.143
221.09	-125.000
221.47	-100.000
221.84	-350.000
222.22	-1050.000
222.59	36.364
222.97	8.333
223.34	-133.333
223.72	-78.571
224.09	-33.333
224.46	21.429
224.84	533.333
225.21	-60.000
225.59	-40.000
225.96	-300.000
226.34	300.000
226.71	-100.000
227.08	-200.000
227.46	-75.000
227.83	-300.000
228.21	-33.333
228.58	-27.273
228.95	-137.500
229.33	240.000
229.70	-31.250
230.08	-125.000
230.45	-57.143
230.82	100.000
231.20	-6.667
231.57	50.000
231.95	0.000
232.32	-110.000
232.69	0.000
233.07	-33.333
233.44	-120.000
233.81	-90.000
234.19	-44.444
234.56	17.647
234.93	500.000
235.31	150.000
235.68	-200.000
236.05	23.077
236.43	-15.000
236.80	0.000
237.17	6.250
237.55	-15.000
237.92	48.148
238.29	22.222
238.67	26.667
239.04	20.588
239.41	14.634
239.79	13.333
240.16	12.195
240.53	7.895
240.91	13.043
241.28	22.222
241.65	28.571
242.02	36.986
242.40	21.667
242.77	30.508
243.14	18.182
243.51	23.750
243.89	54.023
244.26	17.241
244.63	32.143
245.00	30.928
245.38	39.175
245.75	28.090
246.12	31.897
246.49	38.017
246.87	35.577
247.24	41.176
247.61	31.579
247.98	43.089
248.36	30.000
248.73	30.263
249.10	33.117
249.47	36.709
249.84	43.137
250.22	40.000
250.59	39.216
250.96	42.723
251.33	31.977
251.70	40.000
252.08	39.594
252.45	39.109
252.82	42.211
253.19	35.023
253.56	38.785
253.94	41.892
254.31	43.478
254.68	45.175
255.05	39.370
255.42	44.978
255.79	44.015
256.16	42.023
256.54	42.164
256.91	40.684
257.28	42.007
257.65	47.940
258.02	42.908
258.39	44.781
258.76	47.619
259.14	46.179
259.51	44.013
259.88	38.832
260.25	42.810
260.62	46.528
260.99	39.661
261.36	41.781
261.73	42.089
262.10	41.033
262.47	44.785
262.85	45.455
263.22	42.769
263.59	42.679
263.96	46.584
264.33	43.333
264.70	43.155
265.07	42.560
265.44	45.609
265.81	45.763
266.18	41.530
266.55	45.758
266.92	42.746
267.29	44.125
267.66	43.990
268.03	43.717
268.40	44.125
268.77	49.198
269.14	42.926
269.51	43.702
269.88	42.643
270.25	44.388
270.62	47.073
270.99	43.223
271.36	41.809
271.73	44.836
272.10	41.363
272.47	46.099
272.84	42.079
273.21	43.619
273.58	40.723
273.95	41.648
274.32	40.878
274.69	41.855
275.06	41.741
275.43	43.764
275.80	41.722
276.17	42.989
276.54	42.398
276.91	42.325
277.28	40.830
277.65	42.769
278.02	38.936
278.39	42.451
278.76	41.929
279.13	39.212
279.50	43.277
279.87	38.229
280.23	39.355
280.60	39.766
280.97	43.636
281.34	39.038
281.71	42.300
282.08	38.446
282.45	39.335
282.82	41.313
283.19	42.747
283.56	41.426
283.92	38.140
284.29	39.231
284.66	37.209
285.03	42.436
285.40	41.210
285.77	37.610
286.14	42.419
286.51	41.144
286.87	37.477
287.24	41.252
287.61	38.624
287.98	38.596
288.35	36.915
288.72	41.856
289.08	36.632
289.45	39.367
289.82	37.587
290.19	36.519
290.56	36.707
290.93	36.532
291.29	34.669
291.66	36.220
292.03	34.769
292.40	34.032
292.77	34.769
293.13	32.955
293.50	34.598
293.87	32.061
294.24	33.385
294.60	32.340
294.97	33.036
295.34	32.669
295.71	31.595
296.08	31.988
296.44	31.010
296.81	30.972
297.18	31.014
297.55	32.791
297.91	31.644
298.28	31.398
298.65	30.529
299.02	30.054
299.38	29.001
299.75	30.621
300.12	29.450
300.48	29.117
300.85	29.531
301.22	30.779
301.59	28.158
301.95	28.987
302.32	29.831
302.69	26.617
303.05	29.703
303.42	28.144
303.79	27.453
304.15	28.554
304.52	27.943
304.89	28.070
305.25	27.966
305.62	25.904
305.99	27.368
306.35	27.283
306.72	25.309
307.09	27.252
307.45	28.932
307.82	27.431
308.19	26.945
308.55	26.827
308.92	27.451
309.29	26.369
309.65	27.234
310.02	25.193
310.38	27.442
310.75	27.978
311.12	26.372
311.48	25.875
311.85	26.387
312.22	26.160
312.58	26.327
312.95	24.760
313.31	25.880
313.68	26.492
314.05	25.510
314.41	27.835
314.78	25.258
315.14	26.619
315.51	27.122
315.87	25.410
316.24	26.896
316.61	25.591
316.97	25.198
317.34	26.367
317.70	25.908
318.07	25.000
318.43	28.137
318.80	24.053
319.16	25.879
319.53	25.546
319.89	25.197
320.26	26.012
320.62	26.279
320.99	26.409
321.35	26.208
321.72	26.064
322.08	25.881
322.45	25.076
322.81	24.656
323.18	24.926
323.54	23.263
323.91	24.927
324.27	24.609
324.64	26.030
325.00	26.916
325.37	26.354
325.73	26.201
326.10	25.795
326.46	26.009
326.83	25.547
327.19	25.981
327.56	26.064
327.92	26.937
328.29	25.446
328.65	24.906
329.01	26.011
329.38	25.161
329.74	24.929
330.11	25.672
330.47	25.510
330.84	26.154
331.20	26.236
331.56	25.000
331.93	25.479
332.29	24.931
332.66	24.796
333.02	25.372
333.38	25.298
333.75	26.557
334.11	24.082
334.48	26.111
334.84	25.733
335.20	25.801
335.57	25.295
335.93	25.836
336.29	25.138
336.66	23.706
337.02	25.000
337.38	23.796
337.75	26.364
338.11	25.879
338.47	25.547
338.84	25.323
339.20	24.589
339.56	24.495
339.93	25.515
340.29	24.862
340.65	25.806
341.02	24.468
341.38	24.336
341.74	24.117
342.11	23.224
342.47	24.377
342.83	24.654
343.20	24.216
343.56	23.739
343.92	24.535
344.28	25.534
344.65	25.475
345.01	24.546
345.37	24.558
345.73	24.435
346.10	25.626
346.46	24.054
346.82	24.795
347.19	24.023
347.55	24.478
347.91	24.838
348.27	23.605
348.63	24.446
349.00	25.021
349.36	23.940
349.72	24.212
350.08	24.016
350.45	24.501
350.81	22.093
351.17	23.534
351.53	24.245
351.89	23.204
352.26	23.520
352.62	23.790
352.98	23.052
353.34	22.947
353.70	24.595
354.07	22.903
354.43	22.658
354.79	22.791
355.15	23.730
355.51	22.943
355.87	24.191
356.24	22.675
356.60	23.605
356.96	23.730
357.32	23.163
357.68	22.283
358.04	22.294
358.40	23.232
358.77	23.365
359.13	22.258
359.49	22.496
359.85	22.855
360.21	24.322
360.57	22.953
360.93	22.012
361.29	21.450
361.66	23.903
362.02	22.803
362.38	23.153
362.74	22.710
363.10	23.853
363.46	22.906
363.82	23.065
364.18	23.100
364.54	22.132
364.90	23.082
365.26	22.707
365.62	22.701
365.98	22.947
366.35	22.651
366.71	23.134
367.07	22.496
367.43	22.214
367.79	21.908
368.15	21.752
368.51	23.088
368.87	22.182
369.23	20.939
369.59	22.085
369.95	22.654
370.31	22.688
370.67	23.060
371.03	22.255
371.39	22.684
371.75	22.125
372.11	22.468
372.47	22.041
372.83	21.930
373.19	21.113
373.55	21.227
373.91	21.670
374.27	22.466
374.63	23.475
374.99	21.135
375.35	21.797
375.71	22.378
376.07	21.840
376.42	21.701
376.78	22.081
377.14	22.072
377.50	21.647
377.86	21.017
378.22	20.996
378.58	21.538
378.94	21.109
379.30	22.146
379.66	21.191
380.02	21.214
380.38	20.816
380.74	21.185
381.09	21.840
381.45	21.651
381.81	20.851
382.17	21.827
382.53	22.548
382.89	21.846
383.25	21.469
383.61	21.585
383.97	20.952
384.32	20.450
384.68	21.858
385.04	19.853
385.40	21.220
385.76	21.258
386.12	22.057
386.48	20.945
386.83	20.672
387.19	21.856
387.55	22.083
387.91	21.455
388.27	20.757
388.62	21.020
388.98	21.117
389.34	21.799
389.70	22.623
390.06	20.642
390.42	21.049
390.77	20.994
391.13	20.240
391.49	21.863
391.85	19.883
392.20	20.778
392.56	20.852
392.92	21.668
393.28	20.932
393.64	20.781
393.99	21.567
394.35	20.177
394.71	21.648
395.07	20.930
395.42	20.461
395.78	20.717
396.14	20.870
396.50	20.355
396.85	21.378
397.21	20.865
397.57	20.502
397.92	21.330
398.28	21.609
398.64	20.181
399.00	21.445
399.35	20.880
399.71	20.391
400.07	21.040
400.42	20.685
400.78	22.107
401.14	21.174
401.49	20.786
401.85	20.475
402.21	20.783
402.57	20.875
402.92	20.201
403.28	21.617
403.63	20.807
403.99	20.344
404.35	21.674
404.70	19.881
405.06	19.918
405.42	20.447
405.77	20.046
406.13	21.711
406.49	21.078
406.84	20.660
407.20	21.011
407.55	20.155
407.91	19.987
408.27	20.013
408.62	21.538
408.98	19.655
409.34	20.756
409.69	20.801
410.05	20.135
410.40	19.815
410.76	20.808
411.11	21.250
411.47	20.316
411.83	20.402
412.18	21.171
412.54	20.162
412.89	21.059
413.25	20.939
413.60	20.248
413.96	20.859
414.31	21.098
414.67	20.269
415.03	20.839
415.38	20.561
415.74	20.651
416.09	20.967
416.45	20.864
416.80	21.348
417.16	21.133
417.51	20.853
417.87	18.579
418.22	20.661
418.58	20.803
418.93	20.752
419.29	20.038
419.64	20.933
420.00	20.781
420.35	20.239
420.71	21.142
421.06	20.442
421.42	20.493
421.77	20.983
422.12	20.431
422.48	20.790
422.83	21.404
423.19	20.542
423.54	20.459
423.90	20.082
424.25	19.977
424.61	20.991
424.96	20.616
425.31	21.548
425.67	20.540
426.02	21.437
426.38	21.165
426.73	21.005
427.09	21.456
427.44	21.765
427.79	20.330
428.15	21.238
428.50	20.351
428.85	21.007
429.21	20.939
429.56	20.809
429.92	20.493
430.27	20.752
430.62	20.962
430.98	20.276
431.33	21.661
431.68	20.565
432.04	20.291
432.39	20.536
432.74	19.483
433.10	21.897
433.45	20.430
433.80	20.429
434.16	19.834
434.51	21.183
434.86	21.312
435.22	21.032
435.57	21.148
435.92	20.539
436.28	19.678
436.63	20.194
436.98	20.104
437.34	20.085
437.69	20.572
438.04	20.171
438.39	20.159
438.75	21.008
439.10	20.317
439.45	20.998
439.81	21.040
440.16	21.021
440.51	20.358
440.86	22.417
441.22	20.023
441.57	21.137
441.92	21.511
442.27	21.231
442.63	20.985
442.98	21.482
443.33	19.978
443.68	20.902
444.03	21.212
444.39	21.200
444.74	21.572
445.09	21.492
445.44	20.798
445.79	21.609
446.15	20.980
446.50	20.743
446.85	21.148
447.20	21.272
447.55	21.708
447.91	21.151
448.26	21.685
448.61	21.301
448.96	21.801
449.31	21.098
449.66	21.312
450.02	21.620
450.37	20.865
450.72	20.447
451.07	21.329
451.42	20.849
451.77	20.494
452.12	20.156
452.47	21.314
452.83	20.730
453.18	20.683
453.53	21.681
453.88	20.886
454.23	21.328
454.58	21.348
454.93	21.843
455.28	20.508
455.63	21.017
455.98	21.046
456.34	20.434
456.69	20.203
457.04	21.865
457.39	20.717
457.74	20.375
458.09	20.659
458.44	22.060
458.79	21.008
459.14	21.568
459.49	21.493
459.84	21.263
460.19	20.752
460.54	21.394
460.89	22.045
461.24	21.429
461.59	22.150
461.94	21.132
462.29	21.472
462.64	21.462
462.99	21.869
463.34	20.654
463.69	21.042
464.04	20.884
464.39	21.528
464.74	21.350
465.09	22.084
465.44	21.870
465.79	21.712
466.14	20.410
466.49	20.817
466.84	20.999
467.19	21.277
467.54	20.498
467.89	21.289
468.24	20.681
468.59	21.206
468.94	20.571
469.29	21.443
469.64	21.394
469.99	21.584
470.34	20.273
470.68	21.924
471.03	21.161
471.38	20.685
471.73	21.008
472.08	20.760
472.43	20.604
472.78	20.905
473.13	20.884
473.48	22.085
473.83	21.171
474.17	22.345
474.52	20.996
474.87	20.545
475.22	21.599
475.57	20.892
475.92	21.997
476.27	20.780
476.61	21.470
476.96	19.967
477.31	21.038
477.66	21.573
478.01	21.168
478.36	20.370
478.70	21.370
479.05	21.484
479.40	21.145
479.75	21.533
480.10	21.198
480.45	21.600
480.79	22.155
481.14	21.363
481.49	20.936
481.84	20.994
482.19	20.674
482.53	21.055
482.88	21.098
483.23	20.777
483.58	20.566
483.92	20.910
484.27	20.738
484.62	21.605
484.97	21.186
485.31	21.243
485.66	21.897
486.01	22.962
486.36	22.684
486.70	22.252
487.05	21.845
487.40	21.303
487.75	20.676
488.09	20.303
488.44	20.220
488.79	20.022
489.13	20.112
489.48	20.735
489.83	20.135
490.17	20.404
490.52	21.155
490.87	20.361
491.22	20.439
491.56	21.110
491.91	20.507
492.26	21.099
492.60	20.250
492.95	21.200
493.30	20.518
493.64	21.267
493.99	20.918
494.34	20.485
494.68	20.952
495.03	19.854
495.37	20.265
495.72	21.100
496.07	21.317
496.41	20.519
496.76	21.327
497.11	20.820
497.45	20.955
497.80	20.888
498.14	20.914
498.49	20.315
498.84	19.611
499.18	20.382
499.53	20.188
499.87	21.158
500.22	20.772
500.56	21.029
500.91	21.436
501.26	20.069
501.60	21.053
501.95	20.815
502.29	21.501
502.64	20.270
502.98	21.164
503.33	20.125
503.67	19.855
504.02	21.408
504.36	21.178
504.71	20.000
505.06	20.232
505.40	20.863
505.75	21.186
506.09	21.085
506.44	20.842
506.78	20.765
507.13	20.579
507.47	19.478
507.82	19.391
508.16	20.866
508.51	20.672
508.85	20.722
509.19	20.011
509.54	20.643
509.88	20.334
510.23	20.226
510.57	19.989
510.92	19.936
511.26	20.349
511.61	20.352
511.95	20.384
512.30	20.122
512.64	20.701
512.98	20.606
513.33	20.369
513.67	19.955
514.02	21.281
514.36	21.429
514.70	20.513
515.05	19.800
515.39	20.071
515.74	20.479
516.08	20.741
516.42	21.378
516.77	20.012
517.11	20.475
517.46	20.586
517.80	20.381
518.14	19.963
518.49	19.892
518.83	20.717
519.17	19.345
519.52	20.071
519.86	19.448
520.20	20.109
520.55	20.888
520.89	20.138
521.23	20.203
521.58	20.631
521.92	20.641
522.26	20.234
522.61	19.545
522.95	21.126
523.29	20.394
523.64	20.394
523.98	20.091
524.32	19.652
524.66	20.871
525.01	20.974
525.35	20.091
525.69	19.731
526.04	18.981
526.38	20.169
526.72	19.686
527.06	19.780
527.41	20.053
527.75	19.236
528.09	19.934
528.43	20.864
528.78	21.056
529.12	20.194
529.46	19.948
529.80	19.696
530.15	20.660
530.49	20.943
530.83	19.836
531.17	20.081
531.51	19.904
531.86	19.850
532.20	20.251
532.54	21.511
532.88	21.424
533.22	20.901
533.57	20.446
533.91	20.300
534.25	21.159
534.59	20.590
534.93	20.327
535.27	19.480
535.62	20.091
535.96	20.157
536.30	21.042
536.64	19.848
536.98	20.139
537.32	20.697
537.66	21.178
538.01	20.839
538.35	20.042
538.69	20.439
539.03	20.096
539.37	20.458
539.71	21.268
540.05	20.706
540.39	20.983
540.73	20.223
541.07	20.856
541.42	21.774
541.76	20.853
542.10	20.028
542.44	20.917
542.78	19.546
543.12	19.437
543.46	20.584
543.80	21.305
544.14	20.027
544.48	20.986
544.82	20.848
545.16	21.107
545.50	21.896
545.84	21.317
546.18	20.851
546.52	20.043
546.86	21.064
547.20	20.386
547.54	20.283
547.88	21.399
548.22	20.250
548.56	19.987
548.90	20.822
549.24	21.281
549.58	20.663
549.92	19.657
550.26	20.220
550.60	20.967
550.94	20.090
551.28	19.784
551.62	21.000
551.96	20.752
552.30	20.614
552.64	20.733
552.98	21.449
553.32	20.756
553.66	20.537
554.00	20.292
554.34	20.753
554.68	20.501
555.02	20.982
555.36	20.718
555.69	20.293
556.03	20.343
556.37	20.427
556.71	20.722
557.05	21.551
557.39	19.628
557.73	20.015
558.07	21.569
558.41	20.750
558.75	20.343
559.08	19.779
559.42	20.635
559.76	20.496
560.10	20.795
560.44	20.923
560.78	21.049
561.12	21.439
561.45	21.434
561.79	21.359
562.13	20.866
562.47	19.784
562.81	20.389
563.15	19.676
563.48	21.075
563.82	21.757
564.16	20.543
564.50	21.014
564.84	20.817
565.17	20.926
565.51	20.765
565.85	21.331
566.19	21.883
566.52	21.046
566.86	21.787
567.20	21.108
567.54	21.898
567.88	21.617
568.21	22.398
568.55	21.685
568.89	22.228
569.23	22.195
569.56	22.986
569.90	22.574
570.24	22.218
570.57	23.055
570.91	23.388
571.25	21.901
571.59	22.547
571.92	22.015
572.26	21.739
572.60	22.419
572.93	21.525
573.27	21.850
573.61	22.613
573.95	22.365
574.28	22.299
574.62	22.044
574.96	22.513
575.29	21.858
575.63	21.560
575.97	21.225
576.30	21.591
576.64	21.404
576.98	22.394
577.31	21.701
577.65	22.569
577.98	22.908
578.32	22.586
578.66	21.964
578.99	21.736
579.33	21.409
579.67	21.625
580.00	21.747
580.34	21.816
580.67	21.513
581.01	22.286
581.35	22.933
581.68	22.889
582.02	22.775
582.35	22.470
582.69	22.614
583.02	22.217
583.36	21.244
583.70	22.092
584.03	21.546
584.37	22.163
584.70	21.923
585.04	21.295
585.37	22.064
585.71	22.315
586.04	21.760
586.38	21.339
586.72	22.324
587.05	22.415
587.39	22.505
587.72	22.471
588.06	22.170
588.39	21.846
588.73	21.917
589.06	22.440
589.40	22.330
589.73	21.395
590.07	22.130
590.40	21.556
590.73	21.870
591.07	21.671
591.40	21.817
591.74	22.262
592.07	21.892
592.41	22.217
592.74	22.382
593.08	22.738
593.41	22.273
593.75	22.309
594.08	21.970
594.41	22.416
594.75	21.221
595.08	21.642
595.42	22.157
595.75	21.480
596.09	22.088
596.42	21.331
596.75	21.448
597.09	21.458
597.42	22.087
597.75	21.484
598.09	21.050
598.42	20.803
598.76	22.608
599.09	21.875
599.42	22.698
599.76	21.859
600.09	21.983
600.42	22.176
600.76	21.620
601.09	22.176
601.42	21.112
601.76	20.961
602.09	21.040
602.42	22.241
602.76	22.071
603.09	22.010
603.42	22.910
603.76	20.968
604.09	21.952
604.42	21.870
604.76	22.118
605.09	21.892
605.42	21.851
605.75	21.366
606.09	22.081
606.42	21.018
606.75	21.169
607.09	20.967
607.42	21.710
607.75	20.515
608.08	21.069
608.42	20.786
608.75	21.735
609.08	21.923
609.41	21.117
609.75	20.817
610.08	21.118
610.41	21.449
610.74	21.307
611.07	21.085
611.41	21.484
611.74	21.215
612.07	21.413
612.40	21.171
612.73	21.582
613.07	21.147
613.40	21.718
613.73	20.873
614.06	21.647
614.39	21.715
614.72	20.840
615.06	21.173
615.39	20.852
615.72	20.936
616.05	21.117
616.38	20.171
616.71	21.101
617.05	20.445
617.38	21.433
617.71	20.000
618.04	21.778
618.37	22.699
618.70	21.056
619.03	21.597
619.36	19.609
619.69	21.152
620.03	21.841
620.36	20.959
620.69	21.485
621.02	21.024
621.35	21.245
621.68	21.088
622.01	20.917
622.34	20.910
622.67	21.136
623.00	21.669
623.33	21.037
623.66	22.064
623.99	20.953
624.32	20.760
624.65	21.579
624.99	21.068
625.32	19.030
625.65	21.445
625.98	20.951
626.31	19.285
626.64	20.364
626.97	20.244
627.30	20.490
627.63	21.144
627.96	20.395
628.29	20.537
628.62	20.747
628.95	19.940
629.28	20.766
629.61	19.442
629.94	21.017
630.26	18.775
630.59	20.812
630.92	19.487
631.25	19.590
631.58	19.824
631.91	19.408
632.24	20.757
632.57	18.636
632.90	19.454
633.23	19.529
633.56	19.395
633.89	20.469
634.22	20.123
634.55	19.441
634.88	19.923
635.20	18.974
635.53	18.667
635.86	18.466
636.19	21.734
636.52	20.281
636.85	19.479
637.18	19.371
637.51	18.994
637.83	19.580
638.16	21.828
638.49	18.120
638.82	20.789
639.15	20.353
639.48	19.945
639.81	20.223
640.13	19.336
640.46	17.347
640.79	18.704
641.12	18.021
641.45	20.721
641.77	18.667
642.10	19.431
642.43	17.846
642.76	19.802
643.09	19.386
643.41	16.990
643.74	18.781
644.07	21.018
644.40	18.074
644.73	20.665
645.05	17.282
645.38	22.046
645.71	19.504
646.04	20.826
646.36	17.553
646.69	20.683
647.02	18.904
647.35	20.336
647.67	17.550
648.00	18.470
648.33	19.283
648.66	19.153
648.98	17.588
649.31	17.686
649.64	19.937
649.96	15.721
650.29	20.613
650.62	19.829
650.94	17.963
651.27	16.574
651.60	20.360
651.92	19.580
652.25	16.874
652.58	20.167
652.90	21.955
653.23	20.168
653.56	16.244
653.88	19.244
654.21	16.988
654.54	20.713
654.86	18.676
655.19	19.006
655.52	24.845
655.84	27.283
656.17	30.197
656.49	39.018
656.82	37.853
657.15	27.111
657.47	19.589
657.80	13.795
658.13	12.854
658.45	18.500
658.78	17.789
659.10	16.611
659.43	16.673
659.75	16.724
660.08	16.069
660.41	16.956
660.73	17.403
661.06	18.371
661.38	16.438
661.71	17.248
662.03	18.026
662.36	17.582
662.68	16.372
663.01	22.052
663.33	19.026
663.66	17.907
663.98	17.674
664.31	18.337
664.63	18.894
664.96	15.652
665.28	16.115
665.61	19.048
665.93	20.000
666.26	21.692
666.58	15.213
666.91	15.294
667.23	18.632
667.56	18.483
667.88	14.868
668.21	21.002
668.53	17.967
668.86	17.217
669.18	16.509
669.50	16.223
669.83	17.907
670.15	17.483
670.48	16.986
670.80	15.438
671.13	19.239
671.45	15.525
671.77	23.391
672.10	19.802
672.42	21.348
672.75	19.538
673.07	21.825
673.39	20.917
673.72	15.385
674.04	19.583
674.37	19.492
674.69	17.131
675.01	18.222
675.34	17.793
675.66	20.139
675.98	19.734
676.31	17.661
676.63	19.477
676.95	17.727
677.28	16.471
677.60	19.277
677.92	17.431
678.25	20.350
678.57	19.264
678.89	17.437
679.22	20.582
679.54	18.876
679.86	17.495
680.18	19.223
680.51	18.939
680.83	17.893
681.15	18.800
681.48	19.467
681.80	20.868
682.12	17.742
682.44	18.201
682.77	15.894
683.09	15.789
683.41	16.591
683.73	19.124
684.06	20.354
684.38	19.140
684.70	21.351
685.02	18.050
685.34	18.577
685.67	17.073
685.99	20.072
686.31	20.177
686.63	20.779
686.96	17.110
687.28	16.970
687.60	16.350
687.92	20.404
688.24	18.145
688.56	20.961
688.89	15.625
689.21	19.333
689.53	17.401
689.85	18.837
690.17	19.643
690.49	18.913
690.82	18.204
691.14	17.857
691.46	17.757
691.78	19.820
692.10	19.140
692.42	16.883
692.74	19.658
693.06	17.568
693.39	15.385
693.71	16.968
694.03	16.166
694.35	15.654
694.67	14.899
694.99	19.321
695.31	19.060
695.63	17.500
695.95	18.182
696.27	16.062
696.59	15.278
696.91	16.246
697.23	16.967
697.56	16.337
697.88	21.505
698.20	17.995
698.52	18.118
698.84	18.421
699.16	16.500
699.48	16.040
699.80	16.873
700.12	16.442
700.44	17.927
700.76	14.244
701.08	16.970
701.40	16.867
701.72	21.296
702.04	17.492
702.36	16.054
702.68	18.318
703.00	13.636
703.32	16.716
703.64	16.949
703.96	17.681
704.28	17.485
704.60	18.095
704.91	12.934
705.23	15.615
705.55	18.021
705.87	16.606
706.19	15.926
706.51	17.869
706.83	15.113
707.15	16.822
707.47	17.367
707.79	17.188
708.11	19.750
708.43	16.500
708.74	16.796
709.06	20.845
709.38	16.820
709.70	16.568
710.02	16.242
710.34	18.576
710.66	15.064
710.98	19.536
711.29	15.738
711.61	18.983
711.93	18.893
712.25	22.337
712.57	16.117
712.89	13.806
713.20	14.187
713.52	12.544
713.84	13.311
714.16	17.182
714.48	14.839
714.80	24.679
715.11	19.149
715.43	16.301
715.75	18.667
716.07	17.608
716.39	15.436
716.70	14.760
717.02	16.412
717.34	17.814
717.66	11.947
717.97	12.174
718.29	18.828
718.61	13.780
718.93	15.504
719.24	19.392
719.56	12.048
719.88	17.526
720.20	17.424
720.51	13.410
720.83	21.622
721.15	15.546
721.46	16.129
721.78	13.439
722.10	15.985
722.42	15.768
722.73	12.653
723.05	21.224
723.37	19.068
723.68	22.072
724.00	15.812
724.32	11.556
724.63	15.909
724.95	13.100
725.27	15.668
725.58	16.949
725.90	12.302
726.22	16.216
726.53	20.678
726.85	17.228
727.16	19.623
727.48	14.170
727.80	22.267
728.11	15.678
728.43	19.608
728.74	14.113
729.06	19.600
729.38	21.053
729.69	15.139
730.01	15.385
730.32	21.269
730.64	20.495
730.96	20.000
731.27	17.000
731.59	18.644
731.90	19.108
732.22	19.874
732.53	18.937
732.85	21.277
733.16	20.875
733.48	16.547
733.80	14.130
734.11	17.627
734.43	15.808
734.74	24.545
735.06	13.681
735.37	19.033
735.69	17.508
736.00	18.815
736.32	18.121
736.63	23.239
736.95	17.406
737.26	17.438
737.58	19.128
737.89	16.484
738.21	18.797
738.52	17.695
738.83	18.777
739.15	15.721
739.46	16.535
739.78	16.484
740.09	18.301
740.41	16.667
740.72	10.236
741.04	14.575
741.35	12.340
741.66	12.322
741.98	16.837
742.29	14.356
742.61	15.183
742.92	10.900
743.23	9.722
743.55	18.100
743.86	15.311
744.18	13.397
744.49	11.702
744.80	13.587
745.12	17.647
745.43	15.610
745.74	19.792
746.06	20.000
746.37	16.754
746.68	17.062
747.00	11.170
747.31	22.886
747.62	13.592
747.94	16.746
748.25	12.871
748.56	19.126
748.88	16.230
749.19	17.021
749.50	11.823
749.82	14.151
750.13	17.890
750.44	22.932
750.75	20.896
751.07	22.993
751.38	17.241
751.69	15.686
752.01	19.767
752.32	21.116
752.63	17.391
752.94	12.500
753.26	22.594
753.57	19.457
753.88	15.487
754.19	16.667
754.51	12.397
754.82	18.219
755.13	22.500
755.44	22.581
755.75	19.922
756.07	21.012
756.38	17.736
756.69	13.410
757.00	15.333
757.31	20.588
757.63	17.683
757.94	22.500
758.25	19.726
758.56	18.617
758.87	17.847
759.18	17.445
759.50	10.909
759.81	19.732
760.12	21.935
760.43	21.212
760.74	20.062
761.05	18.769
761.36	19.602
761.67	24.242
761.99	20.068
762.30	16.727
762.61	17.787
762.92	12.217
763.23	16.667
763.54	18.224
763.85	16.949
764.16	19.917
764.47	15.323
764.78	19.414
765.10	23.906
765.41	22.082
765.72	19.683
766.03	16.165
766.34	20.803
766.65	19.920
766.96	15.657
767.27	15.957
767.58	14.943
767.89	12.057
768.20	15.341
768.51	17.582
768.82	16.256
769.13	17.972
769.44	15.451
769.75	16.438
770.06	19.397
770.37	18.269
770.68	17.259
770.99	15.385
771.30	24.510
771.61	14.932
771.92	17.241
772.23	16.256
772.54	19.892
772.85	17.901
773.16	16.854
773.47	15.033
773.78	16.340
774.09	16.168
774.39	11.333
774.70	22.930
775.01	20.690
775.32	16.429
775.63	14.050
775.94	17.557
776.25	7.087
776.56	18.333
776.87	0.000
777.18	12.821
777.48	13.793
777.79	10.435
778.10	5.714
778.41	9.009
778.72	19.048
779.03	13.534
779.34	21.277
779.65	13.699
779.95	16.438
780.26	20.000
780.57	12.195
780.88	12.598
781.19	24.138
781.50	24.806
781.80	20.710
782.11	12.579
782.42	20.769
782.73	20.144
783.04	17.037
783.34	15.278
783.65	-5.983
783.96	13.115
784.27	20.000
784.57	10.569
784.88	17.188
785.19	16.000
785.50	27.000
785.81	18.966
786.11	12.069
786.42	12.621
786.73	19.091
787.04	8.163
787.34	18.750
787.65	14.286
787.96	13.274
788.26	22.727
788.57	6.838
788.88	21.875
789.19	5.556
789.49	9.565
789.80	9.184
790.11	11.111
790.41	8.182
790.72	6.522
791.03	25.000
791.33	22.500
791.64	5.000
791.95	2.326
792.25	8.511
792.56	14.607
792.87	4.110
793.17	-5.797
793.48	-2.667
793.79	7.500
794.09	15.000
794.40	16.981
794.70	2.913
795.01	8.943
795.32	11.966
795.62	8.571
795.93	8.824
796.23	8.491
796.54	11.458
796.85	4.412
797.15	-2.817
797.46	2.778
797.76	24.242
798.07	12.791
798.37	10.526
798.68	19.697
798.99	22.222
799.29	10.000
799.60	7.246
799.90	12.000
800.21	-1.639
800.51	4.615
800.82	1.695
801.12	18.841
801.43	8.197
801.73	-3.175
802.04	-8.000
802.34	14.925
802.65	19.231
802.95	5.357
803.26	11.538
803.56	23.529
803.87	-21.739
804.17	1.333
804.48	22.222
804.78	-12.963
805.09	-6.522
805.39	6.667
805.70	18.519
806.00	-15.789
806.30	14.085
806.61	11.429
806.91	-2.778
807.22	19.737
807.52	10.667
807.83	-10.909
808.13	0.000
808.43	17.647
808.74	16.418
809.04	11.864
809.35	5.769
809.65	4.687
809.95	-29.730
810.26	-4.545
810.56	19.178
810.86	0.000
811.17	10.000
811.47	10.204
811.77	-7.895
812.08	9.091
812.38	15.094
812.69	-17.500
812.99	-63.636
813.29	0.000
813.59	-37.143
813.90	15.909
814.20	-23.077
814.50	17.308
814.81	11.321
815.11	-4.255
815.41	15.254
815.72	-7.143
816.02	7.843
816.32	12.500
816.62	-12.195
816.93	-18.919
817.23	-11.429
817.53	8.333
817.84	-2.174
818.14	5.769
818.44	-18.421
818.74	-2.174
819.04	-37.500
819.35	13.514
819.65	-17.647
819.95	-2.778
820.25	14.286
820.56	25.000
820.86	-58.621
821.16	12.500
821.46	8.511
821.76	12.500
822.07	-16.279
822.37	-29.730
822.67	-15.625
822.97	4.762
823.27	-25.000
823.57	-52.000
823.88	-11.111
824.18	17.857
824.48	-26.471
824.78	-9.677
825.08	-13.043
825.38	9.091
825.69	-20.833
825.99	-2.632
826.29	5.556
826.59	-86.667
826.89	-76.190
827.19	4.348
827.49	-17.500
827.79	5.714
828.09	-3.571
828.39	-27.273
828.70	21.622
829.00	-32.143
829.30	-47.619
829.60	-16.667
829.90	15.625
830.20	-34.211
830.50	-33.333
830.80	-39.130
831.10	-13.636
831.40	18.182
831.70	-9.677
832.00	-38.095
832.30	9.524
832.60	-41.667
832.90	-24.138
833.20	-30.000
833.50	9.091
833.80	-44.444
834.10	-23.077
834.40	40.625
834.70	-44.444
835.00	-10.526
835.30	-7.692
835.60	40.000
835.90	-9.677
836.20	-27.273
836.50	-21.429
836.80	-34.615
837.10	-14.286
837.40	-400.000
837.70	-13.636
838.00	-190.909
838.30	-13.043
838.60	-15.385
838.90	-18.182
839.19	7.143
839.49	36.667
839.79	-76.923
840.09	-100.000
840.39	14.286
840.69	3.571
840.99	-11.538
841.29	-15.789
841.59	-80.000
841.88	-63.636
842.18	-100.000
842.48	-31.250
842.78	-13.333
843.08	0.000
843.38	-160.000
843.68	0.000
843.97	-60.000
844.27	-80.000
844.57	-45.000
844.87	22.222
845.17	-33.333
845.47	-26.667
845.76	-23.810
846.06	-29.412
846.36	-160.000
846.66	7.143
846.96	-33.333
847.25	-200.000
847.55	-50.000
847.85	-87.500
848.15	-50.000
848.44	-766.667
848.74	-45.000
849.04	-22.222
849.34	0.000
849.63	-216.667
849.93	-320.000
850.23	-55.556
850.53	10.000
850.82	-92.308
851.12	-44.444
851.42	-53.333
851.71	-26.923
852.01	-42.857
852.31	-375.000
852.61	-36.364
852.90	-50.000
853.20	-26.316
853.50	0.000
853.79	-4.348
854.09	33.333
854.39	5.263
854.68	-4.167
854.98	0.000
855.28	38.462
855.57	-30.000
855.87	0.000
856.17	0.000
856.46	-135.714
856.76	-53.333
857.05	-33.333
857.35	-24.000
857.65	-5.556
857.94	-53.846
858.24	-10.345
858.53	-5.556
858.83	25.926
859.13	0.000
859.42	-30.435
859.72	-275.000
860.01	-433.333
860.31	-24.000
860.60	-28.571
860.90	-466.667
861.20	-93.333
861.49	-750.000
861.79	-20.000
862.08	-15.000
862.38	33.333
862.67	-280.000
862.97	-83.333
863.26	-66.667
863.56	0.000
863.85	-600.000
864.15	-33.333
864.44	-110.000
864.74	21.429
865.03	225.000
865.33	-200.000
865.62	66.667
865.92	-16.667
866.21	-150.000
866.51	-12.500
866.80	-90.909
867.10	-950.000
867.39	-75.000
867.69	0.000
867.98	7.692
868.27	-333.333
868.57	-46.667
868.86	11.111
869.16	-38.462
869.45	-20.000
869.75	-1500.000
870.04	0.000
870.33	-185.714
870.63	14.286
870.92	400.000
871.22	-200.000
871.51	-1400.000
871.80	155.556
872.10	766.667
>>>>>End Processed Spectral Data<<<<<
