SpectraSuite Data File
++++++++++++++++++++++++++++++++++++
Date: Fri May 15 20:42:45 PDT 2015
User: schluterlab
Dark Spectrum Present: Yes
Reference Spectrum Present: Yes
Number of Sampled Component Spectra: 1
Spectrometers: USB2E3373
Integration Time (usec): 3000 (USB2E3373)
Spectra Averaged: 3 (USB2E3373)
Boxcar Smoothing: 0 (USB2E3373)
Correct for Electrical Dark: No (USB2E3373)
Strobe/Lamp Enabled: No (USB2E3373)
Correct for Detector Non-linearity: No (USB2E3373)
Correct for Stray Light: No (USB2E3373)
Number of Pixels in Processed Spectrum: 2048
>>>>>Begin Processed Spectral Data<<<<<
178.53	0.000
178.91	0.000
179.29	12.500
179.67	-800.000
180.04	-0.000
180.42	175.000
180.80	-400.000
181.18	100.000
181.56	550.000
181.94	-350.000
182.31	1200.000
182.69	40.000
183.07	-200.000
183.45	-60.000
183.83	116.667
184.20	-27.273
184.58	166.667
184.96	-25.000
185.34	33.333
185.72	-350.000
186.09	30.769
186.47	-400.000
186.85	66.667
187.23	177.778
187.61	800.000
187.98	233.333
188.36	22.222
188.74	-100.000
189.12	58.824
189.49	-27.778
189.87	0.000
190.25	50.000
190.63	-250.000
191.00	-166.667
191.38	-21.053
191.76	150.000
192.14	100.000
192.51	-100.000
192.89	-22.222
193.27	-100.000
193.65	100.000
194.02	172.727
194.40	10.000
194.78	-62.500
195.15	-50.000
195.53	-87.500
195.91	400.000
196.29	-225.000
196.66	115.385
197.04	71.429
197.42	77.778
197.79	-400.000
198.17	-61.538
198.55	1200.000
198.92	-266.667
199.30	-900.000
199.68	-160.000
200.05	-100.000
200.43	0.000
200.81	0.000
201.18	-300.000
201.56	2300.000
201.94	-400.000
202.31	266.667
202.69	20.000
203.07	175.000
203.44	0.000
203.82	0.000
204.19	35.714
204.57	-633.333
204.95	125.000
205.32	30.000
205.70	-14.286
206.08	-250.000
206.45	122.222
206.83	92.857
207.20	-142.857
207.58	800.000
207.96	-600.000
208.33	-90.000
208.71	-150.000
209.08	-233.333
209.46	400.000
209.84	-20.000
210.21	-700.000
210.59	-14.286
210.96	-100.000
211.34	-25.000
211.71	0.000
212.09	-57.143
212.46	-700.000
212.84	0.000
213.22	110.000
213.59	750.000
213.97	69.231
214.34	-9.091
214.72	-116.667
215.09	225.000
215.47	53.846
215.84	-100.000
216.22	-133.333
216.59	-62.500
216.97	-50.000
217.34	-200.000
217.72	-280.000
218.09	25.000
218.47	187.500
218.84	-200.000
219.22	-77.778
219.59	-120.000
219.97	166.667
220.34	175.000
220.72	-28.571
221.09	-100.000
221.47	-50.000
221.84	-650.000
222.22	-300.000
222.59	81.818
222.97	-8.333
223.34	-100.000
223.72	-78.571
224.09	33.333
224.46	14.286
224.84	466.667
225.21	-30.000
225.59	46.667
225.96	50.000
226.34	550.000
226.71	-142.857
227.08	-133.333
227.46	-125.000
227.83	-550.000
228.21	111.111
228.58	54.545
228.95	25.000
229.33	-0.000
229.70	-25.000
230.08	-87.500
230.45	-142.857
230.82	85.714
231.20	-6.667
231.57	42.857
231.95	-100.000
232.32	-80.000
232.69	42.857
233.07	-66.667
233.44	-160.000
233.81	-70.000
234.19	-22.222
234.56	-11.765
234.93	-100.000
235.31	300.000
235.68	-20.000
236.05	-15.385
236.43	-50.000
236.80	-41.176
237.17	3.125
237.55	-50.000
237.92	-3.704
238.29	-13.889
238.67	23.333
239.04	14.706
239.41	-29.268
239.79	-6.667
240.16	2.439
240.53	-5.263
240.91	13.043
241.28	14.286
241.65	17.857
242.02	20.548
242.40	23.333
242.77	10.169
243.14	0.000
243.51	18.750
243.89	19.540
244.26	4.598
244.63	7.143
245.00	21.649
245.38	14.433
245.75	0.000
246.12	11.207
246.49	14.050
246.87	19.231
247.24	0.840
247.61	15.789
247.98	13.008
248.36	15.625
248.73	17.105
249.10	8.442
249.47	18.354
249.84	10.458
250.22	10.000
250.59	18.301
250.96	16.901
251.33	19.767
251.70	17.647
252.08	16.244
252.45	18.812
252.82	16.583
253.19	15.207
253.56	11.682
253.94	12.162
254.31	16.087
254.68	14.474
255.05	14.567
255.42	16.594
255.79	16.602
256.16	14.397
256.54	15.672
256.91	14.449
257.28	13.755
257.65	12.734
258.02	12.057
258.39	19.865
258.76	16.117
259.14	17.608
259.51	19.094
259.88	13.746
260.25	16.993
260.62	17.708
260.99	15.932
261.36	14.041
261.73	13.291
262.10	17.325
262.47	14.110
262.85	15.047
263.22	14.769
263.59	13.396
263.96	18.944
264.33	13.636
264.70	16.964
265.07	18.452
265.44	17.564
265.81	16.949
266.18	15.301
266.55	18.509
266.92	16.062
267.29	15.927
267.66	17.391
268.03	15.707
268.40	15.666
268.77	13.369
269.14	14.628
269.51	18.509
269.88	14.963
270.25	13.776
270.62	12.683
270.99	14.322
271.36	16.381
271.73	15.258
272.10	16.302
272.47	15.130
272.84	17.327
273.21	16.705
273.58	14.217
273.95	15.332
274.32	14.088
274.69	12.443
275.06	18.304
275.43	13.832
275.80	13.907
276.17	11.954
276.54	17.131
276.91	16.228
277.28	16.594
277.65	15.496
278.02	14.468
278.39	15.098
278.76	16.143
279.13	11.618
279.50	15.126
279.87	15.119
280.23	15.914
280.60	17.544
280.97	17.374
281.34	14.423
281.71	16.632
282.08	15.746
282.45	15.068
282.82	13.320
283.19	14.507
283.56	16.378
283.92	12.713
284.29	13.654
284.66	14.341
285.03	16.503
285.40	13.800
285.77	13.357
286.14	15.704
286.51	15.867
286.87	13.528
287.24	13.444
287.61	13.228
287.98	15.789
288.35	13.865
288.72	15.937
289.08	14.410
289.45	15.993
289.82	17.483
290.19	13.140
290.56	13.379
290.93	14.141
291.29	13.097
291.66	13.071
292.03	12.600
292.40	14.355
292.77	14.035
293.13	11.526
293.50	11.836
293.87	13.282
294.24	14.065
294.60	14.009
294.97	12.946
295.34	13.190
295.71	12.072
296.08	12.257
296.44	11.095
296.81	10.556
297.18	13.913
297.55	13.957
297.91	11.918
298.28	13.061
298.65	12.890
299.02	11.725
299.38	10.260
299.75	12.414
300.12	12.042
300.48	10.672
300.85	12.801
301.22	10.130
301.59	11.579
301.95	12.785
302.32	13.230
302.69	10.448
303.05	12.500
303.42	11.831
303.79	11.215
304.15	12.664
304.52	9.275
304.89	9.474
305.25	10.048
305.62	10.852
305.99	11.813
306.35	10.751
306.72	11.474
307.09	11.859
307.45	11.366
307.82	9.838
308.19	10.918
308.55	11.559
308.92	12.200
309.29	9.944
309.65	11.195
310.02	11.441
310.38	11.745
310.75	11.148
311.12	11.195
311.48	10.498
311.85	10.785
312.22	10.970
312.58	10.722
312.95	10.672
313.31	11.077
313.68	11.728
314.05	11.939
314.41	11.443
314.78	11.649
315.14	12.230
315.51	11.905
315.87	10.656
316.24	13.448
316.61	12.992
316.97	13.194
317.34	12.891
317.70	12.715
318.07	13.269
318.43	13.529
318.80	13.447
319.16	13.672
319.53	13.770
319.89	13.780
320.26	13.664
320.62	15.446
320.99	13.570
321.35	14.491
321.72	14.746
322.08	14.602
322.45	15.736
322.81	16.405
323.18	16.192
323.54	14.286
323.91	15.677
324.27	16.211
324.64	16.105
325.00	17.792
325.37	17.539
325.73	17.679
326.10	17.711
326.46	19.013
326.83	18.548
327.19	17.960
327.56	18.940
327.92	20.511
328.29	18.393
328.65	19.434
329.01	18.750
329.38	21.475
329.74	19.358
330.11	20.297
330.47	18.553
330.84	19.135
331.20	20.722
331.56	19.537
331.93	21.644
332.29	21.173
332.66	20.181
333.02	20.632
333.38	21.265
333.75	20.879
334.11	20.054
334.48	22.484
334.84	20.696
335.20	20.220
335.57	20.671
335.93	20.958
336.29	21.639
336.66	21.889
337.02	20.353
337.38	21.111
337.75	22.182
338.11	21.280
338.47	22.263
338.84	20.518
339.20	22.303
339.56	21.835
339.93	20.949
340.29	21.927
340.65	22.312
341.02	20.922
341.38	20.708
341.74	20.671
342.11	20.624
342.47	21.886
342.83	20.588
343.20	21.603
343.56	20.348
343.92	21.789
344.28	21.776
344.65	20.812
345.01	20.570
345.37	20.269
345.73	22.929
346.10	21.484
346.46	21.362
346.82	21.849
347.19	21.779
347.55	21.805
347.91	21.278
348.27	20.453
348.63	22.232
349.00	21.001
349.36	20.781
349.72	21.476
350.08	21.557
350.45	21.628
350.81	20.681
351.17	20.440
351.53	20.816
351.89	20.231
352.26	20.880
352.62	21.613
352.98	21.285
353.34	20.531
353.70	21.602
354.07	21.532
354.43	21.137
354.79	20.396
355.15	21.270
355.51	22.389
355.87	21.602
356.24	20.228
356.60	20.776
356.96	21.190
357.32	20.208
357.68	20.485
358.04	21.002
358.40	21.383
358.77	21.850
359.13	20.897
359.49	20.570
359.85	21.217
360.21	20.813
360.57	20.046
360.93	20.424
361.29	20.166
361.66	21.630
362.02	21.288
362.38	21.249
362.74	19.606
363.10	21.068
363.46	20.904
363.82	21.863
364.18	21.328
364.54	21.324
364.90	21.505
365.26	21.616
365.62	22.993
365.98	21.041
366.35	20.903
366.71	21.360
367.07	21.843
367.43	20.201
367.79	21.272
368.15	21.752
368.51	21.777
368.87	20.962
369.23	20.217
369.59	21.574
369.95	21.114
370.31	21.676
370.67	21.866
371.03	21.210
371.39	21.444
371.75	21.538
372.11	21.541
372.47	21.820
372.83	22.143
373.19	22.111
373.55	20.578
373.91	21.310
374.27	22.041
374.63	22.039
374.99	21.915
375.35	22.075
375.71	21.888
376.07	22.191
376.42	21.429
376.78	21.342
377.14	21.327
377.50	20.983
377.86	21.218
378.22	21.506
378.58	22.436
378.94	21.739
379.30	22.895
379.66	23.072
380.02	21.398
380.38	20.937
380.74	21.125
381.09	22.270
381.45	21.774
381.81	21.653
382.17	21.954
382.53	21.362
382.89	22.599
383.25	22.589
383.61	22.500
383.97	21.524
384.32	21.889
384.68	21.362
385.04	21.140
385.40	21.593
385.76	22.075
386.12	23.545
386.48	23.691
386.83	22.384
387.19	22.466
387.55	22.836
387.91	21.944
388.27	21.490
388.62	22.656
388.98	22.529
389.34	22.486
389.70	22.374
390.06	21.901
390.42	22.345
390.77	22.825
391.13	21.627
391.49	21.992
391.85	22.157
392.20	21.594
392.56	22.695
392.92	22.255
393.28	22.642
393.64	22.583
393.99	22.947
394.35	21.758
394.71	22.222
395.07	21.747
395.42	21.979
395.78	21.824
396.14	21.501
396.50	22.384
396.85	22.473
397.21	23.246
397.57	21.693
397.92	22.229
398.28	22.184
398.64	20.843
399.00	21.840
399.35	21.388
399.71	21.884
400.07	21.705
400.42	22.644
400.78	22.474
401.14	21.113
401.49	22.156
401.85	21.511
402.21	22.048
402.57	22.313
402.92	21.330
403.28	22.744
403.63	21.311
403.99	21.556
404.35	21.487
404.70	21.250
405.06	21.269
405.42	21.380
405.77	21.092
406.13	21.187
406.49	21.788
406.84	21.516
407.20	21.373
407.55	21.120
407.91	21.524
408.27	21.224
408.62	22.892
408.98	21.380
409.34	21.995
409.69	20.413
410.05	20.998
410.40	20.988
410.76	21.170
411.11	20.687
411.47	20.907
411.83	20.653
412.18	20.914
412.54	20.974
412.89	20.751
413.25	21.059
413.60	21.801
413.96	20.798
414.31	20.671
414.67	20.462
415.03	20.639
415.38	19.974
415.74	20.912
416.09	21.946
416.45	21.269
416.80	20.093
417.16	20.856
417.51	20.720
417.87	20.600
418.22	20.725
418.58	20.468
418.93	21.755
419.29	20.423
419.64	21.063
420.00	21.662
420.35	20.657
420.71	21.932
421.06	20.810
421.42	21.635
421.77	21.503
422.12	20.488
422.48	20.953
422.83	21.636
423.19	21.558
423.54	20.282
423.90	20.318
424.25	21.814
424.61	21.236
424.96	20.616
425.31	21.895
425.67	21.420
426.02	21.496
426.38	21.478
426.73	21.247
427.09	21.392
427.44	22.000
427.79	21.391
428.15	21.602
428.50	20.533
428.85	21.130
429.21	21.336
429.56	21.725
429.92	21.572
430.27	21.504
430.62	20.648
430.98	21.231
431.33	22.082
431.68	21.612
432.04	22.023
432.39	21.164
432.74	21.527
433.10	22.414
433.45	22.282
433.80	21.126
434.16	20.720
434.51	21.667
434.86	22.067
435.22	22.098
435.57	21.585
435.92	21.497
436.28	20.453
436.63	21.677
436.98	21.089
437.34	21.597
437.69	21.765
438.04	21.538
438.39	21.197
438.75	21.433
439.10	22.241
439.45	21.181
439.81	21.835
440.16	21.378
440.51	22.627
440.86	22.719
441.22	22.059
441.57	22.241
441.92	23.085
442.27	22.173
442.63	22.966
442.98	22.688
443.33	22.092
443.68	22.281
444.03	23.100
444.39	23.266
444.74	23.244
445.09	22.940
445.44	23.818
445.79	24.188
446.15	23.128
446.50	22.463
446.85	23.326
447.20	22.732
447.55	22.935
447.91	23.068
448.26	24.132
448.61	22.913
448.96	22.892
449.31	22.486
449.66	22.590
450.02	23.788
450.37	23.237
450.72	22.394
451.07	23.354
451.42	22.659
451.77	23.267
452.12	22.608
452.47	23.245
452.83	23.086
453.18	22.960
453.53	23.957
453.88	23.254
454.23	24.093
454.58	23.678
454.93	23.389
455.28	22.413
455.63	23.931
455.98	23.031
456.34	23.116
456.69	23.761
457.04	24.764
457.39	22.843
457.74	22.793
458.09	22.307
458.44	23.757
458.79	23.529
459.14	23.513
459.49	24.418
459.84	22.843
460.19	23.119
460.54	23.594
460.89	23.580
461.24	23.416
461.59	23.040
461.94	23.522
462.29	23.522
462.64	24.120
462.99	24.374
463.34	23.853
463.69	23.810
464.04	23.789
464.39	23.711
464.74	23.436
465.09	24.454
465.44	23.601
465.79	22.619
466.14	23.774
466.49	22.887
466.84	23.379
467.19	23.154
467.54	23.052
467.89	23.310
468.24	23.236
468.59	22.921
468.94	22.921
469.29	23.869
469.64	23.582
469.99	23.686
470.34	22.526
470.68	24.832
471.03	23.567
471.38	23.395
471.73	23.109
472.08	22.185
472.43	22.550
472.78	23.029
473.13	22.789
473.48	23.257
473.83	22.167
474.17	24.028
474.52	22.719
474.87	23.455
475.22	22.697
475.57	23.038
475.92	23.368
476.27	23.458
476.61	22.164
476.96	22.253
477.31	22.931
477.66	22.697
478.01	22.459
478.36	22.821
478.70	23.328
479.05	23.791
479.40	23.900
479.75	22.784
480.10	22.273
480.45	22.500
480.79	23.716
481.14	23.309
481.49	22.562
481.84	22.490
482.19	22.544
482.53	22.830
482.88	22.482
483.23	22.841
483.58	23.255
483.92	22.314
484.27	22.698
484.62	22.098
484.97	22.347
485.31	21.965
485.66	21.816
486.01	21.784
486.36	21.933
486.70	22.360
487.05	21.979
487.40	21.975
487.75	21.634
488.09	21.817
488.44	21.561
488.79	22.226
489.13	22.476
489.48	22.445
489.83	22.197
490.17	21.618
490.52	21.848
490.87	21.472
491.22	22.397
491.56	21.869
491.91	21.558
492.26	22.363
492.60	21.929
492.95	22.479
493.30	22.032
493.64	22.446
493.99	21.884
494.34	21.408
494.68	21.810
495.03	21.800
495.37	22.130
495.72	22.766
496.07	22.098
496.41	22.123
496.76	22.248
497.11	21.612
497.45	22.816
497.80	23.259
498.14	22.404
498.49	22.702
498.84	21.906
499.18	21.888
499.53	22.024
499.87	21.449
500.22	21.810
500.56	21.533
500.91	22.088
501.26	21.206
501.60	21.102
501.95	22.125
502.29	22.179
502.64	22.490
502.98	21.855
503.33	21.230
503.67	20.867
504.02	22.043
504.36	21.920
504.71	21.667
505.06	20.936
505.40	21.015
505.75	22.010
506.09	21.845
506.44	21.971
506.78	22.143
507.13	20.993
507.47	21.201
507.82	21.047
508.16	22.029
508.51	21.616
508.85	21.664
509.19	20.490
509.54	21.448
509.88	21.413
510.23	21.463
510.57	22.288
510.92	20.896
511.26	21.877
511.61	21.397
511.95	21.973
512.30	22.007
512.64	21.925
512.98	20.831
513.33	22.048
513.67	21.376
514.02	21.739
514.36	21.771
514.70	20.804
515.05	21.563
515.39	21.429
515.74	22.575
516.08	22.176
516.42	22.026
516.77	22.001
517.11	21.602
517.46	21.724
517.80	21.812
518.14	21.494
518.49	21.575
518.83	21.810
519.17	20.800
519.52	20.782
519.86	20.828
520.20	21.810
520.55	20.388
520.89	21.769
521.23	21.849
521.58	21.199
521.92	21.795
522.26	20.885
522.61	21.818
522.95	22.517
523.29	21.283
523.64	21.982
523.98	20.674
524.32	20.039
524.66	21.383
525.01	21.948
525.35	21.063
525.69	20.404
526.04	21.032
526.38	21.725
526.72	21.060
527.06	21.077
527.41	21.768
527.75	20.643
528.09	19.867
528.43	21.404
528.78	20.132
529.12	21.290
529.46	20.078
529.80	21.659
530.15	21.122
530.49	21.077
530.83	21.341
531.17	20.416
531.51	20.383
531.86	19.918
532.20	20.807
532.54	21.239
532.88	21.766
533.22	20.699
533.57	20.577
533.91	20.300
534.25	21.224
534.59	20.718
534.93	20.957
535.27	19.480
535.62	19.507
535.96	20.483
536.30	20.778
536.64	20.882
536.98	20.139
537.32	21.124
537.66	21.318
538.01	20.210
538.35	20.527
538.69	19.774
539.03	20.232
539.37	20.390
539.71	20.314
540.05	20.367
540.39	20.845
540.73	20.432
541.07	20.511
541.42	21.237
541.76	20.303
542.10	19.546
542.44	19.944
542.78	18.582
543.12	19.918
543.46	20.654
543.80	20.541
544.14	20.427
544.48	19.987
544.82	20.437
545.16	19.536
545.50	20.694
545.84	20.255
546.18	20.638
546.52	19.971
546.86	19.698
547.20	19.385
547.54	18.445
547.88	20.448
548.22	19.592
548.56	19.921
548.90	20.889
549.24	19.835
549.58	19.394
549.92	18.585
550.26	20.952
550.60	20.297
550.94	20.463
551.28	19.861
551.62	19.769
551.96	18.647
552.30	19.079
552.64	20.099
552.98	19.409
553.32	20.257
553.66	19.376
554.00	20.146
554.34	19.867
554.68	19.174
555.02	20.982
555.36	18.998
555.69	18.755
556.03	18.844
556.37	18.719
556.71	18.773
557.05	19.911
557.39	18.810
557.73	20.015
558.07	19.005
558.41	19.525
558.75	19.797
559.08	19.464
559.42	19.603
559.76	18.495
560.10	18.884
560.44	19.732
560.78	19.091
561.12	18.970
561.45	19.536
561.79	19.958
562.13	19.943
562.47	18.345
562.81	19.020
563.15	19.394
563.48	18.388
563.82	19.561
564.16	19.777
564.50	18.784
564.84	18.942
565.17	19.182
565.51	20.014
565.85	19.204
566.19	19.562
566.52	18.968
566.86	19.152
567.20	18.555
567.54	19.221
567.88	19.391
568.21	19.457
568.55	18.207
568.89	18.891
569.23	18.440
569.56	18.870
569.90	19.164
570.24	18.199
570.57	18.691
570.91	18.578
571.25	18.086
571.59	17.689
571.92	17.896
572.26	17.542
572.60	17.984
572.93	17.603
573.27	17.555
573.61	17.780
573.95	17.695
574.28	17.797
574.62	17.646
574.96	17.701
575.29	17.491
575.63	17.362
575.97	16.996
576.30	17.796
576.64	17.219
576.98	17.400
577.31	17.474
577.65	17.523
577.98	17.709
578.32	17.497
578.66	17.322
578.99	17.337
579.33	17.287
579.67	17.083
580.00	17.367
580.34	17.363
580.67	17.384
581.01	17.699
581.35	17.420
581.68	17.083
582.02	17.141
582.35	17.400
582.69	17.335
583.02	17.069
583.36	17.270
583.70	17.316
584.03	17.932
584.37	17.984
584.70	17.335
585.04	17.358
585.37	17.346
585.71	17.403
586.04	17.171
586.38	16.751
586.72	16.901
587.05	18.053
587.39	17.445
587.72	18.398
588.06	17.520
588.39	17.716
588.73	17.582
589.06	17.710
589.40	17.283
589.73	17.890
590.07	17.711
590.40	17.957
590.73	18.451
591.07	17.854
591.40	17.720
591.74	18.054
592.07	17.811
592.41	17.580
592.74	17.164
593.08	17.010
593.41	17.529
593.75	17.043
594.08	16.993
594.41	17.176
594.75	16.718
595.08	17.026
595.42	17.703
595.75	17.462
596.09	17.514
596.42	17.280
596.75	17.140
597.09	17.494
597.42	17.389
597.75	16.491
598.09	17.836
598.42	17.193
598.76	16.903
599.09	16.346
599.42	16.900
599.76	17.005
600.09	17.119
600.42	17.210
600.76	16.048
601.09	17.137
601.42	16.725
601.76	17.308
602.09	16.873
602.42	17.650
602.76	17.402
603.09	16.944
603.42	18.102
603.76	16.774
604.09	16.282
604.42	16.920
604.76	17.445
605.09	17.185
605.42	16.749
605.75	16.331
606.09	17.240
606.42	16.639
606.75	16.797
607.09	17.187
607.42	16.482
607.75	16.829
608.08	16.981
608.42	16.948
608.75	17.398
609.08	16.841
609.41	16.954
609.75	16.280
610.08	16.875
610.41	16.232
610.74	16.724
611.07	16.537
611.41	17.229
611.74	17.697
612.07	16.863
612.40	17.123
612.73	17.232
613.07	17.210
613.40	17.177
613.73	17.180
614.06	17.362
614.39	17.033
614.72	16.639
615.06	17.151
615.39	17.085
615.72	16.846
616.05	16.425
616.38	15.783
616.71	17.492
617.05	17.048
617.38	17.913
617.71	16.226
618.04	17.968
618.37	17.024
618.70	17.228
619.03	18.542
619.36	16.136
619.69	16.831
620.03	17.166
620.36	17.525
620.69	17.488
621.02	17.355
621.35	17.261
621.68	17.092
622.01	17.083
622.34	17.877
622.67	17.666
623.00	17.688
623.33	16.540
623.66	17.203
623.99	18.306
624.32	16.730
624.65	16.316
624.99	17.005
625.32	17.286
625.65	17.753
625.98	18.050
626.31	16.874
626.64	17.158
626.97	17.801
627.30	18.564
627.63	16.984
627.96	16.622
628.29	17.021
628.62	18.289
628.95	16.733
629.28	16.431
629.61	17.448
629.94	18.866
630.26	16.798
630.59	17.690
630.92	17.744
631.25	17.026
631.58	17.952
631.91	16.557
632.24	16.628
632.57	19.091
632.90	16.370
633.23	16.353
633.56	16.499
633.89	17.263
634.22	18.025
634.55	18.297
634.88	16.347
635.20	17.308
635.53	17.600
635.86	16.385
636.19	17.464
636.52	15.816
636.85	17.494
637.18	17.736
637.51	18.742
637.83	18.134
638.16	16.917
638.49	17.575
638.82	18.816
639.15	17.232
639.48	18.845
639.81	16.597
640.13	15.873
640.46	18.367
640.79	17.820
641.12	16.544
641.45	16.967
641.77	19.556
642.10	19.115
642.43	16.238
642.76	18.317
643.09	21.002
643.41	19.256
643.74	18.451
644.07	18.883
644.40	17.905
644.73	17.163
645.05	17.953
645.38	18.342
645.71	17.553
646.04	17.774
646.36	17.553
646.69	18.705
647.02	19.849
647.35	17.537
647.67	19.013
648.00	19.776
648.33	18.601
648.66	17.458
648.98	17.420
649.31	16.198
649.64	18.995
649.96	14.425
650.29	16.865
650.62	17.094
650.94	15.741
651.27	18.063
651.60	17.838
651.92	18.182
652.25	14.920
652.58	18.167
652.90	17.839
653.23	17.815
653.56	15.398
653.88	16.838
654.21	12.960
654.54	18.506
654.86	17.997
655.19	15.643
655.52	18.189
655.84	15.843
656.17	17.159
656.49	23.099
656.82	23.390
657.15	17.884
657.47	13.304
657.80	9.782
658.13	9.749
658.45	14.740
658.78	15.165
659.10	14.871
659.43	15.262
659.75	15.787
660.08	13.931
660.41	15.730
660.73	15.055
661.06	17.851
661.38	16.634
661.71	14.990
662.03	20.172
662.36	17.802
662.68	17.035
663.01	19.869
663.33	17.865
663.66	15.581
663.98	15.581
664.31	16.205
664.63	15.438
664.96	15.000
665.28	15.232
665.61	17.965
665.93	16.957
666.26	17.570
666.58	13.647
666.91	15.765
667.23	19.104
667.56	16.825
667.88	19.424
668.21	15.752
668.53	18.676
668.86	16.509
669.18	17.453
669.50	15.738
669.83	15.814
670.15	15.851
670.48	15.789
670.80	18.203
671.13	17.226
671.45	13.014
671.77	18.240
672.10	17.030
672.42	16.479
672.75	16.874
673.07	16.637
673.39	17.798
673.72	12.623
674.04	13.958
674.37	18.644
674.69	16.702
675.01	16.667
675.34	15.541
675.66	19.907
675.98	17.517
676.31	16.284
676.63	15.439
676.95	15.227
677.28	16.471
677.60	19.277
677.92	13.073
678.25	20.350
678.57	16.017
678.89	14.496
679.22	17.002
679.54	15.462
679.86	15.507
680.18	15.146
680.51	16.477
680.83	15.308
681.15	17.000
681.48	15.164
681.80	16.322
682.12	17.137
682.44	14.017
682.77	17.881
683.09	17.620
683.41	14.318
683.73	16.129
684.06	18.142
684.38	14.624
684.70	14.379
685.02	16.805
685.34	15.020
685.67	14.822
685.99	17.722
686.31	16.460
686.63	17.254
686.96	14.829
687.28	13.535
687.60	14.068
687.92	16.364
688.24	15.121
688.56	15.939
688.89	18.527
689.21	18.000
689.53	16.705
689.85	11.860
690.17	16.741
690.49	15.603
690.82	16.262
691.14	15.238
691.46	16.589
691.78	15.766
692.10	17.634
692.42	16.450
692.74	15.385
693.06	15.315
693.39	14.932
693.71	13.801
694.03	12.933
694.35	17.056
694.67	15.909
694.99	13.577
695.31	17.232
695.63	17.500
695.95	14.141
696.27	14.767
696.59	18.889
696.91	16.527
697.23	14.910
697.56	15.347
697.88	17.634
698.20	17.995
698.52	14.824
698.84	16.029
699.16	12.000
699.48	17.293
699.80	15.136
700.12	15.364
700.44	18.768
700.76	14.244
701.08	13.636
701.40	13.554
701.72	17.284
702.04	14.851
702.36	15.385
702.68	18.619
703.00	13.030
703.32	15.836
703.64	14.407
703.96	13.043
704.28	15.031
704.60	14.921
704.91	14.511
705.23	10.631
705.55	21.201
705.87	14.440
706.19	16.667
706.51	13.058
706.83	16.720
707.15	14.330
707.47	15.966
707.79	16.406
708.11	17.000
708.43	15.750
708.74	13.953
709.06	17.183
709.38	14.067
709.70	13.905
710.02	16.879
710.34	16.099
710.66	11.859
710.98	15.232
711.29	16.393
711.61	16.271
711.93	17.264
712.25	16.495
712.57	18.315
712.89	11.940
713.20	18.685
713.52	12.195
713.84	12.628
714.16	15.120
714.48	16.452
714.80	16.346
715.11	18.541
715.43	14.734
715.75	13.667
716.07	15.947
716.39	16.779
716.70	17.343
717.02	14.885
717.34	21.053
717.66	6.195
717.97	16.087
718.29	15.900
718.61	18.504
718.93	12.403
719.24	19.011
719.56	16.867
719.88	16.151
720.20	12.879
720.51	13.793
720.83	15.830
721.15	14.706
721.46	20.565
721.78	12.253
722.10	16.729
722.42	12.448
722.73	18.367
723.05	19.184
723.37	19.068
723.68	12.162
724.00	13.248
724.32	12.444
724.63	15.455
724.95	12.664
725.27	18.433
725.58	13.136
725.90	6.349
726.22	15.444
726.53	17.288
726.85	19.476
727.16	21.509
727.48	12.551
727.80	21.053
728.11	10.593
728.43	17.647
728.74	12.500
729.06	12.400
729.38	21.053
729.69	13.546
730.01	9.615
730.32	18.284
730.64	11.661
730.96	14.340
731.27	17.333
731.59	11.186
731.90	16.879
732.22	20.820
732.53	14.618
732.85	16.312
733.16	17.845
733.48	7.914
733.80	11.957
734.11	13.898
734.43	14.777
734.74	13.636
735.06	12.052
735.37	14.502
735.69	14.815
736.00	11.498
736.32	16.779
736.63	20.070
736.95	16.041
737.26	13.879
737.58	15.436
737.89	17.216
738.21	11.654
738.52	13.580
738.83	9.170
739.15	12.227
739.46	13.780
739.78	12.454
740.09	16.667
740.41	13.406
740.72	11.811
741.04	17.814
741.35	8.936
741.66	14.218
741.98	14.796
742.29	13.366
742.61	17.277
742.92	7.583
743.23	4.630
743.55	16.742
743.86	13.397
744.18	15.311
744.49	11.170
744.80	17.935
745.12	22.995
745.43	13.171
745.74	16.667
746.06	13.171
746.37	9.948
746.68	18.009
747.00	12.766
747.31	16.915
747.62	8.252
747.94	16.268
748.25	15.347
748.56	13.115
748.88	8.377
749.19	14.894
749.50	11.330
749.82	8.962
750.13	13.303
750.44	12.782
750.75	13.060
751.07	17.883
751.38	18.008
751.69	11.373
752.01	13.953
752.32	15.538
752.63	14.625
752.94	9.914
753.26	18.828
753.57	18.552
753.88	16.372
754.19	10.000
754.51	13.636
754.82	15.385
755.13	18.750
755.44	10.081
755.75	20.312
756.07	15.564
756.38	16.604
756.69	10.728
757.00	14.333
757.31	15.686
757.63	9.756
757.94	14.167
758.25	16.164
758.56	10.904
758.87	13.031
759.18	14.019
759.50	10.182
759.81	17.391
760.12	14.516
760.43	14.848
760.74	12.963
761.05	8.923
761.36	16.193
761.67	17.879
761.99	14.966
762.30	13.455
762.61	12.253
762.92	10.407
763.23	13.063
763.54	12.617
763.85	13.559
764.16	13.278
764.47	14.113
764.78	11.355
765.10	16.162
765.41	14.511
765.72	12.063
766.03	14.662
766.34	13.869
766.65	13.147
766.96	13.636
767.27	9.043
767.58	8.046
767.89	12.057
768.20	14.205
768.51	8.791
768.82	14.286
769.13	9.217
769.44	12.017
769.75	15.525
770.06	13.793
770.37	11.058
770.68	16.244
770.99	14.480
771.30	17.647
771.61	12.670
771.92	13.793
772.23	11.823
772.54	18.280
772.85	21.605
773.16	15.730
773.47	13.072
773.78	14.379
774.09	10.778
774.39	11.333
774.70	12.739
775.01	17.931
775.32	17.857
775.63	13.223
775.94	10.687
776.25	18.898
776.56	2.500
776.87	13.462
777.18	16.239
777.48	6.034
777.79	9.565
778.10	9.524
778.41	10.811
778.72	15.873
779.03	18.045
779.34	17.730
779.65	20.548
779.95	1.370
780.26	11.034
780.57	7.317
780.88	14.173
781.19	6.034
781.50	14.729
781.80	11.243
782.11	10.692
782.42	1.538
782.73	10.791
783.04	11.852
783.34	13.194
783.65	-4.274
783.96	11.475
784.27	15.862
784.57	13.821
784.88	14.844
785.19	8.000
785.50	10.000
785.81	15.517
786.11	10.345
786.42	3.883
786.73	21.818
787.04	11.224
787.34	8.929
787.65	9.524
787.96	9.735
788.26	3.636
788.57	6.838
788.88	13.281
789.19	8.730
789.49	7.826
789.80	13.265
790.11	6.061
790.41	15.455
790.72	15.217
791.03	25.000
791.33	10.000
791.64	7.500
791.95	15.116
792.25	11.702
792.56	13.483
792.87	-8.219
793.17	20.290
793.48	9.333
793.79	5.000
794.09	20.000
794.40	9.434
794.70	5.825
795.01	15.447
795.32	12.821
795.62	5.714
795.93	8.824
796.23	6.604
796.54	15.625
796.85	19.118
797.15	2.817
797.46	5.556
797.76	24.242
798.07	8.140
798.37	1.316
798.68	-7.576
798.99	19.753
799.29	32.857
799.60	23.188
799.90	20.000
800.21	14.754
800.51	7.692
800.82	5.085
801.12	-2.899
801.43	6.557
801.73	12.698
802.04	20.000
802.34	4.478
802.65	13.462
802.95	10.714
803.26	19.231
803.56	9.804
803.87	-4.348
804.17	12.000
804.48	33.333
804.78	-5.556
805.09	-4.348
805.39	20.000
805.70	5.556
806.00	-14.035
806.30	9.859
806.61	7.143
806.91	-4.167
807.22	9.211
807.52	20.000
807.83	-3.636
808.13	29.167
808.43	14.706
808.74	13.433
809.04	-8.475
809.35	9.615
809.65	17.188
809.95	10.811
810.26	-9.091
810.56	13.699
810.86	-14.286
811.17	-4.000
811.47	16.327
811.77	-26.316
812.08	9.091
812.38	15.094
812.69	25.000
812.99	3.030
813.29	26.316
813.59	-2.857
813.90	13.636
814.20	-28.205
814.50	-5.769
814.81	7.547
815.11	-21.277
815.41	13.559
815.72	2.381
816.02	5.882
816.32	-6.250
816.62	14.634
816.93	13.514
817.23	17.143
817.53	22.917
817.84	8.696
818.14	26.923
818.44	-18.421
818.74	19.565
819.04	-15.000
819.35	10.811
819.65	2.941
819.95	2.778
820.25	4.762
820.56	32.500
820.86	-27.586
821.16	30.000
821.46	21.277
821.76	15.000
822.07	18.605
822.37	-21.622
822.67	-3.125
822.97	16.667
823.27	10.714
823.57	-36.000
823.88	-14.815
824.18	-3.571
824.48	11.765
824.78	-16.129
825.08	8.696
825.38	21.212
825.69	-33.333
825.99	5.263
826.29	-5.556
826.59	-20.000
826.89	-42.857
827.19	19.565
827.49	25.000
827.79	22.857
828.09	0.000
828.39	-33.333
828.70	37.838
829.00	-14.286
829.30	-61.905
829.60	23.333
829.90	18.750
830.20	7.895
830.50	-40.741
830.80	39.130
831.10	-13.636
831.40	24.242
831.70	54.839
832.00	42.857
832.30	-23.810
832.60	-25.000
832.90	0.000
833.20	-45.000
833.50	0.000
833.80	-3.704
834.10	30.769
834.40	21.875
834.70	-66.667
835.00	-26.316
835.30	50.000
835.60	0.000
835.90	29.032
836.20	40.909
836.50	25.000
836.80	-7.692
837.10	3.571
837.40	-166.667
837.70	-13.636
838.00	-63.636
838.30	30.435
838.60	-23.077
838.90	13.636
839.19	17.857
839.49	-10.000
839.79	-15.385
840.09	-66.667
840.39	35.714
840.69	-25.000
840.99	-34.615
841.29	-36.842
841.59	-140.000
841.88	-54.545
842.18	-10.000
842.48	0.000
842.78	13.333
843.08	-14.815
843.38	-140.000
843.68	17.391
843.97	-13.333
844.27	-26.667
844.57	20.000
844.87	0.000
845.17	-47.619
845.47	-40.000
845.76	28.571
846.06	41.176
846.36	-90.000
846.66	28.571
846.96	-6.667
847.25	-100.000
847.55	-21.429
847.85	-75.000
848.15	-9.091
848.44	-533.333
848.74	-25.000
849.04	59.259
849.34	45.455
849.63	-250.000
849.93	-100.000
850.23	-11.111
850.53	40.000
850.82	-23.077
851.12	-44.444
851.42	-13.333
851.71	-19.231
852.01	7.143
852.31	-200.000
852.61	9.091
852.90	-40.000
853.20	5.263
853.50	-83.333
853.79	-4.348
854.09	29.167
854.39	-63.158
854.68	12.500
854.98	6.452
855.28	57.692
855.57	-35.000
855.87	50.000
856.17	-3.704
856.46	21.429
856.76	-113.333
857.05	133.333
857.35	16.000
857.65	11.111
857.94	-84.615
858.24	10.345
858.53	5.556
858.83	-7.407
859.13	40.909
859.42	-4.348
859.72	-25.000
860.01	-333.333
860.31	20.000
860.60	-28.571
860.90	-466.667
861.20	-40.000
861.49	-300.000
861.79	-26.667
862.08	-30.000
862.38	80.000
862.67	-260.000
862.97	-50.000
863.26	-83.333
863.56	0.000
863.85	-333.333
864.15	22.222
864.44	-70.000
864.74	-21.429
865.03	300.000
865.33	-260.000
865.62	16.667
865.92	-16.667
866.21	-183.333
866.51	25.000
866.80	-109.091
867.10	-450.000
867.39	66.667
867.69	0.000
867.98	7.692
868.27	-333.333
868.57	-6.667
868.86	-27.778
869.16	-92.308
869.45	20.000
869.75	-900.000
870.04	0.000
870.33	-142.857
870.63	0.000
870.92	233.333
871.22	-200.000
871.51	-200.000
871.80	33.333
872.10	266.667
>>>>>End Processed Spectral Data<<<<<
