SpectraSuite Data File
++++++++++++++++++++++++++++++++++++
Date: Fri May 15 20:46:43 PDT 2015
User: schluterlab
Dark Spectrum Present: Yes
Reference Spectrum Present: Yes
Number of Sampled Component Spectra: 1
Spectrometers: USB2E3373
Integration Time (usec): 3000 (USB2E3373)
Spectra Averaged: 3 (USB2E3373)
Boxcar Smoothing: 0 (USB2E3373)
Correct for Electrical Dark: No (USB2E3373)
Strobe/Lamp Enabled: No (USB2E3373)
Correct for Detector Non-linearity: No (USB2E3373)
Correct for Stray Light: No (USB2E3373)
Number of Pixels in Processed Spectrum: 2048
>>>>>Begin Processed Spectral Data<<<<<
178.53	0.000
178.91	0.000
179.29	-50.000
179.67	-250.000
180.04	-114.286
180.42	75.000
180.80	-1000.000
181.18	266.667
181.56	550.000
181.94	-50.000
182.31	1200.000
182.69	-380.000
183.07	-766.667
183.45	-40.000
183.83	233.333
184.20	0.000
184.58	222.222
184.96	200.000
185.34	366.667
185.72	-550.000
186.09	69.231
186.47	-500.000
186.85	183.333
187.23	122.222
187.61	300.000
187.98	-166.667
188.36	-55.556
188.74	-166.667
189.12	23.529
189.49	22.222
189.87	0.000
190.25	7.143
190.63	-300.000
191.00	-500.000
191.38	-36.842
191.76	200.000
192.14	150.000
192.51	-350.000
192.89	-44.444
193.27	-57.143
193.65	100.000
194.02	145.455
194.40	-30.000
194.78	-200.000
195.15	41.667
195.53	-162.500
195.91	350.000
196.29	-50.000
196.66	107.692
197.04	242.857
197.42	-122.222
197.79	-566.667
198.17	-130.769
198.55	1700.000
198.92	-400.000
199.30	0.000
199.68	-20.000
200.05	-266.667
200.43	0.000
200.81	133.333
201.18	100.000
201.56	900.000
201.94	-450.000
202.31	233.333
202.69	-340.000
203.07	275.000
203.44	300.000
203.82	0.000
204.19	-71.429
204.57	-700.000
204.95	100.000
205.32	-120.000
205.70	-57.143
206.08	-50.000
206.45	111.111
206.83	-28.571
207.20	-228.571
207.58	700.000
207.96	-533.333
208.33	-100.000
208.71	175.000
209.08	-116.667
209.46	-1200.000
209.84	-20.000
210.21	-1000.000
210.59	14.286
210.96	-133.333
211.34	-125.000
211.71	66.667
212.09	14.286
212.46	-2100.000
212.84	0.000
213.22	60.000
213.59	700.000
213.97	-69.231
214.34	-81.818
214.72	-150.000
215.09	400.000
215.47	-84.615
215.84	-27.273
216.22	-533.333
216.59	25.000
216.97	100.000
217.34	0.000
217.72	-200.000
218.09	-162.500
218.47	175.000
218.84	-1400.000
219.22	0.000
219.59	40.000
219.97	433.333
220.34	325.000
220.72	-71.429
221.09	150.000
221.47	100.000
221.84	-750.000
222.22	-150.000
222.59	36.364
222.97	-41.667
223.34	-333.333
223.72	0.000
224.09	19.048
224.46	0.000
224.84	333.333
225.21	-40.000
225.59	0.000
225.96	-200.000
226.34	375.000
226.71	-57.143
227.08	-166.667
227.46	0.000
227.83	-600.000
228.21	-55.556
228.58	-9.091
228.95	-62.500
229.33	120.000
229.70	0.000
230.08	12.500
230.45	-214.286
230.82	-14.286
231.20	46.667
231.57	57.143
231.95	-142.857
232.32	-80.000
232.69	35.714
233.07	-300.000
233.44	-140.000
233.81	-60.000
234.19	-66.667
234.56	-35.294
234.93	550.000
235.31	-125.000
235.68	-300.000
236.05	-84.615
236.43	-30.000
236.80	-58.824
237.17	9.375
237.55	-35.000
237.92	3.704
238.29	-2.778
238.67	0.000
239.04	-26.471
239.41	-41.463
239.79	-60.000
240.16	-2.439
240.53	-26.316
240.91	-26.087
241.28	1.587
241.65	12.500
242.02	0.000
242.40	-8.333
242.77	-1.695
243.14	-19.697
243.51	-8.750
243.89	5.747
244.26	-8.046
244.63	-2.381
245.00	-3.093
245.38	2.062
245.75	-11.236
246.12	-5.172
246.49	0.000
246.87	-12.500
247.24	-8.403
247.61	-10.526
247.98	-6.504
248.36	2.500
248.73	0.658
249.10	-9.740
249.47	-3.797
249.84	-4.575
250.22	-2.353
250.59	-9.804
250.96	3.756
251.33	-6.395
251.70	-2.941
252.08	-3.553
252.45	-0.990
252.82	-9.548
253.19	0.461
253.56	-6.075
253.94	0.901
254.31	-0.870
254.68	0.000
255.05	-1.575
255.42	-3.493
255.79	0.000
256.16	-2.335
256.54	-0.746
256.91	-3.802
257.28	-2.974
257.65	-1.498
258.02	-0.709
258.39	-0.337
258.76	2.930
259.14	0.997
259.51	-0.324
259.88	-1.718
260.25	0.980
260.62	-1.389
260.99	-3.390
261.36	-7.192
261.73	-0.949
262.10	-2.128
262.47	-2.454
262.85	0.627
263.22	0.923
263.59	-2.181
263.96	-1.863
264.33	-2.121
264.70	-2.976
265.07	-5.357
265.44	3.116
265.81	0.000
266.18	0.273
266.55	1.028
266.92	-0.518
267.29	-1.044
267.66	1.279
268.03	-0.524
268.40	-2.872
268.77	4.011
269.14	-2.158
269.51	0.771
269.88	-1.995
270.25	-5.357
270.62	-2.195
270.99	-1.790
271.36	-1.222
271.73	0.469
272.10	-0.487
272.47	1.182
272.84	-2.970
273.21	0.000
273.58	-0.964
273.95	0.458
274.32	-2.540
274.69	-1.810
275.06	0.893
275.43	-1.587
275.80	-0.221
276.17	-1.149
276.54	1.071
276.91	-1.535
277.28	-1.310
277.65	1.446
278.02	-0.213
278.39	-1.094
278.76	-1.258
279.13	-2.282
279.50	1.471
279.87	0.432
280.23	-2.796
280.60	0.975
280.97	0.202
281.34	-2.885
281.71	0.205
282.08	-3.067
282.45	-1.174
282.82	-2.703
283.19	0.193
283.56	-1.349
283.92	0.000
284.29	-1.346
284.66	-1.744
285.03	-0.589
285.40	-0.567
285.77	-1.757
286.14	1.264
286.51	1.292
286.87	-1.463
287.24	-0.184
287.61	-0.705
287.98	-0.175
288.35	-1.386
288.72	-0.175
289.08	-0.868
289.45	0.176
289.82	-1.224
290.19	-1.877
290.56	-1.715
290.93	-2.357
291.29	0.154
291.66	0.000
292.03	-0.957
292.40	-1.129
292.77	-0.159
293.13	-3.571
293.50	-1.821
293.87	-0.458
294.24	-0.309
294.60	0.000
294.97	0.744
295.34	-1.380
295.71	-0.149
296.08	-0.747
296.44	-2.560
296.81	0.417
297.18	-1.159
297.55	1.491
297.91	0.822
298.28	0.528
298.65	-0.136
299.02	-0.943
299.38	-2.462
299.75	-0.966
300.12	-0.524
300.48	-0.132
300.85	0.760
301.22	0.390
301.59	-2.632
301.95	1.519
302.32	0.519
302.69	0.249
303.05	-0.619
303.42	0.498
303.79	0.935
304.15	1.195
304.52	-0.951
304.89	-1.520
305.25	-0.605
305.62	-1.517
305.99	-0.117
306.35	-0.347
306.72	-1.012
307.09	-0.114
307.45	0.804
307.82	0.347
308.19	-0.581
308.55	0.763
308.92	1.198
309.29	-0.223
309.65	-0.215
310.02	0.660
310.38	0.659
310.75	0.984
311.12	0.000
311.48	0.318
311.85	-0.105
312.22	0.105
312.58	-0.318
312.95	-0.534
313.31	0.207
313.68	0.000
314.05	1.020
314.41	0.928
314.78	0.515
315.14	1.850
315.51	1.863
315.87	1.639
316.24	2.427
316.61	3.346
316.97	3.373
317.34	1.953
317.70	3.059
318.07	2.404
318.43	3.529
318.80	4.356
319.16	3.125
319.53	5.888
319.89	5.217
320.26	5.162
320.62	6.018
320.99	5.115
321.35	5.550
321.72	7.684
322.08	7.150
322.45	6.904
322.81	8.055
323.18	8.440
323.54	8.108
323.91	8.763
324.27	10.059
324.64	10.487
325.00	12.500
325.37	12.764
325.73	11.151
326.10	12.171
326.46	13.632
326.83	14.173
327.19	15.519
327.56	15.204
327.92	16.637
328.29	15.893
328.65	16.887
329.01	17.371
329.38	19.171
329.74	17.092
330.11	18.536
330.47	18.831
330.84	19.038
331.20	21.293
331.56	18.796
331.93	21.187
332.29	21.357
332.66	20.814
333.02	21.283
333.38	20.440
333.75	22.253
334.11	22.202
334.48	22.847
334.84	21.612
335.20	23.513
335.57	22.031
335.93	23.216
336.29	24.586
336.66	23.615
337.02	23.234
337.38	23.056
337.75	23.455
338.11	24.977
338.47	25.000
338.84	23.845
339.20	24.223
339.56	24.312
339.93	25.694
340.29	24.771
340.65	24.821
341.02	25.000
341.38	24.867
341.74	24.735
342.11	24.610
342.47	24.911
342.83	24.654
343.20	24.652
343.56	25.478
343.92	26.129
344.28	26.302
344.65	26.252
345.01	24.892
345.37	24.811
345.73	25.858
346.10	27.179
346.46	26.072
346.82	25.368
347.19	24.356
347.55	26.901
347.91	26.214
348.27	26.677
348.63	26.831
349.00	27.153
349.36	26.268
349.72	26.202
350.08	26.475
350.45	26.975
350.81	25.748
351.17	26.303
351.53	26.612
351.89	26.094
352.26	25.040
352.62	27.016
352.98	24.900
353.34	26.892
353.70	27.670
354.07	26.694
354.43	25.861
354.79	25.516
355.15	27.143
355.51	27.373
355.87	27.427
356.24	26.427
356.60	25.950
356.96	26.905
357.32	26.038
357.68	26.818
358.04	27.464
358.40	26.527
358.77	27.671
359.13	27.062
359.49	26.194
359.85	27.067
360.21	28.549
360.57	27.238
360.93	26.929
361.29	25.604
361.66	27.194
362.02	28.333
362.38	28.789
362.74	27.933
363.10	27.464
363.46	27.428
363.82	29.076
364.18	28.266
364.54	26.103
364.90	27.957
365.26	26.492
365.62	27.883
365.98	28.079
366.35	28.041
366.71	27.421
367.07	27.576
367.43	27.103
367.79	27.350
368.15	26.849
368.51	27.968
368.87	27.566
369.23	27.365
369.59	27.915
369.95	28.739
370.31	28.613
370.67	28.209
371.03	26.960
371.39	26.623
371.75	28.645
372.11	27.817
372.47	28.550
372.83	27.253
373.19	27.318
373.55	26.354
373.91	27.214
374.27	27.994
374.63	26.633
374.99	28.298
375.35	26.950
375.71	28.252
376.07	27.388
376.42	26.667
376.78	27.450
377.14	27.488
377.50	26.892
377.86	28.112
378.22	26.994
378.58	27.885
378.94	27.977
379.30	27.511
379.66	27.335
380.02	27.529
380.38	27.389
380.74	27.229
381.09	28.098
381.45	27.645
381.81	26.280
382.17	26.967
382.53	27.545
382.89	27.056
383.25	27.754
383.61	27.439
383.97	27.175
384.32	26.329
384.68	27.492
385.04	27.022
385.40	25.949
385.76	27.484
386.12	26.520
386.48	27.458
386.83	26.379
387.19	26.129
387.55	27.854
387.91	27.017
388.27	26.374
388.62	26.872
388.98	27.072
389.34	26.296
389.70	26.973
390.06	26.432
390.42	25.453
390.77	26.619
391.13	26.419
391.49	26.520
391.85	26.251
392.20	26.428
392.56	26.065
392.92	26.483
393.28	26.238
393.64	25.465
393.99	26.520
394.35	25.617
394.71	25.926
395.07	25.707
395.42	25.379
395.78	25.668
396.14	25.725
396.50	25.808
396.85	24.855
397.21	25.564
397.57	25.141
397.92	24.865
398.28	25.747
398.64	24.940
399.00	25.621
399.35	24.323
399.71	25.388
400.07	25.091
400.42	24.235
400.78	24.985
401.14	25.106
401.49	25.372
401.85	24.558
402.21	24.759
402.57	24.812
402.92	24.216
403.28	24.436
403.63	24.212
403.99	24.235
404.35	24.547
404.70	22.857
405.06	23.796
405.42	23.120
405.77	23.475
406.13	23.923
406.49	23.327
406.84	23.289
407.20	23.600
407.55	23.052
407.91	22.727
408.27	23.072
408.62	22.892
408.98	23.290
409.34	22.305
409.69	23.062
410.05	22.968
410.40	23.086
410.76	23.522
411.11	22.875
411.47	22.354
411.83	21.218
412.18	21.815
412.54	22.160
412.89	21.983
413.25	22.503
413.60	21.118
413.96	21.963
414.31	21.829
414.67	21.616
415.03	21.704
415.38	21.802
415.74	21.564
416.09	21.163
416.45	22.350
416.80	21.943
417.16	21.478
417.51	22.185
417.87	20.665
418.22	21.373
418.58	20.602
418.93	22.257
419.29	21.127
419.64	21.387
420.00	21.788
420.35	20.597
420.71	21.810
421.06	21.363
421.42	21.454
421.77	20.578
422.12	20.488
422.48	20.845
422.83	20.592
423.19	20.147
423.54	20.282
423.90	20.141
424.25	20.666
424.61	21.175
424.96	20.616
425.31	21.202
425.67	20.775
426.02	21.201
426.38	21.415
426.73	20.642
427.09	21.013
427.44	21.294
427.79	21.391
428.15	20.631
428.50	20.170
428.85	19.349
429.21	20.939
429.56	21.024
429.92	20.134
430.27	20.501
430.62	19.707
430.98	19.586
431.33	20.505
431.68	20.356
432.04	19.843
432.39	20.422
432.74	18.821
433.10	20.460
433.45	19.833
433.80	19.907
434.16	19.003
434.51	19.946
434.86	20.151
435.22	19.405
435.57	19.838
435.92	19.760
436.28	19.976
436.63	19.966
436.98	19.003
437.34	19.722
437.69	19.857
438.04	19.658
438.39	19.792
438.75	19.369
439.10	20.430
439.45	20.146
439.81	19.021
440.16	19.893
440.51	19.940
440.86	20.483
441.22	19.514
441.57	19.481
441.92	19.570
442.27	19.845
442.63	19.593
442.98	19.070
443.33	19.199
443.68	19.416
444.03	19.225
444.39	19.331
444.74	19.509
445.09	19.376
445.44	19.202
445.79	20.526
446.15	19.824
446.50	18.747
446.85	19.341
447.20	19.552
447.55	19.810
447.91	19.120
448.26	19.636
448.61	19.919
448.96	19.392
449.31	18.902
449.66	19.048
450.02	19.281
450.37	19.324
450.72	18.499
451.07	19.304
451.42	19.226
451.77	18.987
452.12	18.780
452.47	17.965
452.83	19.906
453.18	18.406
453.53	19.532
453.88	19.308
454.23	19.176
454.58	19.773
454.93	19.394
455.28	17.905
455.63	19.653
455.98	19.302
456.34	19.413
456.69	19.250
457.04	18.463
457.39	19.137
457.74	17.654
458.09	17.775
458.44	19.017
458.79	18.992
459.14	18.021
459.49	19.104
459.84	18.105
460.19	18.083
460.54	18.582
460.89	18.409
461.24	18.882
461.59	19.299
461.94	18.302
462.29	18.154
462.64	18.405
462.99	17.806
463.34	17.663
463.69	18.018
464.04	18.523
464.39	17.829
464.74	17.607
465.09	18.278
465.44	18.407
465.79	17.460
466.14	18.700
466.49	17.424
466.84	18.144
467.19	17.772
467.54	17.433
467.89	18.383
468.24	17.214
468.59	17.714
468.94	17.143
469.29	18.098
469.64	17.908
469.99	18.010
470.34	16.177
470.68	17.748
471.03	17.410
471.38	17.760
471.73	18.067
472.08	17.775
472.43	16.443
472.78	16.929
473.13	17.279
473.48	17.068
473.83	17.123
474.17	17.746
474.52	16.847
474.87	16.545
475.22	16.779
475.57	16.431
475.92	16.840
476.27	17.113
476.61	16.667
476.96	16.397
477.31	17.469
477.66	16.011
478.01	15.553
478.36	16.285
478.70	17.129
479.05	16.538
479.40	16.269
479.75	16.319
480.10	16.231
480.45	15.350
480.79	16.818
481.14	16.547
481.49	15.567
481.84	16.216
482.19	15.809
482.53	16.259
482.88	15.465
483.23	16.363
483.58	15.189
483.92	15.731
484.27	15.998
484.62	15.509
484.97	14.801
485.31	15.282
485.66	14.481
486.01	15.282
486.36	15.023
486.70	15.117
487.05	15.278
487.40	15.072
487.75	15.606
488.09	15.358
488.44	15.268
488.79	14.979
489.13	15.224
489.48	15.006
489.83	14.709
490.17	14.966
490.52	14.919
490.87	15.132
491.22	14.804
491.56	14.896
491.91	15.057
492.26	14.730
492.60	15.067
492.95	15.494
493.30	14.656
493.64	14.440
493.99	15.072
494.34	14.417
494.68	15.048
495.03	13.917
495.37	14.475
495.72	14.387
496.07	14.293
496.41	14.009
496.76	14.556
497.11	14.299
497.45	14.702
497.80	14.127
498.14	14.754
498.49	14.017
498.84	14.172
499.18	14.357
499.53	13.591
499.87	14.154
500.22	14.144
500.56	13.515
500.91	13.855
501.26	13.396
501.60	13.281
501.95	13.925
502.29	13.801
502.64	13.610
502.98	13.863
503.33	13.641
503.67	13.880
504.02	13.685
504.36	13.162
504.71	13.384
505.06	13.488
505.40	13.756
505.75	13.144
506.09	13.178
506.44	13.398
506.78	13.878
507.13	13.806
507.47	13.943
507.82	12.981
508.16	13.893
508.51	13.379
508.85	13.082
509.19	12.879
509.54	12.654
509.88	12.891
510.23	13.394
510.57	12.934
510.92	11.887
511.26	12.930
511.61	13.366
511.95	13.041
512.30	11.863
512.64	13.356
512.98	12.521
513.33	12.423
513.67	12.393
514.02	13.558
514.36	13.200
514.70	13.578
515.05	13.807
515.39	13.223
515.74	14.072
516.08	13.329
516.42	13.486
516.77	12.990
517.11	12.582
517.46	13.585
517.80	12.694
518.14	12.676
518.49	12.500
518.83	12.394
519.17	12.614
519.52	12.493
519.86	11.285
520.20	12.576
520.55	11.695
520.89	13.112
521.23	12.286
521.58	14.006
521.92	12.692
522.26	12.752
522.61	12.597
522.95	12.715
523.29	12.071
523.64	12.770
523.98	12.832
524.32	11.727
524.66	12.548
525.01	12.857
525.35	11.860
525.69	11.448
526.04	12.235
526.38	13.035
526.72	11.707
527.06	12.581
527.41	12.005
527.75	12.131
528.09	11.495
528.43	12.357
528.78	11.221
529.12	12.774
529.46	11.436
529.80	13.046
530.15	12.475
530.49	12.256
530.83	11.902
531.17	12.156
531.51	11.902
531.86	11.421
532.20	10.717
532.54	12.117
532.88	12.047
533.22	11.559
533.57	12.189
533.91	11.162
534.25	12.174
534.59	10.840
534.93	11.328
535.27	10.279
535.62	11.147
535.96	11.024
536.30	12.269
536.64	10.958
536.98	10.105
537.32	11.807
537.66	11.992
538.01	11.608
538.35	11.442
538.69	11.451
539.03	10.458
539.37	10.902
539.71	11.452
540.05	11.066
540.39	11.150
540.73	11.785
541.07	11.188
541.42	11.962
541.76	10.668
542.10	10.255
542.44	10.493
542.78	10.736
543.12	10.234
543.46	11.127
543.80	10.826
544.14	10.013
544.48	11.193
544.82	11.073
545.16	10.929
545.50	11.883
545.84	11.190
546.18	11.206
546.52	10.743
546.86	10.855
547.20	10.873
547.54	10.247
547.88	10.734
548.22	10.454
548.56	10.026
548.90	11.051
549.24	10.399
549.58	10.437
549.92	9.936
550.26	10.183
550.60	10.037
550.94	11.053
551.28	10.046
551.62	10.692
551.96	10.376
552.30	10.234
552.64	9.238
552.98	10.127
553.32	10.200
553.66	9.942
554.00	9.854
554.34	10.561
554.68	10.324
555.02	9.449
555.36	10.247
555.69	8.718
556.03	8.994
556.37	10.249
556.71	8.592
557.05	9.918
557.39	9.071
557.73	10.495
558.07	10.106
558.41	9.495
558.75	10.678
559.08	9.693
559.42	10.238
559.76	10.408
560.10	9.174
560.44	9.233
560.78	10.420
561.12	10.296
561.45	9.136
561.79	10.154
562.13	9.226
562.47	10.216
562.81	9.654
563.15	9.803
563.48	9.052
563.82	9.883
564.16	9.610
564.50	9.797
564.84	9.906
565.17	9.658
565.51	10.724
565.85	9.671
566.19	9.085
566.52	8.914
566.86	10.797
567.20	8.655
567.54	8.759
567.88	8.612
568.21	10.238
568.55	9.022
568.89	9.343
569.23	9.148
569.56	8.932
569.90	9.663
570.24	8.820
570.57	9.236
570.91	9.237
571.25	8.879
571.59	8.564
571.92	8.356
572.26	8.816
572.60	8.651
572.93	8.723
573.27	8.527
573.61	8.622
573.95	8.930
574.28	8.660
574.62	8.569
574.96	8.452
575.29	8.405
575.63	8.370
575.97	8.485
576.30	8.040
576.64	8.291
576.98	8.417
577.31	8.749
577.65	8.555
577.98	8.601
578.32	8.467
578.66	8.468
578.99	8.563
579.33	8.169
579.67	8.277
580.00	8.177
580.34	8.109
580.67	8.061
581.01	8.405
581.35	8.398
581.68	8.266
582.02	8.112
582.35	8.097
582.69	8.200
583.02	8.289
583.36	8.280
583.70	8.281
584.03	8.257
584.37	8.696
584.70	8.434
585.04	7.979
585.37	8.231
585.71	8.294
586.04	8.069
586.38	8.376
586.72	8.092
587.05	8.434
587.39	9.058
587.72	8.639
588.06	8.248
588.39	8.402
588.73	8.486
589.06	8.121
589.40	7.881
589.73	8.908
590.07	8.270
590.40	8.475
590.73	8.731
591.07	8.142
591.40	8.638
591.74	8.326
592.07	8.998
592.41	8.481
592.74	7.845
593.08	8.418
593.41	8.072
593.75	7.687
594.08	8.342
594.41	8.079
594.75	7.939
595.08	8.248
595.42	7.987
595.75	7.736
596.09	8.014
596.42	8.268
596.75	7.948
597.09	8.428
597.42	7.633
597.75	8.200
598.09	8.375
598.42	7.491
598.76	7.593
599.09	8.454
599.42	8.185
599.76	8.014
600.09	8.145
600.42	8.567
600.76	7.244
601.09	8.092
601.42	8.304
601.76	7.940
602.09	7.673
602.42	8.467
602.76	8.022
603.09	7.766
603.42	8.236
603.76	7.460
604.09	7.331
604.42	7.445
604.76	8.233
605.09	7.541
605.42	7.494
605.75	8.187
606.09	7.941
606.42	7.923
606.75	7.446
607.09	7.824
607.42	7.798
607.75	7.460
608.08	7.637
608.42	7.492
608.75	8.193
609.08	8.072
609.41	8.071
609.75	8.014
610.08	8.437
610.41	7.778
610.74	7.557
611.07	7.597
611.41	7.940
611.74	8.156
612.07	7.869
612.40	7.932
612.73	7.740
613.07	8.268
613.40	8.260
613.73	7.275
614.06	7.791
614.39	8.629
614.72	7.227
615.06	8.268
615.39	8.242
615.72	7.051
616.05	7.933
616.38	7.350
616.71	8.440
617.05	8.153
617.38	6.662
617.71	7.358
618.04	7.810
618.37	7.314
618.70	7.129
619.03	7.778
619.36	6.151
619.69	7.809
620.03	7.962
620.36	7.582
620.69	8.351
621.02	8.028
621.35	8.050
621.68	7.313
622.01	8.750
622.34	8.540
622.67	8.517
623.00	7.427
623.33	7.241
623.66	7.330
623.99	6.808
624.32	6.996
624.65	6.842
624.99	7.750
625.32	6.899
625.65	7.777
625.98	7.736
626.31	6.899
626.64	8.319
626.97	8.028
627.30	8.144
627.63	8.752
627.96	7.817
628.29	7.586
628.62	8.358
628.95	8.818
629.28	7.560
629.61	7.478
629.94	8.407
630.26	7.609
630.59	7.804
630.92	8.308
631.25	6.872
631.58	7.930
631.91	5.702
632.24	6.537
632.57	7.386
632.90	7.592
633.23	8.471
633.56	7.809
633.89	7.768
634.22	7.531
634.55	6.226
634.88	7.152
635.20	6.410
635.53	6.267
635.86	7.282
636.19	8.926
636.52	6.633
636.85	6.328
637.18	8.176
637.51	7.547
637.83	7.096
638.16	8.458
638.49	7.766
638.82	8.684
639.15	6.920
639.48	8.528
639.81	7.950
640.13	6.205
640.46	7.289
640.79	6.775
641.12	6.647
641.45	6.907
641.77	8.741
642.10	8.847
642.43	5.788
642.76	7.591
643.09	8.239
643.41	4.693
643.74	5.601
644.07	9.360
644.40	8.615
644.73	8.757
645.05	7.550
645.38	7.760
645.71	6.383
646.04	8.977
646.36	6.383
646.69	7.734
647.02	7.750
647.35	7.836
647.67	8.958
648.00	7.276
648.33	7.338
648.66	7.119
648.98	3.853
649.31	4.793
649.64	7.221
649.96	5.186
650.29	7.155
650.62	7.179
650.94	7.593
651.27	5.959
651.60	7.928
651.92	7.517
652.25	5.861
652.58	9.167
652.90	8.405
653.23	6.891
653.56	6.261
653.88	6.873
654.21	3.853
654.54	6.961
654.86	8.998
655.19	6.433
655.52	8.359
655.84	6.559
656.17	7.136
656.49	9.430
656.82	9.847
657.15	7.523
657.47	5.732
657.80	4.167
658.13	4.214
658.45	6.067
658.78	6.433
659.10	6.089
659.43	6.076
659.75	6.413
660.08	6.138
660.41	6.639
660.73	6.215
661.06	6.759
661.38	7.436
661.71	4.928
662.03	5.794
662.36	6.813
662.68	5.973
663.01	7.205
663.33	5.800
663.66	5.349
663.98	6.047
664.31	8.742
664.63	7.143
664.96	6.087
665.28	4.857
665.61	6.494
665.93	6.957
666.26	7.809
666.58	4.698
666.91	6.353
667.23	6.604
667.56	7.583
667.88	7.194
668.21	6.205
668.53	6.147
668.86	8.019
669.18	3.774
669.50	4.116
669.83	5.581
670.15	5.828
670.48	4.545
670.80	7.604
671.13	5.593
671.45	4.338
671.77	7.725
672.10	8.119
672.42	6.742
672.75	7.105
673.07	9.481
673.39	6.972
673.72	3.156
674.04	4.583
674.37	7.203
674.69	7.066
675.01	6.444
675.34	7.883
675.66	7.176
675.98	7.982
676.31	8.716
676.63	4.276
676.95	3.409
677.28	8.000
677.60	6.747
677.92	6.651
678.25	8.315
678.57	5.844
678.89	8.824
679.22	6.935
679.54	5.422
679.86	5.368
680.18	8.544
680.51	8.333
680.83	4.374
681.15	7.600
681.48	6.762
681.80	7.025
682.12	6.653
682.44	4.603
682.77	5.519
683.09	4.119
683.41	5.455
683.73	7.143
684.06	5.752
684.38	5.161
684.70	6.318
685.02	6.432
685.34	2.372
685.67	3.565
685.99	8.499
686.31	5.841
686.63	5.937
686.96	5.703
687.28	4.242
687.60	4.563
687.92	6.061
688.24	7.258
688.56	5.895
688.89	4.018
689.21	7.333
689.53	7.889
689.85	5.116
690.17	7.366
690.49	5.201
690.82	5.340
691.14	4.762
691.46	5.607
691.78	6.306
692.10	6.022
692.42	4.545
692.74	5.769
693.06	6.081
693.39	4.977
693.71	4.299
694.03	3.233
694.35	8.411
694.67	4.293
694.99	5.744
695.31	9.661
695.63	6.250
695.95	4.545
696.27	5.699
696.59	5.556
696.91	7.003
697.23	4.113
697.56	2.723
697.88	6.882
698.20	4.556
698.52	4.471
698.84	3.110
699.16	6.750
699.48	8.271
699.80	4.963
700.12	3.235
700.44	7.283
700.76	4.360
701.08	3.939
701.40	2.711
701.72	9.877
702.04	2.640
702.36	4.682
702.68	6.907
703.00	7.273
703.32	3.519
703.64	1.977
703.96	6.957
704.28	6.442
704.60	6.032
704.91	4.732
705.23	0.997
705.55	8.127
705.87	3.249
706.19	9.630
706.51	4.124
706.83	6.431
707.15	0.935
707.47	4.762
707.79	4.427
708.11	6.750
708.43	7.000
708.74	6.977
709.06	8.169
709.38	4.893
709.70	1.775
710.02	4.140
710.34	8.669
710.66	5.449
710.98	1.656
711.29	2.623
711.61	5.763
711.93	4.560
712.25	8.247
712.57	2.198
712.89	3.731
713.20	6.920
713.52	7.317
713.84	6.826
714.16	0.344
714.48	1.935
714.80	4.167
715.11	5.167
715.43	0.313
715.75	3.000
716.07	2.990
716.39	4.698
716.70	1.845
717.02	4.580
717.34	6.478
717.66	4.867
717.97	3.043
718.29	1.674
718.61	7.087
718.93	3.488
719.24	3.422
719.56	2.410
719.88	7.560
720.20	4.545
720.51	1.916
720.83	4.633
721.15	4.202
721.46	2.823
721.78	1.186
722.10	4.461
722.42	2.490
722.73	5.306
723.05	6.122
723.37	5.085
723.68	4.054
724.00	5.556
724.32	-0.889
724.63	3.636
724.95	3.493
725.27	1.382
725.58	6.780
725.90	0.794
726.22	4.247
726.53	7.797
726.85	3.745
727.16	10.189
727.48	-6.478
727.80	2.834
728.11	3.814
728.43	5.882
728.74	0.403
729.06	6.400
729.38	11.278
729.69	0.000
730.01	1.154
730.32	6.343
730.64	6.360
730.96	6.415
731.27	2.333
731.59	2.034
731.90	3.822
732.22	7.571
732.53	7.309
732.85	3.191
733.16	8.418
733.48	0.000
733.80	2.536
734.11	4.068
734.43	3.436
734.74	4.242
735.06	2.280
735.37	9.063
735.69	2.694
736.00	3.136
736.32	4.027
736.63	5.282
736.95	4.096
737.26	-1.423
737.58	-0.336
737.89	8.059
738.21	2.632
738.52	2.469
738.83	2.620
739.15	1.310
739.46	3.543
739.78	-1.465
740.09	2.614
740.41	6.159
740.72	-2.362
741.04	6.478
741.35	1.702
741.66	0.948
741.98	2.551
742.29	3.465
742.61	2.094
742.92	-5.213
743.23	-2.778
743.55	5.430
743.86	4.306
744.18	5.742
744.49	0.000
744.80	0.543
745.12	6.417
745.43	0.000
745.74	2.604
746.06	6.341
746.37	2.094
746.68	4.265
747.00	0.532
747.31	7.463
747.62	3.398
747.94	1.435
748.25	0.000
748.56	6.011
748.88	1.047
749.19	7.979
749.50	5.419
749.82	-0.943
750.13	-2.294
750.44	6.767
750.75	6.716
751.07	4.015
751.38	5.747
751.69	-0.392
752.01	5.426
752.32	4.382
752.63	-1.976
752.94	-0.431
753.26	7.950
753.57	3.620
753.88	3.097
754.19	-3.333
754.51	0.000
754.82	1.215
755.13	7.917
755.44	5.242
755.75	8.984
756.07	4.669
756.38	3.019
756.69	0.766
757.00	5.000
757.31	6.536
757.63	3.049
757.94	6.944
758.25	4.384
758.56	5.585
758.87	1.416
759.18	2.804
759.50	1.818
759.81	4.682
760.12	5.806
760.43	1.515
760.74	2.160
761.05	2.154
761.36	2.557
761.67	4.545
761.99	5.782
762.30	4.000
762.61	6.719
762.92	1.810
763.23	5.405
763.54	-3.738
763.85	0.000
764.16	0.000
764.47	1.210
764.78	1.099
765.10	9.428
765.41	3.785
765.72	6.984
766.03	1.880
766.34	4.745
766.65	5.976
766.96	0.505
767.27	2.660
767.58	-0.575
767.89	-7.092
768.20	3.409
768.51	4.396
768.82	4.433
769.13	-5.069
769.44	1.717
769.75	-2.740
770.06	6.897
770.37	0.000
770.68	2.538
770.99	0.905
771.30	0.980
771.61	6.335
771.92	10.345
772.23	5.419
772.54	4.839
772.85	0.617
773.16	10.112
773.47	3.922
773.78	-1.961
774.09	-4.192
774.39	8.667
774.70	8.280
775.01	6.207
775.32	0.000
775.63	-10.744
775.94	3.053
776.25	4.724
776.56	1.667
776.87	-6.731
777.18	4.274
777.48	-6.034
777.79	-1.739
778.10	-15.238
778.41	-9.910
778.72	7.937
779.03	1.504
779.34	3.546
779.65	7.534
779.95	-1.370
780.26	-6.207
780.57	-6.504
780.88	7.874
781.19	2.586
781.50	4.651
781.80	2.367
782.11	-8.176
782.42	-1.538
782.73	-1.439
783.04	1.481
783.34	-2.083
783.65	-12.821
783.96	4.918
784.27	4.138
784.57	6.504
784.88	6.250
785.19	-4.000
785.50	6.000
785.81	-1.724
786.11	-3.448
786.42	-4.854
786.73	5.455
787.04	-9.184
787.34	-3.571
787.65	2.857
787.96	-4.425
788.26	-0.909
788.57	2.564
788.88	8.594
789.19	3.968
789.49	-0.870
789.80	6.122
790.11	-6.061
790.41	-4.545
790.72	15.217
791.03	-7.955
791.33	-6.250
791.64	-11.250
791.95	5.814
792.25	7.447
792.56	6.742
792.87	-1.370
793.17	-5.797
793.48	-12.000
793.79	7.500
794.09	0.000
794.40	-4.717
794.70	-7.767
795.01	-8.130
795.32	-0.855
795.62	0.952
795.93	-6.863
796.23	6.604
796.54	7.292
796.85	14.706
797.15	2.817
797.46	5.556
797.76	13.636
798.07	1.163
798.37	-7.895
798.68	-4.545
798.99	4.938
799.29	-1.429
799.60	2.899
799.90	4.000
800.21	-3.279
800.51	1.538
800.82	0.000
801.12	5.797
801.43	1.639
801.73	7.937
802.04	-2.000
802.34	-1.493
802.65	0.000
802.95	-12.500
803.26	-7.692
803.56	17.647
803.87	-43.478
804.17	-2.667
804.48	4.762
804.78	-18.519
805.09	-28.261
805.39	-28.889
805.70	-14.815
806.00	-21.053
806.30	-4.225
806.61	-1.429
806.91	-16.667
807.22	11.842
807.52	-9.333
807.83	-21.818
808.13	-2.778
808.43	5.882
808.74	2.985
809.04	-16.949
809.35	-36.538
809.65	-14.062
809.95	-56.757
810.26	-13.636
810.56	1.370
810.86	7.143
811.17	-24.000
811.47	-2.041
811.77	-23.684
812.08	2.273
812.38	-15.094
812.69	-22.500
812.99	-36.364
813.29	-31.579
813.59	-22.857
813.90	-2.273
814.20	-28.205
814.50	-3.846
814.81	15.094
815.11	-17.021
815.41	18.644
815.72	-14.286
816.02	-1.961
816.32	-14.583
816.62	4.878
816.93	-35.135
817.23	-31.429
817.53	-12.500
817.84	-15.217
818.14	-11.538
818.44	-31.579
818.74	15.217
819.04	-20.000
819.35	-8.108
819.65	-17.647
819.95	-8.333
820.25	-2.381
820.56	25.000
820.86	-79.310
821.16	7.500
821.46	-14.894
821.76	5.000
822.07	-9.302
822.37	-40.541
822.67	3.125
822.97	7.143
823.27	-50.000
823.57	-76.000
823.88	-59.259
824.18	0.000
824.48	8.824
824.78	3.226
825.08	4.348
825.38	-18.182
825.69	-66.667
825.99	-10.526
826.29	0.000
826.59	-80.000
826.89	-71.429
827.19	6.522
827.49	-2.500
827.79	11.429
828.09	-10.714
828.39	-9.091
828.70	40.541
829.00	-35.714
829.30	-47.619
829.60	0.000
829.90	-15.625
830.20	15.789
830.50	-33.333
830.80	-21.739
831.10	-31.818
831.40	27.273
831.70	-25.806
832.00	-9.524
832.30	-85.714
832.60	-66.667
832.90	24.138
833.20	-110.000
833.50	15.152
833.80	-11.111
834.10	15.385
834.40	-12.500
834.70	-133.333
835.00	-36.842
835.30	-7.692
835.60	13.333
835.90	-25.806
836.20	-13.636
836.50	-3.571
836.80	-65.385
837.10	-21.429
837.40	-333.333
837.70	-27.273
838.00	-90.909
838.30	26.087
838.60	-92.308
838.90	0.000
839.19	0.000
839.49	-10.000
839.79	-38.462
840.09	-91.667
840.39	32.143
840.69	-32.143
840.99	-30.769
841.29	-15.789
841.59	-160.000
841.88	-45.455
842.18	-30.000
842.48	0.000
842.78	-40.000
843.08	-22.222
843.38	-90.000
843.68	-17.391
843.97	-6.667
844.27	-133.333
844.57	-35.000
844.87	-22.222
845.17	-38.095
845.47	6.667
845.76	-28.571
846.06	-64.706
846.36	-80.000
846.66	-35.714
846.96	-13.333
847.25	-300.000
847.55	28.571
847.85	-162.500
848.15	-54.545
848.44	-833.333
848.74	-60.000
849.04	25.926
849.34	-100.000
849.63	-216.667
849.93	-60.000
850.23	-16.667
850.53	0.000
850.82	-53.846
851.12	-200.000
851.42	-53.333
851.71	26.923
852.01	-14.286
852.31	-300.000
852.61	-81.818
852.90	-10.000
853.20	5.263
853.50	-41.667
853.79	8.696
854.09	20.833
854.39	-10.526
854.68	-29.167
854.98	-6.452
855.28	3.846
855.57	-10.000
855.87	27.778
856.17	0.000
856.46	0.000
856.76	6.667
857.05	-11.111
857.35	-40.000
857.65	11.111
857.94	-38.462
858.24	10.345
858.53	-5.556
858.83	37.037
859.13	40.909
859.42	-4.348
859.72	-150.000
860.01	-366.667
860.31	0.000
860.60	-28.571
860.90	-333.333
861.20	-140.000
861.49	-800.000
861.79	-40.000
862.08	-5.000
862.38	6.667
862.67	-380.000
862.97	-183.333
863.26	-33.333
863.56	27.778
863.85	-600.000
864.15	-27.778
864.44	-60.000
864.74	57.143
865.03	425.000
865.33	-440.000
865.62	16.667
865.92	-50.000
866.21	-183.333
866.51	37.500
866.80	-27.273
867.10	-100.000
867.39	41.667
867.69	0.000
867.98	-46.154
868.27	-666.667
868.57	-26.667
868.86	50.000
869.16	-38.462
869.45	20.000
869.75	-500.000
870.04	0.000
870.33	-42.857
870.63	4.762
870.92	300.000
871.22	-220.000
871.51	-800.000
871.80	44.444
872.10	400.000
>>>>>End Processed Spectral Data<<<<<
