SpectraSuite Data File
++++++++++++++++++++++++++++++++++++
Date: Fri May 15 20:56:53 PDT 2015
User: schluterlab
Dark Spectrum Present: Yes
Reference Spectrum Present: Yes
Number of Sampled Component Spectra: 1
Spectrometers: USB2E3373
Integration Time (usec): 3000 (USB2E3373)
Spectra Averaged: 3 (USB2E3373)
Boxcar Smoothing: 0 (USB2E3373)
Correct for Electrical Dark: No (USB2E3373)
Strobe/Lamp Enabled: No (USB2E3373)
Correct for Detector Non-linearity: No (USB2E3373)
Correct for Stray Light: No (USB2E3373)
Number of Pixels in Processed Spectrum: 2048
>>>>>Begin Processed Spectral Data<<<<<
178.53	0.000
178.91	0.000
179.29	0.000
179.67	150.000
180.04	28.571
180.42	0.000
180.80	-100.000
181.18	366.667
181.56	450.000
181.94	-200.000
182.31	100.000
182.69	-60.000
183.07	333.333
183.45	-100.000
183.83	-83.333
184.20	-18.182
184.58	188.889
184.96	-50.000
185.34	166.667
185.72	-500.000
186.09	107.692
186.47	-1000.000
186.85	150.000
187.23	122.222
187.61	-100.000
187.98	-66.667
188.36	44.444
188.74	-566.667
189.12	-23.529
189.49	5.556
189.87	0.000
190.25	42.857
190.63	150.000
191.00	-266.667
191.38	-10.526
191.76	400.000
192.14	-100.000
192.51	300.000
192.89	33.333
193.27	0.000
193.65	150.000
194.02	200.000
194.40	40.000
194.78	-162.500
195.15	-50.000
195.53	-137.500
195.91	375.000
196.29	-75.000
196.66	23.077
197.04	142.857
197.42	-111.111
197.79	-200.000
198.17	-100.000
198.55	1200.000
198.92	200.000
199.30	-1500.000
199.68	-200.000
200.05	66.667
200.43	0.000
200.81	-100.000
201.18	33.333
201.56	1000.000
201.94	200.000
202.31	-233.333
202.69	-20.000
203.07	-25.000
203.44	1000.000
203.82	0.000
204.19	0.000
204.57	-566.667
204.95	200.000
205.32	-30.000
205.70	-14.286
206.08	-50.000
206.45	244.444
206.83	50.000
207.20	-85.714
207.58	600.000
207.96	-266.667
208.33	-90.000
208.71	25.000
209.08	-83.333
209.46	100.000
209.84	-80.000
210.21	-500.000
210.59	85.714
210.96	116.667
211.34	0.000
211.71	46.667
212.09	-14.286
212.46	-1100.000
212.84	0.000
213.22	40.000
213.59	150.000
213.97	0.000
214.34	54.545
214.72	-116.667
215.09	400.000
215.47	23.077
215.84	-18.182
216.22	-400.000
216.59	0.000
216.97	100.000
217.34	-100.000
217.72	60.000
218.09	12.500
218.47	162.500
218.84	400.000
219.22	111.111
219.59	100.000
219.97	233.333
220.34	200.000
220.72	-57.143
221.09	-175.000
221.47	200.000
221.84	-500.000
222.22	-550.000
222.59	36.364
222.97	33.333
223.34	-200.000
223.72	-64.286
224.09	47.619
224.46	21.429
224.84	333.333
225.21	-80.000
225.59	86.667
225.96	-350.000
226.34	175.000
226.71	-42.857
227.08	83.333
227.46	75.000
227.83	-400.000
228.21	66.667
228.58	45.455
228.95	12.500
229.33	180.000
229.70	-31.250
230.08	-62.500
230.45	-57.143
230.82	128.571
231.20	26.667
231.57	85.714
231.95	85.714
232.32	-30.000
232.69	50.000
233.07	-100.000
233.44	-120.000
233.81	-90.000
234.19	0.000
234.56	23.529
234.93	150.000
235.31	300.000
235.68	-200.000
236.05	-84.615
236.43	-40.000
236.80	52.941
237.17	40.625
237.55	-25.000
237.92	-25.926
238.29	30.556
238.67	23.333
239.04	11.765
239.41	17.073
239.79	-16.667
240.16	21.951
240.53	2.632
240.91	26.087
241.28	19.048
241.65	41.071
242.02	34.247
242.40	31.667
242.77	20.339
243.14	19.697
243.51	22.500
243.89	33.333
244.26	14.943
244.63	38.095
245.00	26.804
245.38	30.928
245.75	19.101
246.12	17.241
246.49	22.314
246.87	28.846
247.24	16.807
247.61	20.175
247.98	28.455
248.36	21.875
248.73	29.605
249.10	24.675
249.47	28.481
249.84	24.837
250.22	28.824
250.59	25.490
250.96	25.822
251.33	22.674
251.70	30.588
252.08	23.858
252.45	26.238
252.82	29.648
253.19	30.876
253.56	22.430
253.94	27.477
254.31	21.739
254.68	27.193
255.05	23.622
255.42	26.201
255.79	29.344
256.16	27.237
256.54	22.761
256.91	28.517
257.28	26.394
257.65	24.345
258.02	28.369
258.39	26.936
258.76	29.304
259.14	29.900
259.51	28.803
259.88	25.773
260.25	24.510
260.62	31.944
260.99	21.017
261.36	21.575
261.73	29.114
262.10	25.532
262.47	25.460
262.85	31.348
263.22	28.000
263.59	28.037
263.96	28.882
264.33	27.273
264.70	27.381
265.07	26.786
265.44	29.462
265.81	24.859
266.18	27.869
266.55	27.506
266.92	29.016
267.29	25.587
267.66	24.297
268.03	26.440
268.40	25.065
268.77	28.877
269.14	25.180
269.51	29.049
269.88	27.930
270.25	24.235
270.62	25.610
270.99	25.320
271.36	25.428
271.73	25.822
272.10	26.764
272.47	24.350
272.84	27.475
273.21	29.002
273.58	27.952
273.95	25.629
274.32	24.249
274.69	24.887
275.06	28.348
275.43	24.036
275.80	27.373
276.17	25.517
276.54	22.484
276.91	26.096
277.28	23.799
277.65	25.413
278.02	24.681
278.39	27.133
278.76	26.415
279.13	24.066
279.50	25.420
279.87	28.726
280.23	22.581
280.60	24.561
280.97	23.434
281.34	22.885
281.71	25.667
282.08	23.926
282.45	24.462
282.82	25.676
283.19	22.631
283.56	23.699
283.92	24.288
284.29	21.538
284.66	22.093
285.03	23.969
285.40	22.684
285.77	22.671
286.14	24.729
286.51	24.908
286.87	22.852
287.24	23.757
287.61	22.399
287.98	26.491
288.35	22.184
288.72	23.643
289.08	22.569
289.45	22.496
289.82	23.776
290.19	21.843
290.56	23.499
290.93	20.539
291.29	21.109
291.66	22.362
292.03	21.372
292.40	21.452
292.77	18.979
293.13	18.506
293.50	19.879
293.87	20.763
294.24	19.011
294.60	20.417
294.97	22.768
295.34	19.325
295.71	20.864
296.08	18.087
296.44	17.496
296.81	18.333
297.18	18.696
297.55	19.241
297.91	19.041
298.28	20.976
298.65	16.689
299.02	17.655
299.38	17.510
299.75	16.966
300.12	17.801
300.48	17.523
300.85	19.899
301.22	17.662
301.59	19.079
301.95	18.481
302.32	18.677
302.69	17.164
303.05	18.069
303.42	18.182
303.79	18.575
304.15	19.474
304.52	16.290
304.89	17.193
305.25	17.191
305.62	16.919
305.99	17.193
306.35	17.110
306.72	16.423
307.09	17.788
307.45	17.222
307.82	18.403
308.19	18.118
308.55	17.884
308.92	18.192
309.29	16.536
309.65	16.685
310.02	17.162
310.38	18.441
310.75	17.158
311.12	17.115
311.48	16.755
311.85	16.754
312.22	16.456
312.58	16.030
312.95	16.756
313.31	16.874
313.68	16.230
314.05	16.224
314.41	18.557
314.78	16.495
315.14	19.116
315.51	18.427
315.87	18.545
316.24	19.312
316.61	18.602
316.97	19.643
317.34	17.188
317.70	19.694
318.07	18.173
318.43	19.706
318.80	19.508
319.16	20.312
319.53	20.513
319.89	19.587
320.26	21.964
320.62	21.163
320.99	19.937
321.35	21.274
321.72	21.495
322.08	22.860
322.45	24.061
322.81	23.084
323.18	22.866
323.54	24.517
323.91	23.661
324.27	25.586
324.64	24.625
325.00	24.818
325.37	26.171
325.73	24.932
326.10	25.613
326.46	26.547
326.83	27.297
327.19	27.637
327.56	28.931
327.92	29.842
328.29	29.018
328.65	28.302
329.01	29.596
329.38	29.309
329.74	29.084
330.11	29.194
330.47	30.148
330.84	30.673
331.20	31.369
331.56	30.093
331.93	30.320
332.29	31.806
332.66	30.226
333.02	31.691
333.38	32.631
333.75	30.403
334.11	31.692
334.48	31.097
334.84	32.509
335.20	31.290
335.57	30.462
335.93	32.340
336.29	31.768
336.66	32.516
337.02	31.413
337.38	30.463
337.75	31.273
338.11	32.101
338.47	31.752
338.84	32.625
339.20	32.541
339.56	32.202
339.93	31.155
340.29	32.018
340.65	32.706
341.02	31.560
341.38	31.327
341.74	32.420
342.11	31.109
342.47	32.740
342.83	33.391
343.20	32.230
343.56	33.130
343.92	33.304
344.28	33.817
344.65	32.815
345.01	31.806
345.37	32.296
345.73	32.385
346.10	33.305
346.46	34.146
346.82	31.424
347.19	30.175
347.55	33.166
347.91	33.333
348.27	32.983
348.63	33.135
349.00	33.224
349.36	32.585
349.72	33.665
350.08	33.770
350.45	33.360
350.81	33.389
351.17	32.573
351.53	33.143
351.89	32.453
352.26	32.720
352.62	32.742
352.98	32.932
353.34	32.287
353.70	33.900
354.07	32.177
354.43	32.506
354.79	33.113
355.15	34.127
355.51	33.940
355.87	34.871
356.24	32.708
356.60	34.034
356.96	34.127
357.32	33.706
357.68	34.480
358.04	33.603
358.40	33.280
358.77	34.689
359.13	33.147
359.49	32.512
359.85	33.619
360.21	34.769
360.57	33.894
360.93	34.720
361.29	33.535
361.66	33.464
362.02	34.167
362.38	33.435
362.74	34.292
363.10	34.838
363.46	34.618
363.82	35.011
364.18	34.244
364.54	32.574
364.90	33.978
365.26	34.498
365.62	36.277
365.98	35.411
366.35	35.907
366.71	34.738
367.07	35.341
367.43	33.932
367.79	35.406
368.15	36.181
368.51	36.052
368.87	35.750
369.23	36.101
369.59	37.172
369.95	36.510
370.31	36.994
370.67	36.045
371.03	35.474
371.39	35.449
371.75	36.484
372.11	36.662
372.47	37.278
372.83	36.196
373.19	37.233
373.55	35.018
373.91	36.789
374.27	36.641
374.63	37.832
374.99	37.518
375.35	36.908
375.71	37.692
376.07	37.781
376.42	37.823
376.78	36.577
377.14	37.982
377.50	36.388
377.86	37.282
378.22	37.588
378.58	38.013
378.94	37.303
379.30	37.804
379.66	38.182
380.02	38.259
380.38	38.223
380.74	37.941
381.09	38.344
381.45	38.349
381.81	37.569
382.17	38.769
382.53	38.913
382.89	39.360
383.25	38.706
383.61	39.390
383.97	39.111
384.32	39.212
384.68	38.947
385.04	38.358
385.40	39.639
385.76	40.818
386.12	39.521
386.48	40.102
386.83	40.266
387.19	40.293
387.55	40.339
387.91	40.220
388.27	39.255
388.62	41.473
388.98	40.516
389.34	40.974
389.70	41.579
390.06	40.214
390.42	40.026
390.77	41.400
391.13	40.794
391.49	40.427
391.85	40.741
392.20	40.804
392.56	41.958
392.92	41.339
393.28	40.920
393.64	40.841
393.99	41.944
394.35	40.987
394.71	43.103
395.07	41.609
395.42	41.105
395.78	41.889
396.14	42.055
396.50	41.661
396.85	42.627
397.21	42.732
397.57	43.448
397.92	41.881
398.28	42.644
398.64	41.325
399.00	43.002
399.35	40.745
399.71	42.849
400.07	43.289
400.42	42.534
400.78	43.050
401.14	42.589
401.49	43.240
401.85	41.499
402.21	42.410
402.57	43.688
402.92	41.593
403.28	43.609
403.63	42.875
403.99	42.793
404.35	43.410
404.70	42.321
405.06	42.832
405.42	42.138
405.77	42.708
406.13	43.946
406.49	43.694
406.84	44.071
407.20	43.889
407.55	42.820
407.91	43.115
408.27	42.639
408.62	44.246
408.98	43.623
409.34	44.796
409.69	43.928
410.05	42.980
410.40	44.444
410.76	45.115
411.11	44.375
411.47	44.313
411.83	44.068
412.18	44.273
412.54	43.820
412.89	43.103
413.25	44.043
413.60	43.851
413.96	45.215
414.31	43.354
414.67	44.708
415.03	43.808
415.38	43.211
415.74	44.039
416.09	44.481
416.45	44.632
416.80	44.151
417.16	45.787
417.51	46.036
417.87	44.654
418.22	45.337
418.58	45.552
418.93	44.828
419.29	43.598
419.64	45.561
420.00	47.103
420.35	44.597
420.71	45.322
421.06	46.286
421.42	44.231
421.77	45.260
422.12	44.949
422.48	45.263
422.83	44.432
423.19	45.260
423.54	45.855
423.90	44.287
424.25	46.441
424.61	45.961
424.96	46.806
425.31	47.487
425.67	46.538
426.02	45.760
426.38	47.151
426.73	47.034
427.09	47.215
427.44	46.706
427.79	46.965
428.15	46.723
428.50	47.668
428.85	46.253
429.21	47.199
429.56	48.356
429.92	46.071
430.27	46.867
430.62	46.262
430.98	45.807
431.33	46.477
431.68	46.468
432.04	46.395
432.39	47.119
432.74	46.542
433.10	47.356
433.45	47.491
433.80	47.824
434.16	46.316
434.51	47.043
434.86	48.548
435.22	47.841
435.57	49.220
435.92	48.084
436.28	47.227
436.63	47.347
436.98	47.451
437.34	48.034
437.69	49.016
438.04	47.977
438.39	48.381
438.75	49.180
439.10	49.066
439.45	49.665
439.81	49.664
440.16	50.119
440.51	50.149
440.86	51.178
441.22	49.038
441.57	48.234
441.92	49.528
442.27	50.222
442.63	49.679
442.98	49.052
443.33	50.362
443.68	49.708
444.03	50.621
444.39	49.090
444.74	51.951
445.09	50.278
445.44	50.427
445.79	51.986
446.15	50.606
446.50	48.808
446.85	49.362
447.20	51.199
447.55	50.558
447.91	50.536
448.26	50.996
448.61	51.871
448.96	51.004
449.31	51.676
449.66	50.813
450.02	51.169
450.37	51.986
450.72	51.317
451.07	52.025
451.42	51.186
451.77	50.573
452.12	50.299
452.47	51.642
452.83	50.530
453.18	51.360
453.53	51.391
453.88	52.155
454.23	51.752
454.58	51.889
454.93	52.513
455.28	50.540
455.63	52.263
455.98	51.954
456.34	54.406
456.69	53.177
457.04	52.363
457.39	52.491
457.74	52.479
458.09	50.853
458.44	52.253
458.79	51.653
459.14	52.574
459.49	52.060
459.84	51.664
460.19	52.488
460.54	52.934
460.89	52.557
461.24	52.609
461.59	53.088
461.94	52.390
462.29	53.016
462.64	52.824
462.99	53.487
463.34	51.808
463.69	52.831
464.04	52.603
464.39	53.911
464.74	52.270
465.09	54.648
465.44	54.010
465.79	52.551
466.14	52.223
466.49	53.306
466.84	54.372
467.19	53.880
467.54	54.278
467.89	54.643
468.24	54.258
468.59	54.667
468.94	54.413
469.29	54.164
469.64	54.614
469.99	55.992
470.34	54.949
470.68	56.078
471.03	56.759
471.38	56.348
471.73	55.042
472.08	54.206
472.43	57.114
472.78	55.723
473.13	56.939
473.48	55.179
473.83	55.791
474.17	57.254
474.52	55.265
474.87	55.697
475.22	55.339
475.57	55.505
475.92	55.458
476.27	55.763
476.61	56.944
476.96	54.769
477.31	56.301
477.66	56.180
478.01	56.429
478.36	56.427
478.70	56.933
479.05	56.484
479.40	57.234
479.75	55.527
480.10	55.709
480.45	56.750
480.79	56.898
481.14	57.326
481.49	56.158
481.84	57.191
482.19	56.455
482.53	56.019
482.88	55.800
483.23	56.718
483.58	56.274
483.92	56.147
484.27	55.971
484.62	55.984
484.97	55.431
485.31	53.613
485.66	51.612
486.01	50.874
486.36	50.626
486.70	52.162
487.05	53.339
487.40	53.826
487.75	54.479
488.09	54.790
488.44	56.052
488.79	56.631
489.13	56.691
489.48	56.306
489.83	56.951
490.17	56.090
490.52	57.598
490.87	55.206
491.22	57.116
491.56	57.068
491.91	56.931
492.26	57.365
492.60	56.334
492.95	57.796
493.30	57.157
493.64	58.055
493.99	57.440
494.34	56.505
494.68	57.286
495.03	56.788
495.37	57.802
495.72	57.951
496.07	58.976
496.41	57.406
496.76	57.209
497.11	56.777
497.45	57.757
497.80	58.174
498.14	58.023
498.49	58.101
498.84	57.585
499.18	57.731
499.53	57.986
499.87	57.490
500.22	58.061
500.56	58.598
500.91	58.283
501.26	57.983
501.60	58.190
501.95	58.030
502.29	59.177
502.64	58.542
502.98	59.299
503.33	57.493
503.67	58.458
504.02	59.433
504.36	60.564
504.71	59.394
505.06	58.732
505.40	59.188
505.75	60.567
506.09	58.996
506.44	61.140
506.78	59.898
507.13	59.617
507.47	58.590
507.82	60.363
508.16	60.011
508.51	61.595
508.85	61.015
509.19	60.617
509.54	61.769
509.88	60.086
510.23	61.108
510.57	61.144
510.92	60.235
511.26	61.375
511.61	62.101
511.95	62.192
512.30	62.361
512.64	62.437
512.98	61.595
513.33	62.619
513.67	62.194
514.02	65.103
514.36	63.714
514.70	64.802
515.05	66.451
515.39	63.400
515.74	65.868
516.08	64.256
516.42	63.369
516.77	64.424
517.11	64.866
517.46	64.632
517.80	65.733
518.14	64.727
518.49	64.543
518.83	65.188
519.17	64.099
519.52	63.706
519.86	63.565
520.20	65.492
520.55	66.041
520.89	66.186
521.23	65.421
521.58	66.625
521.92	65.513
522.26	66.168
522.61	66.494
522.95	67.020
523.29	66.582
523.64	65.820
523.98	68.697
524.32	66.753
524.66	66.709
525.01	67.468
525.35	66.688
525.69	68.013
526.04	66.468
526.38	68.482
526.72	65.141
527.06	67.056
527.41	66.689
527.75	65.617
528.09	66.578
528.43	66.982
528.78	64.950
529.12	65.355
529.46	66.992
529.80	65.611
530.15	68.647
530.49	67.811
530.83	67.373
531.17	66.286
531.51	67.031
531.86	67.981
532.20	68.337
532.54	66.916
532.88	67.351
533.22	67.809
533.57	66.448
533.91	65.927
534.25	67.513
534.59	65.491
534.93	63.877
535.27	65.292
535.62	64.744
535.96	65.623
536.30	65.897
536.64	66.988
536.98	66.481
537.32	68.563
537.66	66.550
538.01	65.874
538.35	66.297
538.69	65.047
539.03	65.755
539.37	65.209
539.71	66.258
540.05	65.580
540.39	65.305
540.73	65.481
541.07	65.401
541.42	65.995
541.76	64.969
542.10	66.345
542.44	65.601
542.78	63.386
543.12	64.354
543.46	64.743
543.80	66.135
544.14	63.017
544.48	64.091
544.82	64.730
545.16	65.369
545.50	64.486
545.84	67.493
546.18	65.390
546.52	64.744
546.86	64.989
547.20	64.592
547.54	63.958
547.88	63.927
548.22	61.736
548.56	62.731
548.90	63.342
549.24	62.741
549.58	62.130
549.92	63.188
550.26	63.223
550.60	64.387
550.94	65.422
551.28	66.538
551.62	65.462
551.96	63.759
552.30	63.012
552.64	63.470
552.98	64.065
553.32	62.910
553.66	62.337
554.00	62.920
554.34	63.959
554.68	62.242
555.02	65.327
555.36	63.949
555.69	62.784
556.03	62.384
556.37	62.989
556.71	63.682
557.05	64.579
557.39	62.751
557.73	63.043
558.07	63.725
558.41	64.701
558.75	65.627
559.08	64.224
559.42	64.683
559.76	64.131
560.10	63.991
560.44	62.993
560.78	62.448
561.12	63.399
561.45	63.598
561.79	63.095
562.13	62.030
562.47	62.374
562.81	62.320
563.15	62.694
563.48	63.296
563.82	62.800
564.16	62.465
564.50	59.257
564.84	59.036
565.17	59.624
565.51	62.978
565.85	62.140
566.19	62.069
566.52	62.332
566.86	60.411
567.20	59.714
567.54	59.672
567.88	59.461
568.21	59.955
568.55	58.315
568.89	57.290
569.23	57.631
569.56	55.342
569.90	56.232
570.24	52.996
570.57	53.818
570.91	53.712
571.25	52.220
571.59	51.355
571.92	50.815
572.26	51.087
572.60	51.752
572.93	51.428
573.27	51.473
573.61	50.418
573.95	50.573
574.28	49.974
574.62	49.555
574.96	49.215
575.29	49.293
575.63	48.899
575.97	48.848
576.30	49.536
576.64	49.695
576.98	50.219
577.31	49.767
577.65	49.404
577.98	48.119
578.32	47.946
578.66	46.980
578.99	48.783
579.33	48.763
579.67	48.448
580.00	49.013
580.34	48.930
580.67	48.343
581.01	49.232
581.35	47.933
581.68	47.097
582.02	46.981
582.35	46.908
582.69	47.818
583.02	47.468
583.36	48.616
583.70	49.714
584.03	49.569
584.37	50.791
584.70	48.901
585.04	47.902
585.37	47.445
585.71	47.865
586.04	47.705
586.38	47.346
586.72	48.465
587.05	48.296
587.39	48.420
587.72	49.016
588.06	48.768
588.39	47.707
588.73	48.107
589.06	49.576
589.40	48.704
589.73	50.675
590.07	50.227
590.40	50.077
590.73	50.824
591.07	50.975
591.40	50.668
591.74	49.819
592.07	50.649
592.41	50.265
592.74	49.144
593.08	47.258
593.41	47.315
593.75	46.909
594.08	47.614
594.41	47.926
594.75	48.397
595.08	48.354
595.42	48.141
595.75	49.380
596.09	49.179
596.42	50.186
596.75	49.334
597.09	50.023
597.42	49.006
597.75	50.298
598.09	48.483
598.42	48.466
598.76	47.619
599.09	47.196
599.42	46.609
599.76	46.539
600.09	46.229
600.42	45.906
600.76	46.062
601.09	47.214
601.42	46.259
601.76	47.956
602.09	47.277
602.42	49.073
602.76	46.986
603.09	47.757
603.42	47.993
603.76	47.177
604.09	46.497
604.42	47.124
604.76	48.109
605.09	48.080
605.42	47.765
605.75	47.154
606.09	46.454
606.42	47.373
606.75	46.970
607.09	46.681
607.42	45.503
607.75	46.714
608.08	46.361
608.42	46.460
608.75	48.289
609.08	48.381
609.41	47.513
609.75	47.429
610.08	47.129
610.41	46.667
610.74	47.294
611.07	48.424
611.41	47.950
611.74	47.814
612.07	47.216
612.40	48.195
612.73	48.588
613.07	46.963
613.40	47.484
613.73	48.909
614.06	47.635
614.39	47.829
614.72	47.899
615.06	47.151
615.39	46.507
615.72	45.210
616.05	47.598
616.38	45.983
616.71	48.257
617.05	47.746
617.38	49.026
617.71	48.868
618.04	48.889
618.37	48.172
618.70	47.921
619.03	49.653
619.36	49.204
619.69	50.417
620.03	50.986
620.36	49.142
620.69	49.108
621.02	50.229
621.35	51.701
621.68	52.126
622.01	51.833
622.34	50.040
622.67	50.394
623.00	49.541
623.33	48.628
623.66	48.915
623.99	48.563
624.32	50.570
624.65	48.421
624.99	49.360
625.32	47.384
625.65	49.568
625.98	51.088
626.31	50.291
626.64	51.906
626.97	51.396
627.30	50.701
627.63	50.347
627.96	51.932
628.29	51.989
628.62	52.802
628.95	51.904
629.28	52.722
629.61	51.645
629.94	52.199
630.26	52.372
630.59	52.862
630.92	53.538
631.25	51.692
631.58	54.515
631.91	52.961
632.24	54.243
632.57	54.432
632.90	55.160
633.23	53.294
633.56	54.282
633.89	53.514
634.22	54.815
634.55	55.654
634.88	54.789
635.20	55.000
635.53	55.200
635.86	55.917
636.19	54.981
636.52	54.082
636.85	53.102
637.18	53.711
637.51	54.340
637.83	54.139
638.16	56.207
638.49	53.406
638.82	56.711
639.15	54.545
639.48	55.158
639.81	54.812
640.13	56.854
640.46	55.248
640.79	55.081
641.12	53.471
641.45	58.108
641.77	56.593
642.10	55.766
642.43	54.662
642.76	58.581
643.09	55.250
643.41	55.340
643.74	58.155
644.07	56.322
644.40	56.926
644.73	58.844
645.05	55.705
645.38	57.319
645.71	54.433
646.04	57.451
646.36	57.270
646.69	59.712
647.02	58.790
647.35	57.463
647.67	55.759
648.00	58.209
648.33	54.949
648.66	54.407
648.98	53.936
649.31	51.901
649.64	51.334
649.96	52.512
650.29	54.174
650.62	55.556
650.94	57.407
651.27	53.073
651.60	55.676
651.92	55.245
652.25	53.108
652.58	51.000
652.90	55.746
653.23	54.286
653.56	51.946
653.88	52.234
654.21	50.963
654.54	54.329
654.86	53.650
655.19	50.731
655.52	45.124
655.84	33.918
656.17	36.047
656.49	48.346
656.82	51.124
657.15	39.908
657.47	30.313
657.80	22.964
658.13	23.162
658.45	35.787
658.78	36.716
659.10	37.542
659.43	38.011
659.75	40.602
660.08	41.724
660.41	44.535
660.73	47.376
661.06	52.166
661.38	54.207
661.71	52.361
662.03	57.511
662.36	54.066
662.68	54.425
663.01	55.895
663.33	56.613
663.66	53.023
663.98	54.884
664.31	51.386
664.63	56.912
664.96	51.739
665.28	54.084
665.61	54.329
665.93	56.087
666.26	54.881
666.58	53.244
666.91	59.529
667.23	56.604
667.56	57.820
667.88	52.998
668.21	57.757
668.53	59.102
668.86	54.717
669.18	53.774
669.50	53.269
669.83	53.256
670.15	54.545
670.48	57.416
670.80	53.456
671.13	48.770
671.45	49.772
671.77	51.288
672.10	49.505
672.42	46.629
672.75	47.425
673.07	49.016
673.39	49.174
673.72	47.535
674.04	50.417
674.37	50.847
674.69	49.036
675.01	52.889
675.34	53.604
675.66	50.463
675.98	50.333
676.31	52.752
676.63	51.781
676.95	47.727
677.28	52.000
677.60	51.566
677.92	51.835
678.25	50.328
678.57	46.970
678.89	46.639
679.22	50.559
679.54	45.582
679.86	46.322
680.18	47.961
680.51	46.591
680.83	46.521
681.15	46.800
681.48	48.361
681.80	48.554
682.12	49.194
682.44	47.908
682.77	48.565
683.09	48.970
683.41	48.636
683.73	51.382
684.06	50.885
684.38	45.376
684.70	47.930
685.02	44.606
685.34	44.071
685.67	43.340
685.99	45.027
686.31	43.009
686.63	42.672
686.96	42.966
687.28	44.444
687.60	44.106
687.92	47.273
688.24	47.177
688.56	45.852
688.89	48.437
689.21	47.333
689.53	47.100
689.85	45.814
690.17	44.196
690.49	43.972
690.82	48.544
691.14	48.095
691.46	47.196
691.78	44.144
692.10	43.871
692.42	45.238
692.74	44.872
693.06	43.919
693.39	45.701
693.71	44.344
694.03	43.880
694.35	43.224
694.67	46.970
694.99	46.214
695.31	47.781
695.63	46.500
695.95	44.949
696.27	43.005
696.59	51.111
696.91	48.179
697.23	40.874
697.56	44.554
697.88	44.301
698.20	43.280
698.52	40.941
698.84	39.234
699.16	42.000
699.48	45.865
699.80	44.665
700.12	47.709
700.44	46.779
700.76	45.930
701.08	47.879
701.40	47.289
701.72	49.074
702.04	50.495
702.36	50.502
702.68	44.745
703.00	48.788
703.32	47.507
703.64	42.938
703.96	42.609
704.28	43.865
704.60	46.984
704.91	43.218
705.23	45.847
705.55	54.064
705.87	47.653
706.19	47.407
706.51	49.485
706.83	47.267
707.15	41.745
707.47	42.297
707.79	38.802
708.11	45.250
708.43	40.000
708.74	41.860
709.06	41.690
709.38	43.731
709.70	45.562
710.02	44.586
710.34	45.201
710.66	39.423
710.98	43.709
711.29	42.951
711.61	44.407
711.93	47.557
712.25	49.485
712.57	43.223
712.89	42.537
713.20	40.830
713.52	44.948
713.84	44.369
714.16	42.612
714.48	44.839
714.80	45.192
715.11	39.818
715.43	37.304
715.75	37.667
716.07	42.525
716.39	43.960
716.70	41.328
717.02	42.366
717.34	46.154
717.66	46.903
717.97	39.130
718.29	46.025
718.61	44.094
718.93	43.798
719.24	40.684
719.56	40.562
719.88	40.206
720.20	45.076
720.51	39.847
720.83	42.857
721.15	44.118
721.46	41.532
721.78	45.059
722.10	40.520
722.42	39.004
722.73	44.082
723.05	46.531
723.37	44.068
723.68	49.099
724.00	41.880
724.32	45.778
724.63	46.364
724.95	36.681
725.27	47.005
725.58	42.373
725.90	42.857
726.22	44.015
726.53	39.322
726.85	39.700
727.16	42.264
727.48	35.223
727.80	41.700
728.11	45.763
728.43	42.353
728.74	38.306
729.06	44.000
729.38	40.602
729.69	36.255
730.01	39.615
730.32	42.910
730.64	40.989
730.96	35.849
731.27	38.333
731.59	39.322
731.90	34.395
732.22	40.694
732.53	39.867
732.85	41.135
733.16	37.374
733.48	33.094
733.80	36.594
734.11	40.678
734.43	39.863
734.74	34.848
735.06	36.482
735.37	37.764
735.69	42.088
736.00	38.676
736.32	35.235
736.63	34.859
736.95	37.201
737.26	38.078
737.58	36.913
737.89	35.897
738.21	36.466
738.52	40.329
738.83	40.175
739.15	40.175
739.46	38.583
739.78	33.333
740.09	32.353
740.41	37.319
740.72	32.677
741.04	39.676
741.35	34.043
741.66	39.810
741.98	42.857
742.29	37.129
742.61	41.361
742.92	35.545
743.23	34.259
743.55	38.462
743.86	39.713
744.18	41.627
744.49	35.638
744.80	38.587
745.12	45.989
745.43	39.512
745.74	39.583
746.06	42.439
746.37	39.267
746.68	37.915
747.00	44.149
747.31	44.776
747.62	45.146
747.94	36.842
748.25	33.663
748.56	37.705
748.88	48.168
749.19	39.894
749.50	47.783
749.82	39.151
750.13	35.780
750.44	39.098
750.75	39.552
751.07	43.066
751.38	33.716
751.69	33.725
752.01	37.209
752.32	32.669
752.63	30.435
752.94	30.603
753.26	46.025
753.57	35.747
753.88	33.186
754.19	38.750
754.51	38.843
754.82	34.818
755.13	39.583
755.44	37.903
755.75	42.187
756.07	34.630
756.38	36.226
756.69	32.184
757.00	32.000
757.31	31.046
757.63	32.012
757.94	30.556
758.25	30.137
758.56	29.787
758.87	29.178
759.18	31.153
759.50	33.091
759.81	37.124
760.12	34.516
760.43	30.000
760.74	30.247
761.05	31.077
761.36	29.545
761.67	30.303
761.99	31.973
762.30	31.273
762.61	33.597
762.92	35.747
763.23	31.982
763.54	30.374
763.85	36.441
764.16	30.705
764.47	32.258
764.78	27.839
765.10	32.660
765.41	30.284
765.72	27.619
766.03	27.068
766.34	29.197
766.65	36.653
766.96	36.364
767.27	37.234
767.58	37.931
767.89	34.752
768.20	36.932
768.51	34.615
768.82	32.512
769.13	27.189
769.44	29.185
769.75	26.941
770.06	32.759
770.37	37.019
770.68	32.995
770.99	33.032
771.30	34.804
771.61	27.149
771.92	33.621
772.23	35.468
772.54	35.484
772.85	38.272
773.16	37.640
773.47	37.908
773.78	32.026
774.09	38.922
774.39	38.667
774.70	35.669
775.01	36.552
775.32	35.714
775.63	25.620
775.94	40.458
776.25	33.071
776.56	30.000
776.87	31.731
777.18	38.462
777.48	31.897
777.79	22.609
778.10	29.524
778.41	29.730
778.72	35.714
779.03	39.098
779.34	41.844
779.65	41.781
779.95	34.247
780.26	38.621
780.57	39.024
780.88	37.008
781.19	29.310
781.50	35.659
781.80	27.219
782.11	28.302
782.42	26.154
782.73	28.777
783.04	34.074
783.34	33.333
783.65	29.060
783.96	27.049
784.27	36.552
784.57	34.959
784.88	27.344
785.19	46.000
785.50	53.000
785.81	29.310
786.11	31.897
786.42	40.777
786.73	39.091
787.04	30.612
787.34	31.250
787.65	20.952
787.96	30.973
788.26	27.273
788.57	31.624
788.88	36.719
789.19	34.127
789.49	34.783
789.80	26.531
790.11	31.313
790.41	29.091
790.72	38.043
791.03	36.364
791.33	46.250
791.64	37.500
791.95	32.558
792.25	34.043
792.56	37.079
792.87	31.507
793.17	37.681
793.48	22.667
793.79	22.500
794.09	48.750
794.40	25.472
794.70	28.155
795.01	26.016
795.32	31.624
795.62	20.952
795.93	35.294
796.23	32.075
796.54	32.292
796.85	38.235
797.15	23.944
797.46	30.556
797.76	54.545
798.07	33.721
798.37	23.684
798.68	30.303
798.99	16.049
799.29	27.143
799.60	44.928
799.90	30.667
800.21	40.984
800.51	27.692
800.82	27.119
801.12	42.029
801.43	31.148
801.73	26.984
802.04	22.000
802.34	22.388
802.65	34.615
802.95	8.929
803.26	11.538
803.56	47.059
803.87	21.739
804.17	18.667
804.48	38.095
804.78	24.074
805.09	43.478
805.39	4.444
805.70	25.926
806.00	26.316
806.30	21.127
806.61	42.857
806.91	23.611
807.22	31.579
807.52	41.333
807.83	14.545
808.13	20.833
808.43	32.353
808.74	26.866
809.04	28.814
809.35	23.077
809.65	28.125
809.95	13.514
810.26	34.091
810.56	27.397
810.86	4.762
811.17	26.000
811.47	18.367
811.77	18.421
812.08	36.364
812.38	32.075
812.69	27.500
812.99	3.030
813.29	42.105
813.59	0.000
813.90	11.364
814.20	7.692
814.50	13.462
814.81	26.415
815.11	17.021
815.41	40.678
815.72	9.524
816.02	37.255
816.32	37.500
816.62	17.073
816.93	-5.405
817.23	40.000
817.53	20.833
817.84	34.783
818.14	30.769
818.44	15.789
818.74	30.435
819.04	17.500
819.35	24.324
819.65	0.000
819.95	19.444
820.25	45.238
820.56	32.500
820.86	13.793
821.16	47.500
821.46	34.043
821.76	30.000
822.07	6.977
822.37	-5.405
822.67	34.375
822.97	19.048
823.27	39.286
823.57	8.000
823.88	-48.148
824.18	42.857
824.48	-2.941
824.78	54.839
825.08	17.391
825.38	6.061
825.69	4.167
825.99	55.263
826.29	30.556
826.59	0.000
826.89	4.762
827.19	30.435
827.49	30.000
827.79	22.857
828.09	3.571
828.39	87.879
828.70	70.270
829.00	-17.857
829.30	28.571
829.60	6.667
829.90	28.125
830.20	5.263
830.50	-7.407
830.80	4.348
831.10	13.636
831.40	72.727
831.70	32.258
832.00	90.476
832.30	-9.524
832.60	-33.333
832.90	27.586
833.20	0.000
833.50	15.152
833.80	51.852
834.10	3.846
834.40	28.125
834.70	22.222
835.00	52.632
835.30	76.923
835.60	20.000
835.90	25.806
836.20	13.636
836.50	35.714
836.80	26.923
837.10	10.714
837.40	-366.667
837.70	45.455
838.00	0.000
838.30	60.870
838.60	15.385
838.90	50.000
839.19	0.000
839.49	33.333
839.79	46.154
840.09	-66.667
840.39	78.571
840.69	32.143
840.99	-3.846
841.29	-31.579
841.59	-50.000
841.88	-9.091
842.18	90.000
842.48	-6.250
842.78	-13.333
843.08	29.630
843.38	-100.000
843.68	30.435
843.97	-40.000
844.27	0.000
844.57	15.000
844.87	33.333
845.17	0.000
845.47	80.000
845.76	42.857
846.06	58.824
846.36	110.000
846.66	7.143
846.96	46.667
847.25	-137.500
847.55	64.286
847.85	25.000
848.15	4.545
848.44	-400.000
848.74	5.000
849.04	29.630
849.34	0.000
849.63	-50.000
849.93	-200.000
850.23	5.556
850.53	60.000
850.82	53.846
851.12	0.000
851.42	46.667
851.71	11.538
852.01	-7.143
852.31	0.000
852.61	-72.727
852.90	20.000
853.20	21.053
853.50	-41.667
853.79	21.739
854.09	16.667
854.39	-5.263
854.68	8.333
854.98	41.935
855.28	30.769
855.57	15.000
855.87	44.444
856.17	44.444
856.46	-21.429
856.76	6.667
857.05	44.444
857.35	36.000
857.65	5.556
857.94	7.692
858.24	37.931
858.53	83.333
858.83	40.741
859.13	50.000
859.42	-13.043
859.72	-150.000
860.01	-233.333
860.31	28.000
860.60	19.048
860.90	-133.333
861.20	-66.667
861.49	-500.000
861.79	-20.000
862.08	0.000
862.38	100.000
862.67	-220.000
862.97	-166.667
863.26	33.333
863.56	50.000
863.85	-633.333
864.15	-16.667
864.44	-90.000
864.74	71.429
865.03	100.000
865.33	0.000
865.62	100.000
865.92	-41.667
866.21	-150.000
866.51	75.000
866.80	-9.091
867.10	-200.000
867.39	41.667
867.69	0.000
867.98	0.000
868.27	-100.000
868.57	-20.000
868.86	27.778
869.16	-61.538
869.45	26.667
869.75	-500.000
870.04	0.000
870.33	0.000
870.63	38.095
870.92	166.667
871.22	-80.000
871.51	-600.000
871.80	44.444
872.10	666.667
>>>>>End Processed Spectral Data<<<<<
