SpectraSuite Data File
++++++++++++++++++++++++++++++++++++
Date: Fri May 15 20:55:17 PDT 2015
User: schluterlab
Dark Spectrum Present: Yes
Reference Spectrum Present: Yes
Number of Sampled Component Spectra: 1
Spectrometers: USB2E3373
Integration Time (usec): 3000 (USB2E3373)
Spectra Averaged: 3 (USB2E3373)
Boxcar Smoothing: 0 (USB2E3373)
Correct for Electrical Dark: No (USB2E3373)
Strobe/Lamp Enabled: No (USB2E3373)
Correct for Detector Non-linearity: No (USB2E3373)
Correct for Stray Light: No (USB2E3373)
Number of Pixels in Processed Spectrum: 2048
>>>>>Begin Processed Spectral Data<<<<<
178.53	0.000
178.91	0.000
179.29	50.000
179.67	-100.000
180.04	57.143
180.42	25.000
180.80	700.000
181.18	-100.000
181.56	600.000
181.94	-50.000
182.31	100.000
182.69	60.000
183.07	-266.667
183.45	-240.000
183.83	133.333
184.20	9.091
184.58	88.889
184.96	-150.000
185.34	166.667
185.72	-350.000
186.09	123.077
186.47	-900.000
186.85	83.333
187.23	111.111
187.61	-500.000
187.98	-166.667
188.36	44.444
188.74	-266.667
189.12	35.294
189.49	0.000
189.87	0.000
190.25	21.429
190.63	-100.000
191.00	-266.667
191.38	0.000
191.76	500.000
192.14	-150.000
192.51	500.000
192.89	-66.667
193.27	-171.429
193.65	133.333
194.02	154.545
194.40	90.000
194.78	-87.500
195.15	25.000
195.53	-12.500
195.91	50.000
196.29	25.000
196.66	61.538
197.04	128.571
197.42	-66.667
197.79	-666.667
198.17	-53.846
198.55	800.000
198.92	-366.667
199.30	700.000
199.68	60.000
200.05	0.000
200.43	0.000
200.81	-100.000
201.18	-133.333
201.56	-400.000
201.94	150.000
202.31	-100.000
202.69	-180.000
203.07	200.000
203.44	400.000
203.82	0.000
204.19	35.714
204.57	-533.333
204.95	12.500
205.32	10.000
205.70	0.000
206.08	-50.000
206.45	144.444
206.83	57.143
207.20	-85.714
207.58	300.000
207.96	-433.333
208.33	-50.000
208.71	-100.000
209.08	-50.000
209.46	-600.000
209.84	0.000
210.21	-500.000
210.59	0.000
210.96	0.000
211.34	100.000
211.71	40.000
212.09	-28.571
212.46	-2000.000
212.84	0.000
213.22	30.000
213.59	650.000
213.97	7.692
214.34	72.727
214.72	50.000
215.09	475.000
215.47	30.769
215.84	-18.182
216.22	-233.333
216.59	-50.000
216.97	400.000
217.34	-200.000
217.72	-300.000
218.09	0.000
218.47	150.000
218.84	-500.000
219.22	-55.556
219.59	0.000
219.97	133.333
220.34	175.000
220.72	-71.429
221.09	50.000
221.47	150.000
221.84	-300.000
222.22	-750.000
222.59	45.455
222.97	-16.667
223.34	-200.000
223.72	7.143
224.09	9.524
224.46	0.000
224.84	400.000
225.21	-40.000
225.59	46.667
225.96	350.000
226.34	200.000
226.71	-57.143
227.08	50.000
227.46	-75.000
227.83	-200.000
228.21	11.111
228.58	72.727
228.95	62.500
229.33	60.000
229.70	25.000
230.08	-50.000
230.45	14.286
230.82	57.143
231.20	106.667
231.57	57.143
231.95	42.857
232.32	-60.000
232.69	0.000
233.07	-133.333
233.44	-100.000
233.81	-110.000
234.19	133.333
234.56	-41.176
234.93	-100.000
235.31	-100.000
235.68	-140.000
236.05	-53.846
236.43	10.000
236.80	5.882
237.17	34.375
237.55	15.000
237.92	22.222
238.29	5.556
238.67	53.333
239.04	20.588
239.41	-2.439
239.79	36.667
240.16	51.220
240.53	21.053
240.91	15.217
241.28	42.857
241.65	28.571
242.02	36.986
242.40	25.000
242.77	27.119
243.14	36.364
243.51	27.500
243.89	57.471
244.26	27.586
244.63	36.905
245.00	25.773
245.38	37.113
245.75	37.079
246.12	25.000
246.49	31.405
246.87	35.577
247.24	31.092
247.61	21.930
247.98	30.081
248.36	27.500
248.73	39.474
249.10	35.065
249.47	40.506
249.84	37.908
250.22	29.412
250.59	33.333
250.96	40.845
251.33	33.721
251.70	37.647
252.08	34.010
252.45	36.634
252.82	39.196
253.19	39.631
253.56	37.383
253.94	38.288
254.31	35.652
254.68	39.474
255.05	36.614
255.42	38.865
255.79	40.541
256.16	42.023
256.54	37.687
256.91	34.981
257.28	36.431
257.65	37.453
258.02	36.170
258.39	36.027
258.76	36.996
259.14	35.216
259.51	42.071
259.88	38.832
260.25	35.621
260.62	37.847
260.99	35.254
261.36	40.068
261.73	36.392
262.10	37.690
262.47	36.196
262.85	33.542
263.22	34.462
263.59	36.449
263.96	41.615
264.33	37.576
264.70	34.821
265.07	36.607
265.44	38.810
265.81	35.311
266.18	40.437
266.55	37.532
266.92	38.083
267.29	40.731
267.66	38.363
268.03	40.314
268.40	34.726
268.77	43.583
269.14	37.650
269.51	36.761
269.88	34.414
270.25	34.949
270.62	37.561
270.99	32.737
271.36	37.408
271.73	36.385
272.10	37.956
272.47	37.589
272.84	36.881
273.21	39.675
273.58	36.867
273.95	35.240
274.32	36.259
274.69	34.163
275.06	39.955
275.43	36.281
275.80	34.658
276.17	36.092
276.54	35.974
276.91	35.307
277.28	37.555
277.65	35.950
278.02	35.745
278.39	36.761
278.76	35.010
279.13	34.440
279.50	38.025
279.87	36.285
280.23	33.763
280.60	36.842
280.97	36.970
281.34	34.615
281.71	37.166
282.08	34.151
282.45	33.855
282.82	34.170
283.19	34.623
283.56	34.489
283.92	35.104
284.29	33.846
284.66	34.496
285.03	35.953
285.40	32.514
285.77	33.216
286.14	36.101
286.51	35.793
286.87	32.724
287.24	32.781
287.61	32.981
287.98	35.789
288.35	34.662
288.72	33.975
289.08	32.812
289.45	33.040
289.82	31.469
290.19	32.253
290.56	30.532
290.93	31.481
291.29	28.351
291.66	29.921
292.03	29.506
292.40	31.129
292.77	31.579
293.13	29.058
293.50	27.314
293.87	28.244
294.24	29.212
294.60	27.571
294.97	30.060
295.34	28.528
295.71	27.869
296.08	27.354
296.44	26.031
296.81	26.250
297.18	26.522
297.55	27.507
297.91	27.671
298.28	27.441
298.65	27.273
299.02	25.472
299.38	25.034
299.75	24.966
300.12	25.785
300.48	26.350
300.85	25.982
301.22	25.584
301.59	24.342
301.95	25.949
302.32	27.108
302.69	25.249
303.05	24.876
303.42	23.910
303.79	23.832
304.15	25.329
304.52	24.495
304.89	24.678
305.25	23.971
305.62	24.504
305.99	24.327
306.35	22.659
306.72	24.972
307.09	24.287
307.45	24.569
307.82	23.611
308.19	24.623
308.55	23.991
308.92	24.510
309.29	24.134
309.65	23.358
310.02	24.312
310.38	25.027
310.75	23.169
311.12	24.650
311.48	23.966
311.85	23.246
312.22	23.523
312.58	24.735
312.95	22.839
313.31	25.155
313.68	23.455
314.05	24.490
314.41	24.742
314.78	25.876
315.14	26.619
315.51	25.259
315.87	25.717
316.24	26.491
316.61	26.181
316.97	27.679
317.34	25.879
317.70	26.195
318.07	26.827
318.43	29.608
318.80	28.598
319.16	29.395
319.53	30.674
319.89	27.756
320.26	30.466
320.62	30.792
320.99	30.480
321.35	30.935
321.72	33.853
322.08	32.528
322.45	34.213
322.81	34.676
323.18	34.446
323.54	35.039
323.91	37.877
324.27	36.719
324.64	38.202
325.00	39.325
325.37	41.322
325.73	39.982
326.10	42.507
326.46	41.883
326.83	42.782
327.19	44.551
327.56	45.004
327.92	45.863
328.29	44.554
328.65	47.925
329.01	46.415
329.38	47.558
329.74	48.347
330.11	48.656
330.47	48.145
330.84	49.808
331.20	50.475
331.56	50.278
331.93	52.420
332.29	52.887
332.66	50.226
333.02	52.230
333.38	51.146
333.75	53.663
334.11	52.820
334.48	54.578
334.84	53.846
335.20	53.522
335.57	53.762
335.93	54.291
336.29	57.182
336.66	54.314
337.02	56.134
337.38	56.296
337.75	55.727
338.11	56.177
338.47	57.117
338.84	56.377
339.20	57.221
339.56	57.156
339.93	57.923
340.29	57.982
340.65	57.437
341.02	57.447
341.38	57.168
341.74	57.951
342.11	56.846
342.47	57.740
342.83	57.526
343.20	59.146
343.56	58.783
343.92	58.990
344.28	59.095
344.65	57.254
345.01	58.600
345.37	58.621
345.73	59.163
346.10	59.275
346.46	59.630
346.82	59.165
347.19	57.523
347.55	60.485
347.91	60.437
348.27	58.367
348.63	60.818
349.00	60.705
349.36	60.765
349.72	61.194
350.08	60.492
350.45	61.133
350.81	60.382
351.17	60.831
351.53	61.878
351.89	59.703
352.26	60.720
352.62	62.097
352.98	59.759
353.34	60.950
353.70	62.217
354.07	61.855
354.43	61.009
354.79	61.354
355.15	62.302
355.51	61.709
355.87	61.650
356.24	62.806
356.60	62.571
356.96	63.175
357.32	62.380
357.68	61.298
358.04	63.328
358.40	63.023
358.77	64.434
359.13	63.251
359.49	61.171
359.85	63.027
360.21	65.152
360.57	62.357
360.93	62.632
361.29	62.915
361.66	62.147
362.02	64.470
362.38	64.433
362.74	64.648
363.10	64.936
363.46	64.492
363.82	64.763
364.18	61.919
364.54	63.529
364.90	63.656
365.26	64.993
365.62	64.745
365.98	65.982
366.35	64.530
366.71	67.627
367.07	65.312
367.43	65.061
367.79	64.735
368.15	65.111
368.51	66.278
368.87	65.901
369.23	64.188
369.59	67.274
369.95	65.103
370.31	66.185
370.67	65.075
371.03	66.169
371.39	66.375
371.75	66.520
372.11	64.907
372.47	67.234
372.83	66.501
373.19	65.050
373.55	65.776
373.91	66.667
374.27	67.541
374.63	67.696
374.99	66.525
375.35	66.852
375.71	68.182
376.07	67.907
376.42	68.027
376.78	67.450
377.14	66.012
377.50	68.061
377.86	67.403
378.22	68.347
378.58	68.333
378.94	68.620
379.30	67.561
379.66	69.154
380.02	67.872
380.38	67.377
380.74	68.402
381.09	69.325
381.45	68.746
381.81	68.476
382.17	67.830
382.53	68.207
382.89	68.613
383.25	69.633
383.61	70.122
383.97	68.635
384.32	68.480
384.68	69.288
385.04	68.076
385.40	68.451
385.76	70.629
386.12	69.987
386.48	70.179
386.83	68.992
387.19	69.414
387.55	71.330
387.91	69.743
388.27	69.475
388.62	70.233
388.98	68.324
389.34	70.019
389.70	70.727
390.06	68.156
390.42	67.681
390.77	70.307
391.13	69.798
391.49	71.604
391.85	71.345
392.20	69.429
392.56	70.566
392.92	69.348
393.28	69.693
393.64	69.670
393.99	70.784
394.35	70.525
394.71	69.923
395.07	69.516
395.42	69.095
395.78	69.967
396.14	69.546
396.50	71.084
396.85	68.770
397.21	69.612
397.57	70.658
397.92	68.963
398.28	70.057
398.64	68.253
399.00	70.767
399.35	69.244
399.71	68.122
400.07	69.952
400.42	67.687
400.78	69.994
401.14	70.296
401.49	69.089
401.85	69.775
402.21	69.337
402.57	69.688
402.92	67.817
403.28	69.925
403.63	70.050
403.99	68.431
404.35	70.144
404.70	66.786
405.06	68.919
405.42	68.241
405.77	68.332
406.13	68.277
406.49	66.252
406.84	69.682
407.20	67.730
407.55	67.354
407.91	67.179
408.27	68.834
408.62	67.077
408.98	67.468
409.34	67.348
409.69	67.636
410.05	66.379
410.40	67.469
410.76	66.586
411.11	66.562
411.47	68.836
411.83	66.918
412.18	67.761
412.54	65.169
412.89	64.778
413.25	66.847
413.60	65.963
413.96	64.233
414.31	66.707
414.67	66.581
415.03	64.980
415.38	65.535
415.74	66.189
416.09	66.688
416.45	65.969
416.80	64.772
417.16	67.403
417.51	66.556
417.87	65.385
418.22	66.904
418.58	66.957
418.93	67.210
419.29	63.956
419.64	67.401
420.00	67.317
420.35	65.731
420.71	66.221
421.06	64.088
421.42	65.264
421.77	66.301
422.12	64.926
422.48	65.620
422.83	65.255
423.19	65.463
423.54	64.315
423.90	64.252
424.25	64.868
424.61	65.789
424.96	64.170
425.31	66.493
425.67	65.728
426.02	65.665
426.38	66.875
426.73	67.070
427.09	65.190
427.44	65.000
427.79	65.586
428.15	64.078
428.50	65.960
428.85	64.005
429.21	64.233
429.56	66.146
429.92	63.688
430.27	63.358
430.62	65.238
430.98	64.437
431.33	64.353
431.68	64.417
432.04	64.841
432.39	62.864
432.74	63.740
433.10	64.425
433.45	65.173
433.80	65.351
434.16	64.543
434.51	63.978
434.86	64.925
435.22	64.498
435.57	65.502
435.92	64.970
436.28	62.016
436.63	64.176
436.98	62.804
437.34	62.976
437.69	64.997
438.04	64.160
438.39	63.592
438.75	64.906
439.10	64.177
439.45	64.516
439.81	63.731
440.16	64.727
440.51	63.701
440.86	64.592
441.22	61.482
441.57	63.300
441.92	63.956
442.27	64.302
442.63	63.383
442.98	64.503
443.33	62.771
443.68	62.706
444.03	62.494
444.39	63.158
444.74	63.322
445.09	63.641
445.44	63.590
445.79	63.589
446.15	62.720
446.50	62.119
446.85	62.540
447.20	62.565
447.55	61.886
447.91	61.703
448.26	61.525
448.61	62.061
448.96	63.683
449.31	61.908
449.66	61.324
450.02	61.552
450.37	63.130
450.72	61.913
451.07	60.886
451.42	60.237
451.77	61.965
452.12	59.270
452.47	60.850
452.83	60.306
453.18	61.860
453.53	61.694
453.88	61.384
454.23	60.787
454.58	61.272
454.93	60.245
455.28	58.921
455.63	60.198
455.98	61.395
456.34	60.983
456.69	60.546
457.04	61.500
457.39	60.024
457.74	60.399
458.09	59.447
458.44	60.035
458.79	59.048
459.14	59.325
459.49	59.582
459.84	59.955
460.19	59.163
460.54	58.985
460.89	60.398
461.24	59.006
461.59	58.492
461.94	57.736
462.29	59.047
462.64	59.867
462.99	57.549
463.34	57.371
463.69	56.821
464.04	57.567
464.39	57.732
464.74	57.485
465.09	57.829
465.44	57.242
465.79	56.463
466.14	57.127
466.49	56.239
466.84	57.823
467.19	58.511
467.54	56.513
467.89	56.917
468.24	55.961
468.59	57.143
468.94	56.063
469.29	57.180
469.64	56.664
469.99	56.903
470.34	55.700
470.68	57.271
471.03	56.971
471.38	55.278
471.73	55.602
472.08	54.953
472.43	55.235
472.78	53.873
473.13	54.626
473.48	54.853
473.83	54.421
474.17	55.570
474.52	54.627
474.87	55.030
475.22	54.057
475.57	54.376
475.92	54.964
476.27	53.085
476.61	53.993
476.96	53.374
477.31	54.029
477.66	53.483
478.01	54.576
478.36	52.397
478.70	54.105
479.05	53.297
479.40	52.888
479.75	53.180
480.10	52.483
480.45	52.150
480.79	54.129
481.14	54.150
481.49	52.315
481.84	53.571
482.19	52.713
482.53	53.046
482.88	52.124
483.23	52.399
483.58	52.123
483.92	51.549
484.27	51.504
484.62	50.784
484.97	51.493
485.31	51.373
485.66	50.779
486.01	51.110
486.36	51.210
486.70	52.306
487.05	52.580
487.40	51.887
487.75	51.408
488.09	50.340
488.44	51.857
488.79	51.139
489.13	51.202
489.48	50.620
489.83	50.000
490.17	50.562
490.52	50.808
490.87	49.098
491.22	50.382
491.56	50.095
491.91	49.426
492.26	50.948
492.60	49.376
492.95	50.320
493.30	48.657
493.64	49.509
493.99	48.744
494.34	49.029
494.68	49.667
495.03	48.613
495.37	49.362
495.72	48.915
496.07	49.366
496.41	49.764
496.76	49.424
497.11	48.207
497.45	48.067
497.80	49.697
498.14	47.044
498.49	48.654
498.84	47.455
499.18	48.896
499.53	48.413
499.87	47.325
500.22	47.428
500.56	49.117
500.91	47.440
501.26	47.405
501.60	48.205
501.95	47.259
502.29	46.392
502.64	47.539
502.98	47.065
503.33	47.070
503.67	46.410
504.02	47.067
504.36	47.155
504.71	46.313
505.06	46.502
505.40	47.157
505.75	47.320
506.09	47.288
506.44	46.971
506.78	46.888
507.13	46.484
507.47	45.535
507.82	46.421
508.16	45.378
508.51	46.170
508.85	46.520
509.19	45.503
509.54	46.488
509.88	46.926
510.23	46.369
510.57	45.484
510.92	45.522
511.26	44.954
511.61	45.325
511.95	45.699
512.30	46.175
512.64	45.242
512.98	45.592
513.33	45.439
513.67	44.230
514.02	45.538
514.36	45.943
514.70	45.921
515.05	45.946
515.39	44.569
515.74	47.066
516.08	45.188
516.42	45.406
516.77	45.348
517.11	46.113
517.46	45.003
517.80	45.292
518.14	44.948
518.49	44.772
518.83	44.289
519.17	43.966
519.52	44.050
519.86	44.238
520.20	44.168
520.55	43.089
520.89	44.417
521.23	44.965
521.58	44.606
521.92	44.551
522.26	43.591
522.61	44.286
522.95	44.702
523.29	44.917
523.64	44.346
523.98	43.681
524.32	42.848
524.66	44.110
525.01	44.416
525.35	43.811
525.69	43.569
526.04	43.254
526.38	44.488
526.72	42.773
527.06	42.737
527.41	43.536
527.75	42.761
528.09	43.256
528.43	45.577
528.78	44.422
529.12	43.161
529.46	41.975
529.80	41.609
530.15	44.158
530.49	43.906
530.83	43.160
531.17	42.713
531.51	43.912
531.86	42.420
532.20	41.893
532.54	44.044
532.88	43.053
533.22	42.473
533.57	42.857
533.91	42.167
534.25	42.643
534.59	42.142
534.93	42.228
535.27	42.195
535.62	43.033
535.96	41.879
536.30	41.953
536.64	42.729
536.98	42.648
537.32	43.314
537.66	42.496
538.01	43.007
538.35	41.678
538.69	41.944
539.03	41.490
539.37	42.732
539.71	41.036
540.05	41.887
540.39	41.482
540.73	41.074
541.07	41.506
541.42	40.726
541.76	42.464
542.10	41.294
542.44	40.653
542.78	40.055
543.12	41.415
543.46	41.099
543.80	41.291
544.14	40.053
544.48	41.372
544.82	41.148
545.16	42.008
545.50	40.454
545.84	41.997
546.18	41.348
546.52	41.024
546.86	40.618
547.20	40.916
547.54	39.293
547.88	40.557
548.22	40.894
548.56	40.765
548.90	40.027
549.24	40.565
549.58	39.845
549.92	39.457
550.26	40.073
550.60	40.297
550.94	40.105
551.28	39.413
551.62	41.846
551.96	40.000
552.30	39.474
552.64	38.999
552.98	39.733
553.32	40.086
553.66	38.897
554.00	40.730
554.34	40.399
554.68	38.791
555.02	40.551
555.36	39.342
555.69	39.341
556.03	39.186
556.37	40.214
556.71	39.639
557.05	38.553
557.39	38.364
557.73	39.055
558.07	40.121
558.41	39.051
558.75	40.062
559.08	39.638
559.42	39.524
559.76	40.913
560.10	38.914
560.44	38.943
560.78	38.741
561.12	38.787
561.45	39.424
561.79	39.006
562.13	39.106
562.47	39.353
562.81	39.337
563.15	38.999
563.48	38.048
563.82	39.327
564.16	38.928
564.50	38.919
564.84	38.822
565.17	39.370
565.51	39.139
565.85	39.026
566.19	39.191
566.52	40.147
566.86	40.360
567.20	38.232
567.54	40.389
567.88	39.602
568.21	39.310
568.55	39.457
568.89	39.117
569.23	39.817
569.56	39.142
569.90	40.398
570.24	39.263
570.57	40.218
570.91	39.735
571.25	39.132
571.59	38.960
571.92	37.778
572.26	38.647
572.60	38.667
572.93	38.971
573.27	38.213
573.61	38.484
573.95	39.050
574.28	38.877
574.62	37.757
574.96	37.896
575.29	38.314
575.63	37.963
575.97	37.951
576.30	37.588
576.64	37.589
576.98	38.172
577.31	39.543
577.65	38.830
577.98	38.356
578.32	37.873
578.66	38.212
578.99	37.646
579.33	37.572
579.67	37.850
580.00	38.203
580.34	38.060
580.67	37.957
581.01	38.425
581.35	37.855
581.68	38.024
582.02	37.677
582.35	37.883
582.69	37.885
583.02	38.539
583.36	38.633
583.70	38.266
584.03	38.838
584.37	38.820
584.70	38.324
585.04	36.606
585.37	37.371
585.71	37.596
586.04	37.090
586.38	37.290
586.72	37.791
587.05	37.637
587.39	38.077
587.72	38.518
588.06	38.029
588.39	38.251
588.73	38.278
589.06	38.421
589.40	37.643
589.73	38.335
590.07	37.538
590.40	37.190
590.73	38.839
591.07	37.277
591.40	38.335
591.74	37.149
592.07	38.219
592.41	37.765
592.74	37.196
593.08	36.570
593.41	36.969
593.75	36.605
594.08	36.011
594.41	37.300
594.75	36.450
595.08	36.928
595.42	37.063
595.75	37.326
596.09	36.826
596.42	36.461
596.75	37.078
597.09	36.219
597.42	36.585
597.75	36.967
598.09	36.351
598.42	36.191
598.76	35.950
599.09	35.817
599.42	35.430
599.76	35.779
600.09	35.294
600.42	36.240
600.76	35.364
601.09	36.031
601.42	35.448
601.76	35.848
602.09	36.386
602.42	36.563
602.76	36.587
603.09	35.839
603.42	37.249
603.76	37.056
604.09	35.034
604.42	35.745
604.76	36.093
605.09	36.106
605.42	35.801
605.75	35.946
606.09	35.074
606.42	35.613
606.75	36.104
607.09	35.780
607.42	34.781
607.75	35.258
608.08	35.220
608.42	34.902
608.75	37.108
609.08	35.476
609.41	35.381
609.75	35.635
610.08	35.846
610.41	34.396
610.74	35.007
611.07	35.297
611.41	36.015
611.74	35.981
612.07	34.636
612.40	35.120
612.73	35.593
613.07	34.983
613.40	35.777
613.73	34.807
614.06	35.392
614.39	35.928
614.72	35.350
615.06	34.693
615.39	34.607
615.72	35.199
616.05	35.419
616.38	34.530
616.71	35.352
617.05	35.578
617.38	35.135
617.71	35.409
618.04	36.381
618.37	35.246
618.70	35.446
619.03	35.208
619.36	34.660
619.69	34.875
620.03	34.989
620.36	34.979
620.69	34.618
621.02	34.786
621.35	35.768
621.68	35.204
622.01	33.500
622.34	34.318
622.67	33.833
623.00	34.150
623.33	34.909
623.66	32.835
623.99	34.342
624.32	35.361
624.65	33.985
624.99	34.537
625.32	33.662
625.65	35.821
625.98	34.085
626.31	33.250
626.64	34.575
626.97	34.031
627.30	34.764
627.63	33.622
627.96	34.681
628.29	34.690
628.62	34.612
628.95	33.367
629.28	34.677
629.61	33.500
629.94	33.822
630.26	32.609
630.59	33.715
630.92	34.769
631.25	32.513
631.58	33.480
631.91	34.211
632.24	34.060
632.57	33.068
632.90	32.740
633.23	33.412
633.56	32.368
633.89	32.922
634.22	34.444
634.55	33.291
634.88	34.100
635.20	32.564
635.53	33.067
635.86	32.770
636.19	35.188
636.52	32.143
636.85	32.754
637.18	32.453
637.51	32.830
637.83	32.194
638.16	33.288
638.49	32.153
638.82	32.763
639.15	32.022
639.48	33.012
639.81	32.357
640.13	32.179
640.46	32.362
640.79	32.548
641.12	33.087
641.45	32.432
641.77	31.704
642.10	32.385
642.43	31.672
642.76	31.848
643.09	32.956
643.41	33.495
643.74	30.478
644.07	32.512
644.40	31.081
644.73	30.298
645.05	32.886
645.38	32.099
645.71	31.915
646.04	33.214
646.36	33.865
646.69	33.273
647.02	33.270
647.35	30.784
647.67	32.541
648.00	32.090
648.33	34.130
648.66	31.864
648.98	30.653
649.31	31.405
649.64	29.356
649.96	29.173
650.29	31.346
650.62	31.111
650.94	32.593
651.27	30.912
651.60	32.252
651.92	31.119
652.25	31.439
652.58	33.333
652.90	32.247
653.23	31.765
653.56	30.626
653.88	31.615
654.21	29.772
654.54	30.730
654.86	32.258
655.19	30.556
655.52	32.972
655.84	33.457
656.17	36.890
656.49	50.358
656.82	52.215
657.15	40.112
657.47	30.125
657.80	22.265
658.13	21.831
658.45	33.897
658.78	33.279
659.10	33.305
659.43	32.803
659.75	32.412
660.08	31.793
660.41	31.359
660.73	31.077
661.06	30.156
661.38	31.898
661.71	28.337
662.03	31.974
662.36	28.132
662.68	29.867
663.01	31.878
663.33	29.698
663.66	29.070
663.98	27.442
664.31	30.064
664.63	30.876
664.96	31.522
665.28	28.035
665.61	28.788
665.93	31.522
666.26	31.020
666.58	27.964
666.91	27.529
667.23	29.009
667.56	32.464
667.88	29.257
668.21	30.549
668.53	31.442
668.86	32.075
669.18	29.717
669.50	27.845
669.83	27.907
670.15	30.303
670.48	27.990
670.80	27.650
671.13	27.293
671.45	26.941
671.77	29.399
672.10	30.099
672.42	30.150
672.75	32.149
673.07	31.843
673.39	33.028
673.72	27.811
674.04	28.542
674.37	30.720
674.69	29.764
675.01	28.222
675.34	24.775
675.66	30.556
675.98	28.381
676.31	29.817
676.63	31.354
676.95	27.955
677.28	28.000
677.60	32.289
677.92	29.587
678.25	29.978
678.57	30.736
678.89	29.412
679.22	30.425
679.54	27.510
679.86	29.225
680.18	28.932
680.51	31.818
680.83	26.839
681.15	30.000
681.48	32.992
681.80	31.198
682.12	29.637
682.44	30.753
682.77	30.464
683.09	28.375
683.41	25.455
683.73	30.645
684.06	26.770
684.38	27.527
684.70	28.322
685.02	29.253
685.34	28.656
685.67	30.019
685.99	28.391
686.31	30.265
686.63	27.829
686.96	26.996
687.28	27.273
687.60	28.137
687.92	30.707
688.24	28.226
688.56	29.694
688.89	27.455
689.21	28.444
689.53	27.610
689.85	27.209
690.17	29.911
690.49	26.714
690.82	27.670
691.14	27.143
691.46	29.206
691.78	28.378
692.10	30.323
692.42	27.489
692.74	30.128
693.06	29.279
693.39	25.792
693.71	29.864
694.03	26.559
694.35	27.336
694.67	27.273
694.99	24.282
695.31	30.026
695.63	25.750
695.95	25.505
696.27	24.611
696.59	29.722
696.91	30.252
697.23	27.506
697.56	27.970
697.88	30.323
698.20	26.651
698.52	26.824
698.84	26.555
699.16	26.000
699.48	29.825
699.80	26.799
700.12	24.798
700.44	27.451
700.76	23.837
701.08	26.970
701.40	24.398
701.72	29.938
702.04	29.043
702.36	33.445
702.68	28.829
703.00	30.909
703.32	27.273
703.64	25.706
703.96	24.638
704.28	28.221
704.60	28.254
704.91	24.921
705.23	26.246
705.55	32.862
705.87	28.881
706.19	27.037
706.51	24.055
706.83	29.904
707.15	24.299
707.47	31.653
707.79	28.125
708.11	27.250
708.43	29.000
708.74	26.098
709.06	27.324
709.38	31.804
709.70	26.627
710.02	23.567
710.34	27.245
710.66	24.679
710.98	24.834
711.29	28.525
711.61	25.085
711.93	29.967
712.25	31.271
712.57	26.374
712.89	22.015
713.20	31.142
713.52	26.481
713.84	31.741
714.16	26.460
714.48	29.032
714.80	28.846
715.11	26.140
715.43	25.078
715.75	26.667
716.07	27.907
716.39	26.510
716.70	26.199
717.02	21.374
717.34	25.506
717.66	21.681
717.97	28.261
718.29	27.197
718.61	25.984
718.93	25.581
719.24	24.715
719.56	25.703
719.88	26.117
720.20	28.409
720.51	25.670
720.83	26.255
721.15	28.151
721.46	29.032
721.78	28.458
722.10	27.138
722.42	24.481
722.73	26.122
723.05	25.714
723.37	27.966
723.68	27.477
724.00	26.068
724.32	25.333
724.63	25.000
724.95	33.188
725.27	27.189
725.58	30.932
725.90	22.619
726.22	24.710
726.53	25.424
726.85	27.715
727.16	27.925
727.48	24.291
727.80	24.291
728.11	25.847
728.43	22.353
728.74	19.355
729.06	26.000
729.38	30.451
729.69	25.896
730.01	25.769
730.32	28.358
730.64	27.562
730.96	28.302
731.27	22.000
731.59	27.797
731.90	27.389
732.22	28.391
732.53	28.239
732.85	29.787
733.16	30.640
733.48	23.381
733.80	26.449
734.11	23.729
734.43	29.553
734.74	28.485
735.06	22.476
735.37	29.909
735.69	27.946
736.00	21.951
736.32	24.497
736.63	28.873
736.95	27.304
737.26	27.046
737.58	25.168
737.89	27.473
738.21	19.925
738.52	26.749
738.83	23.581
739.15	23.144
739.46	29.134
739.78	26.007
740.09	23.529
740.41	24.638
740.72	22.835
741.04	29.150
741.35	21.702
741.66	22.275
741.98	19.898
742.29	24.257
742.61	21.466
742.92	18.957
743.23	21.296
743.55	24.887
743.86	23.445
744.18	25.359
744.49	25.532
744.80	22.826
745.12	31.551
745.43	20.976
745.74	27.604
746.06	24.878
746.37	28.272
746.68	28.436
747.00	20.745
747.31	33.831
747.62	23.301
747.94	27.751
748.25	24.752
748.56	19.672
748.88	28.272
749.19	28.191
749.50	27.094
749.82	25.472
750.13	26.147
750.44	28.947
750.75	32.090
751.07	27.737
751.38	26.054
751.69	24.706
752.01	30.233
752.32	20.717
752.63	22.925
752.94	31.466
753.26	30.126
753.57	24.434
753.88	26.549
754.19	26.667
754.51	25.620
754.82	21.053
755.13	25.417
755.44	25.806
755.75	29.687
756.07	27.237
756.38	23.396
756.69	24.138
757.00	23.000
757.31	25.490
757.63	26.220
757.94	26.389
758.25	21.370
758.56	23.936
758.87	26.629
759.18	23.988
759.50	22.909
759.81	25.753
760.12	26.774
760.43	24.848
760.74	28.395
761.05	24.000
761.36	24.148
761.67	26.667
761.99	27.891
762.30	25.455
762.61	26.877
762.92	28.054
763.23	25.676
763.54	19.626
763.85	21.186
764.16	26.141
764.47	25.403
764.78	24.542
765.10	29.630
765.41	20.505
765.72	27.937
766.03	21.053
766.34	24.453
766.65	27.490
766.96	27.778
767.27	23.404
767.58	12.644
767.89	18.440
768.20	18.750
768.51	23.626
768.82	23.153
769.13	21.659
769.44	24.893
769.75	20.091
770.06	25.862
770.37	25.481
770.68	25.381
770.99	20.814
771.30	27.451
771.61	24.434
771.92	25.000
772.23	27.094
772.54	27.957
772.85	25.926
773.16	25.843
773.47	29.412
773.78	18.954
774.09	28.743
774.39	18.667
774.70	22.930
775.01	28.276
775.32	22.143
775.63	15.702
775.94	21.374
776.25	28.346
776.56	29.167
776.87	21.154
777.18	20.513
777.48	16.379
777.79	8.696
778.10	12.381
778.41	13.514
778.72	33.333
779.03	21.805
779.34	31.206
779.65	27.397
779.95	23.973
780.26	22.759
780.57	17.073
780.88	27.559
781.19	21.552
781.50	28.682
781.80	25.444
782.11	30.189
782.42	23.077
782.73	15.827
783.04	30.370
783.34	23.611
783.65	10.256
783.96	26.230
784.27	29.655
784.57	19.512
784.88	32.812
785.19	25.000
785.50	26.000
785.81	28.448
786.11	24.138
786.42	17.476
786.73	25.455
787.04	25.510
787.34	20.536
787.65	17.143
787.96	17.699
788.26	24.545
788.57	21.368
788.88	31.250
789.19	22.222
789.49	26.087
789.80	10.204
790.11	18.182
790.41	17.273
790.72	19.565
791.03	32.955
791.33	17.500
791.64	18.750
791.95	29.070
792.25	22.340
792.56	19.101
792.87	12.329
793.17	27.536
793.48	24.000
793.79	25.000
794.09	36.250
794.40	18.868
794.70	25.243
795.01	20.325
795.32	23.932
795.62	14.286
795.93	18.627
796.23	16.038
796.54	30.208
796.85	32.353
797.15	14.085
797.46	22.222
797.76	34.848
798.07	8.140
798.37	11.842
798.68	13.636
798.99	11.111
799.29	20.000
799.60	17.391
799.90	22.667
800.21	29.508
800.51	30.769
800.82	6.780
801.12	21.739
801.43	19.672
801.73	20.635
802.04	8.000
802.34	14.925
802.65	32.692
802.95	12.500
803.26	11.538
803.56	27.451
803.87	0.000
804.17	5.333
804.48	25.397
804.78	0.000
805.09	23.913
805.39	4.444
805.70	33.333
806.00	0.000
806.30	29.577
806.61	31.429
806.91	20.833
807.22	30.263
807.52	22.667
807.83	20.000
808.13	6.944
808.43	22.059
808.74	11.940
809.04	11.864
809.35	13.462
809.65	12.500
809.95	-13.514
810.26	-20.455
810.56	9.589
810.86	14.286
811.17	26.000
811.47	12.245
811.77	-7.895
812.08	11.364
812.38	15.094
812.69	20.000
812.99	-6.061
813.29	10.526
813.59	-11.429
813.90	15.909
814.20	0.000
814.50	13.462
814.81	33.962
815.11	14.894
815.41	16.949
815.72	30.952
816.02	21.569
816.32	10.417
816.62	9.756
816.93	2.703
817.23	17.143
817.53	14.583
817.84	10.870
818.14	30.769
818.44	0.000
818.74	26.087
819.04	10.000
819.35	29.730
819.65	14.706
819.95	8.333
820.25	21.429
820.56	50.000
820.86	-48.276
821.16	25.000
821.46	19.149
821.76	30.000
822.07	27.907
822.37	-10.811
822.67	12.500
822.97	28.571
823.27	-7.143
823.57	-4.000
823.88	14.815
824.18	28.571
824.48	23.529
824.78	9.677
825.08	26.087
825.38	15.152
825.69	0.000
825.99	-5.263
826.29	-5.556
826.59	-20.000
826.89	9.524
827.19	21.739
827.49	-12.500
827.79	8.571
828.09	7.143
828.39	33.333
828.70	40.541
829.00	-3.571
829.30	-4.762
829.60	-10.000
829.90	-3.125
830.20	-13.158
830.50	-3.704
830.80	34.783
831.10	27.273
831.40	9.091
831.70	0.000
832.00	28.571
832.30	-19.048
832.60	-50.000
832.90	27.586
833.20	50.000
833.50	36.364
833.80	22.222
834.10	-7.692
834.40	37.500
834.70	77.778
835.00	-5.263
835.30	53.846
835.60	80.000
835.90	41.935
836.20	31.818
836.50	21.429
836.80	-42.308
837.10	17.857
837.40	33.333
837.70	22.727
838.00	-45.455
838.30	-30.435
838.60	-15.385
838.90	0.000
839.19	35.714
839.49	-6.667
839.79	-53.846
840.09	-25.000
840.39	28.571
840.69	7.143
840.99	0.000
841.29	-68.421
841.59	-30.000
841.88	0.000
842.18	-20.000
842.48	18.750
842.78	6.667
843.08	0.000
843.38	80.000
843.68	8.696
843.97	-40.000
844.27	-40.000
844.57	0.000
844.87	5.556
845.17	9.524
845.47	86.667
845.76	9.524
846.06	23.529
846.36	-20.000
846.66	7.143
846.96	40.000
847.25	-87.500
847.55	21.429
847.85	-37.500
848.15	18.182
848.44	-466.667
848.74	25.000
849.04	22.222
849.34	-27.273
849.63	-216.667
849.93	-420.000
850.23	5.556
850.53	30.000
850.82	61.538
851.12	-55.556
851.42	-6.667
851.71	-3.846
852.01	-14.286
852.31	-100.000
852.61	-54.545
852.90	-15.000
853.20	15.789
853.50	-41.667
853.79	21.739
854.09	4.167
854.39	0.000
854.68	12.500
854.98	9.677
855.28	34.615
855.57	-10.000
855.87	-22.222
856.17	3.704
856.46	-92.857
856.76	-26.667
857.05	44.444
857.35	8.000
857.65	11.111
857.94	-7.692
858.24	27.586
858.53	22.222
858.83	18.519
859.13	18.182
859.42	-4.348
859.72	-175.000
860.01	-366.667
860.31	-16.000
860.60	-38.095
860.90	-66.667
861.20	13.333
861.49	-650.000
861.79	-6.667
862.08	-5.000
862.38	93.333
862.67	-100.000
862.97	-50.000
863.26	-16.667
863.56	33.333
863.85	-566.667
864.15	11.111
864.44	-70.000
864.74	-7.143
865.03	300.000
865.33	-260.000
865.62	-50.000
865.92	-33.333
866.21	-183.333
866.51	18.750
866.80	-81.818
867.10	-400.000
867.39	41.667
867.69	0.000
867.98	-30.769
868.27	66.667
868.57	-20.000
868.86	5.556
869.16	-30.769
869.45	126.667
869.75	-200.000
870.04	0.000
870.33	28.571
870.63	76.190
870.92	466.667
871.22	-300.000
871.51	-400.000
871.80	88.889
872.10	200.000
>>>>>End Processed Spectral Data<<<<<
