SpectraSuite Data File
++++++++++++++++++++++++++++++++++++
Date: Fri May 15 20:53:46 PDT 2015
User: schluterlab
Dark Spectrum Present: Yes
Reference Spectrum Present: Yes
Number of Sampled Component Spectra: 1
Spectrometers: USB2E3373
Integration Time (usec): 3000 (USB2E3373)
Spectra Averaged: 3 (USB2E3373)
Boxcar Smoothing: 0 (USB2E3373)
Correct for Electrical Dark: No (USB2E3373)
Strobe/Lamp Enabled: No (USB2E3373)
Correct for Detector Non-linearity: No (USB2E3373)
Correct for Stray Light: No (USB2E3373)
Number of Pixels in Processed Spectrum: 2048
>>>>>Begin Processed Spectral Data<<<<<
178.53	0.000
178.91	0.000
179.29	37.500
179.67	-1050.000
180.04	128.571
180.42	-100.000
180.80	-100.000
181.18	100.000
181.56	300.000
181.94	100.000
182.31	100.000
182.69	-40.000
183.07	-200.000
183.45	-40.000
183.83	133.333
184.20	-9.091
184.58	255.556
184.96	25.000
185.34	-66.667
185.72	-350.000
186.09	69.231
186.47	-1200.000
186.85	-83.333
187.23	144.444
187.61	-0.000
187.98	-266.667
188.36	-122.222
188.74	-333.333
189.12	-23.529
189.49	-38.889
189.87	0.000
190.25	21.429
190.63	-50.000
191.00	-266.667
191.38	-15.789
191.76	300.000
192.14	-0.000
192.51	0.000
192.89	-44.444
193.27	-85.714
193.65	133.333
194.02	72.727
194.40	50.000
194.78	-175.000
195.15	-91.667
195.53	-150.000
195.91	175.000
196.29	-125.000
196.66	61.538
197.04	128.571
197.42	0.000
197.79	-366.667
198.17	-46.154
198.55	1700.000
198.92	-233.333
199.30	-500.000
199.68	-60.000
200.05	-300.000
200.43	0.000
200.81	-300.000
201.18	100.000
201.56	1200.000
201.94	-350.000
202.31	-200.000
202.69	-300.000
203.07	150.000
203.44	0.000
203.82	0.000
204.19	107.143
204.57	-666.667
204.95	200.000
205.32	0.000
205.70	28.571
206.08	125.000
206.45	122.222
206.83	78.571
207.20	-71.429
207.58	600.000
207.96	33.333
208.33	-60.000
208.71	-25.000
209.08	-183.333
209.46	-300.000
209.84	-40.000
210.21	-1300.000
210.59	-28.571
210.96	-66.667
211.34	125.000
211.71	73.333
212.09	-285.714
212.46	-1300.000
212.84	0.000
213.22	0.000
213.59	600.000
213.97	30.769
214.34	27.273
214.72	-200.000
215.09	375.000
215.47	46.154
215.84	-63.636
216.22	-100.000
216.59	-37.500
216.97	0.000
217.34	-125.000
217.72	-360.000
218.09	150.000
218.47	187.500
218.84	-400.000
219.22	-44.444
219.59	140.000
219.97	433.333
220.34	500.000
220.72	-114.286
221.09	-175.000
221.47	-150.000
221.84	0.000
222.22	-800.000
222.59	-36.364
222.97	66.667
223.34	0.000
223.72	-42.857
224.09	-23.810
224.46	28.571
224.84	566.667
225.21	30.000
225.59	26.667
225.96	-150.000
226.34	325.000
226.71	-28.571
227.08	-50.000
227.46	25.000
227.83	-600.000
228.21	55.556
228.58	45.455
228.95	-112.500
229.33	100.000
229.70	18.750
230.08	-125.000
230.45	-128.571
230.82	57.143
231.20	-33.333
231.57	21.429
231.95	-42.857
232.32	-90.000
232.69	114.286
233.07	33.333
233.44	160.000
233.81	0.000
234.19	-55.556
234.56	-11.765
234.93	-150.000
235.31	-75.000
235.68	-300.000
236.05	-53.846
236.43	-30.000
236.80	-17.647
237.17	0.000
237.55	-20.000
237.92	-55.556
238.29	16.667
238.67	-16.667
239.04	-11.765
239.41	-24.390
239.79	-30.000
240.16	9.756
240.53	-23.684
240.91	-10.870
241.28	0.000
241.65	8.929
242.02	15.068
242.40	10.000
242.77	-13.559
243.14	-19.697
243.51	6.250
243.89	4.598
244.26	-14.943
244.63	0.000
245.00	0.000
245.38	17.526
245.75	-14.607
246.12	0.862
246.49	-2.479
246.87	12.500
247.24	-7.563
247.61	2.632
247.98	0.813
248.36	-0.625
248.73	5.263
249.10	5.195
249.47	1.899
249.84	1.307
250.22	6.471
250.59	1.961
250.96	9.859
251.33	-1.744
251.70	0.588
252.08	7.614
252.45	7.921
252.82	2.513
253.19	1.382
253.56	-1.402
253.94	8.559
254.31	7.826
254.68	7.456
255.05	1.575
255.42	2.620
255.79	7.722
256.16	5.058
256.54	6.716
256.91	3.802
257.28	3.346
257.65	4.494
258.02	1.773
258.39	5.724
258.76	5.861
259.14	7.973
259.51	3.883
259.88	3.780
260.25	7.190
260.62	7.986
260.99	2.373
261.36	2.055
261.73	3.481
262.10	6.687
262.47	3.374
262.85	5.329
263.22	1.538
263.59	6.542
263.96	6.832
264.33	4.545
264.70	3.571
265.07	2.976
265.44	7.365
265.81	5.367
266.18	5.464
266.55	7.712
266.92	5.181
267.29	4.178
267.66	6.138
268.03	4.712
268.40	5.222
268.77	6.417
269.14	6.235
269.51	6.170
269.88	4.738
270.25	1.276
270.62	0.976
270.99	2.558
271.36	4.156
271.73	4.460
272.10	1.946
272.47	5.201
272.84	5.198
273.21	6.961
273.58	5.301
273.95	5.263
274.32	5.312
274.69	3.846
275.06	6.027
275.43	3.628
275.80	2.428
276.17	3.908
276.54	6.424
276.91	6.360
277.28	4.585
277.65	5.372
278.02	6.596
278.39	4.595
278.76	4.193
279.13	2.905
279.50	6.303
279.87	4.104
280.23	5.161
280.60	7.018
280.97	5.657
281.34	3.269
281.71	7.392
282.08	4.703
282.45	4.697
282.82	3.475
283.19	5.609
283.56	3.661
283.92	3.226
284.29	5.769
284.66	3.876
285.03	3.340
285.40	5.293
285.77	4.921
286.14	4.152
286.51	4.982
286.87	5.484
287.24	3.683
287.61	3.527
287.98	6.491
288.35	5.893
288.72	3.327
289.08	3.472
289.45	7.381
289.82	4.196
290.19	3.242
290.56	4.974
290.93	2.020
291.29	4.314
291.66	5.984
292.03	5.104
292.40	5.645
292.77	5.423
293.13	3.571
293.50	4.856
293.87	4.733
294.24	4.791
294.60	4.769
294.97	6.548
295.34	5.061
295.71	5.663
296.08	6.278
296.44	4.694
296.81	6.667
297.18	5.652
297.55	7.453
297.91	5.068
298.28	7.520
298.65	6.649
299.02	7.008
299.38	4.378
299.75	8.552
300.12	6.414
300.48	7.115
300.85	6.464
301.22	6.494
301.59	7.105
301.95	7.848
302.32	8.301
302.69	6.841
303.05	8.663
303.42	9.091
303.79	8.762
304.15	10.155
304.52	7.967
304.89	9.006
305.25	8.111
305.62	8.051
305.99	8.070
306.35	8.439
306.72	8.436
307.09	9.464
307.45	9.300
307.82	8.912
308.19	10.685
308.55	10.469
308.92	10.675
309.29	10.279
309.65	9.580
310.02	10.451
310.38	11.855
310.75	9.945
311.12	11.410
311.48	11.029
311.85	11.728
312.22	10.654
312.58	10.191
312.95	9.605
313.31	10.352
313.68	10.785
314.05	10.918
314.41	11.856
314.78	12.371
315.14	13.464
315.51	11.698
315.87	13.422
316.24	12.841
316.61	12.697
316.97	12.599
317.34	12.891
317.70	13.098
318.07	12.596
318.43	13.529
318.80	13.352
319.16	13.379
319.53	14.340
319.89	13.976
320.26	14.474
320.62	15.848
320.99	14.823
321.35	16.238
321.72	16.096
322.08	15.005
322.45	15.330
322.81	15.717
323.18	15.996
323.54	16.120
323.91	16.456
324.27	17.871
324.64	18.165
325.00	17.792
325.37	20.110
325.73	18.404
326.10	18.892
326.46	19.821
326.83	21.172
327.19	19.529
327.56	20.070
327.92	21.567
328.29	21.071
328.65	21.321
329.01	22.151
329.38	22.673
329.74	20.774
330.11	23.448
330.47	22.078
330.84	23.077
331.20	23.954
331.56	23.241
331.93	25.388
332.29	23.648
332.66	23.348
333.02	23.699
333.38	22.640
333.75	24.267
334.11	22.023
334.48	24.116
334.84	25.183
335.20	22.873
335.57	23.300
335.93	24.481
336.29	23.665
336.66	23.161
337.02	25.186
337.38	22.870
337.75	24.545
338.11	24.887
338.47	24.818
338.84	25.139
339.20	24.314
339.56	23.578
339.93	24.709
340.29	24.679
340.65	25.986
341.02	24.025
341.38	24.071
341.74	23.587
342.11	22.790
342.47	23.754
342.83	24.567
343.20	24.042
343.56	25.130
343.92	25.066
344.28	24.680
344.65	24.439
345.01	22.299
345.37	23.045
345.73	24.100
346.10	23.814
346.46	22.876
346.82	23.895
347.19	22.444
347.55	24.645
347.91	23.706
348.27	23.282
348.63	23.680
349.00	22.642
349.36	23.774
349.72	23.632
350.08	24.262
350.45	24.262
350.81	22.757
351.17	23.534
351.53	22.939
351.89	22.296
352.26	24.320
352.62	23.387
352.98	22.329
353.34	24.235
353.70	24.676
354.07	23.065
354.43	23.939
354.79	23.699
355.15	23.968
355.51	23.655
355.87	22.330
356.24	23.083
356.60	23.525
356.96	23.571
357.32	23.482
357.68	23.221
358.04	23.506
358.40	23.633
358.77	22.648
359.13	24.500
359.49	22.804
359.85	22.621
360.21	23.923
360.57	23.948
360.93	23.525
361.29	23.263
361.66	23.824
362.02	23.788
362.38	23.077
362.74	22.937
363.10	24.379
363.46	23.054
363.82	24.493
364.18	23.247
364.54	22.868
364.90	23.154
365.26	23.362
365.62	24.015
365.98	23.827
366.35	24.326
366.71	23.725
367.07	24.165
367.43	24.012
367.79	23.534
368.15	24.192
368.51	24.326
368.87	22.685
369.23	23.321
369.59	24.052
369.95	24.047
370.31	23.338
370.67	24.104
371.03	22.778
371.39	23.559
371.75	24.029
372.11	23.324
372.47	25.222
372.83	24.982
373.19	23.680
373.55	23.610
373.91	23.470
374.27	25.301
374.63	24.480
374.99	23.262
375.35	24.025
375.71	24.615
376.07	24.087
376.42	24.558
376.78	24.564
377.14	24.238
377.50	24.436
377.86	23.293
378.22	24.123
378.58	24.295
378.94	24.386
379.30	24.329
379.66	24.326
380.02	24.464
380.38	23.920
380.74	23.998
381.09	25.215
381.45	24.404
381.81	23.751
382.17	23.985
382.53	23.360
382.89	23.980
383.25	24.891
383.61	25.427
383.97	23.302
384.32	23.640
384.68	24.025
385.04	23.591
385.40	23.584
385.76	24.214
386.12	24.256
386.48	25.287
386.83	24.413
387.19	24.298
387.55	24.655
387.91	24.511
388.27	23.810
388.62	24.733
388.98	24.248
389.34	23.923
389.70	24.612
390.06	24.166
390.42	22.733
390.77	24.657
391.13	22.825
391.49	24.256
391.85	24.496
392.20	24.231
392.56	23.268
392.92	24.369
393.28	24.116
393.64	24.204
393.99	25.078
394.35	24.099
394.71	24.202
395.07	24.513
395.42	23.254
395.78	23.583
396.14	24.590
396.50	24.160
396.85	24.662
397.21	23.935
397.57	24.075
397.92	23.907
398.28	24.195
398.64	23.193
399.00	24.492
399.35	23.081
399.71	23.262
400.07	23.942
400.42	23.501
400.78	22.964
401.14	23.956
401.49	23.705
401.85	23.035
402.21	23.193
402.57	23.813
402.92	23.588
403.28	23.684
403.63	23.897
403.99	23.724
404.35	24.422
404.70	22.679
405.06	22.385
405.42	22.250
405.77	23.010
406.13	22.875
406.49	22.558
406.84	23.655
407.20	23.540
407.55	23.052
407.91	23.262
408.27	23.263
408.62	22.769
408.98	22.428
409.34	23.544
409.69	22.351
410.05	22.414
410.40	23.333
410.76	22.919
411.11	22.875
411.47	23.471
411.83	22.222
412.18	23.102
412.54	22.971
412.89	22.660
413.25	23.526
413.60	22.298
413.96	22.761
414.31	23.293
414.67	22.643
415.03	22.170
415.38	22.977
415.74	23.062
416.09	23.971
416.45	23.565
416.80	23.199
417.16	24.309
417.51	23.185
417.87	22.816
418.22	23.575
418.58	23.880
418.93	23.636
419.29	23.047
419.64	23.655
420.00	23.992
420.35	23.821
420.71	23.633
421.06	23.880
421.42	24.038
421.77	23.931
422.12	23.780
422.48	23.714
422.83	23.724
423.19	24.041
423.54	23.927
423.90	24.382
424.25	24.799
424.61	24.602
424.96	24.971
425.31	25.072
425.67	25.822
426.02	25.559
426.38	25.297
426.73	24.818
427.09	26.392
427.44	25.941
427.79	25.633
428.15	25.182
428.50	25.621
428.85	25.246
429.21	25.920
429.56	25.553
429.92	25.578
430.27	25.163
430.62	25.144
430.98	25.743
431.33	26.446
431.68	25.693
432.04	26.439
432.39	25.841
432.74	25.556
433.10	26.207
433.45	25.747
433.80	27.162
434.16	26.150
434.51	26.667
434.86	26.945
435.22	26.977
435.57	26.762
435.92	27.485
436.28	25.462
436.63	26.697
436.98	26.651
437.34	27.102
437.69	27.609
438.04	26.895
438.39	26.878
438.75	27.444
439.10	27.844
439.45	28.424
439.81	27.645
440.16	28.919
440.51	28.836
440.86	28.882
441.22	28.620
441.57	28.587
441.92	28.437
442.27	29.324
442.63	29.336
442.98	28.891
443.33	28.881
443.68	29.231
444.03	29.906
444.39	29.120
444.74	29.208
445.09	29.232
445.44	29.630
445.79	30.583
446.15	30.066
446.50	28.674
446.85	30.128
447.20	29.562
447.55	31.250
447.91	30.231
448.26	31.303
448.61	30.743
448.96	31.784
449.31	29.942
449.66	30.314
450.02	29.663
450.37	31.002
450.72	31.214
451.07	31.076
451.42	31.086
451.77	31.163
452.12	31.400
452.47	30.844
452.83	30.919
453.18	31.309
453.53	32.174
453.88	31.633
454.23	31.346
454.58	31.801
454.93	32.603
455.28	29.651
455.63	31.990
455.98	31.630
456.34	32.886
456.69	32.465
457.04	32.577
457.39	32.321
457.74	32.225
458.09	31.960
458.44	31.539
458.79	31.765
459.14	31.350
459.49	32.537
459.84	32.544
460.19	32.100
460.54	32.396
460.89	32.159
461.24	32.050
461.59	32.957
461.94	31.321
462.29	33.474
462.64	33.289
462.99	32.566
463.34	32.615
463.69	31.853
464.04	32.506
464.39	32.444
464.74	31.534
465.09	32.876
465.44	33.064
465.79	32.200
466.14	32.668
466.49	32.260
466.84	32.659
467.19	33.041
467.54	32.312
467.89	33.165
468.24	32.786
468.59	33.270
468.94	33.016
469.29	33.246
469.64	33.835
469.99	34.408
470.34	32.491
470.68	33.408
471.03	34.112
471.38	33.167
471.73	33.824
472.08	34.261
472.43	33.490
472.78	33.585
473.13	33.401
473.48	34.072
473.83	32.877
474.17	33.679
474.52	33.631
474.87	32.364
475.22	32.703
475.57	33.427
475.92	33.406
476.27	33.702
476.61	33.796
476.96	31.790
477.31	33.423
477.66	33.034
478.01	33.745
478.36	34.096
478.70	33.931
479.05	34.011
479.40	33.068
479.75	33.055
480.10	32.821
480.45	33.850
480.79	34.542
481.14	34.016
481.49	33.744
481.84	33.736
482.19	33.162
482.53	33.717
482.88	32.983
483.23	33.109
483.58	32.736
483.92	32.381
484.27	33.364
484.62	33.259
484.97	33.624
485.31	32.514
485.66	30.736
486.01	31.055
486.36	30.846
486.70	31.586
487.05	31.159
487.40	31.851
487.75	31.972
488.09	32.015
488.44	32.118
488.79	32.275
489.13	33.173
489.48	33.604
489.83	32.960
490.17	32.944
490.52	33.764
490.87	32.346
491.22	34.384
491.56	34.061
491.91	33.748
492.26	33.982
492.60	33.637
492.95	34.875
493.30	33.610
493.64	34.479
493.99	34.058
494.34	34.320
494.68	33.905
495.03	33.625
495.37	33.660
495.72	34.578
496.07	34.829
496.41	33.538
496.76	32.474
497.11	32.837
497.45	33.842
497.80	33.956
498.14	32.489
498.49	32.809
498.84	33.832
499.18	34.137
499.53	34.474
499.87	33.804
500.22	33.136
500.56	33.333
500.91	33.484
501.26	33.416
501.60	33.448
501.95	33.770
502.29	33.317
502.64	33.156
502.98	33.448
503.33	33.381
503.67	32.867
504.02	33.480
504.36	34.290
504.71	33.434
505.06	33.619
505.40	33.350
505.75	33.763
506.09	34.110
506.44	34.189
506.78	34.031
507.13	34.126
507.47	32.794
507.82	33.494
508.16	33.597
508.51	34.103
508.85	34.066
509.19	33.688
509.54	33.244
509.88	34.520
510.23	34.588
510.57	34.634
510.92	32.409
511.26	34.424
511.61	33.938
511.95	34.137
512.30	33.370
512.64	34.057
512.98	34.194
513.33	34.359
513.67	34.053
514.02	34.954
514.36	35.600
514.70	35.198
515.05	34.548
515.39	33.766
515.74	35.389
516.08	35.087
516.42	35.866
516.77	35.167
517.11	34.540
517.46	35.189
517.80	34.565
518.14	35.273
518.49	34.014
518.83	34.083
519.17	33.354
519.52	34.103
519.86	33.613
520.20	34.143
520.55	34.271
520.89	35.194
521.23	35.465
521.58	34.826
521.92	35.705
522.26	35.524
522.61	34.610
522.95	36.556
523.29	34.498
523.64	35.324
523.98	35.256
524.32	34.601
524.66	34.699
525.01	34.481
525.35	34.738
525.69	34.949
526.04	33.929
526.38	35.798
526.72	33.682
527.06	34.760
527.41	34.631
527.75	34.115
528.09	34.020
528.43	35.111
528.78	34.455
529.12	34.903
529.46	34.373
529.80	33.502
530.15	35.512
530.49	34.478
530.83	34.952
531.17	34.251
531.51	34.131
531.86	33.923
532.20	33.890
532.54	33.492
532.88	33.539
533.22	34.073
533.57	33.945
533.91	33.029
534.25	34.180
534.59	33.034
534.93	31.718
535.27	32.170
535.62	32.988
535.96	33.529
536.30	33.575
536.64	33.908
536.98	33.240
537.32	33.357
537.66	34.081
538.01	33.287
538.35	32.732
538.69	33.222
539.03	32.331
539.37	32.571
539.71	32.584
540.05	32.790
540.39	33.033
540.73	33.821
541.07	33.425
541.42	32.056
541.76	33.104
542.10	31.590
542.44	32.453
542.78	31.521
543.12	32.074
543.46	33.102
543.80	32.269
544.14	31.108
544.48	31.246
544.82	32.468
545.16	33.197
545.50	32.443
545.84	32.861
546.18	33.333
546.52	32.228
546.86	33.214
547.20	32.117
547.54	32.014
547.88	32.201
548.22	31.558
548.56	30.409
548.90	31.671
549.24	31.749
549.58	32.158
549.92	31.594
550.26	30.110
550.60	32.937
550.94	32.786
551.28	31.221
551.62	32.462
551.96	33.233
552.30	33.918
552.64	32.370
552.98	30.942
553.32	30.599
553.66	31.277
554.00	31.606
554.34	32.792
554.68	31.268
555.02	32.887
555.36	32.162
555.69	31.062
556.03	31.192
556.37	31.174
556.71	31.697
557.05	31.544
557.39	30.855
557.73	31.859
558.07	32.428
558.41	32.848
558.75	32.658
559.08	32.545
559.42	33.016
559.76	32.746
560.10	32.492
560.44	31.794
560.78	31.189
561.12	31.382
561.45	32.045
561.79	31.303
562.13	30.944
562.47	31.007
562.81	31.988
563.15	32.017
563.48	31.117
563.82	30.542
564.16	30.292
564.50	30.203
564.84	30.254
565.17	30.248
565.51	31.352
565.85	30.658
566.19	29.642
566.52	30.429
566.86	30.977
567.20	29.452
567.54	29.866
567.88	30.521
568.21	29.581
568.55	28.587
568.89	28.080
569.23	28.551
569.56	28.327
569.90	28.055
570.24	27.168
570.57	27.273
570.91	27.152
571.25	26.307
571.59	26.098
571.92	25.541
572.26	25.211
572.60	25.674
572.93	25.604
573.27	25.204
573.61	25.209
573.95	25.150
574.28	24.709
574.62	24.333
574.96	24.533
575.29	24.356
575.63	23.918
575.97	24.532
576.30	24.093
576.64	24.265
576.98	24.376
577.31	24.453
577.65	24.633
577.98	23.922
578.32	23.691
578.66	23.211
578.99	24.029
579.33	23.782
579.67	23.947
580.00	24.127
580.34	24.279
580.67	23.937
581.01	23.943
581.35	23.514
581.68	23.598
582.02	23.197
582.35	23.194
582.69	23.451
583.02	23.521
583.36	23.634
583.70	24.714
584.03	23.964
584.37	24.901
584.70	23.984
585.04	23.549
585.37	24.079
585.71	23.871
586.04	24.054
586.38	23.740
586.72	24.993
587.05	24.408
587.39	24.658
587.72	24.822
588.06	23.831
588.39	24.210
588.73	24.542
589.06	24.527
589.40	24.577
589.73	24.790
590.07	25.642
590.40	26.045
590.73	26.071
591.07	24.555
591.40	25.022
591.74	25.294
592.07	25.788
592.41	26.281
592.74	24.851
593.08	24.275
593.41	23.888
593.75	23.978
594.08	24.442
594.41	24.782
594.75	24.427
595.08	24.707
595.42	24.991
595.75	24.934
596.09	25.215
596.42	25.134
596.75	25.533
597.09	25.011
597.42	25.836
597.75	25.561
598.09	24.083
598.42	24.323
598.76	23.981
599.09	24.760
599.42	24.062
599.76	24.492
600.09	24.133
600.42	24.640
600.76	24.108
601.09	24.885
601.42	24.481
601.76	24.335
602.09	24.422
602.42	24.853
602.76	25.127
603.09	25.000
603.42	25.000
603.76	23.911
604.09	24.099
604.42	24.323
604.76	24.878
605.09	25.229
605.42	24.108
605.75	25.263
606.09	24.501
606.42	24.020
606.75	24.459
607.09	24.967
607.42	24.236
607.75	24.112
608.08	24.034
608.42	24.395
608.75	25.446
609.08	25.461
609.41	25.584
609.75	25.050
610.08	25.462
610.41	24.155
610.74	25.110
611.07	25.581
611.41	26.051
611.74	26.279
612.07	25.375
612.40	25.438
612.73	24.746
613.07	25.759
613.40	25.492
613.73	24.846
614.06	25.876
614.39	25.776
614.72	24.370
615.06	25.307
615.39	24.672
615.72	25.350
616.05	24.972
616.38	23.875
616.71	25.260
617.05	24.830
617.38	26.084
617.71	25.912
618.04	26.222
618.37	26.419
618.70	25.941
619.03	26.597
619.36	24.602
619.69	26.535
620.03	26.735
620.36	26.681
620.69	26.624
621.02	26.376
621.35	27.303
621.68	28.231
622.01	27.583
622.34	26.895
622.67	27.208
623.00	26.570
623.33	25.991
623.66	27.524
623.99	26.702
624.32	26.692
624.65	25.564
624.99	27.840
625.32	26.156
625.65	27.258
625.98	28.687
626.31	26.018
626.64	26.170
626.97	27.749
627.30	28.371
627.63	28.510
627.96	28.212
628.29	26.364
628.62	28.614
628.95	28.858
629.28	29.940
629.61	28.614
629.94	29.032
630.26	28.162
630.59	30.073
630.92	29.436
631.25	27.385
631.58	29.405
631.91	28.838
632.24	29.587
632.57	29.773
632.90	29.419
633.23	28.000
633.56	30.227
633.89	29.840
634.22	31.852
634.55	29.987
634.88	31.290
635.20	28.590
635.53	30.933
635.86	27.958
636.19	30.142
636.52	28.827
636.85	28.908
637.18	30.314
637.51	29.434
637.83	30.092
638.16	30.832
638.49	29.428
638.82	32.105
639.15	28.765
639.48	29.436
639.81	29.289
640.13	29.582
640.46	29.592
640.79	32.548
641.12	29.985
641.45	31.381
641.77	30.963
642.10	32.385
642.43	31.190
642.76	32.013
643.09	33.279
643.41	28.155
643.74	31.301
644.07	32.020
644.40	32.264
644.73	33.100
645.05	32.718
645.38	34.215
645.71	31.028
646.04	29.982
646.36	31.915
646.69	34.532
647.02	33.459
647.35	32.649
647.67	30.347
648.00	33.209
648.33	31.229
648.66	29.322
648.98	25.461
649.31	29.256
649.64	29.984
649.96	28.039
650.29	28.961
650.62	31.111
650.94	30.000
651.27	31.099
651.60	30.811
651.92	32.168
652.25	28.597
652.58	30.167
652.90	32.933
653.23	29.244
653.56	29.780
653.88	31.271
654.21	28.371
654.54	28.014
654.86	31.409
655.19	28.216
655.52	25.542
655.84	19.246
656.17	20.625
656.49	27.967
656.82	28.569
657.15	21.752
657.47	16.276
657.80	12.261
658.13	11.819
658.45	18.639
658.78	18.602
659.10	18.771
659.43	18.843
659.75	19.783
660.08	21.448
660.41	24.413
660.73	26.243
661.06	29.809
661.38	29.159
661.71	27.926
662.03	31.545
662.36	31.429
662.68	30.310
663.01	34.061
663.33	31.090
663.66	30.930
663.98	30.000
664.31	31.983
664.63	30.645
664.96	31.087
665.28	30.243
665.61	28.571
665.93	30.652
666.26	30.152
666.58	30.649
666.91	32.941
667.23	32.075
667.56	34.123
667.88	32.134
668.21	34.129
668.53	31.442
668.86	35.849
669.18	29.481
669.50	30.751
669.83	30.233
670.15	32.168
670.48	32.057
670.80	32.719
671.13	32.215
671.45	28.995
671.77	31.116
672.10	26.931
672.42	29.401
672.75	29.485
673.07	29.696
673.39	28.991
673.72	26.824
674.04	29.792
674.37	29.449
674.69	26.552
675.01	31.333
675.34	29.955
675.66	31.250
675.98	32.151
676.31	28.211
676.63	27.553
676.95	27.727
677.28	29.882
677.60	29.157
677.92	28.899
678.25	28.665
678.57	29.870
678.89	26.681
679.22	27.740
679.54	27.108
679.86	27.038
680.18	25.631
680.51	26.705
680.83	26.640
681.15	29.600
681.48	28.074
681.80	27.479
682.12	28.226
682.44	27.406
682.77	28.698
683.09	30.664
683.41	29.545
683.73	28.341
684.06	28.540
684.38	26.882
684.70	26.580
685.02	26.971
685.34	25.494
685.67	25.704
685.99	25.859
686.31	25.133
686.63	25.788
686.96	26.996
687.28	23.838
687.60	23.954
687.92	27.879
688.24	24.798
688.56	29.258
688.89	26.339
689.21	29.111
689.53	25.754
689.85	30.000
690.17	27.455
690.49	28.842
690.82	27.184
691.14	24.762
691.46	28.037
691.78	24.550
692.10	26.022
692.42	25.325
692.74	25.000
693.06	25.901
693.39	25.339
693.71	28.733
694.03	24.018
694.35	25.467
694.67	30.303
694.99	27.154
695.31	28.460
695.63	29.500
695.95	26.263
696.27	29.534
696.59	33.333
696.91	27.731
697.23	26.735
697.56	26.238
697.88	27.097
698.20	25.968
698.52	27.059
698.84	25.120
699.16	26.250
699.48	29.825
699.80	24.814
700.12	29.650
700.44	30.532
700.76	25.581
701.08	25.455
701.40	27.108
701.72	33.951
702.04	31.023
702.36	29.766
702.68	29.129
703.00	24.545
703.32	27.566
703.64	27.119
703.96	27.246
704.28	28.221
704.60	27.937
704.91	27.129
705.23	23.920
705.55	32.155
705.87	30.325
706.19	31.111
706.51	27.835
706.83	26.045
707.15	25.857
707.47	29.132
707.79	24.740
708.11	27.250
708.43	24.500
708.74	23.514
709.06	28.732
709.38	25.994
709.70	30.178
710.02	32.166
710.34	28.793
710.66	23.718
710.98	25.828
711.29	25.902
711.61	23.729
711.93	27.036
712.25	28.866
712.57	30.403
712.89	24.627
713.20	30.104
713.52	26.829
713.84	24.915
714.16	23.368
714.48	24.516
714.80	29.808
715.11	23.708
715.43	26.332
715.75	28.000
716.07	26.910
716.39	26.174
716.70	25.092
717.02	24.046
717.34	30.769
717.66	24.779
717.97	26.957
718.29	25.105
718.61	26.378
718.93	25.969
719.24	30.038
719.56	25.703
719.88	24.399
720.20	25.379
720.51	25.287
720.83	28.185
721.15	29.412
721.46	24.194
721.78	22.925
722.10	23.792
722.42	23.651
722.73	25.306
723.05	31.020
723.37	33.475
723.68	32.883
724.00	31.197
724.32	21.778
724.63	25.909
724.95	25.328
725.27	29.493
725.58	26.695
725.90	21.429
726.22	25.483
726.53	26.780
726.85	23.596
727.16	31.321
727.48	21.457
727.80	29.150
728.11	20.763
728.43	23.529
728.74	25.403
729.06	27.600
729.38	32.707
729.69	22.709
730.01	20.000
730.32	29.851
730.64	25.442
730.96	24.151
731.27	25.000
731.59	23.390
731.90	19.108
732.22	25.237
732.53	27.575
732.85	27.305
733.16	24.916
733.48	17.266
733.80	23.913
734.11	24.746
734.43	28.179
734.74	20.606
735.06	18.893
735.37	23.867
735.69	23.569
736.00	20.906
736.32	19.799
736.63	25.000
736.95	24.232
737.26	22.420
737.58	25.168
737.89	23.810
738.21	22.932
738.52	25.926
738.83	24.454
739.15	19.651
739.46	28.346
739.78	21.612
740.09	22.876
740.41	21.739
740.72	21.654
741.04	21.457
741.35	22.979
741.66	21.327
741.98	27.041
742.29	22.277
742.61	21.990
742.92	19.431
743.23	16.204
743.55	23.982
743.86	22.488
744.18	24.402
744.49	25.000
744.80	23.370
745.12	25.668
745.43	22.439
745.74	25.000
746.06	28.293
746.37	25.654
746.68	21.327
747.00	23.936
747.31	31.841
747.62	24.272
747.94	22.010
748.25	22.277
748.56	26.230
748.88	25.654
749.19	27.660
749.50	21.182
749.82	22.170
750.13	21.101
750.44	30.827
750.75	26.866
751.07	28.832
751.38	21.456
751.69	21.961
752.01	23.643
752.32	21.116
752.63	20.949
752.94	17.241
753.26	30.126
753.57	24.434
753.88	22.124
754.19	22.917
754.51	19.835
754.82	19.433
755.13	25.000
755.44	25.806
755.75	23.047
756.07	24.125
756.38	16.981
756.69	20.307
757.00	22.000
757.31	23.529
757.63	19.817
757.94	24.167
758.25	17.808
758.56	17.287
758.87	16.714
759.18	20.872
759.50	19.636
759.81	18.729
760.12	21.935
760.43	20.606
760.74	20.062
761.05	20.000
761.36	19.886
761.67	22.121
761.99	18.367
762.30	16.000
762.61	22.134
762.92	21.719
763.23	20.721
763.54	17.757
763.85	20.763
764.16	21.162
764.47	14.919
764.78	21.612
765.10	21.212
765.41	18.297
765.72	19.048
766.03	18.045
766.34	21.533
766.65	23.506
766.96	23.232
767.27	20.213
767.58	22.414
767.89	16.312
768.20	21.591
768.51	20.879
768.82	21.675
769.13	17.051
769.44	17.597
769.75	18.265
770.06	18.103
770.37	23.077
770.68	23.858
770.99	16.742
771.30	25.980
771.61	19.005
771.92	21.983
772.23	20.690
772.54	25.269
772.85	19.136
773.16	25.843
773.47	27.451
773.78	17.647
774.09	21.557
774.39	25.333
774.70	19.745
775.01	26.207
775.32	18.571
775.63	19.835
775.94	23.664
776.25	30.709
776.56	22.500
776.87	22.115
777.18	21.368
777.48	23.276
777.79	12.174
778.10	7.619
778.41	25.225
778.72	21.429
779.03	21.805
779.34	26.241
779.65	24.658
779.95	14.384
780.26	20.690
780.57	20.325
780.88	16.535
781.19	14.655
781.50	16.279
781.80	20.118
782.11	16.352
782.42	20.000
782.73	27.338
783.04	27.407
783.34	19.444
783.65	6.838
783.96	23.770
784.27	18.621
784.57	19.512
784.88	21.094
785.19	22.000
785.50	19.000
785.81	22.414
786.11	8.621
786.42	19.417
786.73	17.273
787.04	15.306
787.34	20.536
787.65	14.286
787.96	11.504
788.26	18.182
788.57	15.385
788.88	18.750
789.19	11.905
789.49	14.783
789.80	12.245
790.11	12.121
790.41	11.818
790.72	26.087
791.03	23.864
791.33	17.500
791.64	26.250
791.95	15.116
792.25	29.787
792.56	26.966
792.87	9.589
793.17	18.841
793.48	8.000
793.79	5.000
794.09	32.500
794.40	16.038
794.70	19.417
795.01	10.569
795.32	15.385
795.62	16.190
795.93	16.667
796.23	24.528
796.54	17.708
796.85	20.588
797.15	12.676
797.46	20.833
797.76	34.848
798.07	13.953
798.37	10.526
798.68	0.000
798.99	17.284
799.29	27.143
799.60	8.696
799.90	17.333
800.21	36.066
800.51	29.231
800.82	18.644
801.12	15.942
801.43	18.033
801.73	34.921
802.04	6.000
802.34	22.388
802.65	28.846
802.95	7.143
803.26	21.154
803.56	27.451
803.87	-8.696
804.17	14.667
804.48	39.683
804.78	33.333
805.09	10.870
805.39	4.444
805.70	27.778
806.00	10.526
806.30	18.310
806.61	5.714
806.91	6.944
807.22	18.421
807.52	29.333
807.83	5.455
808.13	31.944
808.43	22.059
808.74	17.910
809.04	8.475
809.35	0.000
809.65	4.687
809.95	-13.514
810.26	0.000
810.56	0.000
810.86	19.048
811.17	32.000
811.47	28.571
811.77	-18.421
812.08	13.636
812.38	22.642
812.69	17.500
812.99	15.152
813.29	36.842
813.59	25.714
813.90	6.818
814.20	-10.256
814.50	32.692
814.81	9.434
815.11	8.511
815.41	38.983
815.72	28.571
816.02	19.608
816.32	25.000
816.62	-2.439
816.93	8.108
817.23	-11.429
817.53	27.083
817.84	10.870
818.14	-9.615
818.44	-2.632
818.74	47.826
819.04	-27.500
819.35	27.027
819.65	26.471
819.95	-2.778
820.25	16.667
820.56	32.500
820.86	-48.276
821.16	25.000
821.46	31.915
821.76	27.500
822.07	25.581
822.37	-29.730
822.67	-12.500
822.97	7.143
823.27	-10.714
823.57	-8.000
823.88	11.111
824.18	25.000
824.48	-17.647
824.78	12.903
825.08	0.000
825.38	6.061
825.69	-20.833
825.99	0.000
826.29	-2.778
826.59	-20.000
826.89	-14.286
827.19	26.087
827.49	12.500
827.79	17.143
828.09	14.286
828.39	21.212
828.70	43.243
829.00	7.143
829.30	-4.762
829.60	10.000
829.90	28.125
830.20	34.211
830.50	-7.407
830.80	13.043
831.10	9.091
831.40	39.394
831.70	9.677
832.00	42.857
832.30	-4.762
832.60	50.000
832.90	-24.138
833.20	-10.000
833.50	18.182
833.80	-7.407
834.10	34.615
834.40	34.375
834.70	-66.667
835.00	5.263
835.30	26.923
835.60	33.333
835.90	19.355
836.20	0.000
836.50	14.286
836.80	-19.231
837.10	10.714
837.40	-400.000
837.70	13.636
838.00	-90.909
838.30	47.826
838.60	-23.077
838.90	9.091
839.19	-7.143
839.49	26.667
839.79	0.000
840.09	-58.333
840.39	50.000
840.69	-10.714
840.99	-23.077
841.29	15.789
841.59	-10.000
841.88	9.091
842.18	-40.000
842.48	-6.250
842.78	13.333
843.08	-14.815
843.38	-20.000
843.68	30.435
843.97	20.000
844.27	-46.667
844.57	15.000
844.87	-11.111
845.17	-19.048
845.47	40.000
845.76	0.000
846.06	-11.765
846.36	40.000
846.66	7.143
846.96	-6.667
847.25	-125.000
847.55	0.000
847.85	25.000
848.15	-18.182
848.44	-466.667
848.74	30.000
849.04	70.370
849.34	18.182
849.63	-116.667
849.93	-60.000
850.23	-27.778
850.53	20.000
850.82	-7.692
851.12	22.222
851.42	0.000
851.71	38.462
852.01	35.714
852.31	-125.000
852.61	45.455
852.90	-45.000
853.20	-15.789
853.50	58.333
853.79	26.087
854.09	37.500
854.39	15.789
854.68	12.500
854.98	25.806
855.28	46.154
855.57	5.000
855.87	22.222
856.17	11.111
856.46	-14.286
856.76	-26.667
857.05	55.556
857.35	48.000
857.65	22.222
857.94	46.154
858.24	41.379
858.53	33.333
858.83	29.630
859.13	27.273
859.42	17.391
859.72	-225.000
860.01	-400.000
860.31	8.000
860.60	9.524
860.90	-266.667
861.20	-46.667
861.49	-900.000
861.79	-60.000
862.08	-5.000
862.38	40.000
862.67	-140.000
862.97	-100.000
863.26	33.333
863.56	38.889
863.85	-600.000
864.15	38.889
864.44	-40.000
864.74	-21.429
865.03	150.000
865.33	-320.000
865.62	150.000
865.92	58.333
866.21	-33.333
866.51	18.750
866.80	27.273
867.10	-750.000
867.39	50.000
867.69	0.000
867.98	23.077
868.27	-100.000
868.57	-26.667
868.86	66.667
869.16	-30.769
869.45	60.000
869.75	-700.000
870.04	0.000
870.33	14.286
870.63	33.333
870.92	500.000
871.22	-80.000
871.51	-200.000
871.80	55.556
872.10	366.667
>>>>>End Processed Spectral Data<<<<<
