SpectraSuite Data File
++++++++++++++++++++++++++++++++++++
Date: Fri May 15 20:38:06 PDT 2015
User: schluterlab
Dark Spectrum Present: Yes
Reference Spectrum Present: Yes
Number of Sampled Component Spectra: 1
Spectrometers: USB2E3373
Integration Time (usec): 3000 (USB2E3373)
Spectra Averaged: 3 (USB2E3373)
Boxcar Smoothing: 0 (USB2E3373)
Correct for Electrical Dark: No (USB2E3373)
Strobe/Lamp Enabled: No (USB2E3373)
Correct for Detector Non-linearity: No (USB2E3373)
Correct for Stray Light: No (USB2E3373)
Number of Pixels in Processed Spectrum: 2048
>>>>>Begin Processed Spectral Data<<<<<
178.53	0.000
178.91	0.000
179.29	62.500
179.67	-400.000
180.04	-114.286
180.42	-100.000
180.80	-900.000
181.18	166.667
181.56	150.000
181.94	-150.000
182.31	700.000
182.69	-20.000
183.07	-200.000
183.45	100.000
183.83	100.000
184.20	36.364
184.58	88.889
184.96	-100.000
185.34	300.000
185.72	-450.000
186.09	69.231
186.47	-800.000
186.85	-83.333
187.23	111.111
187.61	-500.000
187.98	0.000
188.36	-66.667
188.74	-33.333
189.12	11.765
189.49	16.667
189.87	0.000
190.25	50.000
190.63	-200.000
191.00	-33.333
191.38	-15.789
191.76	450.000
192.14	-25.000
192.51	150.000
192.89	0.000
193.27	-14.286
193.65	83.333
194.02	145.455
194.40	10.000
194.78	-75.000
195.15	-66.667
195.53	12.500
195.91	125.000
196.29	-100.000
196.66	69.231
197.04	14.286
197.42	11.111
197.79	-400.000
198.17	-92.308
198.55	1100.000
198.92	-300.000
199.30	-800.000
199.68	-40.000
200.05	-66.667
200.43	0.000
200.81	-300.000
201.18	0.000
201.56	600.000
201.94	-50.000
202.31	333.333
202.69	-440.000
203.07	25.000
203.44	0.000
203.82	0.000
204.19	14.286
204.57	-600.000
204.95	162.500
205.32	-90.000
205.70	-28.571
206.08	-25.000
206.45	144.444
206.83	100.000
207.20	-57.143
207.58	-0.000
207.96	-433.333
208.33	-210.000
208.71	-200.000
209.08	-33.333
209.46	-600.000
209.84	0.000
210.21	-1100.000
210.59	42.857
210.96	-66.667
211.34	-175.000
211.71	33.333
212.09	-200.000
212.46	-1300.000
212.84	0.000
213.22	60.000
213.59	450.000
213.97	-30.769
214.34	-27.273
214.72	-83.333
215.09	375.000
215.47	-23.077
215.84	-81.818
216.22	-400.000
216.59	12.500
216.97	200.000
217.34	-300.000
217.72	-60.000
218.09	37.500
218.47	150.000
218.84	-500.000
219.22	77.778
219.59	-260.000
219.97	266.667
220.34	200.000
220.72	28.571
221.09	-175.000
221.47	250.000
221.84	-400.000
222.22	-450.000
222.59	-54.545
222.97	16.667
223.34	133.333
223.72	35.714
224.09	4.762
224.46	10.714
224.84	366.667
225.21	20.000
225.59	100.000
225.96	-250.000
226.34	400.000
226.71	-57.143
227.08	-183.333
227.46	25.000
227.83	-300.000
228.21	-44.444
228.58	-18.182
228.95	87.500
229.33	90.000
229.70	25.000
230.08	-137.500
230.45	-71.429
230.82	114.286
231.20	80.000
231.57	-42.857
231.95	42.857
232.32	-130.000
232.69	-14.286
233.07	-66.667
233.44	-140.000
233.81	-10.000
234.19	0.000
234.56	17.647
234.93	350.000
235.31	75.000
235.68	-240.000
236.05	-76.923
236.43	25.000
236.80	41.176
237.17	43.750
237.55	-15.000
237.92	-22.222
238.29	22.222
238.67	16.667
239.04	-2.941
239.41	-26.829
239.79	26.667
240.16	14.634
240.53	-18.421
240.91	8.696
241.28	0.000
241.65	26.786
242.02	19.178
242.40	-3.333
242.77	16.949
243.14	1.515
243.51	11.250
243.89	10.345
244.26	14.943
244.63	20.238
245.00	9.278
245.38	15.464
245.75	1.124
246.12	8.621
246.49	24.793
246.87	24.038
247.24	1.681
247.61	10.526
247.98	3.252
248.36	6.250
248.73	11.184
249.10	6.494
249.47	5.696
249.84	12.418
250.22	17.647
250.59	5.882
250.96	12.676
251.33	11.047
251.70	9.412
252.08	11.675
252.45	14.356
252.82	7.035
253.19	15.668
253.56	11.682
253.94	15.766
254.31	8.261
254.68	13.596
255.05	10.630
255.42	17.467
255.79	13.900
256.16	15.564
256.54	16.791
256.91	10.266
257.28	14.498
257.65	14.981
258.02	9.929
258.39	15.825
258.76	15.018
259.14	14.618
259.51	7.767
259.88	12.371
260.25	14.052
260.62	15.278
260.99	7.797
261.36	8.219
261.73	11.076
262.10	11.246
262.47	8.896
262.85	11.599
263.22	13.846
263.59	13.084
263.96	16.149
264.33	11.818
264.70	16.071
265.07	10.714
265.44	11.615
265.81	15.254
266.18	13.661
266.55	14.910
266.92	15.026
267.29	11.227
267.66	15.857
268.03	12.042
268.40	10.705
268.77	15.775
269.14	12.230
269.51	13.625
269.88	12.219
270.25	11.224
270.62	10.488
270.99	10.486
271.36	11.736
271.73	13.850
272.10	13.625
272.47	13.948
272.84	15.099
273.21	15.081
273.58	14.217
273.95	13.959
274.32	11.085
274.69	13.575
275.06	14.509
275.43	12.245
275.80	15.453
276.17	12.874
276.54	13.704
276.91	13.377
277.28	12.227
277.65	12.603
278.02	14.468
278.39	12.473
278.76	13.417
279.13	11.826
279.50	12.185
279.87	13.175
280.23	12.903
280.60	13.255
280.97	14.747
281.34	10.577
281.71	13.963
282.08	11.861
282.45	12.524
282.82	10.811
283.19	12.959
283.56	12.909
283.92	9.488
284.29	11.346
284.66	12.403
285.03	13.556
285.40	10.397
285.77	12.478
286.14	11.733
286.51	14.576
286.87	10.238
287.24	11.971
287.61	12.698
287.98	11.930
288.35	12.998
288.72	13.835
289.08	12.153
289.45	11.248
289.82	13.112
290.19	8.874
290.56	8.919
290.93	11.785
291.29	10.324
291.66	12.441
292.03	9.888
292.40	9.355
292.77	11.324
293.13	8.929
293.50	10.470
293.87	11.908
294.24	11.592
294.60	10.581
294.97	11.458
295.34	9.202
295.71	10.730
296.08	10.015
296.44	10.384
296.81	10.417
297.18	9.275
297.55	12.060
297.91	10.959
298.28	12.929
298.65	9.905
299.02	8.625
299.38	7.661
299.75	8.828
300.12	9.162
300.48	9.354
300.85	9.632
301.22	8.182
301.59	9.737
301.95	10.000
302.32	9.987
302.69	9.826
303.05	9.777
303.42	9.340
303.79	11.215
304.15	10.036
304.52	9.275
304.89	8.304
305.25	8.232
305.62	8.168
305.99	7.135
306.35	7.283
306.72	9.224
307.09	9.008
307.45	9.529
307.82	9.722
308.19	8.711
308.55	9.051
308.92	9.586
309.29	9.162
309.65	7.858
310.02	9.241
310.38	8.452
310.75	9.508
311.12	10.011
311.48	8.590
311.85	9.319
312.22	8.017
312.58	9.023
312.95	9.605
313.31	7.764
313.68	8.272
314.05	9.082
314.41	9.072
314.78	10.619
315.14	9.455
315.51	10.766
315.87	9.324
316.24	10.415
316.61	10.827
316.97	10.516
317.34	8.984
317.70	10.134
318.07	10.288
318.43	10.294
318.80	10.038
319.16	12.012
319.53	11.016
319.89	10.728
320.26	10.931
320.62	11.836
320.99	11.273
321.35	11.819
321.72	12.773
322.08	11.883
322.45	12.487
322.81	13.556
323.18	13.248
323.54	12.934
323.91	12.463
324.27	12.500
324.64	13.764
325.00	14.234
325.37	15.702
325.73	14.053
326.10	15.350
326.46	14.888
326.83	15.311
327.19	14.560
327.56	17.029
327.92	16.197
328.29	15.357
328.65	15.660
329.01	15.901
329.38	16.682
329.74	16.336
330.11	16.960
330.47	16.605
330.84	17.115
331.20	19.392
331.56	16.852
331.93	17.534
332.29	16.774
332.66	17.919
333.02	17.193
333.38	17.232
333.75	18.681
334.11	16.473
334.48	19.492
334.84	17.582
335.20	17.841
335.57	17.407
335.93	19.512
336.29	18.600
336.66	17.893
337.02	18.030
337.38	18.241
337.75	19.273
338.11	17.854
338.47	19.434
338.84	18.669
339.20	17.916
339.56	20.092
339.93	18.711
340.29	18.349
340.65	18.369
341.02	19.592
341.38	17.168
341.74	18.198
342.11	18.198
342.47	18.950
342.83	18.599
343.20	18.467
343.56	18.261
343.92	19.043
344.28	19.556
344.65	18.739
345.01	18.583
345.37	17.830
345.73	19.414
346.10	19.672
346.46	17.998
346.82	18.167
347.19	18.204
347.55	19.215
347.91	20.469
348.27	18.189
348.63	19.676
349.00	18.376
349.36	18.204
349.72	19.486
350.08	19.180
350.45	19.314
350.81	19.186
351.17	17.915
351.53	19.837
351.89	18.415
352.26	18.880
352.62	18.952
352.98	18.394
353.34	17.794
353.70	20.146
354.07	18.468
354.43	19.776
354.79	18.827
355.15	20.079
355.51	19.462
355.87	19.660
356.24	19.005
356.60	19.240
356.96	20.397
357.32	20.048
357.68	19.234
358.04	19.871
358.40	19.695
358.77	20.255
359.13	19.055
359.49	18.105
359.85	19.735
360.21	18.022
360.57	18.822
360.93	19.138
361.29	19.033
361.66	20.533
362.02	20.000
362.38	19.573
362.74	19.758
363.10	20.015
363.46	20.237
363.82	20.811
364.18	20.517
364.54	18.676
364.90	20.000
365.26	19.651
365.62	20.438
365.98	20.748
366.35	21.704
366.71	20.547
367.07	20.900
367.43	19.339
367.79	20.141
368.15	19.813
368.51	20.393
368.87	21.393
369.23	20.866
369.59	21.501
369.95	21.261
370.31	21.676
370.67	20.821
371.03	20.612
371.39	21.152
371.75	21.099
372.11	21.327
372.47	20.562
372.83	21.647
373.19	21.897
373.55	21.516
373.91	21.382
374.27	21.049
374.63	22.182
374.99	21.631
375.35	21.379
375.71	22.657
376.07	21.489
376.42	22.313
376.78	22.483
377.14	21.801
377.50	21.912
377.86	23.159
378.22	22.527
378.58	22.821
378.94	22.369
379.30	23.019
379.66	23.574
380.02	23.605
380.38	22.094
380.74	22.262
381.09	23.681
381.45	22.997
381.81	23.072
382.17	23.477
382.53	23.423
382.89	23.478
383.25	23.771
383.61	24.085
383.97	23.683
384.32	24.703
384.68	24.087
385.04	24.142
385.40	23.833
385.76	24.780
386.12	25.097
386.48	24.904
386.83	24.667
387.19	25.092
387.55	25.659
387.91	24.572
388.27	24.847
388.62	26.243
388.98	24.739
389.34	25.671
389.70	26.227
390.06	25.488
390.42	26.295
390.77	26.095
391.13	24.401
391.49	26.585
391.85	26.706
392.20	25.863
392.56	26.065
392.92	26.600
393.28	26.592
393.64	26.607
393.99	27.210
394.35	27.071
394.71	27.650
395.07	27.278
395.42	26.594
395.78	27.622
396.14	28.058
396.50	27.584
396.85	27.302
397.21	27.820
397.57	27.398
397.92	28.101
398.28	28.276
398.64	28.313
399.00	28.217
399.35	28.330
399.71	28.317
400.07	29.081
400.42	28.458
400.78	29.088
401.14	29.462
401.49	29.958
401.85	29.129
402.21	29.096
402.57	29.750
402.92	29.172
403.28	30.326
403.63	29.950
403.99	30.548
404.35	31.106
404.70	30.238
405.06	29.965
405.42	31.572
405.77	31.145
406.13	30.908
406.49	31.083
406.84	32.090
407.20	32.450
407.55	31.359
407.91	31.818
408.27	31.676
408.62	32.554
408.98	32.286
409.34	32.714
409.69	34.109
410.05	32.451
410.40	33.765
410.76	34.439
411.11	33.375
411.47	33.399
411.83	32.580
412.18	33.848
412.54	34.332
412.89	33.682
413.25	34.116
413.60	34.720
413.96	33.742
414.31	35.000
414.67	34.509
415.03	35.353
415.38	34.138
415.74	36.547
416.09	35.859
416.45	35.787
416.80	35.691
417.16	37.224
417.51	36.442
417.87	35.919
418.22	37.176
418.58	38.194
418.93	38.182
419.29	36.876
419.64	36.487
420.00	37.846
420.35	37.731
420.71	36.877
421.06	38.367
421.42	38.582
421.77	37.514
422.12	36.947
422.48	37.629
422.83	37.587
423.19	38.318
423.54	39.212
423.90	37.927
424.25	39.323
424.61	39.351
424.96	38.966
425.31	39.804
425.67	39.847
426.02	40.224
426.38	41.327
426.73	40.315
427.09	40.949
427.44	40.706
427.79	40.601
428.15	40.231
428.50	40.157
428.85	39.988
429.21	42.558
429.56	41.725
429.92	41.757
430.27	39.799
430.62	40.408
430.98	40.658
431.33	41.640
431.68	40.973
432.04	42.482
432.39	41.985
432.74	42.453
433.10	43.218
433.45	43.250
433.80	41.497
434.16	42.161
434.51	42.849
434.86	42.857
435.22	42.120
435.57	44.354
435.92	42.934
436.28	42.397
436.63	43.925
436.98	43.163
437.34	43.557
437.69	45.200
438.04	44.387
438.39	43.433
438.75	44.627
439.10	44.029
439.45	44.796
439.81	43.914
440.16	45.546
440.51	45.433
440.86	46.103
441.22	44.853
441.57	45.033
441.92	45.016
442.27	45.676
442.63	45.128
442.98	45.434
443.33	44.630
443.68	44.881
444.03	45.306
444.39	45.057
444.74	46.377
445.09	45.880
445.44	46.268
445.79	47.396
446.15	46.256
446.50	46.201
446.85	47.450
447.20	46.350
447.55	46.875
447.91	46.249
448.26	46.727
448.61	47.323
448.96	47.160
449.31	46.763
449.66	45.993
450.02	46.663
450.37	47.896
450.72	46.506
451.07	47.025
451.42	47.129
451.77	47.981
452.12	47.189
452.47	46.684
452.83	47.114
453.18	47.565
453.53	47.408
453.88	48.816
454.23	48.801
454.58	47.985
454.93	48.067
455.28	46.095
455.63	47.737
455.98	48.406
456.34	48.659
456.69	48.158
457.04	48.582
457.39	47.995
457.74	48.307
458.09	46.498
458.44	47.279
458.79	46.667
459.14	48.455
459.49	47.821
459.84	48.787
460.19	47.937
460.54	48.594
460.89	48.807
461.24	49.503
461.59	48.575
461.94	47.358
462.29	49.578
462.64	50.233
462.99	49.898
463.34	48.122
463.69	49.099
464.04	48.910
464.39	48.939
464.74	48.896
465.09	49.345
465.44	50.087
465.79	48.129
466.14	48.632
466.49	48.419
466.84	49.554
467.19	50.313
467.54	48.978
467.89	50.474
468.24	49.088
468.59	50.222
468.94	48.381
469.29	50.689
469.64	51.265
469.99	52.488
470.34	50.512
470.68	53.393
471.03	50.389
471.38	51.213
471.73	50.910
472.08	50.678
472.43	51.208
472.78	52.570
473.13	51.633
473.48	51.140
473.83	50.498
474.17	51.813
474.52	51.181
474.87	50.788
475.22	50.092
475.57	51.609
475.92	51.838
476.27	52.561
476.61	50.752
476.96	50.976
477.31	50.514
477.66	49.775
478.01	51.993
478.36	50.926
478.70	52.420
479.05	50.824
479.40	51.192
479.75	51.043
480.10	51.254
480.45	50.850
480.79	51.057
481.14	51.281
481.49	50.837
481.84	51.882
482.19	51.029
482.53	51.175
482.88	50.931
483.23	51.344
483.58	51.509
483.92	50.436
484.27	50.410
484.62	50.022
484.97	50.166
485.31	49.097
485.66	47.582
486.01	47.358
486.36	46.670
486.70	46.883
487.05	47.956
487.40	49.069
487.75	48.676
488.09	48.331
488.44	49.759
488.79	50.019
489.13	51.482
489.48	50.876
489.83	51.570
490.17	51.551
490.52	51.501
490.87	51.874
491.22	52.579
491.56	51.565
491.91	51.243
492.26	53.573
492.60	52.351
492.95	52.238
493.30	52.614
493.64	53.438
493.99	52.367
494.34	52.621
494.68	51.429
495.03	52.652
495.37	52.748
495.72	52.600
496.07	52.732
496.41	51.981
496.76	51.958
497.11	52.399
497.45	52.124
497.80	53.734
498.14	52.409
498.49	53.682
498.84	51.896
499.18	52.861
499.53	52.927
499.87	52.529
500.22	52.226
500.56	53.354
500.91	52.259
501.26	52.496
501.60	53.222
501.95	53.615
502.29	52.833
502.64	53.909
502.98	53.823
503.33	51.489
503.67	53.976
504.02	54.057
504.36	54.676
504.71	53.283
505.06	52.743
505.40	53.807
505.75	54.124
506.09	53.066
506.44	54.415
506.78	54.898
507.13	54.964
507.47	52.742
507.82	54.327
508.16	53.302
508.51	54.722
508.85	55.521
509.19	54.604
509.54	55.174
509.88	53.991
510.23	55.836
510.57	55.318
510.92	53.945
511.26	55.865
511.61	56.436
511.95	56.274
512.30	53.825
512.64	56.205
512.98	55.474
513.33	56.519
513.67	56.111
514.02	57.265
514.36	57.771
514.70	57.401
515.05	57.697
515.39	57.143
515.74	59.042
516.08	57.143
516.42	58.245
516.77	57.402
517.11	58.872
517.46	57.570
517.80	58.343
518.14	56.950
518.49	57.812
518.83	58.748
519.17	58.156
519.52	57.490
519.86	58.223
520.20	58.627
520.55	59.600
520.89	58.971
521.23	59.848
521.58	59.748
521.92	60.321
522.26	59.987
522.61	60.844
522.95	61.854
523.29	60.356
523.64	61.309
523.98	61.568
524.32	59.923
524.66	59.731
525.01	60.779
525.35	60.143
525.69	61.684
526.04	60.516
526.38	61.479
526.72	60.105
527.06	61.803
527.41	61.148
527.75	60.925
528.09	61.130
528.43	61.850
528.78	61.056
529.12	61.226
529.46	62.248
529.80	60.925
530.15	62.244
530.49	61.818
530.83	61.765
531.17	62.257
531.51	62.038
531.86	61.999
532.20	63.048
532.54	63.649
532.88	61.602
533.22	62.030
533.57	60.944
533.91	60.705
534.25	60.742
534.59	61.386
534.93	59.912
535.27	59.898
535.62	61.180
535.96	61.383
536.30	61.544
536.64	64.300
536.98	62.857
537.32	62.945
537.66	62.482
538.01	62.308
538.35	60.888
538.69	61.917
539.03	60.219
539.37	60.498
539.71	62.168
540.05	61.711
540.39	63.850
540.73	62.831
541.07	62.638
541.42	62.097
541.76	62.354
542.10	62.629
542.44	61.293
542.78	58.637
543.12	61.264
543.46	62.378
543.80	62.665
544.14	59.613
544.48	62.558
544.82	62.816
545.16	62.705
545.50	61.348
545.84	62.677
546.18	62.908
546.52	62.149
546.86	63.623
547.20	63.662
547.54	60.707
547.88	61.889
548.22	60.092
548.56	60.422
548.90	61.388
549.24	61.501
549.58	61.566
549.92	61.758
550.26	61.832
550.60	63.271
550.94	64.152
551.28	62.674
551.62	65.077
551.96	62.782
552.30	61.330
552.64	61.425
552.98	60.900
553.32	61.127
553.66	60.958
554.00	63.504
554.34	62.112
554.68	61.357
555.02	61.979
555.36	62.752
555.69	60.513
556.03	61.670
556.37	61.566
556.71	62.816
557.05	63.236
557.39	62.156
557.73	62.294
558.07	62.066
558.41	62.864
558.75	63.757
559.08	63.593
559.42	63.492
559.76	63.811
560.10	62.385
560.44	62.547
560.78	61.329
561.12	62.200
561.45	62.755
561.79	62.045
562.13	62.598
562.47	61.367
562.81	61.167
563.15	60.085
563.48	59.689
563.82	60.329
564.16	62.256
564.50	60.608
564.84	60.174
565.17	59.088
565.51	62.090
565.85	59.465
566.19	60.345
566.52	60.255
566.86	61.054
567.20	59.153
567.54	58.820
567.88	59.637
568.21	59.729
568.55	57.554
568.89	57.136
569.23	56.283
569.56	56.042
569.90	54.730
570.24	53.108
570.57	53.709
570.91	53.503
571.25	52.483
571.59	50.794
571.92	51.141
572.26	50.906
572.60	50.419
572.93	50.298
573.27	51.066
573.61	50.418
573.95	50.191
574.28	49.603
574.62	49.682
574.96	49.738
575.29	49.571
575.63	48.329
575.97	48.794
576.30	49.452
576.64	48.689
576.98	50.450
577.31	49.226
577.65	49.128
577.98	48.478
578.32	47.404
578.66	47.561
578.99	48.105
579.33	48.489
579.67	48.095
580.00	48.759
580.34	47.836
580.67	48.640
581.01	48.439
581.35	47.524
581.68	47.353
582.02	47.220
582.35	47.465
582.69	47.663
583.02	47.981
583.36	48.782
583.70	49.091
584.03	49.597
584.37	50.395
584.70	48.984
585.04	48.368
585.37	48.108
585.71	48.235
586.04	47.832
586.38	48.706
586.72	48.666
587.05	48.989
587.39	49.539
587.72	49.672
588.06	48.962
588.39	49.046
588.73	49.573
589.06	50.522
589.40	49.637
589.73	50.894
590.07	51.095
590.40	51.471
590.73	52.595
591.07	52.587
591.40	52.760
591.74	52.896
592.07	53.293
592.41	52.208
592.74	50.577
593.08	48.795
593.41	48.797
593.75	49.133
594.08	49.056
594.41	50.146
594.75	49.580
595.08	49.792
595.42	49.687
595.75	50.657
596.09	50.586
596.42	50.682
596.75	52.798
597.09	51.936
597.42	51.445
597.75	52.268
598.09	50.702
598.42	51.444
598.76	50.837
599.09	49.239
599.42	48.731
599.76	49.624
600.09	49.397
600.42	48.863
600.76	48.514
601.09	48.702
601.42	48.570
601.76	49.424
602.09	49.629
602.42	51.348
602.76	49.958
603.09	50.374
603.42	51.547
603.76	49.355
604.09	50.466
604.42	49.873
604.76	50.512
605.09	50.183
605.42	50.700
605.75	49.694
606.09	49.257
606.42	50.042
606.75	48.961
607.09	50.198
607.42	49.490
607.75	49.822
608.08	49.371
608.42	49.155
608.75	50.892
609.08	50.822
609.41	51.980
609.75	51.915
610.08	51.273
610.41	49.614
610.74	51.048
611.07	52.403
611.41	51.583
611.74	53.305
612.07	50.910
612.40	51.751
612.73	51.977
613.07	50.394
613.40	51.368
613.73	53.106
614.06	51.029
614.39	53.356
614.72	51.485
615.06	52.235
615.39	50.382
615.72	49.623
616.05	51.732
616.38	50.484
616.71	53.150
617.05	52.440
617.38	52.986
617.71	52.704
618.04	53.270
618.37	52.333
618.70	54.191
619.03	55.069
619.36	54.486
619.69	56.861
620.03	55.442
620.36	53.505
620.69	53.533
621.02	55.046
621.35	55.436
621.68	56.973
622.01	56.917
622.34	55.547
622.67	55.363
623.00	55.972
623.33	54.192
623.66	53.927
623.99	53.404
624.32	54.297
624.65	54.511
624.99	55.455
625.32	54.359
625.65	55.774
625.98	56.003
626.31	55.528
626.64	57.886
626.97	58.377
627.30	57.793
627.63	56.326
627.96	56.694
628.29	57.447
628.62	59.390
628.95	59.820
629.28	59.375
629.61	59.222
629.94	57.771
630.26	57.806
630.59	61.915
630.92	58.872
631.25	56.513
631.58	58.150
631.91	59.211
632.24	59.977
632.57	60.341
632.90	62.159
633.23	60.824
633.56	63.602
633.89	62.392
634.22	62.346
634.55	63.024
634.88	62.324
635.20	62.821
635.53	64.667
635.86	64.109
636.19	61.708
636.52	60.714
636.85	59.801
637.18	60.377
637.51	61.509
637.83	62.943
638.16	64.529
638.49	61.989
638.82	62.237
639.15	62.144
639.48	61.898
639.81	60.809
640.13	64.069
640.46	62.682
640.79	65.538
641.12	61.300
641.45	64.114
641.77	64.296
642.10	65.245
642.43	65.434
642.76	67.327
643.09	66.397
643.41	61.812
643.74	63.427
644.07	65.681
644.40	63.176
644.73	63.222
645.05	65.268
645.38	66.843
645.71	65.071
646.04	67.864
646.36	65.426
646.69	66.906
647.02	66.352
647.35	66.231
647.67	65.814
648.00	68.284
648.33	64.164
648.66	62.542
648.98	60.637
649.31	60.826
649.64	60.597
649.96	60.940
650.29	64.225
650.62	62.051
650.94	64.630
651.27	65.549
651.60	63.063
651.92	61.364
652.25	61.279
652.58	60.500
652.90	61.921
653.23	61.681
653.56	59.560
653.88	59.966
654.21	58.844
654.54	60.781
654.86	61.630
655.19	56.725
655.52	51.084
655.84	40.200
656.17	42.476
656.49	57.717
656.82	59.761
657.15	45.693
657.47	35.159
657.80	26.159
658.13	25.898
658.45	40.541
658.78	40.966
659.10	41.751
659.43	42.351
659.75	45.733
660.08	48.207
660.41	51.890
660.73	56.630
661.06	59.445
661.38	60.861
661.71	59.959
662.03	65.880
662.36	62.637
662.68	63.938
663.01	69.214
663.33	67.285
663.66	64.651
663.98	66.047
664.31	62.473
664.63	64.747
664.96	61.522
665.28	61.148
665.61	63.420
665.93	65.435
666.26	64.859
666.58	63.311
666.91	65.176
667.23	67.453
667.56	67.062
667.88	64.748
668.21	65.155
668.53	66.667
668.86	65.566
669.18	64.858
669.50	64.649
669.83	64.186
670.15	64.336
670.48	65.311
670.80	63.364
671.13	61.745
671.45	61.187
671.77	61.803
672.10	57.822
672.42	57.491
672.75	57.194
673.07	58.676
673.39	59.633
673.72	55.030
674.04	59.792
674.37	58.898
674.69	57.816
675.01	63.111
675.34	63.739
675.66	62.731
675.98	60.976
676.31	61.468
676.63	61.758
676.95	59.091
677.28	65.412
677.60	63.614
677.92	61.468
678.25	61.707
678.57	60.173
678.89	55.252
679.22	61.745
679.54	54.618
679.86	55.268
680.18	56.505
680.51	54.356
680.83	57.853
681.15	56.800
681.48	59.221
681.80	58.058
682.12	56.452
682.44	57.950
682.77	57.174
683.09	56.751
683.41	55.682
683.73	56.682
684.06	58.407
684.38	56.129
684.70	57.952
685.02	55.187
685.34	55.534
685.67	54.409
685.99	53.526
686.31	53.982
686.63	54.360
686.96	53.992
687.28	53.333
687.60	50.570
687.92	58.788
688.24	54.032
688.56	55.895
688.89	54.241
689.21	57.111
689.53	55.684
689.85	55.581
690.17	54.687
690.49	56.738
690.82	55.340
691.14	53.333
691.46	55.140
691.78	56.757
692.10	55.484
692.42	53.247
692.74	52.564
693.06	54.955
693.39	52.941
693.71	52.715
694.03	51.732
694.35	53.972
694.67	56.818
694.99	57.963
695.31	58.225
695.63	52.750
695.95	53.535
696.27	56.477
696.59	59.444
696.91	55.182
697.23	54.242
697.56	54.950
697.88	53.118
698.20	49.886
698.52	52.235
698.84	52.153
699.16	54.250
699.48	57.143
699.80	51.365
700.12	52.830
700.44	57.423
700.76	54.942
701.08	55.758
701.40	56.928
701.72	62.346
702.04	57.426
702.36	63.211
702.68	51.652
703.00	60.909
703.32	56.012
703.64	51.695
703.96	51.594
704.28	58.589
704.60	58.095
704.91	57.413
705.23	54.153
705.55	62.191
705.87	59.928
706.19	62.593
706.51	57.388
706.83	59.807
707.15	50.156
707.47	53.501
707.79	53.125
708.11	50.250
708.43	47.500
708.74	49.871
709.06	53.239
709.38	55.046
709.70	53.846
710.02	55.096
710.34	53.251
710.66	50.000
710.98	53.642
711.29	54.426
711.61	55.593
711.93	56.026
712.25	58.419
712.57	57.509
712.89	57.090
713.20	53.633
713.52	55.749
713.84	56.997
714.16	53.952
714.48	56.452
714.80	54.167
715.11	52.584
715.43	49.216
715.75	48.000
716.07	47.176
716.39	52.349
716.70	49.815
717.02	54.198
717.34	52.227
717.66	59.735
717.97	57.391
718.29	57.322
718.61	55.906
718.93	54.651
719.24	53.992
719.56	54.618
719.88	50.172
720.20	53.409
720.51	48.659
720.83	50.193
721.15	58.403
721.46	50.806
721.78	53.755
722.10	49.071
722.42	53.942
722.73	52.245
723.05	57.959
723.37	55.085
723.68	52.252
724.00	50.427
724.32	51.556
724.63	52.273
724.95	55.895
725.27	56.221
725.58	55.508
725.90	45.238
726.22	49.807
726.53	47.458
726.85	48.315
727.16	54.717
727.48	46.559
727.80	52.227
728.11	53.390
728.43	48.627
728.74	45.565
729.06	46.800
729.38	51.504
729.69	46.215
730.01	45.769
730.32	49.254
730.64	47.350
730.96	48.302
731.27	45.667
731.59	49.492
731.90	43.949
732.22	47.003
732.53	47.841
732.85	49.291
733.16	50.505
733.48	44.245
733.80	48.913
734.11	45.763
734.43	46.735
734.74	47.576
735.06	47.231
735.37	41.088
735.69	47.811
736.00	43.206
736.32	41.275
736.63	49.296
736.95	48.464
737.26	41.637
737.58	45.302
737.89	46.520
738.21	41.729
738.52	50.617
738.83	42.358
739.15	52.402
739.46	45.276
739.78	41.758
740.09	42.157
740.41	47.464
740.72	43.307
741.04	43.725
741.35	45.957
741.66	44.550
741.98	48.980
742.29	54.950
742.61	51.309
742.92	43.602
743.23	42.130
743.55	44.796
743.86	46.890
744.18	45.933
744.49	52.660
744.80	46.196
745.12	54.545
745.43	44.878
745.74	48.958
746.06	49.268
746.37	53.927
746.68	54.976
747.00	46.809
747.31	50.746
747.62	52.913
747.94	48.325
748.25	46.040
748.56	59.563
748.88	44.503
749.19	54.787
749.50	51.232
749.82	49.528
750.13	49.541
750.44	48.872
750.75	49.254
751.07	48.540
751.38	42.146
751.69	43.529
752.01	45.736
752.32	44.622
752.63	49.407
752.94	46.552
753.26	53.138
753.57	44.796
753.88	53.540
754.19	45.000
754.51	42.562
754.82	45.344
755.13	52.500
755.44	45.968
755.75	44.922
756.07	47.082
756.38	44.528
756.69	40.230
757.00	40.333
757.31	40.196
757.63	43.902
757.94	38.889
758.25	38.356
758.56	36.702
758.87	35.411
759.18	40.187
759.50	43.273
759.81	42.140
760.12	37.419
760.43	36.364
760.74	41.358
761.05	39.077
761.36	39.489
761.67	44.242
761.99	43.537
762.30	37.091
762.61	37.945
762.92	42.534
763.23	40.991
763.54	44.860
763.85	47.034
764.16	38.174
764.47	43.952
764.78	41.758
765.10	44.108
765.41	36.593
765.72	38.413
766.03	31.955
766.34	37.226
766.65	45.817
766.96	43.434
767.27	43.085
767.58	44.828
767.89	47.518
768.20	42.045
768.51	39.011
768.82	41.872
769.13	41.475
769.44	40.343
769.75	39.269
770.06	43.534
770.37	43.269
770.68	41.117
770.99	38.914
771.30	48.039
771.61	38.462
771.92	39.655
772.23	47.783
772.54	41.398
772.85	48.148
773.16	43.820
773.47	53.595
773.78	52.288
774.09	46.707
774.39	46.000
774.70	42.038
775.01	43.448
775.32	50.000
775.63	46.281
775.94	47.328
776.25	51.969
776.56	39.167
776.87	45.192
777.18	41.880
777.48	48.276
777.79	41.739
778.10	39.048
778.41	46.847
778.72	48.413
779.03	41.353
779.34	39.007
779.65	41.096
779.95	39.726
780.26	42.069
780.57	45.528
780.88	45.669
781.19	40.517
781.50	47.287
781.80	34.911
782.11	36.478
782.42	43.846
782.73	38.129
783.04	40.000
783.34	35.417
783.65	26.496
783.96	32.787
784.27	40.000
784.57	46.341
784.88	45.312
785.19	41.000
785.50	55.000
785.81	43.103
786.11	39.655
786.42	37.864
786.73	43.636
787.04	43.878
787.34	37.500
787.65	55.238
787.96	35.398
788.26	38.182
788.57	37.607
788.88	43.750
789.19	37.302
789.49	41.739
789.80	36.735
790.11	40.404
790.41	33.636
790.72	48.913
791.03	46.591
791.33	43.750
791.64	42.500
791.95	44.186
792.25	32.979
792.56	39.326
792.87	38.356
793.17	50.725
793.48	34.667
793.79	31.250
794.09	58.750
794.40	42.453
794.70	29.126
795.01	32.520
795.32	33.333
795.62	32.381
795.93	27.451
796.23	35.849
796.54	30.208
796.85	42.647
797.15	43.662
797.46	48.611
797.76	46.970
798.07	26.744
798.37	21.053
798.68	34.848
798.99	29.630
799.29	37.143
799.60	60.870
799.90	56.000
800.21	45.902
800.51	52.308
800.82	38.983
801.12	44.928
801.43	57.377
801.73	36.508
802.04	44.000
802.34	29.851
802.65	50.000
802.95	41.071
803.26	46.154
803.56	52.941
803.87	19.565
804.17	50.667
804.48	47.619
804.78	46.296
805.09	41.304
805.39	33.333
805.70	50.000
806.00	22.807
806.30	36.620
806.61	48.571
806.91	23.611
807.22	44.737
807.52	36.000
807.83	20.000
808.13	36.111
808.43	47.059
808.74	28.358
809.04	30.508
809.35	23.077
809.65	34.375
809.95	32.432
810.26	40.909
810.56	26.027
810.86	50.000
811.17	36.000
811.47	42.857
811.77	42.105
812.08	34.091
812.38	32.075
812.69	30.000
812.99	24.242
813.29	34.211
813.59	20.000
813.90	27.273
814.20	25.641
814.50	30.769
814.81	28.302
815.11	8.511
815.41	50.847
815.72	38.095
816.02	50.980
816.32	29.167
816.62	29.268
816.93	37.838
817.23	42.857
817.53	54.167
817.84	30.435
818.14	32.692
818.44	21.053
818.74	15.217
819.04	5.000
819.35	54.054
819.65	17.647
819.95	58.333
820.25	28.571
820.56	37.500
820.86	-6.897
821.16	42.500
821.46	36.170
821.76	32.500
822.07	16.279
822.37	-5.405
822.67	31.250
822.97	47.619
823.27	7.143
823.57	52.000
823.88	-7.407
824.18	28.571
824.48	23.529
824.78	51.613
825.08	21.739
825.38	57.576
825.69	-4.167
825.99	18.421
826.29	22.222
826.59	13.333
826.89	-9.524
827.19	43.478
827.49	17.500
827.79	34.286
828.09	28.571
828.39	15.152
828.70	51.351
829.00	53.571
829.30	-9.524
829.60	30.000
829.90	53.125
830.20	10.526
830.50	0.000
830.80	52.174
831.10	18.182
831.40	81.818
831.70	64.516
832.00	52.381
832.30	0.000
832.60	41.667
832.90	20.690
833.20	-5.000
833.50	51.515
833.80	29.630
834.10	46.154
834.40	46.875
834.70	77.778
835.00	42.105
835.30	61.538
835.60	126.667
835.90	32.258
836.20	45.455
836.50	50.000
836.80	-23.077
837.10	25.000
837.40	-233.333
837.70	54.545
838.00	9.091
838.30	52.174
838.60	38.462
838.90	54.545
839.19	0.000
839.49	60.000
839.79	-7.692
840.09	-25.000
840.39	75.000
840.69	25.000
840.99	-34.615
841.29	5.263
841.59	20.000
841.88	-9.091
842.18	110.000
842.48	106.250
842.78	60.000
843.08	22.222
843.38	-70.000
843.68	8.696
843.97	33.333
844.27	-6.667
844.57	-30.000
844.87	16.667
845.17	0.000
845.47	60.000
845.76	9.524
846.06	41.176
846.36	-60.000
846.66	50.000
846.96	33.333
847.25	-75.000
847.55	78.571
847.85	50.000
848.15	-27.273
848.44	-366.667
848.74	45.000
849.04	88.889
849.34	72.727
849.63	33.333
849.93	-20.000
850.23	-22.222
850.53	90.000
850.82	-38.462
851.12	-33.333
851.42	80.000
851.71	7.692
852.01	50.000
852.31	-275.000
852.61	54.545
852.90	5.000
853.20	36.842
853.50	8.333
853.79	0.000
854.09	16.667
854.39	47.368
854.68	29.167
854.98	16.129
855.28	23.077
855.57	40.000
855.87	33.333
856.17	51.852
856.46	0.000
856.76	-20.000
857.05	66.667
857.35	68.000
857.65	50.000
857.94	-15.385
858.24	13.793
858.53	72.222
858.83	25.926
859.13	9.091
859.42	26.087
859.72	50.000
860.01	-533.333
860.31	20.000
860.60	38.095
860.90	33.333
861.20	53.333
861.49	-150.000
861.79	-40.000
862.08	-40.000
862.38	113.333
862.67	-200.000
862.97	16.667
863.26	16.667
863.56	38.889
863.85	66.667
864.15	27.778
864.44	60.000
864.74	85.714
865.03	50.000
865.33	-260.000
865.62	-16.667
865.92	8.333
866.21	-150.000
866.51	75.000
866.80	-100.000
867.10	150.000
867.39	100.000
867.69	0.000
867.98	46.154
868.27	-100.000
868.57	-6.667
868.86	33.333
869.16	-7.692
869.45	46.667
869.75	-1100.000
870.04	0.000
870.33	-28.571
870.63	52.381
870.92	533.333
871.22	-140.000
871.51	100.000
871.80	100.000
872.10	66.667
>>>>>End Processed Spectral Data<<<<<
