SpectraSuite Data File
++++++++++++++++++++++++++++++++++++
Date: Fri May 15 20:27:23 PDT 2015
User: schluterlab
Dark Spectrum Present: Yes
Reference Spectrum Present: Yes
Number of Sampled Component Spectra: 1
Spectrometers: USB2E3373
Integration Time (usec): 3000 (USB2E3373)
Spectra Averaged: 3 (USB2E3373)
Boxcar Smoothing: 0 (USB2E3373)
Correct for Electrical Dark: No (USB2E3373)
Strobe/Lamp Enabled: No (USB2E3373)
Correct for Detector Non-linearity: No (USB2E3373)
Correct for Stray Light: No (USB2E3373)
Number of Pixels in Processed Spectrum: 2048
>>>>>Begin Processed Spectral Data<<<<<
178.53	0.000
178.91	0.000
179.29	62.500
179.67	-500.000
180.04	28.571
180.42	375.000
180.80	-500.000
181.18	-66.667
181.56	550.000
181.94	50.000
182.31	100.000
182.69	-40.000
183.07	-200.000
183.45	-100.000
183.83	150.000
184.20	-18.182
184.58	33.333
184.96	-150.000
185.34	233.333
185.72	-600.000
186.09	7.692
186.47	-800.000
186.85	16.667
187.23	88.889
187.61	100.000
187.98	-66.667
188.36	-66.667
188.74	-166.667
189.12	64.706
189.49	66.667
189.87	0.000
190.25	57.143
190.63	600.000
191.00	-33.333
191.38	-21.053
191.76	50.000
192.14	50.000
192.51	300.000
192.89	-11.111
193.27	-128.571
193.65	33.333
194.02	200.000
194.40	40.000
194.78	-100.000
195.15	-33.333
195.53	-37.500
195.91	200.000
196.29	75.000
196.66	100.000
197.04	100.000
197.42	-66.667
197.79	-766.667
198.17	-92.308
198.55	1500.000
198.92	-100.000
199.30	-700.000
199.68	-100.000
200.05	-133.333
200.43	0.000
200.81	-400.000
201.18	-100.000
201.56	900.000
201.94	-300.000
202.31	-0.000
202.69	-180.000
203.07	-125.000
203.44	-500.000
203.82	0.000
204.19	14.286
204.57	-233.333
204.95	25.000
205.32	50.000
205.70	0.000
206.08	-25.000
206.45	122.222
206.83	14.286
207.20	28.571
207.58	400.000
207.96	-100.000
208.33	100.000
208.71	25.000
209.08	-233.333
209.46	100.000
209.84	-160.000
210.21	-900.000
210.59	-14.286
210.96	-116.667
211.34	-75.000
211.71	0.000
212.09	-128.571
212.46	-900.000
212.84	0.000
213.22	90.000
213.59	800.000
213.97	15.385
214.34	-9.091
214.72	66.667
215.09	375.000
215.47	-15.385
215.84	36.364
216.22	0.000
216.59	-112.500
216.97	0.000
217.34	25.000
217.72	-240.000
218.09	25.000
218.47	100.000
218.84	-700.000
219.22	-22.222
219.59	-60.000
219.97	33.333
220.34	250.000
220.72	128.571
221.09	0.000
221.47	300.000
221.84	-450.000
222.22	-750.000
222.59	54.545
222.97	41.667
223.34	-266.667
223.72	-14.286
224.09	28.571
224.46	21.429
224.84	266.667
225.21	-50.000
225.59	-53.333
225.96	-150.000
226.34	225.000
226.71	-85.714
227.08	66.667
227.46	62.500
227.83	-550.000
228.21	22.222
228.58	72.727
228.95	0.000
229.33	20.000
229.70	6.250
230.08	-50.000
230.45	-57.143
230.82	-28.571
231.20	20.000
231.57	14.286
231.95	0.000
232.32	-150.000
232.69	21.429
233.07	-233.333
233.44	-40.000
233.81	-30.000
234.19	66.667
234.56	-11.765
234.93	-400.000
235.31	75.000
235.68	-200.000
236.05	-46.154
236.43	35.000
236.80	5.882
237.17	50.000
237.55	60.000
237.92	33.333
238.29	5.556
238.67	23.333
239.04	29.412
239.41	19.512
239.79	70.000
240.16	46.341
240.53	28.947
240.91	10.870
241.28	38.095
241.65	55.357
242.02	58.904
242.40	53.333
242.77	61.017
243.14	50.000
243.51	51.250
243.89	55.172
244.26	44.828
244.63	57.143
245.00	51.546
245.38	60.825
245.75	64.045
246.12	50.862
246.49	49.587
246.87	59.615
247.24	51.261
247.61	50.000
247.98	63.415
248.36	48.125
248.73	57.237
249.10	50.000
249.47	52.532
249.84	57.516
250.22	55.294
250.59	62.092
250.96	50.235
251.33	52.907
251.70	57.059
252.08	60.406
252.45	50.495
252.82	55.276
253.19	51.613
253.56	57.009
253.94	54.054
254.31	53.913
254.68	60.965
255.05	51.969
255.42	60.262
255.79	55.212
256.16	56.031
256.54	56.716
256.91	58.935
257.28	52.045
257.65	52.434
258.02	53.191
258.39	51.515
258.76	61.172
259.14	54.153
259.51	52.427
259.88	51.890
260.25	56.209
260.62	61.111
260.99	58.305
261.36	55.137
261.73	54.114
262.10	51.368
262.47	53.681
262.85	55.799
263.22	52.615
263.59	56.698
263.96	57.143
264.33	54.545
264.70	53.869
265.07	53.869
265.44	52.125
265.81	56.215
266.18	52.186
266.55	50.900
266.92	50.518
267.29	53.264
267.66	52.685
268.03	52.356
268.40	50.914
268.77	56.952
269.14	49.640
269.51	52.442
269.88	53.616
270.25	50.000
270.62	48.293
270.99	51.662
271.36	47.188
271.73	50.235
272.10	49.392
272.47	50.827
272.84	49.257
273.21	50.116
273.58	49.880
273.95	46.224
274.32	49.654
274.69	47.285
275.06	48.884
275.43	46.939
275.80	45.254
276.17	47.356
276.54	46.467
276.91	49.342
277.28	46.725
277.65	47.314
278.02	44.255
278.39	45.077
278.76	46.541
279.13	46.058
279.50	45.798
279.87	44.060
280.23	45.161
280.60	43.275
280.97	45.859
281.34	42.885
281.71	47.639
282.08	44.581
282.45	43.640
282.82	44.402
283.19	44.101
283.56	42.197
283.92	43.454
284.29	41.923
284.66	45.930
285.03	43.026
285.40	43.856
285.77	42.531
286.14	43.502
286.51	43.911
286.87	38.574
287.24	44.383
287.61	42.504
287.98	45.088
288.35	42.114
288.72	42.557
289.08	41.667
289.45	42.531
289.82	40.909
290.19	39.249
290.56	40.480
290.93	40.741
291.29	41.140
291.66	38.898
292.03	38.915
292.40	41.613
292.77	38.437
293.13	34.740
293.50	38.088
293.87	38.931
294.24	39.413
294.60	36.662
294.97	34.970
295.34	39.417
295.71	36.513
296.08	36.323
296.44	34.851
296.81	36.111
297.18	35.217
297.55	37.805
297.91	35.753
298.28	35.224
298.65	36.228
299.02	33.827
299.38	35.021
299.75	34.621
300.12	35.340
300.48	34.124
300.85	34.474
301.22	31.818
301.59	34.605
301.95	34.937
302.32	35.798
302.69	34.204
303.05	35.396
303.42	35.118
303.79	34.346
304.15	34.528
304.52	34.364
304.89	33.918
305.25	33.777
305.62	33.489
305.99	32.632
306.35	33.295
306.72	35.658
307.09	33.751
307.45	34.673
307.82	34.375
308.19	35.772
308.55	35.551
308.92	36.601
309.29	35.307
309.65	36.276
310.02	35.204
310.38	35.895
310.75	36.175
311.12	37.029
311.48	34.783
311.85	35.497
312.22	35.970
312.58	37.686
312.95	36.499
313.31	37.164
313.68	36.859
314.05	36.224
314.41	38.247
314.78	37.835
315.14	38.232
315.51	38.095
315.87	39.652
316.24	38.524
316.61	39.567
316.97	39.187
317.34	38.867
317.70	38.623
318.07	39.808
318.43	39.608
318.80	39.394
319.16	40.723
319.53	40.741
319.89	40.945
320.26	41.296
320.62	42.026
320.99	41.545
321.35	41.316
321.72	41.952
322.08	41.994
322.45	42.944
322.81	42.141
323.18	41.904
323.54	41.506
323.91	42.941
324.27	43.262
324.64	43.633
325.00	43.887
325.37	44.995
325.73	43.064
326.10	44.687
326.46	43.946
326.83	45.057
327.19	44.638
327.56	44.744
327.92	46.303
328.29	44.464
328.65	45.943
329.01	44.118
329.38	45.622
329.74	43.909
330.11	44.578
330.47	45.176
330.84	44.808
331.20	46.863
331.56	43.981
331.93	45.297
332.29	45.096
332.66	45.339
333.02	44.796
333.38	44.730
333.75	45.513
334.11	43.509
334.48	47.416
334.84	46.795
335.20	44.831
335.57	43.880
335.93	44.083
336.29	44.659
336.66	44.233
337.02	43.866
337.38	43.241
337.75	44.364
338.11	44.635
338.47	43.157
338.84	44.177
339.20	45.430
339.56	44.771
339.93	44.226
340.29	43.486
340.65	43.996
341.02	43.085
341.38	42.124
341.74	42.491
342.11	41.681
342.47	43.238
342.83	43.080
343.20	41.551
343.56	42.522
343.92	42.781
344.28	42.869
344.65	41.969
345.01	41.400
345.37	40.622
345.73	43.347
346.10	43.141
346.46	41.548
346.82	41.244
347.19	39.983
347.55	42.607
347.91	42.152
348.27	40.097
348.63	41.482
349.00	41.017
349.36	41.729
349.72	41.376
350.08	38.525
350.45	40.862
350.81	41.030
351.17	40.635
351.53	41.306
351.89	39.719
352.26	40.080
352.62	40.968
352.98	38.635
353.34	39.291
353.70	41.100
354.07	37.984
354.43	39.952
354.79	40.793
355.15	40.159
355.51	39.241
355.87	39.078
356.24	39.070
356.60	38.723
356.96	39.841
357.32	37.939
357.68	38.546
358.04	38.288
358.40	38.344
358.77	38.915
359.13	38.911
359.49	37.982
359.85	38.534
360.21	38.756
360.57	37.184
360.93	39.032
361.29	37.009
361.66	39.263
362.02	40.000
362.38	39.985
362.74	38.759
363.10	38.751
363.46	38.918
363.82	39.219
364.18	38.450
364.54	37.868
364.90	38.136
365.26	37.627
365.62	39.708
365.98	38.856
366.35	39.039
366.71	39.024
367.07	37.881
367.43	38.390
367.79	37.385
368.15	38.478
368.51	38.966
368.87	37.976
369.23	36.318
369.59	38.703
369.95	38.050
370.31	38.078
370.67	39.030
371.03	37.341
371.39	39.023
371.75	38.095
372.11	37.161
372.47	39.349
372.83	37.899
373.19	37.589
373.55	36.462
373.91	37.725
374.27	40.397
374.63	38.047
374.99	37.801
375.35	38.510
375.71	39.021
376.07	38.413
376.42	37.347
376.78	37.987
377.14	37.712
377.50	38.181
377.86	38.688
378.22	38.928
378.58	37.500
378.94	38.122
379.30	38.740
379.66	38.495
380.02	38.381
380.38	37.553
380.74	38.181
381.09	39.141
381.45	38.471
381.81	37.816
382.17	38.832
382.53	38.289
382.89	39.360
383.25	38.021
383.61	39.878
383.97	39.048
384.32	38.211
384.68	39.071
385.04	38.787
385.40	38.519
385.76	40.566
386.12	38.422
386.48	40.166
386.83	39.062
387.19	39.438
387.55	40.339
387.91	38.386
388.27	39.072
388.62	40.088
388.98	38.797
389.34	39.163
389.70	39.901
390.06	39.585
390.42	40.026
390.77	40.092
391.13	39.344
391.49	39.845
391.85	40.676
392.20	39.171
392.56	39.924
392.92	39.988
393.28	39.564
393.64	39.159
393.99	40.251
394.35	39.532
394.71	40.358
395.07	39.472
395.42	38.434
395.78	39.674
396.14	40.164
396.50	39.569
396.85	40.052
397.21	39.348
397.57	39.561
397.92	38.826
398.28	39.770
398.64	39.819
399.00	41.140
399.35	39.052
399.71	39.518
400.07	39.238
400.42	39.168
400.78	39.437
401.14	39.383
401.49	40.560
401.85	40.037
402.21	40.241
402.57	40.188
402.92	38.645
403.28	39.850
403.63	40.858
403.99	40.115
404.35	39.788
404.70	39.405
405.06	38.543
405.42	39.217
405.77	39.279
406.13	39.523
406.49	40.320
406.84	40.159
407.20	40.638
407.55	40.052
407.91	38.770
408.27	38.815
408.62	40.800
408.98	39.433
409.34	40.025
409.69	39.406
410.05	39.594
410.40	40.000
410.76	39.747
411.11	40.625
411.47	40.565
411.83	38.606
412.18	41.634
412.54	39.014
412.89	39.717
413.25	40.313
413.60	40.621
413.96	39.571
414.31	40.122
414.67	40.218
415.03	39.081
415.38	39.491
415.74	39.479
416.09	40.823
416.45	40.513
416.80	39.987
417.16	40.124
417.51	40.640
417.87	39.570
418.22	41.062
418.58	40.067
418.93	41.755
419.29	39.437
419.64	39.469
420.00	41.058
420.35	39.104
420.71	39.976
421.06	40.331
421.42	39.844
421.77	40.116
422.12	40.125
422.48	39.686
422.83	40.487
423.19	40.350
423.54	39.565
423.90	39.929
424.25	40.700
424.61	40.698
424.96	40.070
425.31	41.248
425.67	41.197
426.02	42.108
426.38	41.265
426.73	41.707
427.09	42.215
427.44	41.647
427.79	39.717
428.15	39.806
428.50	40.521
428.85	39.803
429.21	40.804
429.56	42.156
429.92	40.627
430.27	40.000
430.62	40.355
430.98	40.127
431.33	41.325
431.68	40.502
432.04	40.637
432.39	40.103
432.74	39.387
433.10	40.862
433.45	40.263
433.80	39.930
434.16	40.277
434.51	41.022
434.86	41.754
435.22	40.830
435.57	41.609
435.92	40.838
436.28	40.906
436.63	40.673
436.98	40.788
437.34	41.379
437.69	40.429
438.04	41.140
438.39	40.929
438.75	42.016
439.10	40.860
439.45	41.692
439.81	41.468
440.16	42.221
440.51	41.612
440.86	43.686
441.22	40.724
441.57	41.611
441.92	41.973
442.27	42.738
442.63	42.291
442.98	42.504
443.33	42.181
443.68	41.645
444.03	42.822
444.39	41.663
444.74	43.200
445.09	41.704
445.44	43.419
445.79	43.579
446.15	41.685
446.50	39.823
446.85	43.146
447.20	41.084
447.55	42.746
447.91	43.204
448.26	43.256
448.61	43.120
448.96	43.373
449.31	41.965
449.66	41.870
450.02	43.183
450.37	42.798
450.72	43.356
451.07	43.924
451.42	43.508
451.77	42.917
452.12	41.986
452.47	42.885
452.83	42.638
453.18	43.011
453.53	43.173
453.88	42.441
454.23	43.577
454.58	43.388
454.93	45.168
455.28	42.032
455.63	43.459
455.98	43.656
456.34	42.912
456.69	44.282
457.04	43.856
457.39	43.256
457.74	43.954
458.09	42.672
458.44	43.651
458.79	42.297
459.14	44.508
459.49	43.582
459.84	45.065
460.19	43.507
460.54	44.621
460.89	43.864
461.24	43.851
461.59	44.299
461.94	43.774
462.29	43.788
462.64	44.452
462.99	43.060
463.34	44.089
463.69	43.050
464.04	44.128
464.39	44.087
464.74	43.313
465.09	44.105
465.44	44.432
465.79	42.857
466.14	44.356
466.49	43.933
466.84	43.962
467.19	44.931
467.54	43.934
467.89	43.588
468.24	44.282
468.59	45.460
468.94	44.508
469.29	45.049
469.64	44.224
469.99	46.111
470.34	46.758
470.68	46.234
471.03	44.798
471.38	45.150
471.73	46.499
472.08	45.794
472.43	46.443
472.78	44.688
473.13	45.578
473.48	45.537
473.83	45.579
474.17	46.114
474.52	45.310
474.87	45.091
475.22	45.516
475.57	44.608
475.92	45.420
476.27	45.751
476.61	45.949
476.96	45.287
477.31	44.727
477.66	45.169
478.01	45.199
478.36	44.499
478.70	46.656
479.05	45.165
479.40	46.264
479.75	46.455
480.10	45.520
480.45	46.450
480.79	46.626
481.14	46.875
481.49	45.172
481.84	45.898
482.19	45.837
482.53	45.180
482.88	45.012
483.23	45.537
483.58	45.330
483.92	46.321
484.27	45.397
484.62	45.271
484.97	45.647
485.31	44.184
485.66	43.122
486.01	43.842
486.36	43.449
486.70	43.027
487.05	43.623
487.40	43.847
487.75	44.394
488.09	43.511
488.44	43.913
488.79	45.685
489.13	45.393
489.48	46.003
489.83	45.112
490.17	45.708
490.52	46.051
490.87	46.136
491.22	47.373
491.56	46.442
491.91	46.033
492.26	46.767
492.60	45.969
492.95	47.959
493.30	45.921
493.64	47.299
493.99	46.039
494.34	45.243
494.68	46.905
495.03	47.299
495.37	46.222
495.72	46.744
496.07	47.805
496.41	46.557
496.76	46.062
497.11	46.251
497.45	46.874
497.80	47.275
498.14	46.448
498.49	47.334
498.84	48.004
499.18	47.590
499.53	47.669
499.87	45.963
500.22	46.934
500.56	47.655
500.91	47.289
501.26	47.701
501.60	47.073
501.95	47.792
502.29	47.893
502.64	47.732
502.98	47.607
503.33	46.974
503.67	46.651
504.02	48.045
504.36	49.134
504.71	47.525
505.06	46.704
505.40	48.173
505.75	48.247
506.09	46.934
506.44	48.306
506.78	48.316
507.13	47.725
507.47	46.475
507.82	47.863
508.16	47.913
508.51	48.478
508.85	48.718
509.19	48.324
509.54	48.418
509.88	48.706
510.23	48.467
510.57	47.889
510.92	47.761
511.26	47.845
511.61	48.900
511.95	48.877
512.30	47.727
512.64	49.137
512.98	49.186
513.33	48.237
513.67	48.835
514.02	49.828
514.36	50.743
514.70	50.291
515.05	50.470
515.39	49.646
515.74	50.359
516.08	50.508
516.42	50.000
516.77	49.854
517.11	50.326
517.46	51.107
517.80	49.464
518.14	50.276
518.49	48.798
518.83	50.122
519.17	49.485
519.52	49.142
519.86	49.760
520.20	49.575
520.55	48.906
520.89	50.376
521.23	50.158
521.58	51.735
521.92	50.897
522.26	50.813
522.61	50.584
522.95	51.325
523.29	49.936
523.64	50.445
523.98	52.625
524.32	51.289
524.66	51.536
525.01	51.429
525.35	51.005
525.69	51.246
526.04	50.000
526.38	52.983
526.72	50.556
527.06	51.686
527.41	49.934
527.75	50.804
528.09	48.439
528.43	52.127
528.78	51.287
529.12	50.323
529.46	49.253
529.80	50.412
530.15	51.287
530.49	51.380
530.83	51.847
531.17	50.907
531.51	52.462
531.86	50.306
532.20	50.870
532.54	52.008
532.88	50.787
533.22	50.739
533.57	50.983
533.91	49.869
534.25	51.497
534.59	48.942
534.93	49.150
535.27	50.444
535.62	50.745
535.96	50.359
536.30	49.934
536.64	50.241
536.98	50.383
537.32	51.636
537.66	50.771
538.01	51.259
538.35	49.792
538.69	50.333
539.03	49.351
539.37	50.808
539.71	49.489
540.05	49.762
540.39	50.277
540.73	51.046
541.07	50.414
541.42	50.202
541.76	51.686
542.10	49.897
542.44	50.938
542.78	48.245
543.12	50.000
543.46	49.652
543.80	49.618
544.14	48.131
544.48	49.434
544.82	50.649
545.16	49.863
545.50	49.466
545.84	50.921
546.18	51.418
546.52	51.045
546.86	49.964
547.20	50.787
547.54	49.753
547.88	50.068
548.22	48.455
548.56	49.934
548.90	49.865
549.24	48.416
549.58	50.071
549.92	49.249
550.26	49.817
550.60	50.483
550.94	51.232
551.28	51.546
551.62	51.615
551.96	51.203
552.30	51.170
552.64	49.718
552.98	50.633
553.32	49.572
553.66	49.782
554.00	50.657
554.34	51.477
554.68	48.968
555.02	50.074
555.36	50.112
555.69	49.670
556.03	48.894
556.37	49.181
556.71	50.758
557.05	50.037
557.39	49.145
557.73	50.075
558.07	50.000
558.41	51.072
558.75	50.740
559.08	50.749
559.42	50.476
559.76	51.721
560.10	49.388
560.44	49.814
560.78	49.371
561.12	49.859
561.45	51.160
561.79	50.280
562.13	49.752
562.47	50.360
562.81	49.568
563.15	48.801
563.48	48.798
563.82	49.623
564.16	50.279
564.50	48.649
564.84	48.327
565.17	49.497
565.51	50.546
565.85	49.931
566.19	48.740
566.52	49.397
566.86	48.458
567.20	47.758
567.54	48.540
567.88	48.623
568.21	47.115
568.55	47.120
568.89	47.125
569.23	46.558
569.56	45.665
569.90	45.757
570.24	43.469
570.57	44.836
570.91	44.685
571.25	43.473
571.59	43.413
571.92	42.400
572.26	43.086
572.60	42.822
572.93	42.611
573.27	42.602
573.61	42.572
573.95	42.600
574.28	42.161
574.62	41.698
574.96	41.511
575.29	41.570
575.63	41.073
575.97	41.475
576.30	41.608
576.64	40.980
576.98	41.647
577.31	41.116
577.65	41.972
577.98	41.082
578.32	41.022
578.66	40.683
578.99	40.407
579.33	40.844
579.67	40.247
580.00	40.684
580.34	41.070
580.67	40.084
581.01	40.850
581.35	40.418
581.68	40.307
582.02	40.356
582.35	39.870
582.69	40.183
583.02	40.141
583.36	40.738
583.70	40.784
584.03	41.090
584.37	41.558
584.70	41.071
585.04	40.207
585.37	40.491
585.71	40.188
586.04	40.923
586.38	39.851
586.72	40.373
587.05	41.883
587.39	40.649
587.72	41.771
588.06	40.105
588.39	40.758
588.73	41.087
589.06	41.748
589.40	41.237
589.73	41.986
590.07	42.598
590.40	42.570
590.73	43.040
591.07	42.791
591.40	42.520
591.74	43.665
592.07	43.182
592.41	43.375
592.74	42.453
593.08	40.796
593.41	41.845
593.75	41.119
594.08	40.714
594.41	41.303
594.75	40.725
595.08	42.036
595.42	41.259
595.75	41.157
596.09	41.165
596.42	42.869
596.75	42.540
597.09	42.597
597.42	42.502
597.75	42.052
598.09	41.693
598.42	41.832
598.76	41.227
599.09	41.466
599.42	40.394
599.76	40.670
600.09	40.649
600.42	40.561
600.76	40.007
601.09	40.344
601.42	40.345
601.76	41.048
602.09	40.759
602.42	41.786
602.76	42.784
603.09	42.359
603.42	42.726
603.76	40.685
604.09	41.150
604.42	41.794
604.76	41.967
605.09	41.316
605.42	41.716
605.75	41.331
606.09	41.953
606.42	40.951
606.75	40.866
607.09	41.187
607.42	40.984
607.75	40.631
608.08	40.521
608.42	40.795
608.75	42.747
609.08	41.854
609.41	41.574
609.75	41.835
610.08	41.638
610.41	41.111
610.74	41.199
611.07	41.550
611.41	41.930
611.74	43.017
612.07	41.702
612.40	42.123
612.73	42.486
613.07	41.732
613.40	42.779
613.73	42.138
614.06	42.682
614.39	42.922
614.72	41.793
615.06	43.184
615.39	40.011
615.72	41.173
616.05	42.011
616.38	40.513
616.71	42.080
617.05	42.742
617.38	42.175
617.71	42.516
618.04	43.683
618.37	44.767
618.70	43.960
619.03	44.097
619.36	43.922
619.69	45.489
620.03	44.631
620.36	43.991
620.69	44.825
621.02	44.266
621.35	47.386
621.68	46.344
622.01	47.083
622.34	43.336
622.67	44.874
623.00	43.415
623.33	44.360
623.66	45.251
623.99	44.932
624.32	44.106
624.65	43.910
624.99	45.749
625.32	43.897
625.65	46.504
625.98	45.689
626.31	43.890
626.64	46.707
626.97	44.764
627.30	45.009
627.63	45.407
627.96	46.721
628.29	45.698
628.62	46.116
628.95	47.796
629.28	47.984
629.61	47.458
629.94	46.921
630.26	46.443
630.59	47.451
630.92	48.000
631.25	46.154
631.58	47.247
631.91	46.601
632.24	47.821
632.57	46.932
632.90	47.805
633.23	49.059
633.56	48.237
633.89	48.335
634.22	48.889
634.55	49.936
634.88	48.276
635.20	47.692
635.53	49.333
635.86	47.334
636.19	50.065
636.52	50.510
636.85	47.022
637.18	46.415
637.51	47.170
637.83	47.832
638.16	48.840
638.49	48.774
638.82	49.079
639.15	49.932
639.48	49.656
639.81	49.512
640.13	48.629
640.46	50.729
640.79	50.221
641.12	50.222
641.45	49.249
641.77	49.481
642.10	52.291
642.43	49.357
642.76	50.330
643.09	51.858
643.41	50.324
643.74	51.565
644.07	50.903
644.40	49.662
644.73	51.138
645.05	50.839
645.38	52.734
645.71	52.305
646.04	54.399
646.36	51.596
646.69	52.338
647.02	53.119
647.35	50.560
647.67	51.737
648.00	51.306
648.33	51.536
648.66	48.983
648.98	49.749
649.31	45.950
649.64	46.154
649.96	47.164
650.29	48.893
650.62	52.137
650.94	50.741
651.27	48.231
651.60	49.189
651.92	50.000
652.25	46.892
652.58	47.667
652.90	47.856
653.23	48.571
653.56	47.208
653.88	47.251
654.21	44.483
654.54	44.652
654.86	47.708
655.19	43.567
655.52	41.796
655.84	35.304
656.17	38.806
656.49	51.100
656.82	51.865
657.15	39.116
657.47	29.239
657.80	21.566
658.13	21.346
658.45	32.624
658.78	31.654
659.10	31.650
659.43	32.767
659.75	34.780
660.08	34.759
660.41	37.896
660.73	41.989
661.06	46.967
661.38	45.597
661.71	44.764
662.03	51.717
662.36	48.571
662.68	50.664
663.01	50.873
663.33	51.044
663.66	50.465
663.98	47.442
664.31	46.908
664.63	47.926
664.96	44.348
665.28	46.799
665.61	50.433
665.93	50.435
666.26	49.241
666.58	46.532
666.91	48.000
667.23	49.528
667.56	47.393
667.88	49.880
668.21	51.790
668.53	48.463
668.86	51.415
669.18	47.642
669.50	49.153
669.83	46.977
670.15	49.883
670.48	47.847
670.80	45.161
671.13	43.177
671.45	44.521
671.77	46.996
672.10	46.139
672.42	47.940
672.75	45.648
673.07	45.259
673.39	46.055
673.72	40.434
674.04	45.417
674.37	48.093
674.69	47.752
675.01	47.778
675.34	45.721
675.66	49.306
675.98	45.455
676.31	48.394
676.63	47.268
676.95	45.000
677.28	47.529
677.60	48.193
677.92	44.954
678.25	45.514
678.57	46.104
678.89	43.067
679.22	46.309
679.54	43.775
679.86	42.346
680.18	44.660
680.51	42.803
680.83	40.954
681.15	45.000
681.48	44.672
681.80	45.248
682.12	42.137
682.44	44.770
682.77	42.384
683.09	44.622
683.41	45.682
683.73	44.700
684.06	44.912
684.38	42.796
684.70	45.752
685.02	41.909
685.34	40.514
685.67	41.088
685.99	42.315
686.31	41.239
686.63	41.002
686.96	38.023
687.28	38.384
687.60	41.445
687.92	43.434
688.24	40.726
688.56	43.886
688.89	42.411
689.21	43.333
689.53	43.619
689.85	39.070
690.17	43.973
690.49	44.444
690.82	43.204
691.14	42.143
691.46	42.991
691.78	42.117
692.10	41.935
692.42	41.126
692.74	40.171
693.06	38.964
693.39	41.629
693.71	37.557
694.03	41.801
694.35	41.355
694.67	41.414
694.99	43.342
695.31	46.736
695.63	43.000
695.95	42.424
696.27	41.969
696.59	42.222
696.91	42.017
697.23	38.817
697.56	43.317
697.88	39.785
698.20	41.686
698.52	43.294
698.84	39.713
699.16	39.000
699.48	44.110
699.80	38.213
700.12	40.701
700.44	39.776
700.76	42.442
701.08	39.697
701.40	40.060
701.72	46.296
702.04	45.545
702.36	47.492
702.68	41.141
703.00	42.727
703.32	41.935
703.64	34.463
703.96	37.391
704.28	43.558
704.60	42.222
704.91	36.909
705.23	42.193
705.55	46.996
705.87	42.960
706.19	42.963
706.51	37.801
706.83	38.264
707.15	38.629
707.47	39.216
707.79	36.979
708.11	38.750
708.43	36.250
708.74	39.018
709.06	40.282
709.38	37.920
709.70	42.308
710.02	40.764
710.34	40.248
710.66	35.577
710.98	38.742
711.29	41.311
711.61	39.661
711.93	41.368
712.25	43.299
712.57	44.689
712.89	35.821
713.20	40.484
713.52	40.070
713.84	38.567
714.16	37.801
714.48	35.484
714.80	41.026
715.11	35.562
715.43	35.423
715.75	38.000
716.07	34.551
716.39	38.926
716.70	38.745
717.02	38.550
717.34	39.271
717.66	38.496
717.97	35.652
718.29	39.331
718.61	39.764
718.93	41.085
719.24	40.304
719.56	40.964
719.88	35.052
720.20	37.500
720.51	32.950
720.83	42.085
721.15	37.815
721.46	40.726
721.78	37.154
722.10	36.431
722.42	38.174
722.73	37.143
723.05	40.816
723.37	43.220
723.68	48.649
724.00	34.188
724.32	42.222
724.63	36.364
724.95	38.428
725.27	45.622
725.58	38.559
725.90	34.524
726.22	35.135
726.53	33.559
726.85	36.330
727.16	38.868
727.48	35.628
727.80	42.105
728.11	33.475
728.43	34.118
728.74	33.065
729.06	34.400
729.38	40.226
729.69	35.857
730.01	32.692
730.32	36.194
730.64	32.509
730.96	33.585
731.27	31.000
731.59	35.593
731.90	35.032
732.22	35.331
732.53	35.216
732.85	39.007
733.16	35.017
733.48	32.014
733.80	34.783
734.11	35.593
734.43	34.364
734.74	33.636
735.06	31.922
735.37	31.722
735.69	33.333
736.00	31.707
736.32	31.879
736.63	34.155
736.95	35.154
737.26	26.690
737.58	28.523
737.89	32.967
738.21	35.714
738.52	35.391
738.83	37.991
739.15	37.555
739.46	33.465
739.78	29.670
740.09	33.660
740.41	35.145
740.72	32.677
741.04	32.794
741.35	33.617
741.66	36.493
741.98	40.306
742.29	39.109
742.61	39.267
742.92	27.962
743.23	31.019
743.55	37.557
743.86	33.493
744.18	33.971
744.49	27.128
744.80	28.804
745.12	40.642
745.43	33.171
745.74	34.375
746.06	34.634
746.37	34.031
746.68	36.019
747.00	34.574
747.31	40.796
747.62	33.495
747.94	33.971
748.25	36.139
748.56	35.519
748.88	32.461
749.19	40.426
749.50	35.961
749.82	27.830
750.13	33.486
750.44	32.707
750.75	36.940
751.07	38.321
751.38	32.184
751.69	28.627
752.01	37.984
752.32	35.060
752.63	31.225
752.94	34.052
753.26	40.586
753.57	31.222
753.88	37.168
754.19	31.250
754.51	30.992
754.82	35.628
755.13	31.667
755.44	34.274
755.75	35.937
756.07	35.019
756.38	28.302
756.69	27.203
757.00	30.667
757.31	31.046
757.63	25.610
757.94	31.944
758.25	27.123
758.56	28.191
758.87	25.779
759.18	28.349
759.50	30.909
759.81	31.773
760.12	33.871
760.43	28.182
760.74	29.630
761.05	29.538
761.36	27.841
761.67	33.030
761.99	31.973
762.30	26.545
762.61	30.040
762.92	28.054
763.23	31.081
763.54	33.178
763.85	30.085
764.16	32.365
764.47	30.242
764.78	25.275
765.10	30.640
765.41	31.230
765.72	28.889
766.03	28.571
766.34	29.562
766.65	30.677
766.96	33.333
767.27	34.043
767.58	28.736
767.89	29.787
768.20	30.682
768.51	29.670
768.82	29.064
769.13	28.571
769.44	29.185
769.75	25.571
770.06	34.483
770.37	27.404
770.68	30.457
770.99	28.959
771.30	36.765
771.61	29.412
771.92	30.603
772.23	35.468
772.54	32.796
772.85	30.247
773.16	34.270
773.47	32.680
773.78	30.719
774.09	25.749
774.39	29.333
774.70	30.573
775.01	42.069
775.32	34.286
775.63	33.884
775.94	23.664
776.25	33.858
776.56	27.500
776.87	35.577
777.18	37.607
777.48	29.310
777.79	35.652
778.10	29.524
778.41	26.126
778.72	30.159
779.03	28.571
779.34	20.567
779.65	32.877
779.95	25.342
780.26	24.828
780.57	13.008
780.88	25.984
781.19	31.034
781.50	29.457
781.80	27.219
782.11	23.899
782.42	31.538
782.73	28.777
783.04	32.593
783.34	25.000
783.65	23.077
783.96	29.508
784.27	35.172
784.57	34.959
784.88	32.031
785.19	35.000
785.50	34.000
785.81	32.759
786.11	20.690
786.42	19.417
786.73	38.182
787.04	29.592
787.34	25.000
787.65	26.667
787.96	25.664
788.26	30.000
788.57	26.496
788.88	37.500
789.19	30.159
789.49	21.739
789.80	33.673
790.11	29.293
790.41	17.273
790.72	43.478
791.03	27.273
791.33	32.500
791.64	22.500
791.95	22.093
792.25	26.596
792.56	32.584
792.87	32.877
793.17	28.986
793.48	20.000
793.79	17.500
794.09	33.750
794.40	20.755
794.70	29.126
795.01	20.325
795.32	20.513
795.62	29.524
795.93	26.471
796.23	29.245
796.54	28.125
796.85	32.353
797.15	38.028
797.46	43.056
797.76	31.818
798.07	26.744
798.37	35.526
798.68	24.242
798.99	29.630
799.29	41.429
799.60	28.986
799.90	24.000
800.21	19.672
800.51	18.462
800.82	28.814
801.12	27.536
801.43	34.426
801.73	36.508
802.04	20.000
802.34	26.866
802.65	32.692
802.95	17.857
803.26	3.846
803.56	27.451
803.87	30.435
804.17	34.667
804.48	44.444
804.78	25.926
805.09	23.913
805.39	24.444
805.70	31.481
806.00	15.789
806.30	21.127
806.61	32.857
806.91	22.222
807.22	34.211
807.52	42.667
807.83	-5.455
808.13	27.778
808.43	29.412
808.74	40.299
809.04	22.034
809.35	7.692
809.65	45.313
809.95	-10.811
810.26	18.182
810.56	30.137
810.86	33.333
811.17	32.000
811.47	30.612
811.77	13.158
812.08	36.364
812.38	37.736
812.69	20.000
812.99	15.152
813.29	15.789
813.59	-2.857
813.90	2.273
814.20	5.128
814.50	36.538
814.81	33.962
815.11	8.511
815.41	38.983
815.72	23.810
816.02	21.569
816.32	16.667
816.62	31.707
816.93	16.216
817.23	25.714
817.53	39.583
817.84	13.043
818.14	40.385
818.44	10.526
818.74	34.783
819.04	-27.500
819.35	29.730
819.65	17.647
819.95	27.778
820.25	23.810
820.56	32.500
820.86	-27.586
821.16	30.000
821.46	31.915
821.76	35.000
822.07	18.605
822.37	18.919
822.67	6.250
822.97	35.714
823.27	50.000
823.57	12.000
823.88	-29.630
824.18	28.571
824.48	32.353
824.78	25.806
825.08	47.826
825.38	27.273
825.69	12.500
825.99	23.684
826.29	25.000
826.59	33.333
826.89	-4.762
827.19	13.043
827.49	22.500
827.79	62.857
828.09	7.143
828.39	6.061
828.70	51.351
829.00	25.000
829.30	-28.571
829.60	-3.333
829.90	25.000
830.20	2.632
830.50	11.111
830.80	-13.043
831.10	27.273
831.40	39.394
831.70	38.710
832.00	33.333
832.30	-9.524
832.60	-41.667
832.90	17.241
833.20	10.000
833.50	30.303
833.80	-11.111
834.10	-26.923
834.40	28.125
834.70	-88.889
835.00	47.368
835.30	96.154
835.60	26.667
835.90	22.581
836.20	13.636
836.50	42.857
836.80	0.000
837.10	25.000
837.40	-66.667
837.70	27.273
838.00	-36.364
838.30	17.391
838.60	-53.846
838.90	68.182
839.19	21.429
839.49	50.000
839.79	7.692
840.09	-33.333
840.39	28.571
840.69	21.429
840.99	11.538
841.29	26.316
841.59	-10.000
841.88	72.727
842.18	50.000
842.48	18.750
842.78	40.000
843.08	22.222
843.38	-30.000
843.68	4.348
843.97	26.667
844.27	26.667
844.57	-40.000
844.87	11.111
845.17	33.333
845.47	60.000
845.76	-28.571
846.06	52.941
846.36	40.000
846.66	14.286
846.96	-26.667
847.25	-100.000
847.55	92.857
847.85	-112.500
848.15	22.727
848.44	-366.667
848.74	10.000
849.04	33.333
849.34	27.273
849.63	0.000
849.93	-180.000
850.23	33.333
850.53	60.000
850.82	-23.077
851.12	66.667
851.42	-6.667
851.71	15.385
852.01	7.143
852.31	-50.000
852.61	0.000
852.90	15.000
853.20	47.368
853.50	-16.667
853.79	34.783
854.09	37.500
854.39	5.263
854.68	-4.167
854.98	35.484
855.28	26.923
855.57	15.000
855.87	38.889
856.17	37.037
856.46	35.714
856.76	-20.000
857.05	144.444
857.35	44.000
857.65	-11.111
857.94	76.923
858.24	41.379
858.53	50.000
858.83	14.815
859.13	13.636
859.42	-4.348
859.72	-125.000
860.01	-166.667
860.31	20.000
860.60	33.333
860.90	-233.333
861.20	6.667
861.49	-650.000
861.79	-33.333
862.08	-10.000
862.38	100.000
862.67	-200.000
862.97	-100.000
863.26	-25.000
863.56	50.000
863.85	-66.667
864.15	38.889
864.44	60.000
864.74	78.571
865.03	225.000
865.33	-160.000
865.62	116.667
865.92	0.000
866.21	0.000
866.51	12.500
866.80	-90.909
867.10	-450.000
867.39	16.667
867.69	0.000
867.98	-38.462
868.27	0.000
868.57	0.000
868.86	16.667
869.16	-53.846
869.45	53.333
869.75	-700.000
870.04	0.000
870.33	-42.857
870.63	61.905
870.92	100.000
871.22	-120.000
871.51	-400.000
871.80	22.222
872.10	500.000
>>>>>End Processed Spectral Data<<<<<
