SpectraSuite Data File
++++++++++++++++++++++++++++++++++++
Date: Fri May 15 20:45:02 PDT 2015
User: schluterlab
Dark Spectrum Present: Yes
Reference Spectrum Present: Yes
Number of Sampled Component Spectra: 1
Spectrometers: USB2E3373
Integration Time (usec): 3000 (USB2E3373)
Spectra Averaged: 3 (USB2E3373)
Boxcar Smoothing: 0 (USB2E3373)
Correct for Electrical Dark: No (USB2E3373)
Strobe/Lamp Enabled: No (USB2E3373)
Correct for Detector Non-linearity: No (USB2E3373)
Correct for Stray Light: No (USB2E3373)
Number of Pixels in Processed Spectrum: 2048
>>>>>Begin Processed Spectral Data<<<<<
178.53	0.000
178.91	0.000
179.29	125.000
179.67	-250.000
180.04	42.857
180.42	-25.000
180.80	-400.000
181.18	500.000
181.56	400.000
181.94	50.000
182.31	1000.000
182.69	-160.000
183.07	-266.667
183.45	-280.000
183.83	100.000
184.20	9.091
184.58	111.111
184.96	-75.000
185.34	-0.000
185.72	-150.000
186.09	107.692
186.47	-900.000
186.85	100.000
187.23	177.778
187.61	-0.000
187.98	66.667
188.36	-33.333
188.74	-166.667
189.12	17.647
189.49	66.667
189.87	0.000
190.25	21.429
190.63	0.000
191.00	-100.000
191.38	-15.789
191.76	250.000
192.14	-0.000
192.51	-50.000
192.89	11.111
193.27	-157.143
193.65	183.333
194.02	145.455
194.40	30.000
194.78	-137.500
195.15	0.000
195.53	-75.000
195.91	275.000
196.29	-425.000
196.66	76.923
197.04	14.286
197.42	11.111
197.79	-200.000
198.17	-69.231
198.55	1200.000
198.92	-333.333
199.30	300.000
199.68	-20.000
200.05	-433.333
200.43	0.000
200.81	400.000
201.18	33.333
201.56	600.000
201.94	0.000
202.31	66.667
202.69	-60.000
203.07	200.000
203.44	-500.000
203.82	0.000
204.19	35.714
204.57	-766.667
204.95	100.000
205.32	-50.000
205.70	14.286
206.08	125.000
206.45	144.444
206.83	-35.714
207.20	42.857
207.58	500.000
207.96	-100.000
208.33	-110.000
208.71	-75.000
209.08	-133.333
209.46	-1100.000
209.84	-120.000
210.21	-500.000
210.59	14.286
210.96	-100.000
211.34	25.000
211.71	-46.667
212.09	-200.000
212.46	-1700.000
212.84	0.000
213.22	30.000
213.59	400.000
213.97	53.846
214.34	0.000
214.72	-83.333
215.09	500.000
215.47	-23.077
215.84	18.182
216.22	-466.667
216.59	-87.500
216.97	-200.000
217.34	-125.000
217.72	-160.000
218.09	-50.000
218.47	75.000
218.84	-700.000
219.22	-111.111
219.59	-80.000
219.97	633.333
220.34	225.000
220.72	14.286
221.09	-100.000
221.47	-50.000
221.84	-600.000
222.22	-900.000
222.59	-63.636
222.97	0.000
223.34	-366.667
223.72	-7.143
224.09	-23.810
224.46	14.286
224.84	733.333
225.21	30.000
225.59	-40.000
225.96	250.000
226.34	350.000
226.71	-200.000
227.08	-33.333
227.46	-12.500
227.83	-400.000
228.21	55.556
228.58	-54.545
228.95	0.000
229.33	120.000
229.70	62.500
230.08	-150.000
230.45	-200.000
230.82	28.571
231.20	-26.667
231.57	28.571
231.95	42.857
232.32	-120.000
232.69	21.429
233.07	0.000
233.44	20.000
233.81	-40.000
234.19	100.000
234.56	0.000
234.93	150.000
235.31	125.000
235.68	-100.000
236.05	38.462
236.43	-45.000
236.80	-47.059
237.17	25.000
237.55	55.000
237.92	25.926
238.29	27.778
238.67	63.333
239.04	8.824
239.41	9.756
239.79	13.333
240.16	31.707
240.53	26.316
240.91	17.391
241.28	44.444
241.65	35.714
242.02	36.986
242.40	36.667
242.77	33.898
243.14	15.152
243.51	38.750
243.89	49.425
244.26	43.678
244.63	41.667
245.00	41.237
245.38	59.794
245.75	30.337
246.12	45.690
246.49	45.455
246.87	30.769
247.24	35.294
247.61	39.474
247.98	37.398
248.36	37.500
248.73	44.737
249.10	46.104
249.47	41.139
249.84	36.601
250.22	45.294
250.59	45.752
250.96	45.070
251.33	45.930
251.70	48.235
252.08	42.132
252.45	42.574
252.82	47.739
253.19	44.240
253.56	42.523
253.94	42.793
254.31	52.609
254.68	53.509
255.05	40.551
255.42	43.668
255.79	46.718
256.16	46.693
256.54	49.254
256.91	44.867
257.28	43.866
257.65	44.569
258.02	46.099
258.39	48.485
258.76	46.154
259.14	46.844
259.51	43.042
259.88	46.392
260.25	46.732
260.62	48.264
260.99	42.034
261.36	45.890
261.73	45.570
262.10	48.328
262.47	46.319
262.85	47.962
263.22	46.462
263.59	45.794
263.96	50.311
264.33	47.273
264.70	47.321
265.07	45.833
265.44	46.742
265.81	45.198
266.18	43.443
266.55	45.501
266.92	49.741
267.29	47.520
267.66	46.292
268.03	48.429
268.40	47.258
268.77	48.128
269.14	44.844
269.51	48.072
269.88	45.636
270.25	44.898
270.62	43.659
270.99	49.105
271.36	43.765
271.73	46.009
272.10	48.905
272.47	45.626
272.84	44.307
273.21	47.564
273.58	47.470
273.95	44.394
274.32	46.420
274.69	42.081
275.06	48.661
275.43	43.764
275.80	43.709
276.17	45.517
276.54	44.968
276.91	46.930
277.28	42.140
277.65	44.835
278.02	42.766
278.39	45.295
278.76	44.235
279.13	42.324
279.50	45.588
279.87	46.220
280.23	43.011
280.60	43.470
280.97	43.030
281.34	41.538
281.71	45.996
282.08	41.513
282.45	43.249
282.82	42.278
283.19	46.615
283.56	42.004
283.92	41.935
284.29	43.269
284.66	40.698
285.03	42.240
285.40	42.155
285.77	40.070
286.14	39.531
286.51	44.096
286.87	41.499
287.24	42.910
287.61	41.975
287.98	43.684
288.35	42.114
288.72	43.082
289.08	40.972
289.45	38.840
289.82	39.860
290.19	38.055
290.56	38.937
290.93	39.562
291.29	36.055
291.66	38.740
292.03	35.726
292.40	36.935
292.77	35.885
293.13	35.227
293.50	34.598
293.87	34.351
294.24	35.858
294.60	36.364
294.97	34.821
295.34	36.503
295.71	33.383
296.08	33.333
296.44	31.863
296.81	32.639
297.18	30.290
297.55	33.469
297.91	33.836
298.28	32.718
298.65	31.072
299.02	31.806
299.38	31.464
299.75	30.759
300.12	30.628
300.48	30.698
300.85	32.319
301.22	31.818
301.59	30.132
301.95	31.139
302.32	32.815
302.69	29.975
303.05	30.322
303.42	29.390
303.79	29.790
304.15	30.705
304.52	29.727
304.89	29.825
305.25	29.419
305.62	28.938
305.99	28.187
306.35	29.827
306.72	28.571
307.09	31.243
307.45	29.851
307.82	29.398
308.19	29.036
308.55	29.335
308.92	29.956
309.29	27.039
309.65	27.234
310.02	28.493
310.38	28.321
310.75	28.852
311.12	27.557
311.48	28.102
311.85	29.005
312.22	28.165
312.58	27.919
312.95	27.215
313.31	27.433
313.68	27.749
314.05	27.755
314.41	28.660
314.78	27.113
315.14	28.880
315.51	27.226
315.87	27.869
316.24	27.705
316.61	28.543
316.97	27.381
317.34	25.977
317.70	28.011
318.07	28.173
318.43	26.961
318.80	27.557
319.16	28.516
319.53	28.490
319.89	27.854
320.26	28.138
320.62	27.884
320.99	27.244
321.35	27.133
321.72	28.972
322.08	26.989
322.45	27.614
322.81	27.407
323.18	26.889
323.54	26.641
323.91	26.680
324.27	27.246
324.64	28.839
325.00	27.646
325.37	29.109
325.73	26.473
326.10	28.520
326.46	27.444
326.83	28.259
327.19	27.812
327.56	27.541
327.92	27.729
328.29	27.143
328.65	27.736
329.01	27.482
329.38	27.373
329.74	26.251
330.11	27.618
330.47	26.902
330.84	25.769
331.20	28.802
331.56	26.574
331.93	27.763
332.29	28.873
332.66	25.973
333.02	27.788
333.38	26.673
333.75	28.755
334.11	25.336
334.48	27.017
334.84	27.473
335.20	28.179
335.57	25.657
335.93	26.197
336.29	26.888
336.66	26.431
337.02	25.743
337.38	25.741
337.75	26.455
338.11	26.781
338.47	27.737
338.84	27.172
339.20	26.143
339.56	26.422
339.93	28.111
340.29	25.688
340.65	27.599
341.02	25.089
341.38	25.044
341.74	25.088
342.11	24.697
342.47	26.335
342.83	27.076
343.20	25.174
343.56	26.000
343.92	26.041
344.28	26.388
344.65	25.216
345.01	26.016
345.37	25.988
345.73	25.774
346.10	26.747
346.46	26.409
346.82	25.450
347.19	25.270
347.55	26.566
347.91	26.375
348.27	24.576
348.63	25.298
349.00	25.185
349.36	24.356
349.72	25.705
350.08	25.656
350.45	23.623
350.81	24.419
351.17	24.674
351.53	25.061
351.89	24.360
352.26	24.560
352.62	24.839
352.98	24.900
353.34	24.799
353.70	25.809
354.07	25.081
354.43	24.259
354.79	24.938
355.15	25.873
355.51	24.130
355.87	23.706
356.24	24.062
356.60	25.384
356.96	25.317
357.32	23.083
357.68	23.690
358.04	24.152
358.40	24.277
358.77	25.120
359.13	24.019
359.49	23.344
359.85	24.259
360.21	24.322
360.57	23.718
360.93	25.038
361.29	22.810
361.66	23.276
362.02	24.924
362.38	24.600
362.74	23.618
363.10	24.078
363.46	24.314
363.82	24.643
364.18	24.133
364.54	23.971
364.90	23.871
365.26	23.217
365.62	24.307
365.98	23.460
366.35	24.326
366.71	24.169
367.07	24.165
367.43	23.221
367.79	24.382
368.15	24.192
368.51	23.015
368.87	22.685
369.23	23.032
369.59	22.303
369.95	24.194
370.31	24.783
370.67	24.179
371.03	23.450
371.39	22.830
371.75	23.297
372.11	23.538
372.47	23.225
372.83	23.776
373.19	24.322
373.55	23.177
373.91	23.758
374.27	24.592
374.63	23.977
374.99	22.270
375.35	22.911
375.71	23.846
376.07	24.017
376.42	23.401
376.78	23.087
377.14	23.290
377.50	23.307
377.86	23.494
378.22	23.101
378.58	23.654
378.94	23.062
379.30	23.144
379.66	23.260
380.02	22.318
380.38	22.581
380.74	22.142
381.09	23.865
381.45	22.752
381.81	23.196
382.17	22.716
382.53	22.861
382.89	22.599
383.25	23.584
383.61	23.171
383.97	22.794
384.32	22.452
384.68	22.910
385.04	22.365
385.40	22.340
385.76	22.704
386.12	23.480
386.48	23.244
386.83	22.892
387.19	22.711
387.55	22.773
387.91	22.188
388.27	22.955
388.62	23.033
388.98	22.897
389.34	22.548
389.70	22.933
390.06	22.215
390.42	22.150
390.77	22.302
391.13	21.438
391.49	23.157
391.85	23.067
392.20	22.724
392.56	23.268
392.92	22.842
393.28	22.229
393.64	21.862
393.99	22.947
394.35	22.644
394.71	22.158
395.07	21.684
395.42	21.979
395.78	22.541
396.14	22.257
396.50	22.701
396.85	22.923
397.21	22.180
397.57	22.445
397.92	22.528
398.28	22.989
398.64	21.988
399.00	22.291
399.35	21.953
399.71	22.631
400.07	23.337
400.42	22.950
400.78	22.841
401.14	23.230
401.49	22.275
401.85	22.669
402.21	21.928
402.57	23.312
402.92	23.024
403.28	22.682
403.63	22.446
403.99	22.959
404.35	22.923
404.70	22.321
405.06	23.032
405.42	22.561
405.77	21.034
406.13	21.944
406.49	21.788
406.84	22.311
407.20	22.517
407.55	21.764
407.91	22.059
408.27	22.435
408.62	22.708
408.98	22.797
409.34	22.677
409.69	22.222
410.05	21.983
410.40	22.407
410.76	22.618
411.11	22.000
411.47	22.748
411.83	22.034
412.18	23.102
412.54	22.409
412.89	21.921
413.25	23.767
413.60	22.422
413.96	22.331
414.31	23.598
414.67	22.835
415.03	22.969
415.38	22.977
415.74	23.453
416.09	23.383
416.45	23.160
416.80	23.397
417.16	23.343
417.51	23.384
417.87	23.403
418.22	23.251
418.58	23.411
418.93	24.138
419.29	21.447
419.64	22.942
420.00	23.866
420.35	22.209
420.71	22.965
421.06	22.345
421.42	22.957
421.77	23.121
422.12	24.064
422.48	23.281
422.83	22.912
423.19	22.856
423.54	22.751
423.90	21.790
424.25	23.134
424.61	23.195
424.96	23.577
425.31	23.512
425.67	23.474
426.02	23.557
426.38	24.233
426.73	23.123
427.09	23.861
427.44	23.824
427.79	24.278
428.15	24.393
428.50	23.561
428.85	23.649
429.21	22.920
429.56	24.043
429.92	23.112
430.27	23.208
430.62	22.844
430.98	23.089
431.33	24.395
431.68	22.711
432.04	23.477
432.39	23.160
432.74	22.249
433.10	24.598
433.45	23.895
433.80	23.796
434.16	22.881
434.51	23.763
434.86	24.390
435.22	23.556
435.57	23.830
435.92	23.413
436.28	23.256
436.63	24.472
436.98	23.407
437.34	23.775
437.69	24.329
438.04	23.818
438.39	22.908
438.75	24.469
439.10	23.939
439.45	24.224
439.81	23.486
440.16	24.169
440.51	23.642
440.86	24.653
441.22	22.851
441.57	24.007
441.92	24.554
442.27	24.113
442.63	24.679
442.98	24.239
443.33	23.873
443.68	23.448
444.03	24.739
444.39	24.447
444.74	24.247
445.09	24.165
445.44	23.761
445.79	25.064
446.15	24.119
446.50	23.461
446.85	24.495
447.20	23.410
447.55	24.386
447.91	23.971
448.26	24.872
448.61	24.525
448.96	25.014
449.31	24.451
449.66	24.623
450.02	24.701
450.37	24.659
450.72	24.742
451.07	24.620
451.42	24.657
451.77	23.629
452.12	24.522
452.47	25.113
452.83	24.087
453.18	24.225
453.53	25.032
453.88	24.590
454.23	25.323
454.58	25.063
454.93	26.031
455.28	24.381
455.63	25.232
455.98	25.376
456.34	25.223
456.69	24.524
457.04	26.339
457.39	24.727
457.74	25.877
458.09	24.720
458.44	24.459
458.79	24.202
459.14	25.572
459.49	25.672
459.84	25.268
460.19	25.243
460.54	25.795
460.89	25.398
461.24	24.658
461.59	25.119
461.94	24.591
462.29	26.417
462.64	26.645
462.99	25.457
463.34	25.035
463.69	24.968
464.04	25.787
464.39	25.955
464.74	25.951
465.09	25.764
465.44	26.082
465.79	25.397
466.14	25.428
466.49	25.244
466.84	26.294
467.19	26.158
467.54	26.309
467.89	25.711
468.24	25.608
468.59	25.841
468.94	25.206
469.29	26.885
469.64	26.316
469.99	27.961
470.34	25.324
470.68	27.666
471.03	27.035
471.38	26.890
471.73	26.961
472.08	26.662
472.43	26.644
472.78	26.799
473.13	27.075
473.48	27.296
473.83	25.280
474.17	28.044
474.52	26.356
474.87	26.182
475.22	26.419
475.57	26.652
475.92	26.769
476.27	27.183
476.61	27.025
476.96	26.436
477.31	26.825
477.66	27.247
478.01	26.614
478.36	26.580
478.70	26.482
479.05	28.681
479.40	27.292
479.75	26.851
480.10	26.114
480.45	27.000
480.79	27.744
481.14	27.203
481.49	26.453
481.84	26.786
482.19	26.801
482.53	26.427
482.88	27.160
483.23	26.727
483.58	27.406
483.92	26.912
484.27	27.484
484.62	26.356
484.97	25.829
485.31	25.759
485.66	24.530
486.01	24.219
486.36	23.786
486.70	24.144
487.05	24.816
487.40	24.431
487.75	25.268
488.09	25.556
488.44	25.241
488.79	26.261
489.13	26.963
489.48	26.849
489.83	27.354
490.17	27.101
490.52	27.298
490.87	27.626
491.22	28.510
491.56	27.751
491.91	27.103
492.26	27.613
492.60	27.975
492.95	28.923
493.30	27.797
493.64	28.193
493.99	27.681
494.34	27.913
494.68	28.143
495.03	27.445
495.37	27.674
495.72	28.168
496.07	27.902
496.41	27.925
496.76	27.867
497.11	27.527
497.45	28.735
497.80	29.465
498.14	27.869
498.49	27.425
498.84	27.295
499.18	28.514
499.53	28.472
499.87	27.821
500.22	28.042
500.56	28.744
500.91	28.966
501.26	28.522
501.60	28.185
501.95	29.452
502.29	28.378
502.64	29.392
502.98	28.762
503.33	28.242
503.67	28.723
504.02	29.423
504.36	29.045
504.71	28.182
505.06	29.039
505.40	28.680
505.75	29.021
506.09	28.535
506.44	29.312
506.78	29.439
507.13	29.059
507.47	28.616
507.82	29.006
508.16	29.213
508.51	29.381
508.85	28.728
509.19	28.792
509.54	28.901
509.88	29.180
510.23	29.693
510.57	29.770
510.92	29.051
511.26	29.896
511.61	29.758
511.95	29.918
512.30	29.878
512.64	31.274
512.98	29.646
513.33	30.274
513.67	29.960
514.02	31.465
514.36	31.600
514.70	31.294
515.05	31.551
515.39	31.346
515.74	31.796
516.08	31.321
516.42	32.627
516.77	31.188
517.11	31.454
517.46	30.820
517.80	31.943
518.14	30.863
518.49	31.010
518.83	30.984
519.17	31.716
519.52	30.432
519.86	30.912
520.20	31.531
520.55	31.957
520.89	32.371
521.23	33.122
521.58	32.429
521.92	32.244
522.26	31.880
522.61	33.312
522.95	32.980
523.29	32.719
523.64	33.100
523.98	32.469
524.32	31.379
524.66	33.035
525.01	32.662
525.35	32.275
525.69	32.391
526.04	32.870
526.38	34.501
526.72	32.112
527.06	32.815
527.41	32.916
527.75	31.367
528.09	32.492
528.43	33.761
528.78	32.673
529.12	32.774
529.46	32.684
529.80	32.996
530.15	32.937
530.49	33.872
530.83	34.405
531.17	32.707
531.51	34.063
531.86	33.379
532.20	32.429
532.54	32.811
532.88	33.881
533.22	34.005
533.57	31.520
533.91	32.507
534.25	33.854
534.59	32.264
534.93	32.159
535.27	31.853
535.62	32.469
535.96	32.094
536.30	33.245
536.64	33.287
536.98	32.683
537.32	33.499
537.66	35.203
538.01	33.357
538.35	32.247
538.69	32.889
539.03	32.468
539.37	32.974
539.71	32.106
540.05	32.111
540.39	33.102
540.73	32.636
541.07	33.356
541.42	33.535
541.76	34.136
542.10	32.966
542.44	33.773
542.78	31.315
543.12	32.212
543.46	32.962
543.80	32.686
544.14	31.308
544.48	32.645
544.82	33.219
545.16	33.333
545.50	33.845
545.84	34.207
546.18	33.262
546.52	33.526
546.86	33.070
547.20	32.833
547.54	31.731
547.88	32.880
548.22	31.492
548.56	32.784
548.90	33.086
549.24	32.025
549.58	33.004
549.92	32.237
550.26	32.967
550.60	33.309
550.94	34.578
551.28	34.621
551.62	33.769
551.96	33.985
552.30	34.064
552.64	31.946
552.98	32.700
553.32	32.240
553.66	33.019
554.00	32.774
554.34	34.417
554.68	32.522
555.02	33.929
555.36	34.031
555.69	33.480
556.03	33.405
556.37	32.527
556.71	33.357
557.05	34.526
557.39	34.126
557.73	34.108
558.07	34.314
558.41	33.691
558.75	33.593
559.08	34.200
559.42	34.762
559.76	35.789
560.10	34.174
560.44	32.241
560.78	33.357
561.12	32.934
561.45	34.575
561.79	33.894
562.13	32.434
562.47	32.230
562.81	32.565
563.15	32.652
563.48	33.876
563.82	34.043
564.16	32.799
564.50	32.297
564.84	33.668
565.17	32.864
565.51	34.016
565.85	34.225
566.19	33.753
566.52	32.373
566.86	32.391
567.20	31.943
567.54	32.238
567.88	31.752
568.21	31.222
568.55	30.978
568.89	30.852
569.23	30.717
569.56	29.685
569.90	30.126
570.24	28.954
570.57	28.945
570.91	28.616
571.25	27.294
571.59	27.375
571.92	26.756
572.26	27.325
572.60	27.008
572.93	28.146
573.27	27.367
573.61	27.327
573.95	26.980
574.28	26.880
574.62	25.858
574.96	25.779
575.29	25.946
575.63	25.732
575.97	25.861
576.30	26.371
576.64	25.881
576.98	26.898
577.31	26.026
577.65	26.560
577.98	26.162
578.32	25.443
578.66	25.510
578.99	25.667
579.33	25.406
579.67	26.394
580.00	26.076
580.34	25.647
580.67	25.569
581.01	26.057
581.35	26.034
581.68	25.526
582.02	25.546
582.35	25.237
582.69	25.263
583.02	25.080
583.36	25.929
583.70	26.584
584.03	26.939
584.37	27.273
584.70	26.456
585.04	25.829
585.37	26.143
585.71	26.018
586.04	25.996
586.38	26.274
586.72	26.255
587.05	26.748
587.39	26.503
587.72	26.818
588.06	26.017
588.39	26.460
588.73	26.526
589.06	27.723
589.40	27.307
589.73	27.638
590.07	28.474
590.40	28.251
590.73	28.666
591.07	27.608
591.40	28.228
591.74	28.688
592.07	29.314
592.41	28.843
592.74	27.519
593.08	26.546
593.41	27.084
593.75	27.118
594.08	26.021
594.41	26.892
594.75	27.099
595.08	27.961
595.42	27.862
595.75	27.600
596.09	27.991
596.42	27.697
596.75	28.730
597.09	28.929
597.42	28.681
597.75	29.455
598.09	27.750
598.42	27.798
598.76	27.971
599.09	28.486
599.42	27.245
599.76	26.900
600.09	26.848
600.42	27.976
600.76	26.783
601.09	26.718
601.42	27.105
601.76	28.146
602.09	27.269
602.42	29.065
602.76	28.353
603.09	28.364
603.42	28.303
603.76	26.976
604.09	27.461
604.42	28.215
604.76	28.660
605.09	28.245
605.42	27.991
605.75	28.503
606.09	28.365
606.42	27.857
606.75	27.835
607.09	28.176
607.42	27.381
607.75	28.375
608.08	28.302
608.42	27.775
608.75	28.530
609.08	29.048
609.41	29.036
609.75	29.032
610.08	28.507
610.41	28.261
610.74	28.815
611.07	29.251
611.41	29.113
611.74	30.224
612.07	29.283
612.40	29.158
612.73	28.927
613.07	28.853
613.40	30.252
613.73	29.043
614.06	30.273
614.39	29.329
614.72	28.964
615.06	29.832
615.39	28.876
615.72	29.279
616.05	29.832
616.38	29.345
616.71	30.459
617.05	30.945
617.38	30.170
617.71	30.692
618.04	31.492
618.37	31.463
618.70	30.495
619.03	31.458
619.36	30.029
619.69	32.676
620.03	32.067
620.36	30.758
620.69	30.478
621.02	31.116
621.35	33.195
621.68	33.929
622.01	32.750
622.34	32.482
622.67	32.413
623.00	32.236
623.33	31.936
623.66	32.162
623.99	31.997
624.32	33.536
624.65	31.203
624.99	33.409
625.32	32.449
625.65	31.893
625.98	32.877
626.31	33.084
626.64	33.102
626.97	34.904
627.30	34.413
627.63	34.575
627.96	32.525
628.29	36.448
628.62	34.513
628.95	35.371
629.28	35.585
629.61	34.696
629.94	36.168
630.26	34.289
630.59	37.461
630.92	35.795
631.25	35.487
631.58	36.013
631.91	36.842
632.24	36.583
632.57	37.273
632.90	36.655
633.23	37.412
633.56	38.413
633.89	36.621
634.22	39.630
634.55	36.849
634.88	38.570
635.20	37.308
635.53	38.800
635.86	38.622
636.19	39.457
636.52	39.413
636.85	37.221
637.18	36.981
637.51	38.113
637.83	39.816
638.16	40.655
638.49	38.147
638.82	39.342
639.15	38.806
639.48	41.128
639.81	41.144
640.13	39.105
640.46	39.213
640.79	39.912
641.12	38.257
641.45	40.541
641.77	40.148
642.10	41.706
642.43	39.228
642.76	41.584
643.09	41.195
643.41	39.806
643.74	40.527
644.07	40.394
644.40	41.047
644.73	43.958
645.05	41.107
645.38	41.270
645.71	41.135
646.04	42.549
646.36	42.553
646.69	43.885
647.02	45.936
647.35	40.672
647.67	40.585
648.00	42.164
648.33	41.126
648.66	41.186
648.98	38.526
649.31	37.521
649.64	39.246
649.96	36.791
650.29	40.545
650.62	40.000
650.94	39.444
651.27	39.665
651.60	43.604
651.92	41.084
652.25	38.366
652.58	39.167
652.90	42.196
653.23	40.504
653.56	39.086
653.88	37.113
654.21	36.427
654.54	38.710
654.86	40.068
655.19	35.673
655.52	32.043
655.84	25.204
656.17	26.714
656.49	35.215
656.82	35.698
657.15	27.111
657.47	20.330
657.80	15.261
658.13	15.294
658.45	23.772
658.78	23.967
659.10	24.663
659.43	25.280
659.75	25.604
660.08	28.621
660.41	30.541
660.73	34.669
661.06	38.128
661.38	39.922
661.71	40.041
662.03	43.348
662.36	43.736
662.68	43.142
663.01	41.266
663.33	43.155
663.66	42.791
663.98	41.860
664.31	40.725
664.63	41.475
664.96	40.217
665.28	39.514
665.61	42.641
665.93	41.957
666.26	41.432
666.58	38.702
666.91	43.294
667.23	42.217
667.56	42.180
667.88	42.206
668.21	42.959
668.53	43.262
668.86	44.104
669.18	43.396
669.50	44.794
669.83	40.930
670.15	41.725
670.48	42.584
670.80	40.783
671.13	40.716
671.45	37.671
671.77	39.485
672.10	37.624
672.42	37.266
672.75	37.478
673.07	39.356
673.39	40.367
673.72	34.517
674.04	40.625
674.37	41.525
674.69	38.544
675.01	42.222
675.34	42.117
675.66	40.046
675.98	42.350
676.31	42.890
676.63	42.280
676.95	39.545
677.28	43.294
677.60	44.578
677.92	40.367
678.25	41.357
678.57	36.147
678.89	39.076
679.22	43.848
679.54	39.558
679.86	34.990
680.18	37.476
680.51	36.553
680.83	36.183
681.15	39.200
681.48	38.525
681.80	40.702
682.12	37.702
682.44	38.075
682.77	40.177
683.09	37.300
683.41	40.455
683.73	35.945
684.06	39.602
684.38	37.634
684.70	39.216
685.02	36.929
685.34	36.166
685.67	36.961
685.99	34.901
686.31	35.752
686.63	35.807
686.96	34.411
687.28	35.758
687.60	34.601
687.92	36.162
688.24	36.895
688.56	39.083
688.89	37.723
689.21	40.444
689.53	40.371
689.85	37.442
690.17	39.286
690.49	39.716
690.82	40.291
691.14	36.429
691.46	38.785
691.78	38.964
692.10	38.280
692.42	36.364
692.74	37.821
693.06	36.261
693.39	39.140
693.71	35.747
694.03	36.028
694.35	37.383
694.67	40.657
694.99	36.554
695.31	41.514
695.63	39.000
695.95	38.384
696.27	39.637
696.59	40.278
696.91	41.457
697.23	37.532
697.56	38.119
697.88	38.925
698.20	36.674
698.52	36.235
698.84	33.971
699.16	37.500
699.48	41.353
699.80	37.965
700.12	38.275
700.44	40.056
700.76	35.756
701.08	38.485
701.40	41.265
701.72	41.049
702.04	35.644
702.36	40.803
702.68	38.739
703.00	43.333
703.32	38.123
703.64	34.181
703.96	36.522
704.28	39.571
704.60	39.048
704.91	41.009
705.23	41.528
705.55	44.170
705.87	50.542
706.19	38.519
706.51	40.206
706.83	38.907
707.15	36.760
707.47	38.095
707.79	32.031
708.11	36.250
708.43	34.500
708.74	36.693
709.06	37.183
709.38	40.673
709.70	36.982
710.02	39.172
710.34	38.390
710.66	39.744
710.98	38.411
711.29	40.984
711.61	39.661
711.93	40.717
712.25	42.268
712.57	39.560
712.89	37.313
713.20	39.792
713.52	38.328
713.84	38.567
714.16	39.863
714.48	39.032
714.80	39.423
715.11	39.514
715.43	34.796
715.75	38.000
716.07	33.555
716.39	38.926
716.70	36.900
717.02	37.023
717.34	44.534
717.66	39.381
717.97	38.696
718.29	41.423
718.61	36.220
718.93	40.698
719.24	37.262
719.56	42.972
719.88	37.457
720.20	44.318
720.51	39.080
720.83	42.471
721.15	40.756
721.46	35.081
721.78	35.968
722.10	34.201
722.42	35.685
722.73	37.551
723.05	44.898
723.37	41.102
723.68	40.991
724.00	34.188
724.32	40.000
724.63	38.182
724.95	41.485
725.27	45.161
725.58	41.525
725.90	31.349
726.22	38.610
726.53	38.305
726.85	38.577
727.16	35.849
727.48	36.437
727.80	38.866
728.11	36.441
728.43	34.902
728.74	35.484
729.06	39.200
729.38	38.722
729.69	37.849
730.01	38.846
730.32	39.552
730.64	35.689
730.96	38.491
731.27	35.333
731.59	35.932
731.90	34.076
732.22	40.063
732.53	37.874
732.85	39.362
733.16	35.354
733.48	30.576
733.80	36.232
734.11	32.881
734.43	35.052
734.74	30.909
735.06	27.036
735.37	34.441
735.69	37.374
736.00	35.889
736.32	33.221
736.63	33.803
736.95	37.543
737.26	29.537
737.58	28.188
737.89	31.502
738.21	37.218
738.52	37.860
738.83	34.061
739.15	34.061
739.46	38.976
739.78	36.264
740.09	32.680
740.41	37.319
740.72	31.102
741.04	34.818
741.35	36.170
741.66	37.441
741.98	42.347
742.29	34.158
742.61	37.173
742.92	36.493
743.23	33.796
743.55	38.009
743.86	43.541
744.18	33.493
744.49	37.766
744.80	38.587
745.12	41.711
745.43	38.049
745.74	38.542
746.06	40.976
746.37	36.126
746.68	45.024
747.00	38.830
747.31	39.801
747.62	33.010
747.94	34.928
748.25	35.644
748.56	39.891
748.88	38.743
749.19	41.489
749.50	38.424
749.82	30.660
750.13	35.321
750.44	35.714
750.75	38.060
751.07	38.321
751.38	36.015
751.69	29.020
752.01	39.147
752.32	37.450
752.63	33.597
752.94	36.638
753.26	40.167
753.57	33.484
753.88	36.726
754.19	35.833
754.51	35.124
754.82	31.174
755.13	42.500
755.44	34.677
755.75	34.766
756.07	34.241
756.38	33.962
756.69	29.119
757.00	34.000
757.31	33.007
757.63	31.707
757.94	30.000
758.25	30.685
758.56	27.926
758.87	27.762
759.18	30.530
759.50	33.818
759.81	34.448
760.12	31.613
760.43	25.152
760.74	32.099
761.05	29.231
761.36	32.670
761.67	32.424
761.99	29.932
762.30	33.455
762.61	32.806
762.92	35.294
763.23	37.387
763.54	35.514
763.85	37.712
764.16	32.780
764.47	27.016
764.78	29.304
765.10	33.670
765.41	31.230
765.72	30.159
766.03	28.947
766.34	34.672
766.65	37.849
766.96	39.394
767.27	41.489
767.58	37.356
767.89	38.298
768.20	34.091
768.51	36.813
768.82	36.453
769.13	25.806
769.44	27.039
769.75	31.050
770.06	30.172
770.37	33.173
770.68	36.041
770.99	29.864
771.30	37.255
771.61	32.579
771.92	30.172
772.23	37.931
772.54	31.720
772.85	38.272
773.16	32.022
773.47	41.176
773.78	33.333
774.09	34.132
774.39	32.000
774.70	38.217
775.01	43.448
775.32	39.286
775.63	36.364
775.94	32.824
776.25	29.134
776.56	37.500
776.87	34.615
777.18	31.624
777.48	40.517
777.79	32.174
778.10	33.333
778.41	41.441
778.72	34.127
779.03	41.353
779.34	39.007
779.65	32.192
779.95	30.822
780.26	39.310
780.57	30.894
780.88	32.283
781.19	28.448
781.50	38.760
781.80	28.994
782.11	26.415
782.42	33.846
782.73	38.129
783.04	28.148
783.34	20.833
783.65	22.222
783.96	28.689
784.27	33.793
784.57	26.016
784.88	29.688
785.19	38.000
785.50	45.000
785.81	30.172
786.11	25.862
786.42	32.039
786.73	33.636
787.04	37.755
787.34	32.143
787.65	28.571
787.96	24.779
788.26	29.091
788.57	29.060
788.88	30.469
789.19	29.365
789.49	25.217
789.80	31.633
790.11	29.293
790.41	34.545
790.72	36.957
791.03	37.500
791.33	35.000
791.64	36.250
791.95	15.116
792.25	31.915
792.56	42.697
792.87	42.466
793.17	26.087
793.48	22.667
793.79	31.250
794.09	27.500
794.40	32.075
794.70	31.068
795.01	23.577
795.32	23.077
795.62	35.238
795.93	22.549
796.23	26.415
796.54	20.833
796.85	33.824
797.15	32.394
797.46	40.278
797.76	37.879
798.07	29.070
798.37	34.211
798.68	36.364
798.99	33.333
799.29	28.571
799.60	34.783
799.90	33.333
800.21	39.344
800.51	29.231
800.82	23.729
801.12	23.188
801.43	29.508
801.73	28.571
802.04	28.000
802.34	20.896
802.65	32.692
802.95	33.929
803.26	15.385
803.56	39.216
803.87	13.043
804.17	22.667
804.48	25.397
804.78	37.037
805.09	54.348
805.39	28.889
805.70	25.926
806.00	10.526
806.30	26.761
806.61	38.571
806.91	18.056
807.22	30.263
807.52	24.000
807.83	23.636
808.13	20.833
808.43	38.235
808.74	28.358
809.04	50.847
809.35	21.154
809.65	35.938
809.95	21.622
810.26	13.636
810.56	26.027
810.86	40.476
811.17	14.000
811.47	46.939
811.77	13.158
812.08	31.818
812.38	9.434
812.69	30.000
812.99	6.061
813.29	57.895
813.59	14.286
813.90	29.545
814.20	23.077
814.50	30.769
814.81	41.509
815.11	4.255
815.41	30.508
815.72	40.476
816.02	41.176
816.32	0.000
816.62	48.780
816.93	16.216
817.23	45.714
817.53	18.750
817.84	0.000
818.14	38.462
818.44	18.421
818.74	39.130
819.04	-5.000
819.35	40.541
819.65	14.706
819.95	5.556
820.25	52.381
820.56	52.500
820.86	-13.793
821.16	40.000
821.46	31.915
821.76	35.000
822.07	34.884
822.37	10.811
822.67	40.625
822.97	54.762
823.27	28.571
823.57	36.000
823.88	0.000
824.18	53.571
824.48	38.235
824.78	22.581
825.08	21.739
825.38	21.212
825.69	12.500
825.99	55.263
826.29	33.333
826.59	-60.000
826.89	-33.333
827.19	32.609
827.49	22.500
827.79	34.286
828.09	7.143
828.39	42.424
828.70	51.351
829.00	0.000
829.30	-4.762
829.60	0.000
829.90	28.125
830.20	26.316
830.50	-33.333
830.80	4.348
831.10	27.273
831.40	48.485
831.70	22.581
832.00	38.095
832.30	0.000
832.60	-8.333
832.90	20.690
833.20	-10.000
833.50	48.485
833.80	-29.630
834.10	19.231
834.40	12.500
834.70	-111.111
835.00	36.842
835.30	42.308
835.60	0.000
835.90	41.935
836.20	40.909
836.50	35.714
836.80	-19.231
837.10	10.714
837.40	-466.667
837.70	13.636
838.00	18.182
838.30	17.391
838.60	-38.462
838.90	40.909
839.19	7.143
839.49	50.000
839.79	7.692
840.09	-66.667
840.39	39.286
840.69	10.714
840.99	-3.846
841.29	-31.579
841.59	-40.000
841.88	-45.455
842.18	-20.000
842.48	93.750
842.78	-20.000
843.08	33.333
843.38	-170.000
843.68	13.043
843.97	6.667
844.27	-73.333
844.57	-10.000
844.87	-11.111
845.17	-23.810
845.47	13.333
845.76	28.571
846.06	47.059
846.36	-30.000
846.66	0.000
846.96	33.333
847.25	37.500
847.55	35.714
847.85	-37.500
848.15	9.091
848.44	-333.333
848.74	-15.000
849.04	33.333
849.34	0.000
849.63	-116.667
849.93	-140.000
850.23	0.000
850.53	120.000
850.82	-53.846
851.12	11.111
851.42	-6.667
851.71	-23.077
852.01	35.714
852.31	125.000
852.61	9.091
852.90	5.000
853.20	52.632
853.50	-25.000
853.79	26.087
854.09	16.667
854.39	26.316
854.68	-16.667
854.98	22.581
855.28	69.231
855.57	30.000
855.87	16.667
856.17	25.926
856.46	21.429
856.76	0.000
857.05	33.333
857.35	68.000
857.65	66.667
857.94	-53.846
858.24	17.241
858.53	5.556
858.83	7.407
859.13	-4.545
859.42	-17.391
859.72	-50.000
860.01	-333.333
860.31	0.000
860.60	4.762
860.90	-333.333
861.20	-40.000
861.49	-400.000
861.79	20.000
862.08	-20.000
862.38	73.333
862.67	-200.000
862.97	-266.667
863.26	8.333
863.56	61.111
863.85	-166.667
864.15	38.889
864.44	-90.000
864.74	-35.714
865.03	250.000
865.33	-280.000
865.62	-150.000
865.92	-33.333
866.21	-83.333
866.51	-43.750
866.80	-72.727
867.10	-150.000
867.39	83.333
867.69	0.000
867.98	23.077
868.27	-566.667
868.57	-40.000
868.86	16.667
869.16	-123.077
869.45	13.333
869.75	-1200.000
870.04	0.000
870.33	-142.857
870.63	4.762
870.92	400.000
871.22	-260.000
871.51	-400.000
871.80	66.667
872.10	100.000
>>>>>End Processed Spectral Data<<<<<
