SpectraSuite Data File
++++++++++++++++++++++++++++++++++++
Date: Fri May 15 20:27:57 PDT 2015
User: schluterlab
Dark Spectrum Present: Yes
Reference Spectrum Present: Yes
Number of Sampled Component Spectra: 1
Spectrometers: USB2E3373
Integration Time (usec): 3000 (USB2E3373)
Spectra Averaged: 3 (USB2E3373)
Boxcar Smoothing: 0 (USB2E3373)
Correct for Electrical Dark: No (USB2E3373)
Strobe/Lamp Enabled: No (USB2E3373)
Correct for Detector Non-linearity: No (USB2E3373)
Correct for Stray Light: No (USB2E3373)
Number of Pixels in Processed Spectrum: 2048
>>>>>Begin Processed Spectral Data<<<<<
178.53	0.000
178.91	0.000
179.29	137.500
179.67	-350.000
180.04	28.571
180.42	75.000
180.80	-300.000
181.18	266.667
181.56	350.000
181.94	50.000
182.31	500.000
182.69	-20.000
183.07	-300.000
183.45	-40.000
183.83	183.333
184.20	72.727
184.58	144.444
184.96	-25.000
185.34	100.000
185.72	50.000
186.09	15.385
186.47	200.000
186.85	183.333
187.23	66.667
187.61	300.000
187.98	-333.333
188.36	-11.111
188.74	66.667
189.12	41.176
189.49	22.222
189.87	0.000
190.25	28.571
190.63	-200.000
191.00	-100.000
191.38	-26.316
191.76	50.000
192.14	-0.000
192.51	300.000
192.89	11.111
193.27	-57.143
193.65	66.667
194.02	63.636
194.40	-30.000
194.78	-150.000
195.15	8.333
195.53	-87.500
195.91	150.000
196.29	-50.000
196.66	130.769
197.04	100.000
197.42	-22.222
197.79	-300.000
198.17	-107.692
198.55	500.000
198.92	-66.667
199.30	-300.000
199.68	-260.000
200.05	-66.667
200.43	0.000
200.81	-166.667
201.18	-133.333
201.56	1200.000
201.94	-450.000
202.31	-133.333
202.69	-140.000
203.07	400.000
203.44	600.000
203.82	0.000
204.19	92.857
204.57	-533.333
204.95	25.000
205.32	90.000
205.70	-14.286
206.08	75.000
206.45	177.778
206.83	100.000
207.20	-85.714
207.58	-1000.000
207.96	-300.000
208.33	10.000
208.71	75.000
209.08	-250.000
209.46	400.000
209.84	220.000
210.21	-100.000
210.59	85.714
210.96	33.333
211.34	-25.000
211.71	60.000
212.09	28.571
212.46	-1600.000
212.84	0.000
213.22	120.000
213.59	250.000
213.97	38.462
214.34	-27.273
214.72	16.667
215.09	100.000
215.47	-69.231
215.84	-45.455
216.22	-266.667
216.59	-87.500
216.97	50.000
217.34	175.000
217.72	-220.000
218.09	100.000
218.47	112.500
218.84	0.000
219.22	55.556
219.59	200.000
219.97	400.000
220.34	300.000
220.72	71.429
221.09	-250.000
221.47	200.000
221.84	-250.000
222.22	-600.000
222.59	18.182
222.97	75.000
223.34	133.333
223.72	28.571
224.09	52.381
224.46	35.714
224.84	233.333
225.21	80.000
225.59	40.000
225.96	-350.000
226.34	50.000
226.71	-14.286
227.08	16.667
227.46	50.000
227.83	-300.000
228.21	-44.444
228.58	63.636
228.95	-25.000
229.33	140.000
229.70	56.250
230.08	-62.500
230.45	-100.000
230.82	85.714
231.20	-33.333
231.57	71.429
231.95	28.571
232.32	20.000
232.69	85.714
233.07	66.667
233.44	100.000
233.81	-10.000
234.19	66.667
234.56	-5.882
234.93	-50.000
235.31	150.000
235.68	180.000
236.05	38.462
236.43	20.000
236.80	52.941
237.17	31.250
237.55	110.000
237.92	18.519
238.29	75.000
238.67	56.667
239.04	32.353
239.41	48.780
239.79	66.667
240.16	48.780
240.53	60.526
240.91	45.652
241.28	61.905
241.65	67.857
242.02	50.685
242.40	73.333
242.77	77.966
243.14	62.121
243.51	66.250
243.89	47.126
244.26	60.920
244.63	60.714
245.00	65.979
245.38	78.351
245.75	76.404
246.12	54.310
246.49	72.727
246.87	71.154
247.24	73.109
247.61	65.789
247.98	73.984
248.36	65.625
248.73	63.816
249.10	59.091
249.47	65.190
249.84	71.242
250.22	70.000
250.59	75.163
250.96	62.911
251.33	69.186
251.70	68.235
252.08	66.497
252.45	68.812
252.82	68.342
253.19	69.124
253.56	70.093
253.94	71.171
254.31	70.000
254.68	71.491
255.05	66.142
255.42	70.306
255.79	68.726
256.16	75.097
256.54	66.418
256.91	69.202
257.28	66.914
257.65	70.037
258.02	68.085
258.39	71.044
258.76	74.725
259.14	67.774
259.51	64.401
259.88	69.416
260.25	66.667
260.62	69.097
260.99	69.492
261.36	71.575
261.73	69.937
262.10	71.733
262.47	69.939
262.85	71.473
263.22	65.538
263.59	69.782
263.96	68.634
264.33	69.091
264.70	66.667
265.07	71.429
265.44	74.221
265.81	72.881
266.18	72.951
266.55	70.437
266.92	71.244
267.29	71.802
267.66	68.542
268.03	73.037
268.40	71.540
268.77	73.797
269.14	67.866
269.51	71.979
269.88	69.576
270.25	70.918
270.62	68.293
270.99	70.844
271.36	66.259
271.73	67.136
272.10	69.100
272.47	67.612
272.84	70.545
273.21	68.910
273.58	67.711
273.95	71.396
274.32	67.436
274.69	66.063
275.06	68.973
275.43	68.254
275.80	69.536
276.17	69.885
276.54	62.527
276.91	69.518
277.28	66.376
277.65	66.529
278.02	63.191
278.39	69.584
278.76	68.763
279.13	62.033
279.50	64.706
279.87	62.203
280.23	64.946
280.60	61.988
280.97	67.475
281.34	62.308
281.71	67.556
282.08	65.644
282.45	62.231
282.82	63.707
283.19	63.056
283.56	63.198
283.92	65.655
284.29	61.731
284.66	61.822
285.03	62.083
285.40	63.327
285.77	59.051
286.14	59.747
286.51	64.576
286.87	60.329
287.24	64.641
287.61	61.023
287.98	61.228
288.35	61.179
288.72	63.047
289.08	59.549
289.45	60.457
289.82	59.441
290.19	59.898
290.56	62.607
290.93	59.596
291.29	55.008
291.66	56.220
292.03	56.778
292.40	55.323
292.77	54.864
293.13	54.383
293.50	52.807
293.87	55.878
294.24	51.468
294.60	53.204
294.97	50.000
295.34	54.755
295.71	52.161
296.08	50.822
296.44	49.929
296.81	50.417
297.18	50.870
297.55	50.949
297.91	49.041
298.28	49.472
298.65	50.339
299.02	49.461
299.38	48.974
299.75	49.931
300.12	48.429
300.48	47.958
300.85	48.162
301.22	46.364
301.59	48.026
301.95	46.329
302.32	49.157
302.69	47.637
303.05	45.545
303.42	45.704
303.79	47.313
304.15	46.953
304.52	46.254
304.89	43.977
305.25	46.610
305.62	43.524
305.99	43.392
306.35	46.127
306.72	43.982
307.09	46.408
307.45	43.398
307.82	44.213
308.19	45.993
308.55	42.966
308.92	45.207
309.29	44.469
309.65	44.456
310.02	44.004
310.38	43.798
310.75	46.339
311.12	44.887
311.48	45.493
311.85	43.770
312.22	42.932
312.58	46.285
312.95	44.717
313.31	44.720
313.68	44.817
314.05	45.510
314.41	47.629
314.78	46.598
315.14	46.351
315.51	45.652
315.87	44.980
316.24	46.107
316.61	46.260
316.97	45.833
317.34	47.754
317.70	48.088
318.07	44.808
318.43	47.157
318.80	45.644
319.16	48.828
319.53	47.293
319.89	47.539
320.26	47.773
320.62	48.847
320.99	47.599
321.35	48.304
321.72	49.013
322.08	48.842
322.45	48.020
322.81	47.053
323.18	49.362
323.54	48.456
323.91	48.880
324.27	50.488
324.64	49.345
325.00	48.723
325.37	50.597
325.73	49.229
326.10	48.047
326.46	48.520
326.83	48.994
327.19	49.346
327.56	50.738
327.92	50.176
328.29	49.375
328.65	51.132
329.01	50.919
329.38	50.230
329.74	49.008
330.11	49.768
330.47	48.237
330.84	50.096
331.20	51.331
331.56	49.352
331.93	50.411
332.29	49.313
332.66	49.864
333.02	49.349
333.38	49.496
333.75	49.908
334.11	48.344
334.48	51.405
334.84	49.634
335.20	48.673
335.57	48.323
335.93	48.419
336.29	49.724
336.66	49.319
337.02	49.628
337.38	49.352
337.75	48.545
338.11	49.324
338.47	49.453
338.84	49.261
339.20	49.452
339.56	50.092
339.93	49.597
340.29	49.633
340.65	50.000
341.02	48.936
341.38	47.434
341.74	48.233
342.11	46.967
342.47	48.754
342.83	48.183
343.20	47.822
343.56	47.652
343.92	48.539
344.28	49.189
344.65	49.136
345.01	47.105
345.37	47.267
345.73	47.280
346.10	47.714
346.46	47.687
346.82	48.200
347.19	46.135
347.55	47.870
347.91	47.977
348.27	46.241
348.63	47.274
349.00	47.580
349.36	48.545
349.72	47.347
350.08	47.459
350.45	48.045
350.81	46.262
351.17	45.765
351.53	48.327
351.89	45.582
352.26	46.320
352.62	48.226
352.98	45.944
353.34	44.928
353.70	48.220
354.07	46.452
354.43	47.238
354.79	45.747
355.15	46.746
355.51	46.123
355.87	46.764
356.24	46.085
356.60	45.998
356.96	47.857
357.32	44.728
357.68	45.035
358.04	45.073
358.40	46.302
358.77	46.093
359.13	46.837
359.49	45.146
359.85	45.086
360.21	45.933
360.57	44.682
360.93	45.159
361.29	44.562
361.66	45.925
362.02	45.455
362.38	45.468
362.74	46.026
363.10	47.705
363.46	45.589
363.82	46.732
364.18	45.018
364.54	44.191
364.90	44.731
365.26	45.852
365.62	47.153
365.98	45.161
366.35	45.885
366.71	45.972
367.07	46.589
367.43	46.729
367.79	45.442
368.15	45.729
368.51	45.885
368.87	45.154
369.23	44.838
369.59	46.356
369.95	46.261
370.31	45.809
370.67	45.299
371.03	45.183
371.39	44.639
371.75	46.007
372.11	45.364
372.47	46.524
372.83	45.706
373.19	46.077
373.55	44.693
373.91	46.220
374.27	46.279
374.63	46.590
374.99	45.887
375.35	45.195
375.71	47.063
376.07	46.208
376.42	46.667
376.78	45.436
377.14	45.972
377.50	45.618
377.86	45.850
378.22	47.479
378.58	46.026
378.94	45.999
379.30	46.663
379.66	46.646
380.02	46.168
380.38	46.926
380.74	47.038
381.09	47.853
381.45	46.728
381.81	45.836
382.17	46.066
382.53	46.596
382.89	46.579
383.25	47.044
383.61	47.439
383.97	46.794
384.32	46.279
384.68	46.378
385.04	45.466
385.40	46.422
385.76	48.428
386.12	46.831
386.48	47.446
386.83	46.671
387.19	46.276
387.55	48.996
387.91	48.166
388.27	46.398
388.62	47.640
388.98	47.575
389.34	47.970
389.70	48.104
390.06	46.570
390.42	48.122
390.77	48.071
391.13	47.352
391.49	47.801
391.85	48.473
392.20	47.709
392.56	46.726
392.92	47.093
393.28	47.936
393.64	47.988
393.99	48.527
394.35	47.944
394.71	48.531
395.07	48.020
395.42	47.966
395.78	47.883
396.14	47.982
396.50	47.685
396.85	47.585
397.21	48.120
397.57	47.900
397.92	47.813
398.28	48.448
398.64	46.084
399.00	48.363
399.35	47.291
399.71	47.674
400.07	48.368
400.42	46.634
400.78	47.765
401.14	46.945
401.49	48.005
401.85	47.654
402.21	47.590
402.57	47.438
402.92	46.675
403.28	48.684
403.63	47.793
403.99	46.747
404.35	48.720
404.70	46.310
405.06	48.061
405.42	47.856
405.77	47.298
406.13	47.905
406.49	47.247
406.84	48.105
407.20	47.321
407.55	47.457
407.91	46.457
408.27	47.355
408.62	48.492
408.98	46.950
409.34	46.654
409.69	46.899
410.05	46.675
410.40	47.407
410.76	47.467
411.11	48.562
411.47	48.126
411.83	47.144
412.18	47.297
412.54	47.253
412.89	47.167
413.25	47.653
413.60	46.522
413.96	47.301
414.31	48.049
414.67	46.632
415.03	47.603
415.38	46.475
415.74	47.818
416.09	47.747
416.45	46.928
416.80	46.596
417.16	48.895
417.51	47.901
417.87	47.066
418.22	48.057
418.58	47.625
418.93	47.085
419.29	47.311
419.64	47.116
420.00	49.244
420.35	46.627
420.71	48.238
421.06	46.839
421.42	47.897
421.77	48.092
422.12	47.843
422.48	47.103
422.83	47.970
423.19	46.727
423.54	47.737
423.90	46.349
424.25	47.245
424.61	48.470
424.96	47.213
425.31	48.642
425.67	47.535
426.02	48.233
426.38	48.403
426.73	48.487
427.09	48.861
427.44	48.059
427.79	47.790
428.15	48.180
428.50	48.516
428.85	46.990
429.21	48.840
429.56	48.410
429.92	46.790
430.27	47.669
430.62	47.674
430.98	46.656
431.33	47.844
431.68	47.200
432.04	48.966
432.39	47.461
432.74	47.384
433.10	48.563
433.45	47.551
433.80	48.578
434.16	47.202
434.51	47.204
434.86	48.142
435.22	48.065
435.57	48.097
435.92	48.503
436.28	46.750
436.63	47.633
436.98	47.509
437.34	48.336
437.69	48.301
438.04	48.262
438.39	47.465
438.75	48.209
439.10	48.331
439.45	49.117
439.81	47.829
440.16	49.762
440.51	48.955
440.86	50.332
441.22	48.529
441.57	49.283
441.92	49.475
442.27	49.778
442.63	48.662
442.98	49.052
443.33	48.915
443.68	49.019
444.03	50.671
444.39	49.385
444.74	49.777
445.09	49.220
445.44	49.972
445.79	49.871
446.15	48.403
446.50	49.972
446.85	50.053
447.20	49.270
447.55	50.279
447.91	50.310
448.26	50.484
448.61	48.359
448.96	49.742
449.31	48.497
449.66	49.129
450.02	49.116
450.37	49.555
450.72	49.656
451.07	49.367
451.42	48.252
451.77	49.488
452.12	48.684
452.47	48.873
452.83	49.117
453.18	49.336
453.53	48.925
453.88	49.423
454.23	50.154
454.58	49.874
454.93	49.742
455.28	47.746
455.63	48.791
455.98	49.729
456.34	49.106
456.69	48.856
457.04	50.410
457.39	50.425
457.74	49.698
458.09	47.911
458.44	49.678
458.79	49.188
459.14	50.172
459.49	49.970
459.84	49.464
460.19	50.607
460.54	50.367
460.89	50.114
461.24	50.807
461.59	49.881
461.94	48.868
462.29	50.181
462.64	50.432
462.99	50.034
463.34	48.470
463.69	49.356
464.04	49.455
464.39	49.606
464.74	48.957
465.09	48.784
465.44	49.683
465.79	47.789
466.14	49.031
466.49	48.706
466.84	49.197
467.19	48.686
467.54	49.298
467.89	49.337
468.24	48.114
468.59	50.603
468.94	48.889
469.29	48.984
469.64	47.505
469.99	49.895
470.34	47.918
470.68	50.037
471.03	48.903
471.38	48.146
471.73	48.179
472.08	48.440
472.43	49.195
472.78	48.184
473.13	48.639
473.48	48.404
473.83	48.194
474.17	49.417
474.52	48.883
474.87	48.545
475.22	49.725
475.57	48.730
475.92	49.259
476.27	49.243
476.61	49.653
476.96	47.685
477.31	48.783
477.66	48.989
478.01	48.905
478.36	48.420
478.70	50.136
479.05	48.462
479.40	49.073
479.75	48.279
480.10	48.490
480.45	48.600
480.79	50.453
481.14	49.693
481.49	47.980
481.84	48.938
482.19	47.708
482.53	49.736
482.88	48.592
483.23	47.793
483.58	47.500
483.92	47.580
484.27	47.630
484.62	48.319
484.97	48.342
485.31	48.013
485.66	48.361
486.01	50.638
486.36	50.576
486.70	50.270
487.05	50.011
487.40	49.276
487.75	48.169
488.09	47.250
488.44	46.492
488.79	47.441
489.13	47.837
489.48	47.071
489.83	47.175
490.17	47.326
490.52	47.113
490.87	46.599
491.22	47.087
491.56	47.296
491.91	47.467
492.26	47.837
492.60	46.881
492.95	47.959
493.30	47.191
493.64	47.692
493.99	47.198
494.34	47.816
494.68	47.762
495.03	45.888
495.37	47.350
495.72	47.047
496.07	48.244
496.41	47.170
496.76	48.088
497.11	45.971
497.45	46.778
497.80	47.730
498.14	46.001
498.49	47.131
498.84	46.507
499.18	47.490
499.53	47.272
499.87	46.158
500.22	46.983
500.56	46.394
500.91	46.938
501.26	46.416
501.60	47.073
501.95	46.288
502.29	46.441
502.64	46.959
502.98	46.917
503.33	46.061
503.67	46.120
504.02	46.383
504.36	47.353
504.71	45.505
505.06	45.647
505.40	46.396
505.75	46.804
506.09	45.920
506.44	46.715
506.78	46.224
507.13	45.812
507.47	45.065
507.82	44.071
508.16	46.434
508.51	46.170
508.85	46.102
509.19	45.130
509.54	45.362
509.88	45.254
510.23	45.831
510.57	45.323
510.92	45.203
511.26	43.863
511.61	44.389
511.95	44.877
512.30	45.676
512.64	44.463
512.98	44.357
513.33	44.600
513.67	44.514
514.02	45.023
514.36	44.686
514.70	43.881
515.05	44.830
515.39	44.982
515.74	45.150
516.08	45.427
516.42	44.876
516.77	44.880
517.11	45.579
517.46	45.183
517.80	44.458
518.14	45.377
518.49	43.570
518.83	44.350
519.17	43.663
519.52	44.287
519.86	43.998
520.20	44.168
520.55	43.340
520.89	44.228
521.23	43.572
521.58	44.795
521.92	43.526
522.26	44.567
522.61	42.532
522.95	44.503
523.29	44.219
523.64	43.647
523.98	43.616
524.32	42.332
524.66	44.046
525.01	43.896
525.35	44.070
525.69	43.300
526.04	42.989
526.38	44.682
526.72	41.988
527.06	41.958
527.41	43.338
527.75	42.292
528.09	42.990
528.43	43.214
528.78	42.178
529.12	42.903
529.46	43.665
529.80	42.242
530.15	44.884
530.49	44.377
530.83	41.450
531.17	43.049
531.51	41.724
531.86	41.604
532.20	42.241
532.54	42.274
532.88	41.889
533.22	43.212
533.57	42.857
533.91	43.081
534.25	43.555
534.59	42.784
534.93	42.291
535.27	41.624
535.62	42.709
535.96	42.009
536.30	42.480
536.64	42.522
536.98	40.976
537.32	41.465
537.66	41.445
538.01	42.168
538.35	42.025
538.69	42.144
539.03	41.558
539.37	41.319
539.71	41.990
540.05	42.770
540.39	40.582
540.73	41.911
541.07	41.989
541.42	42.070
541.76	43.703
542.10	40.674
542.44	41.209
542.78	40.674
543.12	39.560
543.46	40.890
543.80	42.262
544.14	41.389
544.48	41.839
544.82	41.217
545.16	41.735
545.50	41.255
545.84	42.210
546.18	40.709
546.52	40.519
546.86	40.474
547.20	39.986
547.54	40.495
547.88	40.897
548.22	39.711
548.56	41.227
548.90	40.970
549.24	40.358
549.58	40.973
549.92	38.528
550.26	39.487
550.60	40.818
550.94	40.030
551.28	40.263
551.62	39.846
551.96	40.150
552.30	40.205
552.64	39.633
552.98	39.662
553.32	39.586
553.66	38.897
554.00	40.657
554.34	39.586
554.68	39.602
555.02	39.658
555.36	38.818
555.69	38.828
556.03	38.972
556.37	39.359
556.71	40.361
557.05	38.926
557.39	39.851
557.73	38.906
558.07	39.894
558.41	40.046
558.75	39.829
559.08	38.377
559.42	38.571
559.76	38.431
560.10	39.526
560.44	37.379
560.78	38.531
561.12	39.633
561.45	39.494
561.79	39.146
562.13	38.467
562.47	38.489
562.81	39.337
563.15	38.787
563.48	39.321
563.82	39.053
564.16	38.370
564.50	38.784
564.84	38.554
565.17	39.504
565.51	40.779
565.85	40.123
566.19	39.456
566.52	39.410
566.86	39.589
567.20	39.415
567.54	40.815
567.88	41.183
568.21	39.932
568.55	39.457
568.89	41.068
569.23	41.791
569.56	40.718
569.90	41.941
570.24	41.124
570.57	41.964
570.91	42.489
571.25	41.236
571.59	40.860
571.92	40.326
572.26	40.912
572.60	40.930
572.93	40.885
573.27	40.690
573.61	41.319
573.95	41.207
574.28	40.969
574.62	40.529
574.96	40.588
575.29	40.687
575.63	39.803
575.97	39.957
576.30	39.696
576.64	40.238
576.98	40.618
577.31	40.895
577.65	41.078
577.98	41.209
578.32	40.792
578.66	40.726
578.99	39.682
579.33	39.720
579.67	39.036
580.00	40.025
580.34	40.199
580.67	39.886
581.01	40.538
581.35	39.858
581.68	40.779
582.02	40.852
582.35	40.891
582.69	41.254
583.02	40.162
583.36	39.886
583.70	39.668
584.03	39.533
584.37	40.260
584.70	39.753
585.04	39.223
585.37	39.779
585.71	39.250
586.04	39.738
586.38	38.944
586.72	39.713
587.05	40.179
587.39	39.782
587.72	40.432
588.06	40.271
588.39	39.419
588.73	39.072
589.06	38.845
589.40	38.680
589.73	38.956
590.07	39.577
590.40	38.274
590.73	38.344
591.07	37.998
591.40	37.934
591.74	38.824
592.07	39.147
592.41	38.295
592.74	38.272
593.08	38.386
593.41	39.012
593.75	38.469
594.08	37.933
594.41	38.719
594.75	38.130
595.08	38.441
595.42	38.572
595.75	38.678
596.09	38.507
596.42	38.280
596.75	38.410
597.09	37.358
597.42	38.076
597.75	38.754
598.09	37.709
598.42	36.552
598.76	37.151
599.09	37.901
599.42	37.097
599.76	37.171
600.09	37.971
600.42	37.794
600.76	36.999
601.09	36.756
601.42	37.642
601.76	36.800
602.09	37.583
602.42	37.616
602.76	37.394
603.09	37.500
603.42	38.629
603.76	37.581
604.09	37.141
604.42	37.817
604.76	37.294
605.09	37.066
605.42	36.885
605.75	36.602
606.09	37.197
606.42	37.156
606.75	36.753
607.09	37.670
607.42	36.287
607.75	36.368
608.08	36.478
608.42	35.907
608.75	36.916
609.08	36.273
609.41	35.939
609.75	35.887
610.08	35.996
610.41	36.570
610.74	36.080
611.07	36.848
611.41	36.482
611.74	36.087
612.07	35.867
612.40	35.613
612.73	34.915
613.07	35.546
613.40	36.160
613.73	36.262
614.06	36.171
614.39	36.887
614.72	35.574
615.06	36.592
615.39	34.880
615.72	35.630
616.05	36.034
616.38	33.903
616.71	34.862
617.05	35.578
617.38	34.758
617.71	34.591
618.04	35.238
618.37	36.066
618.70	35.776
619.03	35.139
619.36	33.864
619.69	33.738
620.03	35.062
620.36	34.692
620.69	35.189
621.02	34.786
621.35	34.855
621.68	33.418
622.01	33.667
622.34	34.238
622.67	34.385
623.00	34.456
623.33	34.680
623.66	34.181
623.99	34.947
624.32	34.601
624.65	33.759
624.99	34.462
625.32	33.889
625.65	35.507
625.98	33.763
626.31	32.585
626.64	34.402
626.97	33.682
627.30	33.538
627.63	33.969
627.96	33.154
628.29	33.395
628.62	31.957
628.95	30.962
629.28	33.669
629.61	31.705
629.94	32.747
630.26	33.103
630.59	33.299
630.92	32.821
631.25	31.385
631.58	31.167
631.91	31.579
632.24	31.078
632.57	31.477
632.90	31.198
633.23	30.941
633.56	31.234
633.89	31.319
634.22	32.222
634.55	30.368
634.88	32.822
635.20	28.846
635.53	31.200
635.86	29.909
636.19	32.600
636.52	32.015
636.85	30.273
637.18	30.314
637.51	30.692
637.83	30.880
638.16	31.651
638.49	29.019
638.82	31.842
639.15	31.343
639.48	30.812
639.81	31.381
640.13	31.313
640.46	30.175
640.79	29.602
641.12	29.247
641.45	28.228
641.77	30.074
642.10	29.384
642.43	28.457
642.76	30.693
643.09	29.402
643.41	27.023
643.74	30.807
644.07	30.049
644.40	30.236
644.73	28.897
645.05	29.362
645.38	29.806
645.71	26.773
646.04	30.521
646.36	27.837
646.69	28.417
647.02	30.246
647.35	30.224
647.67	28.154
648.00	31.157
648.33	29.352
648.66	31.186
648.98	29.816
649.31	30.909
649.64	27.630
649.96	29.498
650.29	29.642
650.62	29.402
650.94	26.296
651.27	27.188
651.60	28.649
651.92	29.021
652.25	30.551
652.58	29.333
652.90	29.503
653.23	28.571
653.56	27.919
653.88	29.553
654.21	28.371
654.54	27.674
654.86	28.862
655.19	30.409
655.52	36.610
655.84	38.922
656.17	43.592
656.49	58.492
656.82	58.952
657.15	44.415
657.47	32.442
657.80	23.671
658.13	22.993
658.45	33.996
658.78	33.047
659.10	31.594
659.43	30.995
659.75	30.982
660.08	29.586
660.41	29.316
660.73	27.210
661.06	28.423
661.38	24.266
661.71	22.793
662.03	28.970
662.36	29.011
662.68	27.876
663.01	28.166
663.33	29.234
663.66	26.744
663.98	26.047
664.31	27.079
664.63	23.733
664.96	27.391
665.28	24.283
665.61	25.974
665.93	27.174
666.26	28.416
666.58	26.622
666.91	25.176
667.23	25.472
667.56	29.147
667.88	27.578
668.21	26.969
668.53	28.605
668.86	29.009
669.18	22.170
669.50	23.729
669.83	27.907
670.15	25.641
670.48	27.512
670.80	26.498
671.13	26.174
671.45	26.256
671.77	26.180
672.10	28.317
672.42	29.963
672.75	29.130
673.07	29.875
673.39	29.725
673.72	24.852
674.04	25.417
674.37	27.542
674.69	27.409
675.01	30.000
675.34	26.126
675.66	25.926
675.98	26.164
676.31	26.835
676.63	28.266
676.95	28.864
677.28	29.412
677.60	27.229
677.92	26.835
678.25	30.635
678.57	26.190
678.89	24.580
679.22	29.083
679.54	27.309
679.86	27.237
680.18	30.485
680.51	28.788
680.83	27.237
681.15	29.000
681.48	29.713
681.80	28.719
682.12	28.831
682.44	29.498
682.77	27.594
683.09	27.918
683.41	26.136
683.73	25.115
684.06	28.982
684.38	23.441
684.70	28.758
685.02	27.801
685.34	24.506
685.67	29.456
685.99	29.476
686.31	30.442
686.63	28.200
686.96	29.658
687.28	25.859
687.60	27.376
687.92	31.717
688.24	25.202
688.56	31.223
688.89	27.232
689.21	28.000
689.53	27.842
689.85	27.209
690.17	28.125
690.49	24.586
690.82	27.427
691.14	28.571
691.46	28.271
691.78	28.829
692.10	29.677
692.42	28.788
692.74	27.137
693.06	26.126
693.39	26.697
693.71	26.923
694.03	26.097
694.35	26.869
694.67	26.010
694.99	24.021
695.31	29.765
695.63	28.000
695.95	25.253
696.27	27.720
696.59	27.222
696.91	25.210
697.23	24.679
697.56	26.733
697.88	30.108
698.20	28.246
698.52	28.235
698.84	25.837
699.16	26.000
699.48	27.318
699.80	27.543
700.12	28.302
700.44	28.011
700.76	23.837
701.08	22.424
701.40	27.410
701.72	28.395
702.04	27.393
702.36	27.759
702.68	26.727
703.00	26.061
703.32	26.100
703.64	24.294
703.96	26.377
704.28	25.153
704.60	26.349
704.91	23.344
705.23	26.578
705.55	27.562
705.87	24.549
706.19	25.185
706.51	25.430
706.83	29.260
707.15	20.249
707.47	27.171
707.79	31.771
708.11	29.000
708.43	29.750
708.74	28.682
709.06	29.859
709.38	26.911
709.70	25.444
710.02	26.752
710.34	27.864
710.66	25.641
710.98	22.517
711.29	28.525
711.61	25.424
711.93	27.036
712.25	30.584
712.57	23.810
712.89	23.507
713.20	28.028
713.52	25.087
713.84	25.597
714.16	25.086
714.48	24.839
714.80	28.846
715.11	28.875
715.43	22.884
715.75	27.000
716.07	24.917
716.39	21.812
716.70	23.985
717.02	20.229
717.34	28.340
717.66	26.991
717.97	21.304
718.29	30.544
718.61	25.197
718.93	27.132
719.24	23.954
719.56	25.301
719.88	27.491
720.20	29.545
720.51	25.670
720.83	24.324
721.15	31.092
721.46	24.597
721.78	27.273
722.10	26.766
722.42	22.822
722.73	25.306
723.05	30.204
723.37	31.780
723.68	30.180
724.00	25.641
724.32	24.444
724.63	20.455
724.95	23.581
725.27	29.493
725.58	30.085
725.90	27.381
726.22	28.185
726.53	31.525
726.85	31.835
727.16	32.075
727.48	23.482
727.80	22.267
728.11	24.153
728.43	26.275
728.74	24.194
729.06	29.200
729.38	28.195
729.69	26.693
730.01	26.154
730.32	29.104
730.64	31.095
730.96	30.566
731.27	27.667
731.59	27.797
731.90	30.255
732.22	29.968
732.53	31.229
732.85	29.078
733.16	31.987
733.48	29.137
733.80	26.087
734.11	29.492
734.43	25.773
734.74	31.212
735.06	30.293
735.37	29.607
735.69	29.966
736.00	27.178
736.32	24.161
736.63	29.577
736.95	30.034
737.26	28.114
737.58	29.195
737.89	34.066
738.21	26.692
738.52	30.041
738.83	27.948
739.15	30.568
739.46	27.953
739.78	27.473
740.09	33.007
740.41	29.710
740.72	27.559
741.04	29.555
741.35	27.234
741.66	27.488
741.98	26.531
742.29	24.257
742.61	30.366
742.92	18.957
743.23	21.759
743.55	28.054
743.86	27.751
744.18	27.751
744.49	25.000
744.80	23.370
745.12	32.086
745.43	20.000
745.74	34.375
746.06	26.829
746.37	27.749
746.68	28.910
747.00	26.064
747.31	32.836
747.62	25.243
747.94	33.014
748.25	26.733
748.56	29.508
748.88	24.607
749.19	33.511
749.50	22.660
749.82	25.472
750.13	27.064
750.44	29.699
750.75	30.224
751.07	31.752
751.38	27.203
751.69	26.667
752.01	28.295
752.32	27.888
752.63	27.273
752.94	28.879
753.26	35.565
753.57	26.697
753.88	31.858
754.19	23.333
754.51	23.554
754.82	24.696
755.13	33.750
755.44	31.048
755.75	33.594
756.07	29.183
756.38	31.698
756.69	27.203
757.00	28.333
757.31	29.085
757.63	30.488
757.94	29.167
758.25	30.137
758.56	28.989
758.87	27.479
759.18	28.349
759.50	29.818
759.81	33.110
760.12	31.613
760.43	31.212
760.74	33.025
761.05	30.154
761.36	30.682
761.67	31.818
761.99	27.551
762.30	30.182
762.61	26.087
762.92	27.602
763.23	26.577
763.54	23.364
763.85	27.119
764.16	29.461
764.47	25.806
764.78	30.037
765.10	32.997
765.41	32.492
765.72	32.698
766.03	27.820
766.34	31.387
766.65	28.685
766.96	30.808
767.27	23.936
767.58	24.138
767.89	16.312
768.20	20.455
768.51	30.769
768.82	25.616
769.13	26.267
769.44	23.605
769.75	27.854
770.06	28.879
770.37	28.365
770.68	27.919
770.99	29.412
771.30	36.765
771.61	30.317
771.92	29.310
772.23	35.961
772.54	37.634
772.85	29.012
773.16	30.899
773.47	30.065
773.78	33.333
774.09	28.144
774.39	26.667
774.70	29.299
775.01	30.345
775.32	29.286
775.63	19.835
775.94	19.847
776.25	32.283
776.56	17.500
776.87	27.885
777.18	20.513
777.48	29.310
777.79	18.261
778.10	8.571
778.41	25.225
778.72	29.365
779.03	31.579
779.34	24.823
779.65	28.767
779.95	21.233
780.26	29.655
780.57	21.951
780.88	22.835
781.19	21.552
781.50	25.581
781.80	20.710
782.11	26.415
782.42	31.538
782.73	27.338
783.04	18.519
783.34	29.167
783.65	11.966
783.96	24.590
784.27	28.276
784.57	30.894
784.88	21.875
785.19	25.000
785.50	37.000
785.81	28.448
786.11	28.448
786.42	29.126
786.73	30.909
787.04	17.347
787.34	25.000
787.65	30.476
787.96	22.124
788.26	23.636
788.57	26.496
788.88	25.781
789.19	23.016
789.49	26.087
789.80	22.449
790.11	38.384
790.41	26.364
790.72	26.087
791.03	35.227
791.33	36.250
791.64	21.250
791.95	23.256
792.25	20.213
792.56	31.461
792.87	16.438
793.17	39.130
793.48	16.000
793.79	25.000
794.09	30.000
794.40	21.698
794.70	27.184
795.01	17.073
795.32	28.205
795.62	22.857
795.93	28.431
796.23	28.302
796.54	32.292
796.85	14.706
797.15	15.493
797.46	23.611
797.76	36.364
798.07	12.791
798.37	10.526
798.68	12.121
798.99	13.580
799.29	21.429
799.60	20.290
799.90	30.667
800.21	26.230
800.51	9.231
800.82	22.034
801.12	20.290
801.43	21.311
801.73	38.095
802.04	28.000
802.34	26.866
802.65	19.231
802.95	14.286
803.26	3.846
803.56	13.725
803.87	4.348
804.17	28.000
804.48	30.159
804.78	18.519
805.09	26.087
805.39	22.222
805.70	25.926
806.00	7.018
806.30	23.944
806.61	30.000
806.91	26.389
807.22	32.895
807.52	25.333
807.83	14.545
808.13	34.722
808.43	35.294
808.74	17.910
809.04	32.203
809.35	19.231
809.65	10.938
809.95	-10.811
810.26	18.182
810.56	17.808
810.86	21.429
811.17	26.000
811.47	32.653
811.77	10.526
812.08	9.091
812.38	5.660
812.69	12.500
812.99	9.091
813.29	23.684
813.59	-8.571
813.90	13.636
814.20	33.333
814.50	17.308
814.81	45.283
815.11	10.638
815.41	23.729
815.72	16.667
816.02	29.412
816.32	20.833
816.62	24.390
816.93	10.811
817.23	-2.857
817.53	8.333
817.84	15.217
818.14	11.538
818.44	2.632
818.74	28.261
819.04	-20.000
819.35	32.432
819.65	-20.588
819.95	27.778
820.25	11.905
820.56	47.500
820.86	-6.897
821.16	52.500
821.46	38.298
821.76	32.500
822.07	16.279
822.37	18.919
822.67	-3.125
822.97	38.095
823.27	-32.143
823.57	-28.000
823.88	-3.704
824.18	35.714
824.48	32.353
824.78	6.452
825.08	34.783
825.38	9.091
825.69	-16.667
825.99	21.053
826.29	8.333
826.59	6.667
826.89	-9.524
827.19	21.739
827.49	-20.000
827.79	31.429
828.09	0.000
828.39	33.333
828.70	29.730
829.00	39.286
829.30	-14.286
829.60	36.667
829.90	43.750
830.20	15.789
830.50	18.519
830.80	26.087
831.10	27.273
831.40	39.394
831.70	0.000
832.00	28.571
832.30	-28.571
832.60	-16.667
832.90	13.793
833.20	15.000
833.50	36.364
833.80	25.926
834.10	34.615
834.40	15.625
834.70	-22.222
835.00	-15.789
835.30	50.000
835.60	86.667
835.90	25.806
836.20	13.636
836.50	21.429
836.80	3.846
837.10	10.714
837.40	-300.000
837.70	45.455
838.00	18.182
838.30	-26.087
838.60	0.000
838.90	18.182
839.19	28.571
839.49	43.333
839.79	-15.385
840.09	-100.000
840.39	17.857
840.69	32.143
840.99	0.000
841.29	-47.368
841.59	-50.000
841.88	-18.182
842.18	0.000
842.48	62.500
842.78	0.000
843.08	18.519
843.38	-90.000
843.68	21.739
843.97	13.333
844.27	0.000
844.57	-15.000
844.87	16.667
845.17	0.000
845.47	40.000
845.76	-38.095
846.06	11.765
846.36	-30.000
846.66	42.857
846.96	-20.000
847.25	-125.000
847.55	21.429
847.85	0.000
848.15	-45.455
848.44	-533.333
848.74	-10.000
849.04	33.333
849.34	36.364
849.63	-83.333
849.93	-100.000
850.23	-16.667
850.53	-10.000
850.82	-30.769
851.12	-144.444
851.42	-33.333
851.71	26.923
852.01	-42.857
852.31	-100.000
852.61	-54.545
852.90	-25.000
853.20	-5.263
853.50	-100.000
853.79	-4.348
854.09	41.667
854.39	21.053
854.68	20.833
854.98	12.903
855.28	53.846
855.57	5.000
855.87	66.667
856.17	22.222
856.46	7.143
856.76	33.333
857.05	100.000
857.35	60.000
857.65	11.111
857.94	-7.692
858.24	27.586
858.53	-5.556
858.83	7.407
859.13	22.727
859.42	-4.348
859.72	125.000
860.01	-300.000
860.31	40.000
860.60	42.857
860.90	100.000
861.20	-40.000
861.49	150.000
861.79	-13.333
862.08	-15.000
862.38	106.667
862.67	-220.000
862.97	-100.000
863.26	33.333
863.56	33.333
863.85	-300.000
864.15	38.889
864.44	-20.000
864.74	100.000
865.03	50.000
865.33	-320.000
865.62	50.000
865.92	25.000
866.21	-33.333
866.51	75.000
866.80	9.091
867.10	150.000
867.39	-33.333
867.69	0.000
867.98	7.692
868.27	33.333
868.57	40.000
868.86	22.222
869.16	7.692
869.45	53.333
869.75	-1200.000
870.04	0.000
870.33	0.000
870.63	19.048
870.92	433.333
871.22	-240.000
871.51	-600.000
871.80	88.889
872.10	600.000
>>>>>End Processed Spectral Data<<<<<
