SpectraSuite Data File
++++++++++++++++++++++++++++++++++++
Date: Fri May 15 21:05:56 PDT 2015
User: schluterlab
Dark Spectrum Present: Yes
Reference Spectrum Present: Yes
Number of Sampled Component Spectra: 1
Spectrometers: USB2E3373
Integration Time (usec): 3000 (USB2E3373)
Spectra Averaged: 3 (USB2E3373)
Boxcar Smoothing: 0 (USB2E3373)
Correct for Electrical Dark: No (USB2E3373)
Strobe/Lamp Enabled: No (USB2E3373)
Correct for Detector Non-linearity: No (USB2E3373)
Correct for Stray Light: No (USB2E3373)
Number of Pixels in Processed Spectrum: 2048
>>>>>Begin Processed Spectral Data<<<<<
178.53	0.000
178.91	0.000
179.29	-12.500
179.67	-800.000
180.04	214.286
180.42	-75.000
180.80	-500.000
181.18	-33.333
181.56	400.000
181.94	100.000
182.31	800.000
182.69	80.000
183.07	-433.333
183.45	-160.000
183.83	183.333
184.20	-109.091
184.58	155.556
184.96	150.000
185.34	433.333
185.72	-250.000
186.09	107.692
186.47	-800.000
186.85	83.333
187.23	100.000
187.61	100.000
187.98	-366.667
188.36	33.333
188.74	-166.667
189.12	-35.294
189.49	22.222
189.87	0.000
190.25	21.429
190.63	50.000
191.00	-266.667
191.38	21.053
191.76	250.000
192.14	-0.000
192.51	-350.000
192.89	11.111
193.27	-157.143
193.65	250.000
194.02	81.818
194.40	-60.000
194.78	-75.000
195.15	-16.667
195.53	37.500
195.91	350.000
196.29	-175.000
196.66	84.615
197.04	42.857
197.42	-66.667
197.79	-533.333
198.17	-115.385
198.55	1700.000
198.92	-100.000
199.30	-300.000
199.68	-40.000
200.05	-400.000
200.43	0.000
200.81	-466.667
201.18	33.333
201.56	1300.000
201.94	-750.000
202.31	133.333
202.69	-60.000
203.07	250.000
203.44	-500.000
203.82	0.000
204.19	-7.143
204.57	-700.000
204.95	137.500
205.32	10.000
205.70	0.000
206.08	-275.000
206.45	111.111
206.83	50.000
207.20	-142.857
207.58	800.000
207.96	-66.667
208.33	-50.000
208.71	-225.000
209.08	-316.667
209.46	-400.000
209.84	-220.000
210.21	0.000
210.59	-28.571
210.96	-150.000
211.34	-250.000
211.71	73.333
212.09	-57.143
212.46	-100.000
212.84	0.000
213.22	-40.000
213.59	1000.000
213.97	38.462
214.34	0.000
214.72	-66.667
215.09	275.000
215.47	-46.154
215.84	-54.545
216.22	-33.333
216.59	37.500
216.97	-500.000
217.34	-225.000
217.72	-260.000
218.09	37.500
218.47	225.000
218.84	-1200.000
219.22	0.000
219.59	-240.000
219.97	433.333
220.34	25.000
220.72	-28.571
221.09	-125.000
221.47	-200.000
221.84	-1050.000
222.22	100.000
222.59	-45.455
222.97	8.333
223.34	-566.667
223.72	-21.429
224.09	-47.619
224.46	-10.714
224.84	233.333
225.21	70.000
225.59	53.333
225.96	-550.000
226.34	350.000
226.71	-57.143
227.08	-66.667
227.46	37.500
227.83	-150.000
228.21	-33.333
228.58	18.182
228.95	75.000
229.33	120.000
229.70	43.750
230.08	-100.000
230.45	-42.857
230.82	-14.286
231.20	-46.667
231.57	-7.143
231.95	-85.714
232.32	-80.000
232.69	7.143
233.07	-200.000
233.44	-120.000
233.81	-60.000
234.19	-22.222
234.56	-58.824
234.93	650.000
235.31	-75.000
235.68	-160.000
236.05	-92.308
236.43	-40.000
236.80	-17.647
237.17	15.625
237.55	10.000
237.92	-7.407
238.29	-13.889
238.67	0.000
239.04	-2.941
239.41	-43.902
239.79	-13.333
240.16	46.341
240.53	-7.895
240.91	8.696
241.28	3.175
241.65	8.929
242.02	26.027
242.40	3.333
242.77	11.864
243.14	-9.091
243.51	1.250
243.89	17.241
244.26	8.046
244.63	8.333
245.00	3.093
245.38	12.371
245.75	1.124
246.12	7.759
246.49	7.438
246.87	2.885
247.24	6.723
247.61	8.772
247.98	9.756
248.36	9.375
248.73	17.105
249.10	4.545
249.47	-1.899
249.84	11.111
250.22	11.176
250.59	11.111
250.96	15.962
251.33	4.070
251.70	7.647
252.08	8.122
252.45	15.842
252.82	11.558
253.19	15.668
253.56	5.607
253.94	11.261
254.31	14.783
254.68	14.912
255.05	9.449
255.42	16.594
255.79	11.197
256.16	17.899
256.54	15.299
256.91	10.646
257.28	13.755
257.65	9.363
258.02	13.830
258.39	15.825
258.76	16.484
259.14	12.292
259.51	13.916
259.88	11.684
260.25	9.804
260.62	13.889
260.99	11.186
261.36	9.932
261.73	13.291
262.10	12.158
262.47	10.736
262.85	12.226
263.22	9.846
263.59	11.526
263.96	13.354
264.33	9.091
264.70	12.798
265.07	10.417
265.44	16.147
265.81	12.147
266.18	14.754
266.55	12.853
266.92	12.694
267.29	15.666
267.66	10.997
268.03	14.921
268.40	9.922
268.77	17.112
269.14	13.189
269.51	12.596
269.88	12.718
270.25	10.969
270.62	10.488
270.99	13.555
271.36	14.914
271.73	13.380
272.10	12.895
272.47	13.239
272.84	13.861
273.21	15.777
273.58	12.048
273.95	14.645
274.32	10.393
274.69	11.086
275.06	13.170
275.43	13.152
275.80	13.687
276.17	11.954
276.54	13.062
276.91	13.377
277.28	10.699
277.65	14.669
278.02	12.979
278.39	11.379
278.76	13.627
279.13	10.166
279.50	15.756
279.87	11.447
280.23	12.043
280.60	13.255
280.97	13.131
281.34	10.385
281.71	13.552
282.08	13.088
282.45	12.524
282.82	13.514
283.19	10.251
283.56	12.139
283.92	11.765
284.29	13.462
284.66	11.628
285.03	13.163
285.40	12.476
285.77	9.139
286.14	12.094
286.51	14.391
286.87	11.517
287.24	11.786
287.61	13.228
287.98	14.211
288.35	11.958
288.72	12.609
289.08	10.590
289.45	13.533
289.82	11.713
290.19	10.751
290.56	10.463
290.93	10.438
291.29	10.632
291.66	10.866
292.03	10.526
292.40	11.613
292.77	9.729
293.13	9.578
293.50	10.774
293.87	10.687
294.24	10.201
294.60	9.389
294.97	10.268
295.34	8.742
295.71	8.197
296.08	9.268
296.44	9.246
296.81	10.833
297.18	9.710
297.55	11.382
297.91	10.411
298.28	11.609
298.65	9.362
299.02	10.108
299.38	6.703
299.75	8.552
300.12	7.461
300.48	8.696
300.85	8.238
301.22	9.091
301.59	9.605
301.95	9.367
302.32	11.284
302.69	9.204
303.05	9.158
303.42	8.717
303.79	9.813
304.15	9.080
304.52	7.134
304.89	7.368
305.25	9.443
305.62	8.868
305.99	9.123
306.35	8.671
306.72	7.537
307.09	8.780
307.45	9.644
307.82	8.912
308.19	8.595
308.55	10.251
308.92	9.586
309.29	8.715
309.65	7.750
310.02	8.141
310.38	9.221
310.75	7.760
311.12	9.365
311.48	7.529
311.85	8.796
312.22	8.755
312.58	7.962
312.95	7.471
313.31	7.246
313.68	8.272
314.05	8.469
314.41	9.278
314.78	8.454
315.14	9.558
315.51	7.350
315.87	9.119
316.24	9.201
316.61	8.071
316.97	10.516
317.34	8.008
317.70	8.222
318.07	8.269
318.43	7.843
318.80	7.765
319.16	9.277
319.53	9.687
319.89	8.661
320.26	9.615
320.62	9.127
320.99	7.098
321.35	9.250
321.72	9.761
322.08	8.862
322.45	9.340
322.81	11.198
323.18	9.617
323.54	10.135
323.91	9.348
324.27	10.547
324.64	12.266
325.00	11.588
325.37	12.764
325.73	11.333
326.10	12.262
326.46	13.184
326.83	14.086
327.19	12.903
327.56	13.727
327.92	14.525
328.29	14.554
328.65	14.906
329.01	16.820
329.38	15.945
329.74	16.336
330.11	16.775
330.47	16.698
330.84	17.404
331.20	19.392
331.56	17.778
331.93	18.721
332.29	18.973
332.66	19.095
333.02	19.981
333.38	19.982
333.75	19.048
334.11	20.591
334.48	22.121
334.84	21.337
335.20	21.317
335.57	21.396
335.93	22.222
336.29	20.902
336.66	21.163
337.02	21.375
337.38	21.852
337.75	22.727
338.11	22.272
338.47	24.361
338.84	23.752
339.20	22.943
339.56	23.670
339.93	23.545
340.29	23.670
340.65	23.925
341.02	23.138
341.38	23.363
341.74	22.968
342.11	22.877
342.47	24.110
342.83	23.962
343.20	24.216
343.56	24.783
343.92	24.889
344.28	24.253
344.65	24.266
345.01	24.460
345.37	24.811
345.73	25.021
346.10	26.143
346.46	25.231
346.82	25.696
347.19	23.940
347.55	24.896
347.91	24.919
348.27	24.737
348.63	24.446
349.00	24.692
349.36	25.686
349.72	26.949
350.08	24.672
350.45	26.018
350.81	24.419
351.17	23.616
351.53	24.408
351.89	25.434
352.26	25.600
352.62	26.210
352.98	24.257
353.34	25.201
353.70	25.809
354.07	25.161
354.43	24.900
354.79	24.608
355.15	25.952
355.51	25.791
355.87	26.618
356.24	25.285
356.60	25.627
356.96	26.825
357.32	25.479
357.68	26.271
358.04	25.606
358.40	26.206
358.77	26.874
359.13	24.660
359.49	25.039
359.85	25.273
360.21	26.555
360.57	25.019
360.93	25.038
361.29	25.453
361.66	26.254
362.02	28.258
362.38	26.580
362.74	26.874
363.10	26.260
363.46	26.093
363.82	26.672
364.18	26.716
364.54	25.441
364.90	27.097
365.26	26.055
365.62	28.321
365.98	26.833
366.35	27.677
366.71	26.016
367.07	26.705
367.43	25.881
367.79	26.502
368.15	26.849
368.51	26.730
368.87	26.633
369.23	27.148
369.59	28.353
369.95	27.493
370.31	28.613
370.67	27.239
371.03	27.035
371.39	27.133
371.75	27.985
372.11	27.175
372.47	27.515
372.83	27.040
373.19	26.890
373.55	26.498
373.91	28.006
374.27	29.199
374.63	28.643
374.99	27.943
375.35	28.621
375.71	28.671
376.07	27.598
376.42	27.415
376.78	28.859
377.14	27.691
377.50	27.490
377.86	28.447
378.22	28.271
378.58	28.013
378.94	28.355
379.30	28.384
379.66	30.094
380.02	28.633
380.38	28.241
380.74	28.965
381.09	28.528
381.45	29.052
381.81	28.254
382.17	29.315
382.53	29.294
382.89	29.127
383.25	29.745
383.61	29.085
383.97	28.444
384.32	28.831
384.68	29.598
385.04	27.880
385.40	29.309
385.76	30.252
386.12	31.953
386.48	30.077
386.83	29.740
387.19	30.403
387.55	30.427
387.91	30.318
388.27	29.731
388.62	30.837
388.98	30.264
389.34	30.294
389.70	30.951
390.06	29.830
390.42	30.376
390.77	31.066
391.13	30.769
391.49	31.501
391.85	31.644
392.20	30.257
392.56	30.833
392.92	30.652
393.28	30.012
393.64	30.390
393.99	31.223
394.35	31.499
394.71	31.418
395.07	29.541
395.42	29.994
395.78	31.401
396.14	31.084
396.50	31.452
396.85	30.908
397.21	30.326
397.57	30.784
397.92	31.516
398.28	30.575
398.64	30.181
399.00	31.941
399.35	30.474
399.71	30.615
400.07	31.378
400.42	30.906
400.78	31.721
401.14	31.518
401.49	31.626
401.85	30.896
402.21	31.867
402.57	33.125
402.92	31.242
403.28	31.391
403.63	31.841
403.99	32.143
404.35	32.542
404.70	30.536
405.06	30.846
405.42	31.510
405.77	30.796
406.13	32.421
406.49	30.965
406.84	32.090
407.20	33.113
407.55	31.874
407.91	31.217
408.27	31.867
408.62	32.308
408.98	31.670
409.34	31.970
409.69	32.494
410.05	30.542
410.40	32.222
410.76	32.871
411.11	32.062
411.47	32.479
411.83	32.141
412.18	33.269
412.54	32.210
412.89	31.773
413.25	31.949
413.60	32.422
413.96	31.840
414.31	33.232
414.67	33.162
415.03	32.423
415.38	32.311
415.74	33.355
416.09	33.442
416.45	32.951
416.80	32.452
417.16	34.323
417.51	33.045
417.87	32.986
418.22	33.290
418.58	32.977
418.93	33.981
419.29	32.843
419.64	33.895
420.00	34.131
420.35	34.269
420.71	34.083
421.06	33.702
421.42	34.075
421.77	33.757
422.12	33.314
422.48	34.651
422.83	32.889
423.19	33.747
423.54	33.510
423.90	33.804
424.25	33.927
424.61	35.251
424.96	34.495
425.31	35.066
425.67	35.270
426.02	35.277
426.38	34.941
426.73	34.988
427.09	35.506
427.44	35.059
427.79	35.651
428.15	35.801
428.50	36.463
428.85	35.012
429.21	35.654
429.56	36.173
429.92	35.747
430.27	34.937
430.62	34.971
430.98	35.669
431.33	36.435
431.68	36.159
432.04	37.172
432.39	36.338
432.74	35.358
433.10	37.299
433.45	36.440
433.80	36.390
434.16	36.399
434.51	37.581
434.86	37.573
435.22	36.343
435.57	37.867
435.92	36.407
436.28	36.792
436.63	37.136
436.98	36.732
437.34	37.447
437.69	38.760
438.04	37.721
438.39	36.836
438.75	38.009
439.10	37.748
439.45	38.344
439.81	37.737
440.16	38.302
440.51	39.045
440.86	38.973
441.22	36.821
441.57	38.135
441.92	39.297
442.27	38.914
442.63	38.972
442.98	38.254
443.33	38.676
443.68	38.780
444.03	39.096
444.39	39.006
444.74	39.799
445.09	39.365
445.44	39.373
445.79	39.866
446.15	38.601
446.50	38.491
446.85	39.373
447.20	39.364
447.55	40.123
447.91	39.481
448.26	39.499
448.61	40.530
448.96	40.505
449.31	41.387
449.66	39.837
450.02	40.331
450.37	39.597
450.72	39.462
451.07	40.570
451.42	39.950
451.77	41.350
452.12	38.876
452.47	40.953
452.83	40.813
453.18	40.607
453.53	41.909
453.88	41.226
454.23	41.549
454.58	41.499
454.93	41.173
455.28	39.746
455.63	41.538
455.98	40.770
456.34	41.060
456.69	41.995
457.04	41.966
457.39	41.555
457.74	41.898
458.09	41.083
458.44	42.188
458.79	40.280
459.14	41.934
459.49	42.448
459.84	42.076
460.19	41.323
460.54	42.298
460.89	42.102
461.24	42.547
461.59	42.518
461.94	41.572
462.29	42.762
462.64	42.458
462.99	41.842
463.34	41.516
463.69	41.699
464.04	42.312
464.39	42.935
464.74	42.086
465.09	42.795
465.44	42.297
465.79	41.610
466.14	42.189
466.49	41.691
466.84	41.820
467.19	43.116
467.54	43.678
467.89	43.525
468.24	42.457
468.59	42.984
468.94	43.302
469.29	43.738
469.64	43.677
469.99	43.938
470.34	43.549
470.68	43.773
471.03	42.746
471.38	43.937
471.73	43.557
472.08	43.623
472.43	43.087
472.78	44.483
473.13	42.245
473.48	43.322
473.83	42.217
474.17	43.523
474.52	43.267
474.87	43.939
475.22	43.136
475.57	42.518
475.92	43.335
476.27	44.121
476.61	43.866
476.96	43.670
477.31	43.537
477.66	44.382
478.01	44.694
478.36	44.009
478.70	44.481
479.05	43.571
479.40	44.462
479.75	45.047
480.10	43.369
480.45	43.750
480.79	45.116
481.14	44.672
481.49	43.744
481.84	44.402
482.19	43.031
482.53	44.748
482.88	42.959
483.23	44.098
483.58	44.623
483.92	43.272
484.27	43.437
484.62	43.971
484.97	42.952
485.31	42.666
485.66	40.220
486.01	39.835
486.36	40.394
486.70	41.910
487.05	41.747
487.40	41.753
487.75	42.423
488.09	42.707
488.44	43.054
488.79	43.780
489.13	44.832
489.48	45.105
489.83	44.081
490.17	44.899
490.52	44.711
490.87	44.146
491.22	44.365
491.56	44.118
491.91	44.694
492.26	45.795
492.60	44.914
492.95	45.548
493.30	45.579
493.64	45.972
493.99	45.411
494.34	45.485
494.68	45.143
495.03	43.747
495.37	46.124
495.72	44.977
496.07	45.171
496.41	44.811
496.76	45.048
497.11	44.853
497.45	45.298
497.80	47.225
498.14	44.858
498.49	46.013
498.84	46.158
499.18	45.884
499.53	46.181
499.87	44.747
500.22	45.252
500.56	45.789
500.91	45.432
501.26	45.378
501.60	45.499
501.95	45.754
502.29	45.617
502.64	45.849
502.98	46.473
503.33	45.149
503.67	45.735
504.02	47.067
504.36	46.561
504.71	46.566
505.06	45.999
505.40	46.396
505.75	46.804
506.09	45.362
506.44	46.304
506.78	47.398
507.13	46.949
507.47	45.379
507.82	47.169
508.16	45.642
508.51	46.800
508.85	47.776
509.19	46.674
509.54	46.595
509.88	45.739
510.23	46.369
510.57	46.766
510.92	45.576
511.26	47.136
511.61	47.965
511.95	47.616
512.30	47.616
512.64	46.633
512.98	47.782
513.33	47.902
513.67	47.698
514.02	49.485
514.36	48.514
514.70	49.242
515.05	49.471
515.39	47.639
515.74	49.162
516.08	49.492
516.42	50.294
516.77	49.327
517.11	49.496
517.46	49.013
517.80	48.391
518.14	48.255
518.49	48.017
518.83	48.967
519.17	48.575
519.52	47.957
519.86	48.259
520.20	50.729
520.55	49.031
520.89	50.627
521.23	49.715
521.58	50.915
521.92	49.744
522.26	49.382
522.61	50.130
522.95	50.066
523.29	50.064
523.64	49.936
523.98	50.032
524.32	50.902
524.66	50.448
525.01	50.909
525.35	50.162
525.69	51.785
526.04	49.206
526.38	51.816
526.72	48.463
527.06	49.870
527.41	51.253
527.75	49.598
528.09	49.701
528.43	51.992
528.78	50.495
529.12	50.323
529.46	50.877
529.80	49.208
530.15	50.891
530.49	50.438
530.83	52.120
531.17	50.168
531.51	50.958
531.86	50.442
532.20	51.148
532.54	50.851
532.88	50.582
533.22	50.067
533.57	49.083
533.91	49.674
534.25	50.781
534.59	49.455
534.93	49.528
535.27	49.302
535.62	48.412
535.96	50.489
536.30	49.274
536.64	50.517
536.98	49.965
537.32	50.498
537.66	50.421
538.01	49.930
538.35	50.000
538.69	50.067
539.03	48.667
539.37	50.336
539.71	49.421
540.05	50.305
540.39	49.861
540.73	50.139
541.07	50.345
541.42	48.454
541.76	50.929
542.10	50.447
542.44	49.965
542.78	48.245
543.12	49.519
543.46	50.209
543.80	49.618
544.14	48.932
544.48	50.100
544.82	49.487
545.16	49.727
545.50	49.533
545.84	49.433
546.18	50.213
546.52	50.469
546.86	50.467
547.20	49.785
547.54	48.763
547.88	49.389
548.22	48.126
548.56	48.351
548.90	49.528
549.24	47.727
549.58	50.917
549.92	48.249
550.26	50.183
550.60	49.071
550.94	51.382
551.28	51.159
551.62	52.846
551.96	49.398
552.30	48.977
552.64	49.224
552.98	50.000
553.32	50.999
553.66	49.565
554.00	50.000
554.34	50.517
554.68	48.968
555.02	51.339
555.36	51.683
555.69	49.817
556.03	49.964
556.37	48.826
556.71	48.159
557.05	49.142
557.39	49.740
557.73	50.075
558.07	51.131
558.41	51.149
558.75	51.208
559.08	49.724
559.42	51.984
559.76	50.520
560.10	49.235
560.44	49.814
560.78	48.881
561.12	48.872
561.45	50.668
561.79	49.580
562.13	49.042
562.47	49.353
562.81	49.712
563.15	48.449
563.48	50.778
563.82	49.485
564.16	48.677
564.50	49.459
564.84	47.858
565.17	48.558
565.51	48.702
565.85	49.040
566.19	47.745
566.52	48.190
566.86	49.550
567.20	47.758
567.54	48.540
567.88	48.213
568.21	47.398
568.55	45.870
568.89	47.125
569.23	46.365
569.56	45.665
569.90	45.432
570.24	43.878
570.57	44.582
570.91	43.674
571.25	43.275
571.59	42.199
571.92	42.222
572.26	42.089
572.60	42.171
572.93	42.516
573.27	42.100
573.61	41.975
573.95	41.699
574.28	42.108
574.62	41.266
574.96	41.087
575.29	41.570
575.63	40.244
575.97	41.448
576.30	41.355
576.64	40.477
576.98	41.802
577.31	41.312
577.65	41.491
577.98	40.807
578.32	40.563
578.66	40.082
578.99	40.664
579.33	40.819
579.67	40.348
580.00	40.557
580.34	40.846
580.67	40.183
581.01	40.898
581.35	40.224
581.68	39.736
582.02	39.475
582.35	39.814
582.69	40.748
583.02	40.675
583.36	40.738
583.70	41.225
584.03	41.924
584.37	42.631
584.70	41.236
585.04	40.415
585.37	40.639
585.71	39.965
586.04	40.645
586.38	40.651
586.72	41.349
587.05	41.623
587.39	40.649
587.72	41.498
588.06	40.465
588.39	40.530
588.73	41.453
589.06	42.335
589.40	41.791
589.73	42.570
590.07	43.165
590.40	42.531
590.73	44.234
591.07	42.451
591.40	42.565
591.74	43.077
592.07	43.646
592.41	43.595
592.74	41.935
593.08	39.923
593.41	41.120
593.75	40.792
594.08	40.851
594.41	41.412
594.75	41.603
595.08	42.036
595.42	41.443
595.75	41.419
596.09	42.220
596.42	41.877
596.75	42.052
597.09	42.597
597.42	42.186
597.75	42.052
598.09	42.372
598.42	41.832
598.76	42.042
599.09	41.266
599.42	40.205
599.76	39.917
600.09	40.649
600.42	40.637
600.76	39.970
601.09	40.954
601.42	40.227
601.76	40.929
602.09	41.007
602.42	41.786
602.76	41.087
603.09	41.570
603.42	42.015
603.76	41.089
604.09	40.421
604.42	41.117
604.76	40.587
605.09	41.545
605.42	41.535
605.75	40.455
606.09	40.892
606.42	40.617
606.75	40.476
607.09	40.659
607.42	41.471
607.75	40.053
608.08	40.117
608.42	39.973
608.75	42.506
609.08	41.754
609.41	41.523
609.75	40.776
610.08	41.737
610.41	40.242
610.74	40.809
611.07	42.119
611.41	40.893
611.74	42.377
612.07	40.525
612.40	41.685
612.73	42.316
613.07	41.282
613.40	40.810
613.73	40.403
614.06	41.347
614.39	41.737
614.72	40.616
615.06	40.726
615.39	40.338
615.72	39.935
616.05	40.670
616.38	39.886
616.71	42.202
617.05	42.248
617.38	42.049
617.71	42.642
618.04	42.730
618.37	43.695
618.70	43.168
619.03	43.264
619.36	42.547
619.69	43.594
620.03	43.608
620.36	42.775
620.69	41.756
621.02	43.731
621.35	45.145
621.68	44.813
622.01	45.083
622.34	43.974
622.67	42.666
623.00	42.802
623.33	43.293
623.66	42.408
623.99	42.284
624.32	43.422
624.65	41.504
624.99	41.911
625.32	39.879
625.65	43.833
625.98	44.319
626.31	42.145
626.64	43.847
626.97	43.194
627.30	44.046
627.63	43.154
627.96	44.205
628.29	44.681
628.62	45.723
628.95	44.389
629.28	44.456
629.61	43.868
629.94	44.966
630.26	45.356
630.59	45.786
630.92	45.128
631.25	43.590
631.58	44.383
631.91	45.504
632.24	47.018
632.57	47.386
632.90	46.263
633.23	45.529
633.56	45.844
633.89	46.609
634.22	46.420
634.55	47.522
634.88	47.765
635.20	48.205
635.53	47.733
635.86	46.424
636.19	47.736
636.52	45.536
636.85	43.797
637.18	44.780
637.51	47.799
637.83	46.386
638.16	47.749
638.49	45.368
638.82	47.105
639.15	44.776
639.48	46.630
639.81	45.607
640.13	48.052
640.46	48.542
640.79	48.159
641.12	47.415
641.45	46.847
641.77	47.111
642.10	49.131
642.43	47.749
642.76	50.990
643.09	48.788
643.41	46.602
643.74	46.293
644.07	48.604
644.40	49.662
644.73	48.862
645.05	46.309
645.38	49.735
645.71	48.227
646.04	51.885
646.36	47.872
646.69	50.000
647.02	46.881
647.35	49.627
647.67	48.629
648.00	50.746
648.33	44.539
648.66	48.475
648.98	43.886
649.31	43.967
649.64	45.840
649.96	44.408
650.29	45.656
650.62	45.299
650.94	47.222
651.27	46.927
651.60	46.306
651.92	44.755
652.25	43.339
652.58	43.500
652.90	47.513
653.23	45.210
653.56	46.531
653.88	45.361
654.21	41.681
654.54	44.143
654.86	45.161
655.19	42.105
655.52	39.009
655.84	31.886
656.17	34.616
656.49	46.982
656.82	48.986
657.15	37.957
657.47	28.822
657.80	21.617
658.13	21.388
658.45	33.400
658.78	33.929
659.10	33.895
659.43	34.539
659.75	35.422
660.08	37.724
660.41	40.960
660.73	42.127
661.06	45.407
661.38	45.205
661.71	44.559
662.03	46.137
662.36	44.176
662.68	44.912
663.01	45.633
663.33	46.404
663.66	43.953
663.98	45.581
664.31	45.416
664.63	45.161
664.96	48.478
665.28	43.709
665.61	44.156
665.93	43.913
666.26	45.119
666.58	42.506
666.91	44.471
667.23	47.642
667.56	45.972
667.88	45.564
668.21	48.687
668.53	47.754
668.86	47.877
669.18	46.934
669.50	42.615
669.83	44.651
670.15	43.823
670.48	44.498
670.80	42.396
671.13	45.414
671.45	40.868
671.77	45.279
672.10	43.168
672.42	41.760
672.75	42.984
673.07	42.218
673.39	42.018
673.72	38.067
674.04	42.083
674.37	42.161
674.69	40.685
675.01	44.667
675.34	41.667
675.66	46.296
675.98	43.902
676.31	42.431
676.63	47.743
676.95	40.227
677.28	47.059
677.60	46.024
677.92	42.202
678.25	42.232
678.57	40.260
678.89	43.697
679.22	42.506
679.54	40.763
679.86	40.358
680.18	41.165
680.51	39.394
680.83	38.370
681.15	40.600
681.48	41.189
681.80	40.289
682.12	37.097
682.44	40.377
682.77	43.488
683.09	41.876
683.41	37.045
683.73	39.401
684.06	41.814
684.38	37.419
684.70	42.702
685.02	39.419
685.34	37.747
685.67	39.400
685.99	37.071
686.31	38.053
686.63	38.961
686.96	35.171
687.28	37.172
687.60	34.981
687.92	42.828
688.24	36.895
688.56	39.956
688.89	38.170
689.21	38.889
689.53	38.979
689.85	39.070
690.17	37.946
690.49	42.080
690.82	39.078
691.14	41.429
691.46	38.551
691.78	35.811
692.10	38.925
692.42	37.229
692.74	39.316
693.06	37.613
693.39	37.783
693.71	36.199
694.03	35.104
694.35	36.682
694.67	38.636
694.99	42.298
695.31	40.992
695.63	40.000
695.95	36.111
696.27	39.896
696.59	41.111
696.91	37.255
697.23	34.190
697.56	39.604
697.88	36.344
698.20	36.674
698.52	39.529
698.84	32.775
699.16	35.500
699.48	37.594
699.80	36.725
700.12	36.119
700.44	39.496
700.76	36.919
701.08	39.697
701.40	41.566
701.72	42.284
702.04	44.884
702.36	40.468
702.68	38.138
703.00	40.909
703.32	36.657
703.64	34.181
703.96	38.261
704.28	37.423
704.60	39.048
704.91	31.861
705.23	36.877
705.55	42.049
705.87	43.682
706.19	37.407
706.51	38.144
706.83	38.907
707.15	33.022
707.47	33.053
707.79	32.813
708.11	36.000
708.43	32.750
708.74	32.041
709.06	37.465
709.38	39.755
709.70	38.166
710.02	37.261
710.34	38.080
710.66	34.295
710.98	33.444
711.29	37.705
711.61	37.627
711.93	39.739
712.25	42.268
712.57	36.996
712.89	35.821
713.20	40.484
713.52	34.495
713.84	37.884
714.16	35.739
714.48	35.484
714.80	40.385
715.11	34.954
715.43	32.288
715.75	34.333
716.07	35.548
716.39	35.570
716.70	34.686
717.02	35.496
717.34	39.271
717.66	41.150
717.97	33.478
718.29	37.238
718.61	37.795
718.93	33.333
719.24	38.023
719.56	31.325
719.88	32.302
720.20	29.924
720.51	32.567
720.83	34.363
721.15	40.336
721.46	37.097
721.78	33.202
722.10	34.944
722.42	30.290
722.73	36.735
723.05	36.327
723.37	40.254
723.68	37.838
724.00	33.761
724.32	35.111
724.63	30.000
724.95	35.371
725.27	37.327
725.58	36.441
725.90	33.333
726.22	29.344
726.53	34.576
726.85	34.457
727.16	33.208
727.48	31.984
727.80	31.174
728.11	33.898
728.43	30.588
728.74	35.887
729.06	32.800
729.38	33.459
729.69	35.458
730.01	30.769
730.32	37.313
730.64	32.862
730.96	33.585
731.27	32.333
731.59	30.169
731.90	31.210
732.22	30.915
732.53	32.226
732.85	35.106
733.16	35.354
733.48	29.856
733.80	31.884
734.11	26.780
734.43	34.364
734.74	32.121
735.06	28.664
735.37	30.514
735.69	33.333
736.00	29.617
736.32	30.201
736.63	31.338
736.95	30.717
737.26	33.096
737.58	32.886
737.89	30.037
738.21	29.323
738.52	32.922
738.83	34.061
739.15	27.511
739.46	31.890
739.78	27.473
740.09	31.373
740.41	31.522
740.72	28.346
741.04	26.721
741.35	28.085
741.66	35.071
741.98	33.673
742.29	32.178
742.61	30.890
742.92	27.962
743.23	22.685
743.55	28.959
743.86	30.144
744.18	26.316
744.49	35.638
744.80	29.891
745.12	35.294
745.43	24.878
745.74	31.250
746.06	28.780
746.37	34.555
746.68	35.545
747.00	32.447
747.31	35.821
747.62	34.466
747.94	29.665
748.25	33.168
748.56	28.962
748.88	28.272
749.19	30.851
749.50	31.527
749.82	25.472
750.13	26.147
750.44	34.962
750.75	31.343
751.07	36.496
751.38	30.268
751.69	28.235
752.01	32.171
752.32	29.880
752.63	26.482
752.94	29.741
753.26	32.218
753.57	32.127
753.88	31.416
754.19	30.833
754.51	24.380
754.82	29.150
755.13	38.333
755.44	35.484
755.75	34.375
756.07	32.296
756.38	28.679
756.69	29.502
757.00	27.333
757.31	26.144
757.63	25.000
757.94	26.389
758.25	26.301
758.56	23.404
758.87	26.062
759.18	28.037
759.50	24.364
759.81	30.769
760.12	24.194
760.43	26.667
760.74	23.765
761.05	29.231
761.36	25.000
761.67	25.758
761.99	28.912
762.30	29.091
762.61	20.158
762.92	26.697
763.23	30.180
763.54	22.897
763.85	28.814
764.16	29.876
764.47	22.581
764.78	27.106
765.10	27.946
765.41	25.552
765.72	25.397
766.03	27.068
766.34	27.372
766.65	27.490
766.96	29.293
767.27	23.936
767.58	19.540
767.89	21.277
768.20	26.136
768.51	25.824
768.82	26.601
769.13	23.963
769.44	24.893
769.75	26.484
770.06	25.000
770.37	26.923
770.68	24.873
770.99	21.719
771.30	28.431
771.61	26.244
771.92	27.586
772.23	30.542
772.54	27.957
772.85	33.951
773.16	33.708
773.47	24.183
773.78	30.719
774.09	24.551
774.39	26.000
774.70	26.115
775.01	30.345
775.32	20.000
775.63	22.314
775.94	28.244
776.25	34.646
776.56	25.833
776.87	29.808
777.18	23.932
777.48	26.724
777.79	18.261
778.10	24.762
778.41	30.631
778.72	17.460
779.03	18.045
779.34	29.078
779.65	23.288
779.95	19.178
780.26	25.517
780.57	26.016
780.88	24.409
781.19	25.000
781.50	27.907
781.80	28.994
782.11	18.868
782.42	24.615
782.73	23.741
783.04	25.926
783.34	17.361
783.65	19.658
783.96	27.049
784.27	25.517
784.57	15.447
784.88	23.437
785.19	24.000
785.50	27.000
785.81	30.172
786.11	12.931
786.42	24.272
786.73	27.273
787.04	23.469
787.34	18.750
787.65	23.810
787.96	18.584
788.26	25.455
788.57	11.111
788.88	23.438
789.19	23.810
789.49	20.000
789.80	27.551
790.11	19.192
790.41	12.727
790.72	29.348
791.03	25.000
791.33	16.250
791.64	22.500
791.95	20.930
792.25	35.106
792.56	31.461
792.87	9.589
793.17	5.797
793.48	6.667
793.79	17.500
794.09	25.000
794.40	18.868
794.70	18.447
795.01	21.951
795.32	18.803
795.62	20.000
795.93	14.706
796.23	16.038
796.54	34.375
796.85	19.118
797.15	23.944
797.46	22.222
797.76	24.242
798.07	22.093
798.37	9.211
798.68	7.576
798.99	18.519
799.29	28.571
799.60	26.087
799.90	25.333
800.21	26.230
800.51	26.154
800.82	25.424
801.12	15.942
801.43	11.475
801.73	6.349
802.04	38.000
802.34	10.448
802.65	19.231
802.95	25.000
803.26	13.462
803.56	19.608
803.87	-28.261
804.17	14.667
804.48	28.571
804.78	1.852
805.09	17.391
805.39	4.444
805.70	24.074
806.00	1.754
806.30	23.944
806.61	4.286
806.91	-2.778
807.22	18.421
807.52	25.333
807.83	-3.636
808.13	12.500
808.43	26.471
808.74	13.433
809.04	3.390
809.35	-11.538
809.65	7.813
809.95	-21.622
810.26	13.636
810.56	17.808
810.86	4.762
811.17	4.000
811.47	12.245
811.77	21.053
812.08	31.818
812.38	22.642
812.69	-12.500
812.99	-6.061
813.29	5.263
813.59	-5.714
813.90	18.182
814.20	17.949
814.50	32.692
814.81	41.509
815.11	-2.128
815.41	33.898
815.72	19.048
816.02	23.529
816.32	20.833
816.62	21.951
816.93	2.703
817.23	-25.714
817.53	25.000
817.84	6.522
818.14	23.077
818.44	7.895
818.74	30.435
819.04	0.000
819.35	32.432
819.65	11.765
819.95	5.556
820.25	14.286
820.56	30.000
820.86	-37.931
821.16	22.500
821.46	8.511
821.76	2.500
822.07	23.256
822.37	-10.811
822.67	12.500
822.97	35.714
823.27	39.286
823.57	-4.000
823.88	-18.519
824.18	-10.714
824.48	-11.765
824.78	0.000
825.08	30.435
825.38	6.061
825.69	-50.000
825.99	-10.526
826.29	-5.556
826.59	-40.000
826.89	-71.429
827.19	28.261
827.49	-2.500
827.79	14.286
828.09	0.000
828.39	18.182
828.70	67.568
829.00	-21.429
829.30	-19.048
829.60	33.333
829.90	6.250
830.20	15.789
830.50	-25.926
830.80	-52.174
831.10	36.364
831.40	24.242
831.70	19.355
832.00	42.857
832.30	-14.286
832.60	-75.000
832.90	-31.034
833.20	5.000
833.50	15.152
833.80	3.704
834.10	-19.231
834.40	9.375
834.70	-88.889
835.00	10.526
835.30	53.846
835.60	80.000
835.90	41.935
836.20	9.091
836.50	14.286
836.80	-23.077
837.10	10.714
837.40	0.000
837.70	-27.273
838.00	-54.545
838.30	-21.739
838.60	-46.154
838.90	59.091
839.19	-7.143
839.49	43.333
839.79	-46.154
840.09	-66.667
840.39	7.143
840.69	-25.000
840.99	-3.846
841.29	-73.684
841.59	-60.000
841.88	-45.455
842.18	30.000
842.48	-25.000
842.78	20.000
843.08	-14.815
843.38	-120.000
843.68	-13.043
843.97	-20.000
844.27	-46.667
844.57	-15.000
844.87	27.778
845.17	-28.571
845.47	33.333
845.76	-52.381
846.06	23.529
846.36	-30.000
846.66	-7.143
846.96	20.000
847.25	-162.500
847.55	-21.429
847.85	-112.500
848.15	-36.364
848.44	-433.333
848.74	45.000
849.04	7.407
849.34	-45.455
849.63	-200.000
849.93	-80.000
850.23	0.000
850.53	100.000
850.82	-92.308
851.12	-88.889
851.42	-6.667
851.71	-3.846
852.01	57.143
852.31	-25.000
852.61	-72.727
852.90	-60.000
853.20	-31.579
853.50	-50.000
853.79	30.435
854.09	41.667
854.39	5.263
854.68	-45.833
854.98	9.677
855.28	15.385
855.57	5.000
855.87	22.222
856.17	25.926
856.46	-50.000
856.76	-80.000
857.05	-11.111
857.35	0.000
857.65	-22.222
857.94	15.385
858.24	0.000
858.53	-22.222
858.83	14.815
859.13	18.182
859.42	-8.696
859.72	175.000
860.01	-333.333
860.31	-28.000
860.60	-33.333
860.90	-633.333
861.20	-93.333
861.49	-650.000
861.79	-40.000
862.08	-25.000
862.38	0.000
862.67	-60.000
862.97	-166.667
863.26	41.667
863.56	61.111
863.85	-800.000
864.15	0.000
864.44	-20.000
864.74	100.000
865.03	175.000
865.33	-260.000
865.62	16.667
865.92	0.000
866.21	-183.333
866.51	6.250
866.80	27.273
867.10	-300.000
867.39	50.000
867.69	0.000
867.98	46.154
868.27	0.000
868.57	-33.333
868.86	-38.889
869.16	-23.077
869.45	66.667
869.75	-1000.000
870.04	0.000
870.33	-185.714
870.63	23.810
870.92	366.667
871.22	-280.000
871.51	-900.000
871.80	100.000
872.10	200.000
>>>>>End Processed Spectral Data<<<<<
