SpectraSuite Data File
++++++++++++++++++++++++++++++++++++
Date: Fri May 15 21:09:28 PDT 2015
User: schluterlab
Dark Spectrum Present: Yes
Reference Spectrum Present: Yes
Number of Sampled Component Spectra: 1
Spectrometers: USB2E3373
Integration Time (usec): 3000 (USB2E3373)
Spectra Averaged: 3 (USB2E3373)
Boxcar Smoothing: 0 (USB2E3373)
Correct for Electrical Dark: No (USB2E3373)
Strobe/Lamp Enabled: No (USB2E3373)
Correct for Detector Non-linearity: No (USB2E3373)
Correct for Stray Light: No (USB2E3373)
Number of Pixels in Processed Spectrum: 2048
>>>>>Begin Processed Spectral Data<<<<<
178.53	0.000
178.91	0.000
179.29	-62.500
179.67	-1000.000
180.04	42.857
180.42	-125.000
180.80	-1200.000
181.18	-33.333
181.56	750.000
181.94	-50.000
182.31	800.000
182.69	-240.000
183.07	-100.000
183.45	-240.000
183.83	250.000
184.20	0.000
184.58	177.778
184.96	200.000
185.34	166.667
185.72	-400.000
186.09	61.538
186.47	-1600.000
186.85	150.000
187.23	-0.000
187.61	200.000
187.98	-400.000
188.36	133.333
188.74	-400.000
189.12	-5.882
189.49	-11.111
189.87	0.000
190.25	-35.714
190.63	100.000
191.00	100.000
191.38	-15.789
191.76	-600.000
192.14	150.000
192.51	250.000
192.89	-111.111
193.27	-200.000
193.65	133.333
194.02	109.091
194.40	50.000
194.78	-162.500
195.15	25.000
195.53	-37.500
195.91	275.000
196.29	-250.000
196.66	84.615
197.04	42.857
197.42	-133.333
197.79	-200.000
198.17	-69.231
198.55	1100.000
198.92	-533.333
199.30	600.000
199.68	-160.000
200.05	-400.000
200.43	0.000
200.81	-100.000
201.18	-100.000
201.56	700.000
201.94	-550.000
202.31	266.667
202.69	-240.000
203.07	150.000
203.44	-500.000
203.82	0.000
204.19	-28.571
204.57	-200.000
204.95	150.000
205.32	-70.000
205.70	-42.857
206.08	-275.000
206.45	100.000
206.83	92.857
207.20	-142.857
207.58	300.000
207.96	-300.000
208.33	-210.000
208.71	25.000
209.08	-233.333
209.46	-1400.000
209.84	20.000
210.21	-600.000
210.59	-42.857
210.96	-16.667
211.34	50.000
211.71	6.667
212.09	-171.429
212.46	-2100.000
212.84	0.000
213.22	30.000
213.59	250.000
213.97	23.077
214.34	-9.091
214.72	-150.000
215.09	500.000
215.47	-23.077
215.84	-81.818
216.22	-33.333
216.59	-12.500
216.97	550.000
217.34	-275.000
217.72	-300.000
218.09	-25.000
218.47	137.500
218.84	-1100.000
219.22	-222.222
219.59	-140.000
219.97	300.000
220.34	550.000
220.72	-157.143
221.09	-175.000
221.47	-50.000
221.84	-700.000
222.22	-150.000
222.59	63.636
222.97	8.333
223.34	-33.333
223.72	-57.143
224.09	14.286
224.46	7.143
224.84	300.000
225.21	-20.000
225.59	40.000
225.96	50.000
226.34	400.000
226.71	0.000
227.08	-66.667
227.46	100.000
227.83	-900.000
228.21	55.556
228.58	0.000
228.95	-62.500
229.33	100.000
229.70	6.250
230.08	-87.500
230.45	-142.857
230.82	-57.143
231.20	-26.667
231.57	35.714
231.95	-57.143
232.32	-140.000
232.69	14.286
233.07	-133.333
233.44	-120.000
233.81	-150.000
234.19	-44.444
234.56	-58.824
234.93	-100.000
235.31	175.000
235.68	-240.000
236.05	-61.538
236.43	-30.000
236.80	29.412
237.17	28.125
237.55	-40.000
237.92	0.000
238.29	8.333
238.67	6.667
239.04	5.882
239.41	-12.195
239.79	-33.333
240.16	-2.439
240.53	21.053
240.91	-4.348
241.28	-15.873
241.65	5.357
242.02	10.959
242.40	-1.667
242.77	3.390
243.14	-12.121
243.51	21.250
243.89	25.287
244.26	-6.897
244.63	3.571
245.00	9.278
245.38	-1.031
245.75	-8.989
246.12	2.586
246.49	9.917
246.87	8.654
247.24	-0.840
247.61	4.386
247.98	7.317
248.36	10.625
248.73	9.211
249.10	3.896
249.47	6.329
249.84	7.190
250.22	10.000
250.59	11.111
250.96	9.859
251.33	4.651
251.70	5.882
252.08	10.152
252.45	13.366
252.82	11.558
253.19	10.599
253.56	3.738
253.94	13.514
254.31	11.739
254.68	12.719
255.05	7.087
255.42	13.100
255.79	7.336
256.16	11.673
256.54	12.687
256.91	9.125
257.28	10.781
257.65	11.236
258.02	8.156
258.39	13.131
258.76	12.088
259.14	8.306
259.51	11.003
259.88	8.591
260.25	7.843
260.62	11.111
260.99	5.424
261.36	10.274
261.73	5.696
262.10	12.158
262.47	11.350
262.85	10.658
263.22	9.538
263.59	9.969
263.96	9.938
264.33	13.333
264.70	9.226
265.07	8.631
265.44	11.331
265.81	8.475
266.18	6.557
266.55	8.740
266.92	12.435
267.29	10.705
267.66	10.486
268.03	10.471
268.40	7.833
268.77	11.497
269.14	10.312
269.51	9.769
269.88	8.479
270.25	9.184
270.62	10.244
270.99	6.650
271.36	7.824
271.73	12.441
272.10	9.246
272.47	8.983
272.84	7.921
273.21	9.977
273.58	12.048
273.95	11.442
274.32	7.852
274.69	5.430
275.06	11.607
275.43	7.937
275.80	9.051
276.17	7.126
276.54	9.850
276.91	7.895
277.28	11.354
277.65	11.364
278.02	10.426
278.39	8.534
278.76	10.692
279.13	8.714
279.50	10.924
279.87	11.015
280.23	9.892
280.60	10.526
280.97	11.919
281.34	9.231
281.71	10.472
282.08	7.975
282.45	9.393
282.82	11.197
283.19	11.412
283.56	10.597
283.92	9.108
284.29	9.038
284.66	9.884
285.03	8.251
285.40	8.318
285.77	9.139
286.14	9.928
286.51	11.808
286.87	8.775
287.24	9.208
287.61	7.584
287.98	11.754
288.35	9.012
288.72	10.333
289.08	8.681
289.45	10.545
289.82	9.965
290.19	8.532
290.56	8.405
290.93	6.061
291.29	7.704
291.66	7.559
292.03	9.410
292.40	8.871
292.77	6.858
293.13	6.656
293.50	6.677
293.87	10.076
294.24	7.728
294.60	7.750
294.97	8.631
295.34	7.975
295.71	7.750
296.08	7.175
296.44	4.836
296.81	7.500
297.18	7.101
297.55	10.163
297.91	7.808
298.28	8.575
298.65	7.463
299.02	7.008
299.38	6.019
299.75	6.897
300.12	8.508
300.48	5.929
300.85	8.492
301.22	7.792
301.59	6.053
301.95	8.734
302.32	10.246
302.69	8.209
303.05	6.312
303.42	6.849
303.79	7.710
304.15	7.168
304.52	7.134
304.89	7.018
305.25	7.385
305.62	6.534
305.99	7.018
306.35	6.243
306.72	6.749
307.09	7.640
307.45	7.807
307.82	6.829
308.19	8.014
308.55	6.870
308.92	8.170
309.29	6.257
309.65	5.920
310.02	7.151
310.38	7.464
310.75	6.448
311.12	8.719
311.48	7.105
311.85	7.749
312.22	6.857
312.58	7.431
312.95	6.297
313.31	6.108
313.68	7.225
314.05	8.061
314.41	8.041
314.78	8.557
315.14	7.400
315.51	9.524
315.87	8.402
316.24	9.302
316.61	10.039
316.97	8.929
317.34	8.594
317.70	9.465
318.07	9.327
318.43	11.275
318.80	10.511
319.16	10.742
319.53	11.111
319.89	11.417
320.26	11.842
320.62	12.136
320.99	11.795
321.35	11.202
321.72	14.330
322.08	13.192
322.45	13.503
322.81	13.654
323.18	13.739
323.54	14.479
323.91	16.066
324.27	15.723
324.64	16.760
325.00	16.971
325.37	17.539
325.73	16.228
326.10	18.165
326.46	17.937
326.83	19.685
327.19	20.052
327.56	18.940
327.92	20.070
328.29	19.375
328.65	21.698
329.01	22.518
329.38	22.304
329.74	22.002
330.11	21.501
330.47	22.356
330.84	22.788
331.20	24.144
331.56	21.667
331.93	23.744
332.29	25.115
332.66	23.710
333.02	23.513
333.38	23.190
333.75	24.359
334.11	23.277
334.48	25.929
334.84	25.183
335.20	24.977
335.57	23.481
335.93	24.842
336.29	25.138
336.66	24.796
337.02	25.465
337.38	24.907
337.75	26.364
338.11	25.338
338.47	26.916
338.84	25.970
339.20	26.234
339.56	26.514
339.93	25.873
340.29	25.321
340.65	25.986
341.02	25.709
341.38	26.726
341.74	25.000
342.11	25.217
342.47	26.246
342.83	26.298
343.20	24.739
343.56	26.174
343.92	26.218
344.28	27.583
344.65	25.993
345.01	26.621
345.37	25.568
345.73	26.109
346.10	26.575
346.46	24.811
346.82	26.350
347.19	26.101
347.55	26.650
347.91	27.994
348.27	27.082
348.63	26.831
349.00	27.153
349.36	26.683
349.72	28.027
350.08	26.557
350.45	27.454
350.81	26.910
351.17	26.466
351.53	27.347
351.89	25.268
352.26	25.840
352.62	26.048
352.98	27.470
353.34	26.329
353.70	28.074
354.07	28.065
354.43	27.302
354.79	27.498
355.15	27.381
355.51	26.582
355.87	27.427
356.24	26.835
356.60	27.648
356.96	28.175
357.32	27.396
357.68	27.131
358.04	27.868
358.40	28.698
358.77	28.150
359.13	28.503
359.49	27.504
359.85	29.407
360.21	27.512
360.57	27.161
360.93	28.896
361.29	27.795
361.66	28.292
362.02	28.788
362.38	29.931
362.74	29.372
363.10	29.421
363.46	28.688
363.82	29.977
364.18	28.266
364.54	29.632
364.90	29.821
365.26	28.603
365.62	30.365
365.98	29.252
366.35	30.881
366.71	30.081
367.07	30.697
367.43	30.194
367.79	30.601
368.15	29.146
368.51	30.007
368.87	29.576
369.23	30.397
369.59	29.519
369.95	30.718
370.31	30.925
370.67	30.522
371.03	30.919
371.39	30.343
371.75	30.256
372.11	31.098
372.47	31.139
372.83	31.725
373.19	31.027
373.55	29.747
373.91	31.246
374.27	31.254
374.63	30.869
374.99	30.496
375.35	31.128
375.71	32.028
376.07	31.461
376.42	31.905
376.78	32.081
377.14	33.040
377.50	32.404
377.86	33.133
378.22	32.674
378.58	31.090
378.94	32.073
379.30	33.125
379.66	32.602
380.02	32.741
380.38	32.197
380.74	31.658
381.09	32.577
381.45	32.049
381.81	32.696
382.17	31.980
382.53	33.729
382.89	33.773
383.25	33.603
383.61	32.988
383.97	33.270
384.32	33.709
384.68	33.065
385.04	33.272
385.40	32.545
385.76	34.528
386.12	34.799
386.48	33.653
386.83	33.672
387.19	34.066
387.55	34.818
387.91	33.802
388.27	33.211
388.62	34.865
388.98	33.579
389.34	34.166
389.70	34.929
390.06	34.361
390.42	34.456
390.77	34.140
391.13	34.552
391.49	35.188
391.85	35.478
392.20	34.777
392.56	35.156
392.92	34.410
393.28	35.142
393.64	34.715
393.99	35.549
394.35	35.041
394.71	35.632
395.07	34.444
395.42	34.426
395.78	36.417
396.14	35.309
396.50	35.891
396.85	35.802
397.21	35.025
397.57	35.235
397.92	34.751
398.28	35.460
398.64	35.241
399.00	36.061
399.35	34.255
399.71	34.693
400.07	35.429
400.42	34.211
400.78	36.436
401.14	34.906
401.49	35.438
401.85	35.527
402.21	35.783
402.57	35.562
402.92	34.755
403.28	36.404
403.63	36.255
403.99	35.523
404.35	36.040
404.70	33.869
405.06	35.664
405.42	35.736
405.77	35.793
406.13	35.856
406.49	36.116
406.84	36.247
407.20	35.762
407.55	35.802
407.91	34.826
408.27	37.157
408.62	37.108
408.98	35.120
409.34	36.121
409.69	35.788
410.05	35.530
410.40	37.469
410.76	36.791
411.11	36.625
411.47	36.423
411.83	36.535
412.18	36.873
412.54	36.017
412.89	35.160
413.25	35.921
413.60	35.652
413.96	34.417
414.31	35.854
414.67	35.343
415.03	36.152
415.38	34.922
415.74	36.678
416.09	35.140
416.45	35.652
416.80	36.814
417.16	36.257
417.51	37.442
417.87	36.636
418.22	36.788
418.58	35.518
418.93	37.304
419.29	35.019
419.64	36.228
420.00	38.161
420.35	35.642
420.71	36.330
421.06	36.157
421.42	35.697
421.77	35.549
422.12	36.606
422.48	35.896
422.83	35.209
423.19	36.061
423.54	35.920
423.90	35.866
424.25	36.625
424.61	36.414
424.96	36.063
425.31	37.262
425.67	36.796
426.02	36.985
426.38	37.070
426.73	38.015
427.09	37.848
427.44	36.882
427.79	35.769
428.15	36.286
428.50	37.068
428.85	36.671
429.21	36.503
429.56	37.197
429.92	36.980
430.27	35.940
430.62	35.285
430.98	35.191
431.33	36.435
431.68	35.217
432.04	36.165
432.39	36.110
432.74	35.598
433.10	37.816
433.45	35.902
433.80	35.752
434.16	36.066
434.51	36.022
434.86	36.585
435.22	36.455
435.57	36.556
435.92	35.928
436.28	35.599
436.63	36.623
436.98	36.616
437.34	35.753
437.69	37.030
438.04	35.840
438.39	35.797
438.75	36.005
439.10	36.842
439.45	36.458
439.81	35.719
440.16	37.292
440.51	37.194
440.86	37.462
441.22	35.803
441.57	36.258
441.92	35.834
442.27	36.364
442.63	36.563
442.98	36.875
443.33	35.782
443.68	36.233
444.03	36.364
444.39	35.612
444.74	36.845
445.09	36.024
445.44	36.353
445.79	36.359
446.15	35.628
446.50	36.217
446.85	36.823
447.20	35.558
447.55	36.886
447.91	35.646
448.26	36.084
448.61	36.557
448.96	35.686
449.31	36.705
449.66	36.237
450.02	35.995
450.37	36.574
450.72	34.822
451.07	36.835
451.42	35.893
451.77	36.890
452.12	35.825
452.47	35.866
452.83	35.571
453.18	34.915
453.53	35.841
453.88	36.733
454.23	35.341
454.58	36.335
454.93	36.276
455.28	34.857
455.63	36.454
455.98	35.959
456.34	35.824
456.69	35.896
457.04	36.484
457.39	35.601
457.74	35.973
458.09	35.668
458.44	35.635
458.79	35.518
459.14	35.812
459.49	36.060
459.84	35.195
460.19	35.983
460.54	35.208
460.89	35.795
461.24	35.280
461.59	35.808
461.94	34.780
462.29	35.585
462.64	35.814
462.99	35.003
463.34	34.145
463.69	35.972
464.04	35.291
464.39	33.839
464.74	35.337
465.09	35.496
465.44	35.776
465.79	34.467
466.14	35.576
466.49	35.250
466.84	34.979
467.19	35.419
467.54	35.504
467.89	34.428
468.24	35.462
468.59	35.429
468.94	34.476
469.29	35.607
469.64	36.090
469.99	36.720
470.34	34.812
470.68	36.092
471.03	35.740
471.38	35.592
471.73	36.345
472.08	35.482
472.43	34.832
472.78	34.270
473.13	34.082
473.48	34.658
473.83	34.371
474.17	34.715
474.52	35.354
474.87	34.364
475.22	35.265
475.57	35.008
475.92	34.504
476.27	35.157
476.61	34.780
476.96	34.356
477.31	35.046
477.66	35.225
478.01	34.531
478.36	34.695
478.70	34.856
479.05	35.275
479.40	35.294
479.75	34.619
480.10	34.716
480.45	34.850
480.79	36.203
481.14	34.990
481.49	34.384
481.84	34.797
482.19	34.144
482.53	33.525
482.88	34.797
483.23	34.405
483.58	34.575
483.92	33.882
484.27	34.002
484.62	33.976
484.97	33.541
485.31	33.129
485.66	31.811
486.01	31.939
486.36	31.180
486.70	32.180
487.05	32.633
487.40	33.092
487.75	32.930
488.09	32.880
488.44	33.494
488.79	33.508
489.13	33.894
489.48	34.203
489.83	34.305
490.17	33.663
490.52	34.365
490.87	33.179
491.22	35.291
491.56	33.776
491.91	34.226
492.26	34.273
492.60	33.397
492.95	34.776
493.30	33.708
493.64	33.841
493.99	34.106
494.34	33.981
494.68	34.286
495.03	33.625
495.37	34.151
495.72	34.023
496.07	34.488
496.41	33.962
496.76	33.395
497.11	33.349
497.45	33.938
497.80	34.511
498.14	33.582
498.49	35.094
498.84	34.431
499.18	33.986
499.53	34.127
499.87	33.512
500.22	32.591
500.56	33.888
500.91	33.635
501.26	33.218
501.60	33.792
501.95	34.061
502.29	33.462
502.64	34.315
502.98	34.040
503.33	32.757
503.67	33.687
504.02	34.262
504.36	34.785
504.71	33.081
505.06	33.367
505.40	33.503
505.75	33.505
506.09	33.249
506.44	34.240
506.78	35.204
507.13	34.592
507.47	33.420
507.82	33.707
508.16	33.228
508.51	34.365
508.85	33.595
509.19	33.741
509.54	33.887
509.88	33.387
510.23	33.136
510.57	33.886
510.92	32.942
511.26	34.043
511.61	34.268
511.95	33.918
512.30	33.980
512.64	33.445
512.98	33.633
513.33	33.800
513.67	32.518
514.02	34.439
514.36	34.800
514.70	34.848
515.05	34.665
515.39	34.298
515.74	35.090
516.08	33.473
516.42	34.452
516.77	34.289
517.11	34.303
517.46	35.488
517.80	34.327
518.14	33.374
518.49	33.293
518.83	33.779
519.17	32.626
519.52	33.748
519.86	33.613
520.20	34.569
520.55	34.334
520.89	34.316
521.23	34.896
521.58	35.142
521.92	34.679
522.26	33.962
522.61	33.506
522.95	35.629
523.29	33.799
523.64	34.562
523.98	33.830
524.32	33.441
524.66	33.675
525.01	35.000
525.35	35.126
525.69	32.997
526.04	34.061
526.38	34.565
526.72	34.075
527.06	34.630
527.41	34.235
527.75	34.316
528.09	33.156
528.43	34.234
528.78	34.719
529.12	33.677
529.46	34.438
529.80	34.009
530.15	34.521
530.49	33.401
530.83	33.584
531.17	33.781
531.51	33.926
531.86	33.311
532.20	32.916
532.54	34.241
532.88	34.428
533.22	33.804
533.57	32.700
533.91	33.551
534.25	34.766
534.59	33.291
534.93	31.718
535.27	32.107
535.62	33.182
535.96	33.399
536.30	33.839
536.64	33.701
536.98	33.589
537.32	32.788
537.66	34.502
538.01	33.077
538.35	33.148
538.69	32.690
539.03	31.647
539.37	33.513
539.71	33.606
540.05	32.790
540.39	33.657
540.73	33.124
541.07	32.597
541.42	32.325
541.76	33.379
542.10	32.209
542.44	32.036
542.78	30.902
543.12	32.212
543.46	33.032
543.80	34.074
544.14	31.375
544.48	30.846
544.82	32.468
545.16	32.923
545.50	32.310
545.84	33.569
546.18	32.908
546.52	31.867
546.86	32.351
547.20	33.691
547.54	31.661
547.88	32.541
548.22	30.638
548.56	30.541
548.90	32.682
549.24	30.854
549.58	32.722
549.92	31.237
550.26	32.821
550.60	32.268
550.94	31.292
551.28	33.694
551.62	34.000
551.96	31.880
552.30	31.725
552.64	31.805
552.98	31.716
553.32	32.454
553.66	31.350
554.00	31.168
554.34	31.905
554.68	31.932
555.02	31.920
555.36	32.012
555.69	31.282
556.03	30.550
556.37	31.246
556.71	30.397
557.05	31.618
557.39	30.558
557.73	32.084
558.07	30.769
558.41	31.011
558.75	33.203
559.08	31.363
559.42	32.063
559.76	30.184
560.10	29.969
560.44	31.571
560.78	31.818
561.12	31.241
561.45	31.131
561.79	31.162
562.13	30.660
562.47	31.511
562.81	30.620
563.15	32.017
563.48	30.905
563.82	30.954
564.16	30.153
564.50	31.014
564.84	31.191
565.17	30.315
565.51	30.943
565.85	30.933
566.19	30.371
566.52	30.027
566.86	30.206
567.20	30.012
567.54	29.745
567.88	29.584
568.21	30.090
568.55	28.967
568.89	29.723
569.23	29.369
569.56	28.897
569.90	28.989
570.24	28.135
570.57	27.418
570.91	27.501
571.25	27.063
571.59	26.409
571.92	25.985
572.26	26.419
572.60	26.760
572.93	26.890
573.27	26.834
573.61	26.462
573.95	26.625
574.28	26.536
574.62	25.960
574.96	26.053
575.29	25.997
575.63	25.525
575.97	25.915
576.30	26.371
576.64	25.272
576.98	26.023
577.31	25.928
577.65	25.780
577.98	25.761
578.32	24.964
578.66	24.930
578.99	25.292
579.33	24.831
579.67	25.360
580.00	25.519
580.34	25.473
580.67	25.470
581.01	25.672
581.35	25.000
581.68	24.660
582.02	24.335
582.35	24.717
582.69	25.166
583.02	25.166
583.36	25.645
583.70	26.012
584.03	26.188
584.37	26.821
584.70	25.687
585.04	24.508
585.37	25.012
585.71	24.685
586.04	24.685
586.38	25.207
586.72	25.136
587.05	25.014
587.39	25.273
587.72	25.752
588.06	25.215
588.39	25.406
588.73	25.519
589.06	26.093
589.40	26.201
589.73	25.630
590.07	26.435
590.40	26.161
590.73	26.977
591.07	25.912
591.40	25.824
591.74	26.516
592.07	26.902
592.41	27.164
592.74	25.448
593.08	24.904
593.41	25.568
593.75	25.482
594.08	24.888
594.41	24.745
594.75	25.038
595.08	25.463
595.42	25.359
595.75	26.173
596.09	26.310
596.42	26.002
596.75	26.110
597.09	25.877
597.42	25.700
597.75	25.286
598.09	24.989
598.42	24.910
598.76	24.925
599.09	24.519
599.42	24.631
599.76	24.755
600.09	24.397
600.42	24.223
600.76	24.294
601.09	24.160
601.42	24.442
601.76	24.970
602.09	25.083
602.42	25.484
602.76	25.255
603.09	25.291
603.42	25.084
603.76	24.274
604.09	24.544
604.42	24.873
604.76	25.768
605.09	25.640
605.42	25.643
605.75	25.044
606.09	24.671
606.42	25.146
606.75	24.935
607.09	25.099
607.42	24.147
607.75	24.290
608.08	24.349
608.42	24.760
608.75	25.349
609.08	24.165
609.41	24.670
609.75	25.907
610.08	25.512
610.41	23.865
610.74	24.915
611.07	25.168
611.41	25.532
611.74	25.746
612.07	25.321
612.40	25.985
612.73	25.650
613.07	25.478
613.40	25.821
613.73	25.070
614.06	25.097
614.39	25.719
614.72	24.482
615.06	25.531
615.39	24.618
615.72	24.865
616.05	25.307
616.38	24.615
616.71	24.648
617.05	25.633
617.38	25.519
617.71	25.786
618.04	25.333
618.37	25.536
618.70	25.941
619.03	26.597
619.36	25.615
619.69	26.535
620.03	26.954
620.36	25.894
620.69	25.981
621.02	26.758
621.35	26.390
621.68	27.296
622.01	26.000
622.34	26.097
622.67	26.262
623.00	26.876
623.33	25.915
623.66	25.654
623.99	25.265
624.32	26.160
624.65	25.263
624.99	25.884
625.32	24.716
625.65	27.416
625.98	26.189
626.31	25.353
626.64	26.170
626.97	26.178
627.30	26.708
627.63	26.950
627.96	26.056
628.29	27.105
628.62	27.237
628.95	26.353
629.28	26.815
629.61	27.019
629.94	26.686
630.26	26.383
630.59	27.992
630.92	26.974
631.25	26.667
631.58	26.542
631.91	27.522
632.24	26.376
632.57	28.068
632.90	26.809
633.23	26.824
633.56	28.212
633.89	28.237
634.22	27.037
634.55	27.700
634.88	27.969
635.20	27.692
635.53	27.867
635.86	24.967
636.19	30.660
636.52	28.444
636.85	26.799
637.18	28.931
637.51	28.805
637.83	26.938
638.16	30.150
638.49	27.248
638.82	28.947
639.15	27.408
639.48	25.860
639.81	27.476
640.13	27.128
640.46	29.009
640.79	27.541
641.12	28.213
641.45	26.877
641.77	28.000
642.10	31.596
642.43	27.492
642.76	30.198
643.09	30.372
643.41	29.935
643.74	29.489
644.07	29.392
644.40	29.561
644.73	28.021
645.05	27.517
645.38	27.866
645.71	27.837
646.04	27.828
646.36	27.305
646.69	30.216
647.02	30.435
647.35	28.358
647.67	29.799
648.00	31.157
648.33	26.621
648.66	26.102
648.98	28.811
649.31	26.446
649.64	26.060
649.96	25.770
650.29	25.894
650.62	28.034
650.94	28.519
651.27	27.933
651.60	27.928
651.92	27.622
652.25	27.531
652.58	27.833
652.90	28.302
653.23	30.084
653.56	27.411
653.88	27.491
654.21	25.219
654.54	24.788
654.86	29.202
655.19	25.585
655.52	24.923
655.84	19.400
656.17	21.298
656.49	28.411
656.82	29.642
657.15	23.047
657.47	17.443
657.80	13.292
658.13	13.192
658.45	20.450
658.78	21.040
659.10	20.932
659.43	21.881
659.75	22.447
660.08	22.276
660.41	24.413
660.73	28.177
661.06	27.903
661.38	27.202
661.71	25.257
662.03	28.755
662.36	27.473
662.68	28.097
663.01	28.166
663.33	25.986
663.66	25.814
663.98	28.837
664.31	28.571
664.63	28.802
664.96	26.522
665.28	25.828
665.61	27.922
665.93	28.478
666.26	26.247
666.58	25.727
666.91	27.765
667.23	29.717
667.56	27.725
667.88	24.460
668.21	29.117
668.53	26.478
668.86	27.123
669.18	26.651
669.50	23.245
669.83	26.977
670.15	26.107
670.48	26.077
670.80	27.650
671.13	25.951
671.45	23.288
671.77	28.112
672.10	24.752
672.42	26.030
672.75	25.222
673.07	26.297
673.39	26.055
673.72	22.485
674.04	26.667
674.37	26.907
674.69	28.480
675.01	28.222
675.34	26.351
675.66	28.472
675.98	28.825
676.31	27.294
676.63	22.328
676.95	23.636
677.28	28.471
677.60	29.880
677.92	23.624
678.25	23.851
678.57	24.892
678.89	23.950
679.22	27.740
679.54	24.096
679.86	24.254
680.18	25.437
680.51	25.568
680.83	25.050
681.15	24.400
681.48	27.254
681.80	26.860
682.12	29.234
682.44	23.013
682.77	25.828
683.09	22.426
683.41	24.545
683.73	26.959
684.06	26.549
684.38	24.301
684.70	24.619
685.02	23.651
685.34	24.111
685.67	23.827
685.99	21.881
686.31	23.717
686.63	21.707
686.96	22.433
687.28	21.414
687.60	23.954
687.92	24.242
688.24	23.992
688.56	24.236
688.89	23.884
689.21	25.333
689.53	25.986
689.85	22.558
690.17	25.446
690.49	24.113
690.82	24.272
691.14	20.476
691.46	22.897
691.78	25.000
692.10	22.581
692.42	20.346
692.74	25.000
693.06	25.225
693.39	20.588
693.71	23.303
694.03	20.554
694.35	22.430
694.67	22.980
694.99	25.065
695.31	24.543
695.63	26.750
695.95	23.485
696.27	23.316
696.59	22.778
696.91	22.689
697.23	22.879
697.56	23.515
697.88	22.796
698.20	22.551
698.52	21.176
698.84	21.053
699.16	20.250
699.48	23.559
699.80	24.069
700.12	22.102
700.44	23.810
700.76	22.093
701.08	23.636
701.40	26.205
701.72	26.543
702.04	25.083
702.36	24.749
702.68	19.820
703.00	25.455
703.32	22.287
703.64	20.904
703.96	24.348
704.28	23.926
704.60	24.444
704.91	21.451
705.23	23.256
705.55	25.442
705.87	24.910
706.19	21.111
706.51	25.086
706.83	25.402
707.15	18.069
707.47	22.129
707.79	21.615
708.11	23.750
708.43	24.500
708.74	22.481
709.06	23.662
709.38	24.465
709.70	21.006
710.02	26.752
710.34	27.245
710.66	21.795
710.98	19.536
711.29	22.623
711.61	22.712
711.93	23.127
712.25	23.711
712.57	24.542
712.89	25.000
713.20	24.221
713.52	25.436
713.84	21.843
714.16	21.306
714.48	21.935
714.80	19.872
715.11	22.492
715.43	20.690
715.75	18.000
716.07	20.598
716.39	21.477
716.70	21.402
717.02	16.794
717.34	23.077
717.66	23.894
717.97	17.391
718.29	22.176
718.61	22.441
718.93	20.155
719.24	20.152
719.56	21.285
719.88	24.055
720.20	21.212
720.51	19.540
720.83	25.483
721.15	23.950
721.46	19.758
721.78	18.577
722.10	19.331
722.42	17.427
722.73	20.000
723.05	23.673
723.37	24.153
723.68	26.126
724.00	26.068
724.32	16.444
724.63	23.636
724.95	19.214
725.27	19.816
725.58	19.068
725.90	20.635
726.22	18.147
726.53	23.390
726.85	22.472
727.16	23.774
727.48	18.219
727.80	18.623
728.11	16.525
728.43	21.569
728.74	18.548
729.06	22.800
729.38	21.805
729.69	15.936
730.01	19.231
730.32	23.507
730.64	22.261
730.96	21.509
731.27	22.000
731.59	16.610
731.90	19.745
732.22	22.713
732.53	23.256
732.85	19.149
733.16	20.875
733.48	15.468
733.80	20.652
734.11	17.627
734.43	17.526
734.74	22.424
735.06	17.915
735.37	19.335
735.69	17.508
736.00	18.118
736.32	19.799
736.63	20.070
736.95	20.478
737.26	17.438
737.58	19.128
737.89	22.711
738.21	19.173
738.52	19.753
738.83	18.341
739.15	17.467
739.46	15.354
739.78	17.582
740.09	18.954
740.41	19.203
740.72	14.567
741.04	17.409
741.35	19.574
741.66	14.692
741.98	19.388
742.29	16.337
742.61	19.895
742.92	13.744
743.23	15.278
743.55	15.837
743.86	21.053
744.18	18.182
744.49	13.830
744.80	18.478
745.12	25.668
745.43	17.561
745.74	19.271
746.06	20.976
746.37	23.560
746.68	18.483
747.00	20.745
747.31	20.398
747.62	17.961
747.94	14.833
748.25	16.337
748.56	13.115
748.88	19.895
749.19	24.468
749.50	18.227
749.82	17.453
750.13	13.303
750.44	16.541
750.75	23.134
751.07	25.182
751.38	19.157
751.69	16.471
752.01	20.930
752.32	19.124
752.63	16.996
752.94	16.810
753.26	22.594
753.57	16.742
753.88	20.354
754.19	14.583
754.51	13.636
754.82	15.789
755.13	25.000
755.44	18.145
755.75	17.578
756.07	17.510
756.38	16.604
756.69	15.326
757.00	14.333
757.31	22.222
757.63	14.024
757.94	19.444
758.25	12.603
758.56	15.691
758.87	15.297
759.18	13.396
759.50	16.000
759.81	22.742
760.12	14.194
760.43	15.455
760.74	12.346
761.05	15.077
761.36	16.193
761.67	16.364
761.99	15.646
762.30	11.273
762.61	17.391
762.92	19.457
763.23	13.964
763.54	17.290
763.85	16.949
764.16	12.033
764.47	18.145
764.78	15.018
765.10	18.855
765.41	12.934
765.72	19.048
766.03	10.902
766.34	17.883
766.65	20.717
766.96	21.717
767.27	19.681
767.58	17.241
767.89	17.021
768.20	19.886
768.51	14.286
768.82	16.749
769.13	10.599
769.44	12.446
769.75	12.329
770.06	18.534
770.37	17.308
770.68	22.843
770.99	13.575
771.30	15.686
771.61	15.837
771.92	21.983
772.23	20.197
772.54	16.667
772.85	18.519
773.16	16.292
773.47	28.105
773.78	18.301
774.09	19.760
774.39	13.333
774.70	24.841
775.01	24.828
775.32	15.000
775.63	15.702
775.94	12.977
776.25	22.835
776.56	15.833
776.87	14.423
777.18	11.111
777.48	19.828
777.79	19.130
778.10	10.476
778.41	9.910
778.72	19.048
779.03	21.053
779.34	16.312
779.65	14.384
779.95	13.014
780.26	15.172
780.57	14.634
780.88	14.961
781.19	18.966
781.50	10.078
781.80	11.243
782.11	6.918
782.42	17.692
782.73	7.914
783.04	7.407
783.34	6.944
783.65	0.000
783.96	14.754
784.27	12.414
784.57	9.756
784.88	17.969
785.19	19.000
785.50	15.000
785.81	22.414
786.11	20.690
786.42	7.767
786.73	19.091
787.04	6.122
787.34	14.286
787.65	17.143
787.96	8.850
788.26	17.273
788.57	14.530
788.88	21.094
789.19	11.111
789.49	11.304
789.80	12.245
790.11	12.121
790.41	14.545
790.72	14.130
791.03	15.909
791.33	21.250
791.64	11.250
791.95	16.279
792.25	20.213
792.56	17.978
792.87	10.959
793.17	4.348
793.48	-5.333
793.79	8.750
794.09	31.250
794.40	2.830
794.70	-1.942
795.01	11.382
795.32	8.547
795.62	7.619
795.93	15.686
796.23	16.038
796.54	15.625
796.85	20.588
797.15	15.493
797.46	22.222
797.76	25.758
798.07	3.488
798.37	5.263
798.68	7.576
798.99	14.815
799.29	14.286
799.60	14.493
799.90	17.333
800.21	13.115
800.51	9.231
800.82	10.169
801.12	14.493
801.43	19.672
801.73	26.984
802.04	26.000
802.34	22.388
802.65	36.538
802.95	25.000
803.26	21.154
803.56	1.961
803.87	-8.696
804.17	16.000
804.48	15.873
804.78	-5.556
805.09	-2.174
805.39	8.889
805.70	14.815
806.00	-8.772
806.30	15.493
806.61	20.000
806.91	-2.778
807.22	22.368
807.52	16.000
807.83	14.545
808.13	8.333
808.43	14.706
808.74	11.940
809.04	-11.864
809.35	-17.308
809.65	17.188
809.95	-18.919
810.26	-29.545
810.56	9.589
810.86	23.810
811.17	22.000
811.47	18.367
811.77	-23.684
812.08	6.818
812.38	37.736
812.69	5.000
812.99	-36.364
813.29	21.053
813.59	-2.857
813.90	27.273
814.20	-28.205
814.50	9.615
814.81	24.528
815.11	6.383
815.41	20.339
815.72	4.762
816.02	11.765
816.32	10.417
816.62	-19.512
816.93	21.622
817.23	-11.429
817.53	27.083
817.84	2.174
818.14	23.077
818.44	-34.211
818.74	19.565
819.04	-10.000
819.35	29.730
819.65	0.000
819.95	-13.889
820.25	0.000
820.56	7.500
820.86	-55.172
821.16	37.500
821.46	4.255
821.76	10.000
822.07	-9.302
822.37	-13.514
822.67	-28.125
822.97	28.571
823.27	-32.143
823.57	12.000
823.88	-29.630
824.18	14.286
824.48	11.765
824.78	12.903
825.08	8.696
825.38	0.000
825.69	-12.500
825.99	-2.632
826.29	-30.556
826.59	-46.667
826.89	-66.667
827.19	8.696
827.49	-35.000
827.79	17.143
828.09	50.000
828.39	12.121
828.70	40.541
829.00	25.000
829.30	-52.381
829.60	-26.667
829.90	15.625
830.20	-5.263
830.50	-7.407
830.80	13.043
831.10	0.000
831.40	12.121
831.70	41.935
832.00	19.048
832.30	23.810
832.60	-100.000
832.90	10.345
833.20	-10.000
833.50	0.000
833.80	7.407
834.10	11.538
834.40	25.000
834.70	-44.444
835.00	-42.105
835.30	42.308
835.60	0.000
835.90	-9.677
836.20	63.636
836.50	14.286
836.80	-38.462
837.10	-7.143
837.40	-133.333
837.70	27.273
838.00	-72.727
838.30	60.870
838.60	23.077
838.90	18.182
839.19	14.286
839.49	20.000
839.79	-46.154
840.09	-141.667
840.39	46.429
840.69	10.714
840.99	-11.538
841.29	47.368
841.59	-20.000
841.88	-63.636
842.18	-30.000
842.48	-43.750
842.78	6.667
843.08	22.222
843.38	-130.000
843.68	26.087
843.97	-86.667
844.27	-153.333
844.57	-20.000
844.87	16.667
845.17	23.810
845.47	26.667
845.76	-4.762
846.06	-29.412
846.36	-100.000
846.66	21.429
846.96	-6.667
847.25	-112.500
847.55	-7.143
847.85	-87.500
848.15	0.000
848.44	-466.667
848.74	-20.000
849.04	18.519
849.34	-63.636
849.63	-166.667
849.93	-340.000
850.23	16.667
850.53	20.000
850.82	-15.385
851.12	-66.667
851.42	6.667
851.71	3.846
852.01	-14.286
852.31	-125.000
852.61	-45.455
852.90	-25.000
853.20	-15.789
853.50	0.000
853.79	-8.696
854.09	25.000
854.39	0.000
854.68	-33.333
854.98	3.226
855.28	38.462
855.57	-15.000
855.87	-33.333
856.17	18.519
856.46	-21.429
856.76	-53.333
857.05	88.889
857.35	-4.000
857.65	-27.778
857.94	-15.385
858.24	27.586
858.53	11.111
858.83	44.444
859.13	-50.000
859.42	-52.174
859.72	25.000
860.01	-266.667
860.31	28.000
860.60	19.048
860.90	-300.000
861.20	-66.667
861.49	-600.000
861.79	0.000
862.08	-5.000
862.38	33.333
862.67	-60.000
862.97	-133.333
863.26	16.667
863.56	66.667
863.85	-233.333
864.15	33.333
864.44	-50.000
864.74	42.857
865.03	25.000
865.33	-260.000
865.62	-50.000
865.92	-66.667
866.21	-133.333
866.51	18.750
866.80	-118.182
867.10	0.000
867.39	83.333
867.69	0.000
867.98	23.077
868.27	-166.667
868.57	-40.000
868.86	-5.556
869.16	-53.846
869.45	6.667
869.75	-2000.000
870.04	0.000
870.33	28.571
870.63	14.286
870.92	266.667
871.22	-180.000
871.51	-1100.000
871.80	100.000
872.10	666.667
>>>>>End Processed Spectral Data<<<<<
