SpectraSuite Data File
++++++++++++++++++++++++++++++++++++
Date: Fri May 15 21:11:05 PDT 2015
User: schluterlab
Dark Spectrum Present: Yes
Reference Spectrum Present: Yes
Number of Sampled Component Spectra: 1
Spectrometers: USB2E3373
Integration Time (usec): 3000 (USB2E3373)
Spectra Averaged: 3 (USB2E3373)
Boxcar Smoothing: 0 (USB2E3373)
Correct for Electrical Dark: No (USB2E3373)
Strobe/Lamp Enabled: No (USB2E3373)
Correct for Detector Non-linearity: No (USB2E3373)
Correct for Stray Light: No (USB2E3373)
Number of Pixels in Processed Spectrum: 2048
>>>>>Begin Processed Spectral Data<<<<<
178.53	0.000
178.91	0.000
179.29	50.000
179.67	-700.000
180.04	200.000
180.42	-25.000
180.80	100.000
181.18	166.667
181.56	250.000
181.94	50.000
182.31	200.000
182.69	-20.000
183.07	-300.000
183.45	-60.000
183.83	-0.000
184.20	27.273
184.58	77.778
184.96	125.000
185.34	200.000
185.72	-350.000
186.09	69.231
186.47	-500.000
186.85	250.000
187.23	144.444
187.61	500.000
187.98	-533.333
188.36	-22.222
188.74	-100.000
189.12	47.059
189.49	66.667
189.87	0.000
190.25	71.429
190.63	-600.000
191.00	-200.000
191.38	-52.632
191.76	-50.000
192.14	200.000
192.51	-400.000
192.89	-66.667
193.27	-85.714
193.65	83.333
194.02	118.182
194.40	-40.000
194.78	-25.000
195.15	-50.000
195.53	-62.500
195.91	325.000
196.29	-125.000
196.66	130.769
197.04	200.000
197.42	88.889
197.79	-166.667
198.17	-100.000
198.55	1600.000
198.92	-166.667
199.30	200.000
199.68	-140.000
200.05	-300.000
200.43	0.000
200.81	-166.667
201.18	33.333
201.56	1300.000
201.94	-650.000
202.31	466.667
202.69	-340.000
203.07	25.000
203.44	-800.000
203.82	0.000
204.19	28.571
204.57	-266.667
204.95	62.500
205.32	90.000
205.70	-57.143
206.08	50.000
206.45	88.889
206.83	100.000
207.20	-157.143
207.58	500.000
207.96	-433.333
208.33	-90.000
208.71	50.000
209.08	-233.333
209.46	-1200.000
209.84	-160.000
210.21	-1900.000
210.59	42.857
210.96	-66.667
211.34	150.000
211.71	26.667
212.09	-71.429
212.46	-1900.000
212.84	0.000
213.22	30.000
213.59	500.000
213.97	38.462
214.34	-9.091
214.72	-133.333
215.09	325.000
215.47	-92.308
215.84	-18.182
216.22	-433.333
216.59	-112.500
216.97	50.000
217.34	-150.000
217.72	-140.000
218.09	87.500
218.47	62.500
218.84	-600.000
219.22	77.778
219.59	20.000
219.97	300.000
220.34	450.000
220.72	-85.714
221.09	-200.000
221.47	350.000
221.84	-1000.000
222.22	-500.000
222.59	0.000
222.97	108.333
223.34	-466.667
223.72	-21.429
224.09	-14.286
224.46	42.857
224.84	300.000
225.21	10.000
225.59	-66.667
225.96	200.000
226.34	350.000
226.71	-28.571
227.08	66.667
227.46	0.000
227.83	-350.000
228.21	-33.333
228.58	-27.273
228.95	-75.000
229.33	-30.000
229.70	-56.250
230.08	-37.500
230.45	-42.857
230.82	85.714
231.20	6.667
231.57	-28.571
231.95	-71.429
232.32	-70.000
232.69	7.143
233.07	-66.667
233.44	-20.000
233.81	-70.000
234.19	11.111
234.56	17.647
234.93	250.000
235.31	25.000
235.68	-240.000
236.05	-38.462
236.43	-75.000
236.80	-11.765
237.17	31.250
237.55	20.000
237.92	7.407
238.29	5.556
238.67	10.000
239.04	0.000
239.41	7.317
239.79	3.333
240.16	29.268
240.53	2.632
240.91	4.348
241.28	33.333
241.65	28.571
242.02	19.178
242.40	28.333
242.77	8.475
243.14	30.303
243.51	18.750
243.89	44.828
244.26	17.241
244.63	25.000
245.00	25.773
245.38	22.680
245.75	16.854
246.12	12.069
246.49	20.661
246.87	26.923
247.24	26.891
247.61	26.316
247.98	13.821
248.36	28.125
248.73	26.316
249.10	31.169
249.47	30.380
249.84	32.026
250.22	27.059
250.59	24.837
250.96	25.822
251.33	18.023
251.70	31.765
252.08	27.411
252.45	26.238
252.82	30.151
253.19	24.885
253.56	19.626
253.94	23.423
254.31	26.087
254.68	27.193
255.05	25.197
255.42	28.821
255.79	28.185
256.16	26.459
256.54	29.478
256.91	27.757
257.28	23.420
257.65	24.345
258.02	22.340
258.39	29.630
258.76	30.037
259.14	27.907
259.51	22.330
259.88	24.742
260.25	26.144
260.62	29.514
260.99	21.356
261.36	27.397
261.73	25.000
262.10	27.356
262.47	27.301
262.85	27.273
263.22	29.231
263.59	28.037
263.96	28.882
264.33	30.909
264.70	27.976
265.07	27.381
265.44	25.212
265.81	28.814
266.18	28.142
266.55	28.021
266.92	28.238
267.29	27.415
267.66	26.598
268.03	26.963
268.40	27.154
268.77	31.016
269.14	26.139
269.51	26.221
269.88	25.436
270.25	24.235
270.62	25.854
270.99	26.343
271.36	27.139
271.73	25.352
272.10	27.251
272.47	24.823
272.84	26.485
273.21	27.842
273.58	26.506
273.95	27.231
274.32	25.866
274.69	23.077
275.06	23.661
275.43	22.676
275.80	26.049
276.17	21.609
276.54	25.054
276.91	26.974
277.28	22.707
277.65	29.545
278.02	23.404
278.39	22.976
278.76	25.157
279.13	22.614
279.50	26.891
279.87	24.406
280.23	25.161
280.60	25.146
280.97	26.263
281.34	24.231
281.71	26.078
282.08	22.699
282.45	23.092
282.82	24.324
283.19	25.338
283.56	24.855
283.92	22.581
284.29	24.423
284.66	24.806
285.03	24.361
285.40	24.008
285.77	23.374
286.14	23.646
286.51	25.461
286.87	24.132
287.24	23.573
287.61	21.869
287.98	24.035
288.35	23.224
288.72	25.044
289.08	20.660
289.45	22.496
289.82	24.301
290.19	24.232
290.56	22.642
290.93	22.559
291.29	21.263
291.66	21.260
292.03	21.531
292.40	22.581
292.77	21.053
293.13	20.130
293.50	22.762
293.87	21.679
294.24	20.247
294.60	20.119
294.97	21.131
295.34	20.552
295.71	21.610
296.08	17.788
296.44	18.208
296.81	20.000
297.18	19.565
297.55	21.274
297.91	18.493
298.28	19.129
298.65	18.860
299.02	19.542
299.38	18.194
299.75	19.034
300.12	19.634
300.48	17.128
300.85	19.011
301.22	19.610
301.59	19.605
301.95	19.873
302.32	19.326
302.69	20.398
303.05	19.307
303.42	20.922
303.79	21.145
304.15	19.355
304.52	17.955
304.89	18.012
305.25	19.855
305.62	18.320
305.99	19.415
306.35	18.382
306.72	18.223
307.09	19.270
307.45	17.796
307.82	18.056
308.19	21.138
308.55	19.738
308.92	20.370
309.29	18.659
309.65	18.945
310.02	19.802
310.38	21.295
310.75	19.781
311.12	21.529
311.48	21.209
311.85	20.419
312.22	21.519
312.58	20.064
312.95	21.558
313.31	20.393
313.68	20.733
314.05	20.000
314.41	21.031
314.78	22.062
315.14	22.405
315.51	23.188
315.87	22.951
316.24	24.267
316.61	24.213
316.97	23.710
317.34	23.437
317.70	23.709
318.07	24.712
318.43	24.706
318.80	23.674
319.16	25.977
319.53	25.736
319.89	26.280
320.26	26.518
320.62	26.780
320.99	25.470
321.35	27.030
321.72	27.934
322.08	27.593
322.45	29.137
322.81	28.684
323.18	27.969
323.54	27.413
323.91	30.282
324.27	30.078
324.64	30.337
325.00	31.113
325.37	32.691
325.73	29.828
326.10	33.424
326.46	33.274
326.83	33.508
327.19	34.350
327.56	33.797
327.92	35.915
328.29	35.357
328.65	36.038
329.01	36.305
329.38	37.051
329.74	36.072
330.11	37.998
330.47	37.291
330.84	38.942
331.20	39.068
331.56	36.389
331.93	38.447
332.29	39.597
332.66	38.462
333.02	39.219
333.38	38.222
333.75	39.194
334.11	39.212
334.48	39.619
334.84	39.744
335.20	40.805
335.57	38.713
335.93	40.108
336.29	39.411
336.66	39.782
337.02	40.056
337.38	38.981
337.75	40.727
338.11	41.389
338.47	41.150
338.84	40.758
339.20	40.311
339.56	39.725
339.93	42.167
340.29	41.284
340.65	41.487
341.02	40.957
341.38	40.354
341.74	39.841
342.11	39.081
342.47	41.014
342.83	41.090
343.20	41.202
343.56	41.130
343.92	42.427
344.28	42.186
344.65	41.278
345.01	41.141
345.37	40.706
345.73	41.088
346.10	42.882
346.46	41.463
346.82	41.653
347.19	40.815
347.55	41.270
347.91	41.586
348.27	41.633
348.63	41.312
349.00	41.427
349.36	42.228
349.72	42.206
350.08	40.820
350.45	40.623
350.81	42.608
351.17	40.961
351.53	42.041
351.89	40.545
352.26	42.240
352.62	43.226
352.98	40.241
353.34	41.546
353.70	42.314
354.07	40.887
354.43	41.233
354.79	41.701
355.15	42.381
355.51	43.038
355.87	41.343
356.24	40.701
356.60	41.876
356.96	43.730
357.32	41.933
357.68	42.064
358.04	42.246
358.40	42.122
358.77	43.062
359.13	43.074
359.49	41.525
359.85	41.888
360.21	42.504
360.57	41.775
360.93	41.452
361.29	41.918
361.66	43.025
362.02	44.091
362.38	43.260
362.74	41.181
363.10	43.567
363.46	41.957
363.82	43.877
364.18	41.624
364.54	41.912
364.90	42.222
365.26	43.595
365.62	43.212
365.98	43.328
366.35	43.117
366.71	42.942
367.07	42.961
367.43	42.631
367.79	42.473
368.15	43.001
368.51	42.899
368.87	41.924
369.23	42.094
369.59	43.732
369.95	43.402
370.31	43.208
370.67	43.507
371.03	43.465
371.39	42.815
371.75	44.249
372.11	42.939
372.47	43.713
372.83	44.429
373.19	42.939
373.55	43.032
373.91	43.053
374.27	42.807
374.63	44.580
374.99	42.908
375.35	43.802
375.71	42.517
376.07	44.733
376.42	43.061
376.78	44.228
377.14	44.482
377.50	43.360
377.86	43.440
378.22	43.395
378.58	44.359
378.94	41.714
379.30	43.668
379.66	44.389
380.02	42.612
380.38	43.761
380.74	43.028
381.09	44.969
381.45	44.037
381.81	43.800
382.17	44.353
382.53	42.723
382.89	44.193
383.25	44.182
383.61	44.268
383.97	43.873
384.32	43.902
384.68	43.344
385.04	43.382
385.40	43.373
385.76	45.409
386.12	44.114
386.48	44.828
386.83	44.261
387.19	43.773
387.55	44.981
387.91	43.643
388.27	44.139
388.62	44.368
388.98	44.015
389.34	44.785
389.70	44.810
390.06	43.298
390.42	44.365
390.77	44.212
391.13	43.884
391.49	45.213
391.85	44.055
392.20	44.507
392.56	44.183
392.92	45.214
393.28	44.693
393.64	43.784
393.99	45.455
394.35	44.466
394.71	44.955
395.07	43.306
395.42	43.716
395.78	44.625
396.14	44.388
396.50	44.261
396.85	44.430
397.21	44.298
397.57	44.451
397.92	44.098
398.28	44.655
398.64	42.590
399.00	44.977
399.35	44.300
399.71	43.596
400.07	44.619
400.42	43.084
400.78	44.887
401.14	44.586
401.49	44.789
401.85	44.119
402.21	44.819
402.57	44.375
402.92	43.162
403.28	44.862
403.63	44.325
403.99	43.941
404.35	44.660
404.70	44.464
405.06	43.361
405.42	43.381
405.77	43.405
406.13	44.354
406.49	43.517
406.84	44.866
407.20	44.792
407.55	44.108
407.91	43.850
408.27	43.786
408.62	44.246
408.98	43.500
409.34	44.610
409.69	43.863
410.05	43.842
410.40	43.827
410.76	43.124
411.11	43.250
411.47	44.707
411.83	43.503
412.18	44.530
412.54	44.132
412.89	41.995
413.25	43.923
413.60	45.217
413.96	43.067
414.31	43.720
414.67	44.131
415.03	44.807
415.38	44.256
415.74	44.365
416.09	43.828
416.45	44.159
416.80	44.019
417.16	44.475
417.51	44.370
417.87	42.764
418.22	44.301
418.58	44.013
418.93	44.326
419.29	43.598
419.64	44.329
420.00	45.025
420.35	43.343
420.71	44.350
421.06	44.506
421.42	43.570
421.77	44.277
422.12	42.679
422.48	43.205
422.83	42.865
423.19	44.582
423.54	43.327
423.90	42.933
424.25	44.030
424.61	44.737
424.96	43.089
425.31	44.541
425.67	44.131
426.02	44.464
426.38	44.771
426.73	44.794
427.09	46.076
427.44	44.176
427.79	43.783
428.15	44.357
428.50	44.155
428.85	42.936
429.21	44.143
429.56	44.313
429.92	43.143
430.27	43.810
430.62	44.903
430.98	43.259
431.33	43.796
431.68	44.113
432.04	44.774
432.39	43.468
432.74	43.656
433.10	44.368
433.45	43.011
433.80	44.631
434.16	42.881
434.51	43.548
434.86	44.309
435.22	44.420
435.57	44.105
435.92	44.910
436.28	44.902
436.63	44.552
436.98	43.453
437.34	43.618
437.69	45.081
438.04	43.932
438.39	43.555
438.75	44.505
439.10	43.746
439.45	44.431
439.81	43.853
440.16	44.418
440.51	44.896
440.86	46.163
441.22	43.269
441.57	43.819
441.92	44.701
442.27	43.625
442.63	45.182
442.98	44.342
443.33	44.185
443.68	43.130
444.03	43.766
444.39	43.483
444.74	45.206
445.09	42.817
445.44	44.330
445.79	44.868
446.15	43.282
446.50	43.816
446.85	44.261
447.20	44.317
447.55	44.420
447.91	44.783
448.26	44.565
448.61	45.020
448.96	44.521
449.31	44.740
449.66	44.890
450.02	43.411
450.37	44.161
450.72	43.184
451.07	44.494
451.42	43.134
451.77	44.063
452.12	43.242
452.47	42.885
452.83	43.757
453.18	44.276
453.53	44.058
453.88	43.594
454.23	44.991
454.58	44.207
454.93	43.235
455.28	42.540
455.63	44.885
455.98	43.897
456.34	43.550
456.69	44.028
457.04	44.675
457.39	43.864
457.74	43.108
458.09	42.496
458.44	42.598
458.79	42.521
459.14	43.993
459.49	44.358
459.84	42.922
460.19	43.507
460.54	43.949
460.89	43.409
461.24	44.845
461.59	43.943
461.94	43.459
462.29	43.667
462.64	44.186
462.99	44.008
463.34	42.629
463.69	44.208
464.04	43.644
464.39	42.814
464.74	42.454
465.09	43.793
465.44	43.970
465.79	42.347
466.14	44.299
466.49	42.956
466.84	44.021
467.19	42.866
467.54	42.720
467.89	43.209
468.24	43.917
468.59	43.175
468.94	42.794
469.29	43.672
469.64	44.498
469.99	45.060
470.34	43.208
470.68	44.668
471.03	43.595
471.38	43.937
471.73	43.137
472.08	43.487
472.43	44.228
472.78	44.003
473.13	43.605
473.48	44.691
473.83	42.279
474.17	43.782
474.52	43.586
474.87	43.515
475.22	43.685
475.57	42.575
475.92	44.158
476.27	43.190
476.61	44.155
476.96	42.722
477.31	42.834
477.66	43.202
478.01	43.346
478.36	42.211
478.70	44.861
479.05	44.066
479.40	42.660
479.75	42.596
480.10	42.652
480.45	43.400
480.79	43.857
481.14	44.365
481.49	42.118
481.84	42.712
482.19	43.545
482.53	44.029
482.88	43.150
483.23	43.138
483.58	42.972
483.92	42.449
484.27	43.072
484.62	42.627
484.97	42.247
485.31	41.871
485.66	39.629
486.01	39.835
486.36	39.993
486.70	41.514
487.05	42.953
487.40	42.632
487.75	42.817
488.09	43.078
488.44	43.982
488.79	43.743
489.13	44.231
489.48	43.138
489.83	43.543
490.17	42.697
490.52	42.633
490.87	41.971
491.22	44.222
491.56	43.406
491.91	42.208
492.26	43.753
492.60	41.939
492.95	43.483
493.30	41.817
493.64	43.026
493.99	43.237
494.34	42.961
494.68	42.857
495.03	42.141
495.37	42.934
495.72	43.009
496.07	42.537
496.41	42.830
496.76	42.699
497.11	41.966
497.45	42.912
497.80	43.189
498.14	42.126
498.49	43.728
498.84	42.715
499.18	43.173
499.53	43.304
499.87	42.412
500.22	42.038
500.56	42.663
500.91	41.968
501.26	42.215
501.60	41.663
501.95	42.940
502.29	42.421
502.64	43.098
502.98	43.217
503.33	41.691
503.67	42.651
504.02	42.962
504.36	42.900
504.71	41.869
505.06	42.325
505.40	41.929
505.75	42.784
506.09	43.436
506.44	43.634
506.78	42.092
507.13	43.382
507.47	41.984
507.82	43.323
508.16	42.736
508.51	43.022
508.85	42.595
509.19	42.789
509.54	42.842
509.88	42.341
510.23	43.141
510.57	43.346
510.92	42.644
511.26	42.881
511.61	43.399
511.95	43.288
512.30	42.960
512.64	42.515
512.98	43.571
513.33	43.537
513.67	43.093
514.02	42.906
514.36	43.943
514.70	43.998
515.05	44.125
515.39	43.447
515.74	45.269
516.08	43.873
516.42	44.817
516.77	42.715
517.11	44.154
517.46	43.746
517.80	43.087
518.14	43.417
518.49	43.510
518.83	43.621
519.17	42.814
519.52	43.043
519.86	43.758
520.20	44.168
520.55	43.152
520.89	44.417
521.23	44.205
521.58	44.606
521.92	44.872
522.26	44.372
522.61	43.961
522.95	46.291
523.29	44.028
523.64	44.854
523.98	45.496
524.32	44.652
524.66	45.775
525.01	44.805
525.35	45.625
525.69	44.983
526.04	44.643
526.38	45.785
526.72	44.735
527.06	44.034
527.41	45.119
527.75	44.370
528.09	45.515
528.43	46.320
528.78	45.017
529.12	44.645
529.46	43.990
529.80	43.635
530.15	45.017
530.49	44.646
530.83	46.306
531.17	44.191
531.51	45.212
531.86	44.731
532.20	44.398
532.54	44.929
532.88	44.559
533.22	44.556
533.57	43.644
533.91	44.909
534.25	46.224
534.59	44.323
534.93	44.745
535.27	43.211
535.62	44.718
535.96	45.401
536.30	43.536
536.64	46.520
536.98	45.366
537.32	46.302
537.66	45.863
538.01	45.664
538.35	45.146
538.69	44.874
539.03	45.523
539.37	45.020
539.71	43.013
540.05	44.399
540.39	45.429
540.73	46.095
541.07	44.199
541.42	46.035
541.76	45.148
542.10	44.804
542.44	44.823
542.78	44.047
543.12	45.261
543.46	44.298
543.80	45.871
544.14	43.792
544.48	43.571
544.82	45.796
545.16	45.150
545.50	44.459
545.84	45.538
546.18	43.617
546.52	45.782
546.86	45.723
547.20	45.780
547.54	44.099
547.88	44.837
548.22	43.984
548.56	43.997
548.90	45.485
549.24	44.353
549.58	44.076
549.92	45.104
550.26	45.201
550.60	45.056
550.94	44.511
551.28	44.977
551.62	45.923
551.96	45.038
552.30	44.444
552.64	43.512
552.98	42.968
553.32	44.009
553.66	44.122
554.00	44.307
554.34	46.750
554.68	43.805
555.02	44.717
555.36	44.577
555.69	43.370
556.03	43.183
556.37	42.847
556.71	44.910
557.05	45.414
557.39	44.089
557.73	44.678
558.07	44.419
558.41	45.559
558.75	44.895
559.08	44.996
559.42	45.476
559.76	44.596
560.10	44.113
560.44	44.006
560.78	44.755
561.12	45.063
561.45	44.413
561.79	44.258
562.13	44.216
562.47	43.525
562.81	45.317
563.15	42.877
563.48	43.918
563.82	43.583
564.16	44.499
564.50	43.784
564.84	43.373
565.17	43.796
565.51	45.765
565.85	45.267
566.19	43.833
566.52	43.968
566.86	44.087
567.20	42.653
567.54	44.282
567.88	43.175
568.21	43.835
568.55	42.935
568.89	42.967
569.23	42.224
569.56	42.294
569.90	42.144
570.24	40.975
570.57	41.055
570.91	41.443
571.25	39.888
571.59	40.424
571.92	39.200
572.26	40.368
572.60	40.682
572.93	40.383
573.27	40.439
573.61	39.529
573.95	39.678
574.28	39.248
574.62	39.181
574.96	39.142
575.29	39.147
575.63	38.741
575.97	39.198
576.30	40.484
576.64	38.914
576.98	39.356
577.31	39.739
577.65	39.266
577.98	38.123
578.32	38.832
578.66	39.243
578.99	39.331
579.33	39.695
579.67	39.187
580.00	38.835
580.34	38.731
580.67	38.947
581.01	39.193
581.35	38.501
581.68	37.926
582.02	37.585
582.35	38.329
582.69	39.170
583.02	38.966
583.36	39.271
583.70	40.083
584.03	40.256
584.37	41.078
584.70	39.643
585.04	38.834
585.37	38.059
585.71	37.991
586.04	38.956
586.38	38.730
586.72	38.737
587.05	39.948
587.39	38.803
587.72	39.748
588.06	39.081
588.39	39.305
588.73	39.591
589.06	40.378
589.40	39.786
589.73	40.526
590.07	40.446
590.40	40.596
590.73	40.774
591.07	40.204
591.40	39.804
591.74	40.136
592.07	40.816
592.41	39.620
592.74	39.108
593.08	37.269
593.41	37.891
593.75	37.782
594.08	38.208
594.41	38.828
594.75	38.244
595.08	38.555
595.42	39.271
595.75	39.467
596.09	40.227
596.42	40.595
596.75	40.364
597.09	40.137
597.42	39.386
597.75	39.853
598.09	38.886
598.42	38.718
598.76	38.224
599.09	37.300
599.42	37.552
599.76	38.525
600.09	37.896
600.42	38.779
600.76	37.741
601.09	38.435
601.42	38.308
601.76	38.984
602.09	38.490
602.42	39.469
602.76	38.370
603.09	39.161
603.42	39.674
603.76	38.548
604.09	38.113
604.42	39.425
604.76	39.030
605.09	38.665
605.42	38.691
605.75	37.609
606.09	38.047
606.42	37.156
606.75	38.182
607.09	38.110
607.42	37.838
607.75	38.588
608.08	37.646
608.42	38.374
608.75	39.181
609.08	39.163
609.41	39.289
609.75	39.516
610.08	38.942
610.41	37.633
610.74	38.176
611.07	38.191
611.41	39.128
611.74	38.859
612.07	37.741
612.40	38.840
612.73	39.266
613.07	38.864
613.40	38.950
613.73	38.388
614.06	39.510
614.39	38.804
614.72	38.824
615.06	38.883
615.39	37.718
615.72	37.783
616.05	38.268
616.38	38.234
616.71	39.144
617.05	39.469
617.38	40.101
617.71	40.000
618.04	39.238
618.37	39.786
618.70	38.614
619.03	40.625
619.36	39.001
619.69	39.955
620.03	41.271
620.36	38.984
620.69	39.115
621.02	40.061
621.35	40.498
621.68	40.051
622.01	39.500
622.34	40.064
622.67	39.117
623.00	39.051
623.33	38.415
623.66	38.743
623.99	38.880
624.32	39.772
624.65	37.895
624.99	38.600
625.32	39.348
625.65	40.220
625.98	39.807
626.31	40.233
626.64	40.121
626.97	41.012
627.30	40.893
627.63	39.515
627.96	40.431
628.29	39.963
628.62	41.495
628.95	41.283
629.28	41.734
629.61	40.678
629.94	41.935
630.26	40.909
630.59	41.311
630.92	40.718
631.25	40.205
631.58	40.969
631.91	40.241
632.24	41.972
632.57	40.568
632.90	42.112
633.23	40.941
633.56	41.058
633.89	43.157
634.22	41.358
634.55	40.915
634.88	42.018
635.20	41.667
635.53	43.067
635.86	39.792
636.19	42.820
636.52	41.454
636.85	42.060
637.18	41.509
637.51	41.132
637.83	42.444
638.16	44.338
638.49	41.689
638.82	42.895
639.15	41.655
639.48	42.641
639.81	41.562
640.13	43.434
640.46	42.420
640.79	41.826
641.12	40.325
641.45	41.592
641.77	42.074
642.10	44.392
642.43	40.836
642.76	44.719
643.09	44.426
643.41	40.615
643.74	40.857
644.07	43.350
644.40	43.412
644.73	44.483
645.05	41.107
645.38	44.444
645.71	39.716
646.04	43.268
646.36	40.957
646.69	43.525
647.02	43.289
647.35	41.231
647.67	42.596
648.00	42.164
648.33	40.444
648.66	41.356
648.98	39.866
649.31	41.983
649.64	39.874
649.96	38.574
650.29	41.227
650.62	42.222
650.94	41.481
651.27	40.037
651.60	41.261
651.92	38.636
652.25	38.366
652.58	40.333
652.90	39.966
653.23	41.849
653.56	40.271
653.88	40.034
654.21	40.280
654.54	37.861
654.86	38.370
655.19	38.158
655.52	37.307
655.84	31.039
656.17	32.888
656.49	45.703
656.82	49.003
657.15	39.277
657.47	30.406
657.80	22.964
658.13	23.088
658.45	36.861
658.78	38.179
659.10	39.001
659.43	39.421
659.75	40.306
660.08	39.379
660.41	40.756
660.73	40.055
661.06	41.768
661.38	40.313
661.71	38.809
662.03	43.348
662.36	42.857
662.68	42.699
663.01	43.886
663.33	41.067
663.66	39.767
663.98	40.465
664.31	40.938
664.63	40.783
664.96	37.826
665.28	37.528
665.61	41.342
665.93	42.174
666.26	39.696
666.58	40.940
666.91	44.471
667.23	41.038
667.56	42.654
667.88	40.528
668.21	40.573
668.53	39.716
668.86	39.623
669.18	38.208
669.50	41.646
669.83	41.163
670.15	39.161
670.48	38.038
670.80	39.631
671.13	38.479
671.45	36.530
671.77	42.275
672.10	38.218
672.42	36.704
672.75	39.254
673.07	38.462
673.39	38.716
673.72	36.489
674.04	38.958
674.37	41.737
674.69	36.831
675.01	38.444
675.34	40.315
675.66	42.361
675.98	36.807
676.31	41.055
676.63	38.955
676.95	38.636
677.28	41.412
677.60	40.482
677.92	38.532
678.25	38.950
678.57	35.498
678.89	39.496
679.22	37.808
679.54	35.141
679.86	35.586
680.18	35.922
680.51	37.311
680.83	35.388
681.15	36.000
681.48	39.549
681.80	37.190
682.12	38.710
682.44	37.448
682.77	37.748
683.09	39.359
683.41	37.045
683.73	37.327
684.06	38.274
684.38	37.634
684.70	38.780
685.02	36.515
685.34	35.771
685.67	32.645
685.99	35.443
686.31	35.044
686.63	36.920
686.96	35.171
687.28	33.737
687.60	34.411
687.92	38.182
688.24	38.105
688.56	36.681
688.89	38.170
689.21	39.778
689.53	35.963
689.85	38.605
690.17	34.152
690.49	39.007
690.82	35.194
691.14	35.238
691.46	37.150
691.78	37.162
692.10	38.280
692.42	37.662
692.74	36.325
693.06	34.234
693.39	35.747
693.71	34.615
694.03	31.871
694.35	37.617
694.67	37.374
694.99	37.598
695.31	35.248
695.63	36.500
695.95	34.596
696.27	35.751
696.59	38.889
696.91	35.574
697.23	33.933
697.56	35.396
697.88	35.269
698.20	35.308
698.52	37.412
698.84	33.254
699.16	33.250
699.48	37.845
699.80	33.995
700.12	33.962
700.44	38.095
700.76	38.372
701.08	35.152
701.40	35.542
701.72	35.802
702.04	38.614
702.36	40.134
702.68	37.838
703.00	38.182
703.32	35.484
703.64	29.096
703.96	37.681
704.28	35.276
704.60	36.825
704.91	33.754
705.23	32.890
705.55	37.456
705.87	37.545
706.19	35.926
706.51	38.144
706.83	36.334
707.15	30.841
707.47	35.014
707.79	34.635
708.11	32.500
708.43	34.000
708.74	35.917
709.06	36.056
709.38	39.144
709.70	33.728
710.02	36.624
710.34	37.771
710.66	30.449
710.98	32.781
711.29	31.475
711.61	37.288
711.93	37.134
712.25	38.144
712.57	34.799
712.89	36.567
713.20	38.062
713.52	35.192
713.84	36.519
714.16	35.395
714.48	31.935
714.80	37.179
715.11	36.474
715.43	31.975
715.75	30.667
716.07	33.223
716.39	35.570
716.70	29.151
717.02	37.786
717.34	38.057
717.66	37.611
717.97	36.522
718.29	33.054
718.61	38.583
718.93	29.845
719.24	30.798
719.56	37.751
719.88	34.708
720.20	36.742
720.51	31.034
720.83	32.432
721.15	36.134
721.46	35.887
721.78	26.482
722.10	31.599
722.42	28.216
722.73	34.286
723.05	38.776
723.37	40.254
723.68	40.090
724.00	30.769
724.32	34.222
724.63	36.818
724.95	37.555
725.27	37.788
725.58	29.661
725.90	26.190
726.22	33.977
726.53	30.847
726.85	30.712
727.16	35.472
727.48	34.008
727.80	31.579
728.11	35.169
728.43	33.333
728.74	31.048
729.06	33.200
729.38	36.466
729.69	32.271
730.01	26.923
730.32	39.179
730.64	34.982
730.96	35.094
731.27	33.000
731.59	34.576
731.90	32.484
732.22	34.069
732.53	35.880
732.85	32.624
733.16	33.333
733.48	26.619
733.80	30.797
734.11	33.220
734.43	30.928
734.74	30.909
735.06	30.293
735.37	31.722
735.69	33.670
736.00	29.617
736.32	27.517
736.63	29.930
736.95	35.495
737.26	32.384
737.58	32.215
737.89	27.473
738.21	31.203
738.52	35.391
738.83	33.188
739.15	34.061
739.46	31.496
739.78	27.839
740.09	30.719
740.41	34.058
740.72	27.559
741.04	34.818
741.35	29.362
741.66	34.597
741.98	31.122
742.29	38.614
742.61	29.319
742.92	23.697
743.23	23.611
743.55	32.579
743.86	30.622
744.18	30.622
744.49	29.255
744.80	33.152
745.12	38.503
745.43	28.780
745.74	31.250
746.06	30.732
746.37	31.414
746.68	33.649
747.00	29.255
747.31	34.328
747.62	32.039
747.94	33.493
748.25	32.178
748.56	38.251
748.88	29.319
749.19	34.574
749.50	31.527
749.82	25.000
750.13	27.523
750.44	31.203
750.75	36.940
751.07	37.591
751.38	29.119
751.69	25.490
752.01	30.620
752.32	33.865
752.63	24.901
752.94	29.741
753.26	35.565
753.57	29.412
753.88	29.646
754.19	29.167
754.51	29.752
754.82	29.555
755.13	32.917
755.44	29.839
755.75	37.109
756.07	25.292
756.38	28.302
756.69	24.138
757.00	31.333
757.31	25.490
757.63	26.829
757.94	26.944
758.25	24.932
758.56	25.532
758.87	23.229
759.18	29.283
759.50	26.909
759.81	31.773
760.12	28.387
760.43	29.091
760.74	28.086
761.05	25.846
761.36	24.716
761.67	28.182
761.99	30.952
762.30	25.455
762.61	30.830
762.92	35.747
763.23	33.333
763.54	25.701
763.85	29.237
764.16	26.141
764.47	28.629
764.78	26.740
765.10	27.946
765.41	28.391
765.72	29.206
766.03	29.323
766.34	29.562
766.65	31.474
766.96	28.283
767.27	25.000
767.58	26.437
767.89	32.624
768.20	28.977
768.51	23.077
768.82	27.094
769.13	26.728
769.44	28.326
769.75	26.941
770.06	28.017
770.37	36.058
770.68	29.949
770.99	24.887
771.30	29.902
771.61	25.792
771.92	27.155
772.23	34.975
772.54	26.344
772.85	30.864
773.16	28.652
773.47	33.987
773.78	33.333
774.09	27.545
774.39	29.333
774.70	28.662
775.01	37.931
775.32	32.143
775.63	32.231
775.94	27.481
776.25	37.008
776.56	30.833
776.87	28.846
777.18	28.205
777.48	28.448
777.79	17.391
778.10	7.619
778.41	26.126
778.72	18.254
779.03	31.579
779.34	31.915
779.65	32.192
779.95	20.548
780.26	22.759
780.57	24.390
780.88	33.071
781.19	29.310
781.50	25.581
781.80	31.361
782.11	24.528
782.42	30.000
782.73	17.986
783.04	22.963
783.34	20.833
783.65	8.547
783.96	18.033
784.27	30.345
784.57	27.642
784.88	28.906
785.19	35.000
785.50	34.000
785.81	37.931
786.11	25.862
786.42	21.359
786.73	31.818
787.04	21.429
787.34	31.250
787.65	19.048
787.96	15.044
788.26	27.273
788.57	28.205
788.88	29.687
789.19	25.397
789.49	31.304
789.80	23.469
790.11	33.333
790.41	12.727
790.72	34.783
791.03	14.773
791.33	26.250
791.64	12.500
791.95	36.047
792.25	25.532
792.56	33.708
792.87	21.918
793.17	13.043
793.48	2.667
793.79	22.500
794.09	25.000
794.40	22.642
794.70	16.505
795.01	22.764
795.32	23.932
795.62	23.810
795.93	16.667
796.23	38.679
796.54	31.250
796.85	38.235
797.15	23.944
797.46	43.056
797.76	27.273
798.07	27.907
798.37	13.158
798.68	15.152
798.99	9.877
799.29	21.429
799.60	24.638
799.90	29.333
800.21	37.705
800.51	27.692
800.82	27.119
801.12	28.986
801.43	34.426
801.73	28.571
802.04	28.000
802.34	1.493
802.65	21.154
802.95	14.286
803.26	15.385
803.56	33.333
803.87	13.043
804.17	29.333
804.48	20.635
804.78	18.519
805.09	21.739
805.39	17.778
805.70	42.593
806.00	-12.281
806.30	23.944
806.61	32.857
806.91	8.333
807.22	27.632
807.52	21.333
807.83	10.909
808.13	20.833
808.43	32.353
808.74	11.940
809.04	6.780
809.35	15.385
809.65	17.188
809.95	-10.811
810.26	27.273
810.56	24.658
810.86	30.952
811.17	2.000
811.47	28.571
811.77	5.263
812.08	27.273
812.38	26.415
812.69	17.500
812.99	12.121
813.29	2.632
813.59	-20.000
813.90	9.091
814.20	-15.385
814.50	19.231
814.81	18.868
815.11	17.021
815.41	23.729
815.72	14.286
816.02	11.765
816.32	25.000
816.62	24.390
816.93	24.324
817.23	2.857
817.53	29.167
817.84	13.043
818.14	-5.769
818.44	7.895
818.74	17.391
819.04	-2.500
819.35	10.811
819.65	20.588
819.95	-5.556
820.25	28.571
820.56	35.000
820.86	-6.897
821.16	32.500
821.46	42.553
821.76	22.500
822.07	0.000
822.37	-32.432
822.67	6.250
822.97	38.095
823.27	0.000
823.57	-32.000
823.88	-7.407
824.18	21.429
824.48	2.941
824.78	-9.677
825.08	8.696
825.38	30.303
825.69	-20.833
825.99	10.526
826.29	2.778
826.59	-46.667
826.89	38.095
827.19	23.913
827.49	32.500
827.79	17.143
828.09	7.143
828.39	18.182
828.70	21.622
829.00	17.857
829.30	9.524
829.60	23.333
829.90	28.125
830.20	13.158
830.50	18.519
830.80	30.435
831.10	27.273
831.40	30.303
831.70	16.129
832.00	14.286
832.30	-9.524
832.60	-83.333
832.90	6.897
833.20	5.000
833.50	15.152
833.80	22.222
834.10	30.769
834.40	40.625
834.70	33.333
835.00	-10.526
835.30	19.231
835.60	33.333
835.90	19.355
836.20	4.545
836.50	17.857
836.80	-26.923
837.10	3.571
837.40	-33.333
837.70	36.364
838.00	-9.091
838.30	-4.348
838.60	-15.385
838.90	31.818
839.19	32.143
839.49	3.333
839.79	-7.692
840.09	-125.000
840.39	17.857
840.69	-21.429
840.99	-30.769
841.29	-52.632
841.59	-70.000
841.88	-45.455
842.18	-60.000
842.48	6.250
842.78	40.000
843.08	7.407
843.38	-130.000
843.68	52.174
843.97	-26.667
844.27	26.667
844.57	0.000
844.87	0.000
845.17	-57.143
845.47	0.000
845.76	-71.429
846.06	0.000
846.36	0.000
846.66	-7.143
846.96	-6.667
847.25	-150.000
847.55	42.857
847.85	-75.000
848.15	-13.636
848.44	-366.667
848.74	0.000
849.04	37.037
849.34	9.091
849.63	-116.667
849.93	-180.000
850.23	16.667
850.53	110.000
850.82	-38.462
851.12	0.000
851.42	6.667
851.71	0.000
852.01	50.000
852.31	-125.000
852.61	9.091
852.90	-35.000
853.20	10.526
853.50	-100.000
853.79	-30.435
854.09	20.833
854.39	-10.526
854.68	-4.167
854.98	-3.226
855.28	53.846
855.57	-10.000
855.87	5.556
856.17	25.926
856.46	35.714
856.76	-20.000
857.05	-22.222
857.35	-16.000
857.65	5.556
857.94	-30.769
858.24	17.241
858.53	11.111
858.83	66.667
859.13	13.636
859.42	-43.478
859.72	-75.000
860.01	-433.333
860.31	-4.000
860.60	-52.381
860.90	-100.000
861.20	-46.667
861.49	-550.000
861.79	-53.333
862.08	20.000
862.38	100.000
862.67	-360.000
862.97	-66.667
863.26	-108.333
863.56	16.667
863.85	-333.333
864.15	-33.333
864.44	-120.000
864.74	50.000
865.03	275.000
865.33	-280.000
865.62	-50.000
865.92	-50.000
866.21	-300.000
866.51	56.250
866.80	-45.455
867.10	-450.000
867.39	108.333
867.69	0.000
867.98	-38.462
868.27	-200.000
868.57	-20.000
868.86	5.556
869.16	-23.077
869.45	-13.333
869.75	-2000.000
870.04	0.000
870.33	0.000
870.63	-9.524
870.92	466.667
871.22	-220.000
871.51	-1300.000
871.80	88.889
872.10	366.667
>>>>>End Processed Spectral Data<<<<<
