SpectraSuite Data File
++++++++++++++++++++++++++++++++++++
Date: Fri May 15 20:42:33 PDT 2015
User: schluterlab
Dark Spectrum Present: Yes
Reference Spectrum Present: Yes
Number of Sampled Component Spectra: 1
Spectrometers: USB2E3373
Integration Time (usec): 3000 (USB2E3373)
Spectra Averaged: 3 (USB2E3373)
Boxcar Smoothing: 0 (USB2E3373)
Correct for Electrical Dark: No (USB2E3373)
Strobe/Lamp Enabled: No (USB2E3373)
Correct for Detector Non-linearity: No (USB2E3373)
Correct for Stray Light: No (USB2E3373)
Number of Pixels in Processed Spectrum: 2048
>>>>>Begin Processed Spectral Data<<<<<
178.53	0.000
178.91	0.000
179.29	75.000
179.67	-650.000
180.04	-28.571
180.42	-200.000
180.80	-500.000
181.18	-166.667
181.56	500.000
181.94	-100.000
182.31	-0.000
182.69	40.000
183.07	33.333
183.45	-120.000
183.83	266.667
184.20	-36.364
184.58	-22.222
184.96	50.000
185.34	66.667
185.72	0.000
186.09	38.462
186.47	-400.000
186.85	166.667
187.23	277.778
187.61	400.000
187.98	-33.333
188.36	55.556
188.74	-33.333
189.12	11.765
189.49	-44.444
189.87	0.000
190.25	42.857
190.63	-200.000
191.00	-166.667
191.38	10.526
191.76	400.000
192.14	100.000
192.51	100.000
192.89	-111.111
193.27	-42.857
193.65	283.333
194.02	136.364
194.40	-10.000
194.78	-175.000
195.15	-50.000
195.53	0.000
195.91	250.000
196.29	50.000
196.66	23.077
197.04	100.000
197.42	-66.667
197.79	-300.000
198.17	-138.462
198.55	900.000
198.92	-200.000
199.30	700.000
199.68	-40.000
200.05	-400.000
200.43	0.000
200.81	0.000
201.18	-266.667
201.56	1300.000
201.94	-100.000
202.31	-100.000
202.69	-180.000
203.07	-150.000
203.44	100.000
203.82	0.000
204.19	50.000
204.57	-100.000
204.95	62.500
205.32	-40.000
205.70	-128.571
206.08	50.000
206.45	155.556
206.83	142.857
207.20	-14.286
207.58	-100.000
207.96	100.000
208.33	-110.000
208.71	25.000
209.08	-100.000
209.46	-800.000
209.84	40.000
210.21	-1300.000
210.59	128.571
210.96	-166.667
211.34	-125.000
211.71	60.000
212.09	-42.857
212.46	-2000.000
212.84	0.000
213.22	80.000
213.59	400.000
213.97	38.462
214.34	9.091
214.72	-50.000
215.09	175.000
215.47	0.000
215.84	-18.182
216.22	-433.333
216.59	-25.000
216.97	200.000
217.34	50.000
217.72	-100.000
218.09	50.000
218.47	50.000
218.84	-1100.000
219.22	-100.000
219.59	-140.000
219.97	266.667
220.34	200.000
220.72	142.857
221.09	-50.000
221.47	150.000
221.84	-500.000
222.22	-700.000
222.59	-36.364
222.97	-16.667
223.34	-333.333
223.72	-35.714
224.09	42.857
224.46	3.571
224.84	33.333
225.21	-10.000
225.59	26.667
225.96	150.000
226.34	250.000
226.71	-57.143
227.08	183.333
227.46	-12.500
227.83	-500.000
228.21	-22.222
228.58	63.636
228.95	12.500
229.33	130.000
229.70	87.500
230.08	25.000
230.45	-185.714
230.82	71.429
231.20	-33.333
231.57	35.714
231.95	85.714
232.32	-80.000
232.69	21.429
233.07	-100.000
233.44	0.000
233.81	-30.000
234.19	33.333
234.56	-5.882
234.93	550.000
235.31	-25.000
235.68	-240.000
236.05	23.077
236.43	-40.000
236.80	47.059
237.17	56.250
237.55	40.000
237.92	-18.519
238.29	11.111
238.67	60.000
239.04	32.353
239.41	0.000
239.79	40.000
240.16	36.585
240.53	65.789
240.91	26.087
241.28	36.508
241.65	37.500
242.02	39.726
242.40	43.333
242.77	37.288
243.14	50.000
243.51	36.250
243.89	49.425
244.26	39.080
244.63	44.048
245.00	41.237
245.38	51.546
245.75	34.831
246.12	33.621
246.49	41.322
246.87	56.731
247.24	44.538
247.61	36.842
247.98	40.650
248.36	45.625
248.73	44.737
249.10	40.909
249.47	46.835
249.84	50.327
250.22	47.059
250.59	40.523
250.96	41.784
251.33	41.279
251.70	49.412
252.08	45.685
252.45	43.564
252.82	45.226
253.19	41.935
253.56	42.056
253.94	42.793
254.31	50.870
254.68	47.807
255.05	44.488
255.42	48.908
255.79	42.857
256.16	45.525
256.54	45.149
256.91	44.106
257.28	41.636
257.65	40.824
258.02	42.908
258.39	44.108
258.76	48.352
259.14	46.179
259.51	45.631
259.88	43.986
260.25	42.810
260.62	45.486
260.99	41.356
261.36	45.205
261.73	42.089
262.10	43.161
262.47	44.479
262.85	44.201
263.22	43.077
263.59	44.548
263.96	44.099
264.33	45.152
264.70	44.048
265.07	43.750
265.44	50.425
265.81	46.893
266.18	42.077
266.55	43.702
266.92	45.855
267.29	44.386
267.66	43.734
268.03	45.288
268.40	41.253
268.77	47.326
269.14	42.926
269.51	44.730
269.88	42.643
270.25	40.816
270.62	40.976
270.99	40.921
271.36	40.098
271.73	42.723
272.10	43.309
272.47	43.735
272.84	43.069
273.21	40.139
273.58	42.651
273.95	40.275
274.32	42.494
274.69	39.367
275.06	42.411
275.43	41.950
275.80	41.943
276.17	37.701
276.54	36.188
276.91	40.351
277.28	40.393
277.65	39.256
278.02	41.489
278.39	42.451
278.76	41.300
279.13	34.647
279.50	38.866
279.87	40.389
280.23	39.355
280.60	39.766
280.97	39.798
281.34	37.115
281.71	39.630
282.08	39.468
282.45	38.748
282.82	39.768
283.19	39.072
283.56	40.655
283.92	37.192
284.29	35.769
284.66	38.566
285.03	38.507
285.40	38.941
285.77	35.501
286.14	38.087
286.51	40.775
286.87	37.477
287.24	37.017
287.61	36.684
287.98	39.123
288.35	38.475
288.72	37.128
289.08	36.806
289.45	36.731
289.82	36.713
290.19	35.666
290.56	34.477
290.93	34.512
291.29	33.744
291.66	34.331
292.03	33.812
292.40	34.839
292.77	32.695
293.13	31.331
293.50	32.473
293.87	34.809
294.24	34.158
294.60	32.638
294.97	33.631
295.34	31.748
295.71	33.979
296.08	31.988
296.44	31.721
296.81	31.806
297.18	30.870
297.55	34.011
297.91	31.781
298.28	33.113
298.65	30.801
299.02	30.323
299.38	30.233
299.75	29.655
300.12	30.497
300.48	29.513
300.85	30.292
301.22	30.779
301.59	31.053
301.95	31.392
302.32	32.555
302.69	30.224
303.05	31.931
303.42	30.635
303.79	30.958
304.15	31.661
304.52	29.727
304.89	29.240
305.25	29.661
305.62	29.755
305.99	29.708
306.35	30.751
306.72	30.034
307.09	30.673
307.45	31.343
307.82	31.944
308.19	31.823
308.55	29.226
308.92	32.353
309.29	32.402
309.65	30.248
310.02	31.573
310.38	31.175
310.75	32.568
311.12	32.723
311.48	32.238
311.85	30.681
312.22	32.489
312.58	31.210
312.95	31.590
313.31	32.609
313.68	31.309
314.05	31.939
314.41	33.196
314.78	33.711
315.14	33.196
315.51	33.437
315.87	32.480
316.24	33.974
316.61	34.449
316.97	32.937
317.34	34.961
317.70	32.122
318.07	34.904
318.43	35.196
318.80	34.186
319.16	34.473
319.53	36.277
319.89	35.531
320.26	36.437
320.62	37.613
320.99	34.864
321.35	36.280
321.72	37.383
322.08	36.556
322.45	38.274
322.81	36.640
323.18	36.801
323.54	35.714
323.91	36.806
324.27	39.062
324.64	39.888
325.00	38.504
325.37	39.578
325.73	37.353
326.10	38.601
326.46	38.924
326.83	41.120
327.19	40.453
327.56	40.834
327.92	41.109
328.29	40.536
328.65	42.547
329.01	40.349
329.38	41.106
329.74	42.210
330.11	41.613
330.47	41.373
330.84	40.577
331.20	43.441
331.56	41.019
331.93	42.374
332.29	41.705
332.66	39.367
333.02	40.335
333.38	40.147
333.75	42.491
334.11	41.361
334.48	41.795
334.84	41.850
335.20	41.537
335.57	41.251
335.93	41.283
336.29	42.173
336.66	41.144
337.02	41.636
337.38	40.185
337.75	41.364
338.11	41.659
338.47	39.781
338.84	41.590
339.20	42.230
339.56	41.376
339.93	40.555
340.29	40.275
340.65	42.652
341.02	40.869
341.38	39.735
341.74	39.841
342.11	39.515
342.47	39.947
342.83	41.522
343.20	40.070
343.56	40.870
343.92	40.478
344.28	42.101
344.65	41.019
345.01	40.795
345.37	40.118
345.73	38.828
346.10	41.501
346.46	38.772
346.82	38.871
347.19	40.898
347.55	38.764
347.91	40.939
348.27	39.531
348.63	40.034
349.00	39.951
349.36	40.565
349.72	40.216
350.08	39.262
350.45	39.106
350.81	38.040
351.17	39.007
351.53	39.429
351.89	38.893
352.26	37.760
352.62	39.516
352.98	38.715
353.34	39.614
353.70	38.430
354.07	38.871
354.43	38.591
354.79	40.050
355.15	38.571
355.51	38.687
355.87	39.239
356.24	38.662
356.60	38.319
356.96	38.571
357.32	39.297
357.68	38.155
358.04	38.934
358.40	38.746
358.77	38.915
359.13	38.511
359.49	37.673
359.85	38.222
360.21	38.915
360.57	38.409
360.93	38.200
361.29	38.520
361.66	38.558
362.02	39.242
362.38	38.690
362.74	38.456
363.10	38.901
363.46	38.621
363.82	38.542
364.18	38.524
364.54	38.309
364.90	38.925
365.26	38.501
365.62	39.124
365.98	39.516
366.35	38.165
366.71	38.729
367.07	38.824
367.43	38.174
367.79	38.304
368.15	38.191
368.51	39.257
368.87	39.196
369.23	37.762
369.59	39.213
369.95	39.736
370.31	39.668
370.67	39.478
371.03	38.237
371.39	38.366
371.75	40.000
372.11	38.302
372.47	38.240
372.83	39.603
373.19	39.230
373.55	38.989
373.91	38.805
374.27	40.539
374.63	39.914
374.99	39.362
375.35	38.440
375.71	38.881
376.07	40.379
376.42	39.864
376.78	39.799
377.14	38.998
377.50	39.774
377.86	40.495
378.22	38.992
378.58	39.359
378.94	40.139
379.30	40.175
379.66	40.251
380.02	39.424
380.38	38.405
380.74	39.856
381.09	40.000
381.45	40.489
381.81	41.271
382.17	41.307
382.53	42.536
382.89	41.117
383.25	40.572
383.61	40.305
383.97	39.873
384.32	40.838
384.68	40.310
385.04	39.583
385.40	40.386
385.76	42.075
386.12	42.173
386.48	42.146
386.83	42.169
387.19	41.697
387.55	42.660
387.91	41.320
388.27	41.087
388.62	43.298
388.98	42.541
389.34	43.036
389.70	42.697
390.06	41.787
390.42	41.192
390.77	41.857
391.13	41.110
391.49	42.044
391.85	41.391
392.20	42.436
392.56	40.750
392.92	42.983
393.28	42.630
393.64	41.381
393.99	42.821
394.35	42.568
394.71	42.784
395.07	42.049
395.42	42.987
395.78	42.801
396.14	42.812
396.50	43.691
396.85	43.271
397.21	42.794
397.57	41.630
397.92	42.600
398.28	42.931
398.64	41.988
399.00	42.664
399.35	42.438
399.71	43.136
400.07	43.591
400.42	41.677
400.78	44.029
401.14	42.831
401.49	43.061
401.85	44.059
402.21	42.711
402.57	43.375
402.92	42.974
403.28	43.797
403.63	43.127
403.99	43.431
404.35	43.785
404.70	41.607
405.06	41.833
405.42	42.138
405.77	42.650
406.13	43.655
406.49	43.517
406.84	43.154
407.20	44.431
407.55	43.271
407.91	42.848
408.27	43.658
408.62	44.677
408.98	43.808
409.34	43.742
409.69	44.315
410.05	44.089
410.40	43.210
410.76	44.692
411.11	43.812
411.47	45.036
411.83	44.444
412.18	44.273
412.54	44.195
412.89	43.227
413.25	43.742
413.60	42.112
413.96	44.356
414.31	44.146
414.67	43.746
415.03	44.474
415.38	44.517
415.74	44.430
416.09	45.526
416.45	44.159
416.80	44.481
417.16	45.856
417.51	44.570
417.87	44.263
418.22	45.725
418.58	46.421
418.93	46.019
419.29	44.430
419.64	44.524
420.00	45.340
420.35	44.537
420.71	45.504
421.06	44.690
421.42	44.171
421.77	45.665
422.12	44.495
422.48	45.317
422.83	45.186
423.19	46.106
423.54	45.444
423.90	45.112
424.25	46.613
424.61	45.900
424.96	45.412
425.31	47.256
425.67	45.892
426.02	47.291
426.38	46.963
426.73	46.852
427.09	47.848
427.44	47.294
427.79	47.083
428.15	46.723
428.50	45.912
428.85	46.314
429.21	46.689
429.56	47.871
429.92	46.482
430.27	46.266
430.62	47.308
430.98	47.028
431.33	47.739
431.68	46.782
432.04	48.351
432.39	47.062
432.74	46.663
433.10	47.989
433.45	46.774
433.80	47.998
434.16	46.593
434.51	48.172
434.86	47.096
435.22	48.009
435.57	48.534
435.92	47.784
436.28	46.631
436.63	48.431
436.98	48.320
437.34	48.155
437.69	49.553
438.04	47.920
438.39	47.892
438.75	49.787
439.10	47.765
439.45	49.848
439.81	49.174
440.16	50.534
440.51	49.134
440.86	51.299
441.22	49.095
441.57	49.172
441.92	49.843
442.27	51.164
442.63	49.732
442.98	49.856
443.33	50.306
443.68	49.602
444.03	48.833
444.39	48.647
444.74	49.777
445.09	50.390
445.44	50.370
445.79	50.593
446.15	50.330
446.50	49.639
446.85	49.841
447.20	49.479
447.55	51.283
447.91	49.859
448.26	51.793
448.61	50.489
448.96	51.865
449.31	50.809
449.66	52.091
450.02	50.770
450.37	51.097
450.72	50.286
451.07	52.722
451.42	50.811
451.77	51.718
452.12	50.000
452.47	50.998
452.83	50.942
453.18	52.309
453.53	51.707
453.88	52.338
454.23	51.444
454.58	52.708
454.93	52.771
455.28	52.063
455.63	52.821
455.98	51.834
456.34	51.980
456.69	51.207
457.04	53.182
457.39	53.159
457.74	52.297
458.09	51.442
458.44	53.013
458.79	52.269
459.14	52.574
459.49	53.493
459.84	52.961
460.19	52.184
460.54	53.484
460.89	52.614
461.24	53.168
461.59	52.732
461.94	52.013
462.29	53.076
462.64	53.555
462.99	54.164
463.34	52.503
463.69	53.411
464.04	54.116
464.39	53.002
464.74	53.190
465.09	52.527
465.44	53.433
465.79	51.644
466.14	53.250
466.49	53.594
466.84	53.183
467.19	53.880
467.54	51.916
467.89	54.959
468.24	53.771
468.59	54.603
468.94	53.778
469.29	54.689
469.64	53.930
469.99	55.571
470.34	53.720
470.68	55.630
471.03	54.494
471.38	54.351
471.73	55.252
472.08	55.224
472.43	56.644
472.78	53.941
473.13	54.694
473.48	54.853
473.83	55.479
474.17	55.246
474.52	55.648
474.87	55.697
475.22	55.705
475.57	55.336
475.92	55.513
476.27	55.297
476.61	55.150
476.96	55.326
477.31	54.732
477.66	56.180
478.01	55.081
478.36	55.065
478.70	55.682
479.05	56.099
479.40	56.333
479.75	55.214
480.10	54.429
480.45	54.900
480.79	56.143
481.14	56.455
481.49	55.320
481.84	56.612
482.19	54.864
482.53	55.252
482.88	55.274
483.23	55.326
483.58	55.189
483.92	56.389
484.27	55.515
484.62	55.132
484.97	54.395
485.31	53.215
485.66	52.364
486.01	51.463
486.36	51.260
486.70	52.649
487.05	52.669
487.40	53.490
487.75	54.366
488.09	54.944
488.44	54.092
488.79	55.435
489.13	56.571
489.48	56.221
489.83	56.413
490.17	57.034
490.52	56.905
490.87	56.409
491.22	58.118
491.56	57.590
491.91	56.836
492.26	58.629
492.60	57.198
492.95	58.485
493.30	57.157
493.64	58.743
493.99	57.391
494.34	57.864
494.68	59.429
495.03	57.421
495.37	57.900
495.72	58.657
496.07	58.341
496.41	57.264
496.76	57.623
497.11	58.081
497.45	58.091
497.80	58.930
498.14	57.476
498.49	57.186
498.84	57.784
499.18	58.283
499.53	58.978
499.87	58.220
500.22	58.457
500.56	59.506
500.91	58.333
501.26	58.033
501.60	58.337
501.95	58.709
502.29	58.983
502.64	58.929
502.98	59.793
503.33	57.541
503.67	57.398
504.02	59.384
504.36	59.327
504.71	59.444
505.06	57.725
505.40	59.848
505.75	60.619
506.09	59.757
506.44	61.140
506.78	59.847
507.13	60.600
507.47	59.269
507.82	59.936
508.16	59.852
508.51	60.651
508.85	60.335
509.19	59.713
509.54	61.019
509.88	59.817
510.23	60.893
510.57	60.983
510.92	60.128
511.26	60.938
511.61	62.046
511.95	60.932
512.30	61.863
512.64	61.603
512.98	60.809
513.33	61.276
513.67	62.081
514.02	63.444
514.36	62.800
514.70	62.471
515.05	63.396
515.39	63.223
515.74	64.132
516.08	64.136
516.42	62.132
516.77	63.136
517.11	64.807
517.46	64.512
517.80	63.409
518.14	64.238
518.49	64.423
518.83	64.338
519.17	61.249
519.52	63.410
519.86	63.625
520.20	64.763
520.55	63.665
520.89	64.680
521.23	64.218
521.58	64.984
521.92	66.603
522.26	66.298
522.61	65.779
522.95	67.483
523.29	65.184
523.64	65.693
523.98	66.494
524.32	64.820
524.66	65.365
525.01	67.143
525.35	65.457
525.69	65.993
526.04	66.270
526.38	66.667
526.72	65.010
527.06	64.916
527.41	66.095
527.75	65.349
528.09	65.648
528.43	67.589
528.78	66.733
529.12	66.903
529.46	65.887
529.80	64.788
530.15	66.007
530.49	65.724
530.83	66.347
531.17	65.682
531.51	66.416
531.86	65.670
532.20	65.971
532.54	66.576
532.88	66.804
533.22	66.465
533.57	66.186
533.91	66.123
534.25	67.057
534.59	65.427
534.93	63.940
535.27	64.530
535.62	63.577
535.96	65.101
536.30	65.765
536.64	68.022
536.98	66.341
537.32	66.572
537.66	67.672
538.01	67.413
538.35	66.297
538.69	65.180
539.03	65.277
539.37	67.026
539.71	67.280
540.05	66.327
540.39	66.205
540.73	66.667
541.07	66.989
541.42	66.263
541.76	67.584
542.10	66.139
542.44	66.644
542.78	65.175
543.12	65.247
543.46	65.855
543.80	67.037
544.14	64.553
544.48	65.356
544.82	65.687
545.16	65.710
545.50	64.085
545.84	67.280
546.18	67.589
546.52	67.051
546.86	66.786
547.20	66.810
547.54	65.795
547.88	66.304
548.22	65.155
548.56	63.391
548.90	65.499
549.24	64.601
549.58	65.797
549.92	65.761
550.26	66.374
550.60	67.435
550.94	67.886
551.28	67.465
551.62	68.692
551.96	66.842
552.30	66.228
552.64	64.175
552.98	67.159
553.32	65.692
553.66	65.602
554.00	67.007
554.34	66.691
554.68	66.077
555.02	65.625
555.36	67.539
555.69	65.275
556.03	65.096
556.37	66.335
556.71	65.271
557.05	66.443
557.39	66.097
557.73	66.492
558.07	67.345
558.41	66.692
558.75	67.966
559.08	66.903
559.42	69.127
559.76	69.175
560.10	67.737
560.44	66.865
560.78	66.084
561.12	67.701
561.45	66.550
561.79	65.896
562.13	65.366
562.47	66.906
562.81	66.931
563.15	64.739
563.48	66.124
563.82	66.163
564.16	66.783
564.50	64.865
564.84	65.261
565.17	64.923
565.51	66.598
565.85	65.775
566.19	65.186
566.52	66.756
566.86	65.810
567.20	63.325
567.54	65.511
567.88	63.738
568.21	63.462
568.55	63.804
568.89	62.731
569.23	61.579
569.56	60.552
569.90	60.780
570.24	57.797
570.57	58.836
570.91	58.557
571.25	57.613
571.59	56.618
571.92	56.622
572.26	57.518
572.60	56.589
572.93	57.358
573.27	57.524
573.61	56.772
573.95	56.308
574.28	55.614
574.62	55.378
574.96	55.448
575.29	54.897
575.63	54.133
575.97	55.245
576.30	55.890
576.64	54.490
576.98	55.779
577.31	55.788
577.65	55.711
577.98	54.734
578.32	54.432
578.66	53.643
578.99	54.843
579.33	54.509
579.67	54.328
580.00	55.089
580.34	54.552
580.67	53.709
581.01	55.163
581.35	53.941
581.68	53.493
582.02	52.835
582.35	53.556
582.69	54.090
583.02	54.006
583.36	55.098
583.70	55.504
584.03	55.685
584.37	56.324
584.70	55.385
585.04	54.041
585.37	53.931
585.71	54.332
586.04	55.068
586.38	54.388
586.72	54.778
587.05	56.470
587.39	55.270
587.72	55.495
588.06	55.300
588.39	55.283
588.73	56.166
589.06	56.491
589.40	55.859
589.73	56.517
590.07	57.364
590.40	58.437
590.73	59.390
591.07	57.506
591.40	58.459
591.74	58.959
592.07	59.555
592.41	58.966
592.74	56.392
593.08	55.187
593.41	55.914
593.75	56.068
594.08	55.784
594.41	55.822
594.75	56.832
595.08	55.581
595.42	56.938
595.75	58.468
596.09	57.467
596.42	58.330
596.75	57.815
597.09	58.087
597.42	57.859
597.75	58.039
598.09	57.130
598.42	56.679
598.76	57.229
599.09	55.449
599.42	55.286
599.76	56.170
600.09	54.864
600.42	55.648
600.76	54.421
601.09	56.679
601.42	55.307
601.76	56.213
602.09	55.652
602.42	57.119
602.76	57.767
603.09	56.894
603.42	57.065
603.76	56.774
604.09	56.136
604.42	56.557
604.76	57.721
605.09	57.313
605.42	57.336
605.75	56.918
606.09	56.178
606.42	55.338
606.75	57.056
607.09	56.440
607.42	54.984
607.75	55.506
608.08	56.065
608.42	55.596
608.75	57.446
609.08	57.947
609.41	58.020
609.75	56.956
610.08	57.813
610.41	56.039
610.74	56.899
611.07	57.623
611.41	57.654
611.74	59.009
612.07	58.512
612.40	57.823
612.73	59.492
613.07	58.099
613.40	57.823
613.73	58.310
614.06	58.375
614.39	58.827
614.72	57.591
615.06	58.156
615.39	56.441
615.72	57.320
616.05	57.765
616.38	56.410
616.71	59.266
617.05	58.863
617.38	58.957
617.71	60.063
618.04	60.444
618.37	61.349
618.70	60.792
619.03	60.972
619.36	60.781
619.69	62.244
620.03	61.578
620.36	61.016
620.69	60.528
621.02	61.162
621.35	62.822
621.68	63.350
622.01	63.417
622.34	61.293
622.67	61.041
623.00	61.485
623.33	61.433
623.66	60.658
623.99	59.758
624.32	61.445
624.65	60.977
624.99	61.926
625.32	60.652
625.65	61.744
625.98	63.255
626.31	62.594
626.64	64.645
626.97	64.136
627.30	62.960
627.63	62.565
627.96	63.971
628.29	65.402
628.62	65.093
628.95	65.030
629.28	65.323
629.61	65.304
629.94	65.982
630.26	65.711
630.59	66.285
630.92	66.051
631.25	65.333
631.58	67.841
631.91	66.886
632.24	65.482
632.57	67.955
632.90	67.260
633.23	67.412
633.56	69.773
633.89	69.914
634.22	67.901
634.55	69.123
634.88	69.349
635.20	69.103
635.53	70.400
635.86	67.750
636.19	69.599
636.52	69.133
636.85	65.509
637.18	67.044
637.51	66.541
637.83	68.594
638.16	70.805
638.49	65.395
638.82	69.342
639.15	66.757
639.48	69.464
639.81	68.480
640.13	70.130
640.46	69.388
640.79	69.661
641.12	68.538
641.45	69.219
641.77	69.185
642.10	72.828
642.43	72.669
642.76	70.132
643.09	71.244
643.41	71.197
643.74	70.181
644.07	71.100
644.40	70.101
644.73	73.030
645.05	70.302
645.38	72.487
645.71	69.504
646.04	73.429
646.36	73.759
646.69	71.403
647.02	76.749
647.35	73.507
647.67	69.470
648.00	73.694
648.33	70.307
648.66	70.508
648.98	69.514
649.31	70.083
649.64	66.405
649.96	68.395
650.29	69.165
650.62	69.744
650.94	73.148
651.27	71.322
651.60	70.631
651.92	70.455
652.25	66.252
652.58	67.667
652.90	69.125
653.23	68.235
653.56	67.513
653.88	65.979
654.21	65.324
654.54	65.195
654.86	67.402
655.19	62.427
655.52	58.127
655.84	46.051
656.17	48.957
656.49	66.337
656.82	69.404
657.15	53.941
657.47	40.951
657.80	31.101
658.13	30.798
658.45	48.697
658.78	49.141
659.10	48.429
659.43	50.127
659.75	52.393
660.08	53.517
660.41	58.223
660.73	62.569
661.06	66.724
661.38	66.536
661.71	65.298
662.03	72.747
662.36	69.231
662.68	69.248
663.01	73.799
663.33	74.014
663.66	70.233
663.98	72.093
664.31	65.458
664.63	70.507
664.96	68.043
665.28	71.302
665.61	69.913
665.93	72.826
666.26	70.065
666.58	68.904
666.91	69.647
667.23	72.406
667.56	69.905
667.88	75.540
668.21	71.122
668.53	70.686
668.86	69.811
669.18	67.453
669.50	71.671
669.83	68.605
670.15	70.396
670.48	70.335
670.80	68.664
671.13	65.772
671.45	65.525
671.77	69.528
672.10	63.762
672.42	61.049
672.75	60.746
673.07	64.043
673.39	63.486
673.72	62.130
674.04	65.208
674.37	65.890
674.69	63.812
675.01	65.333
675.34	66.216
675.66	66.204
675.98	66.297
676.31	66.514
676.63	62.945
676.95	65.455
677.28	69.647
677.60	69.157
677.92	65.138
678.25	63.020
678.57	63.420
678.89	64.076
679.22	68.233
679.54	60.241
679.86	61.829
680.18	61.748
680.51	60.606
680.83	61.829
681.15	63.400
681.48	65.984
681.80	66.322
682.12	61.895
682.44	62.343
682.77	64.901
683.09	59.497
683.41	64.318
683.73	63.825
684.06	61.283
684.38	59.355
684.70	63.399
685.02	60.788
685.34	58.696
685.67	60.788
685.99	58.770
686.31	57.345
686.63	59.369
686.96	57.795
687.28	56.364
687.60	56.844
687.92	61.818
688.24	58.468
688.56	62.445
688.89	63.393
689.21	62.889
689.53	62.877
689.85	58.605
690.17	60.714
690.49	60.284
690.82	62.379
691.14	58.571
691.46	61.916
691.78	61.937
692.10	60.215
692.42	57.792
692.74	59.188
693.06	57.432
693.39	56.787
693.71	58.371
694.03	58.430
694.35	58.178
694.67	61.111
694.99	59.791
695.31	60.574
695.63	60.500
695.95	56.061
696.27	60.881
696.59	61.944
696.91	61.625
697.23	57.069
697.56	59.901
697.88	58.925
698.20	59.681
698.52	59.529
698.84	55.742
699.16	57.250
699.48	60.401
699.80	55.831
700.12	59.299
700.44	59.384
700.76	58.140
701.08	60.303
701.40	59.940
701.72	67.593
702.04	62.046
702.36	69.565
702.68	55.556
703.00	59.394
703.32	60.117
703.64	57.062
703.96	58.261
704.28	56.135
704.60	61.270
704.91	58.675
705.23	60.133
705.55	67.491
705.87	61.011
706.19	63.333
706.51	63.574
706.83	61.415
707.15	57.632
707.47	57.423
707.79	53.385
708.11	55.000
708.43	55.750
708.74	54.005
709.06	57.465
709.38	59.021
709.70	59.172
710.02	55.732
710.34	56.656
710.66	56.410
710.98	56.954
711.29	56.721
711.61	58.644
711.93	55.375
712.25	59.107
712.57	63.370
712.89	58.582
713.20	56.401
713.52	55.749
713.84	57.338
714.16	58.419
714.48	57.097
714.80	59.615
715.11	56.839
715.43	52.665
715.75	52.000
716.07	51.163
716.39	58.054
716.70	59.041
717.02	54.580
717.34	57.895
717.66	62.832
717.97	66.957
718.29	55.649
718.61	58.661
718.93	54.264
719.24	56.274
719.56	53.815
719.88	55.670
720.20	54.167
720.51	52.490
720.83	55.598
721.15	60.924
721.46	57.661
721.78	54.941
722.10	50.558
722.42	56.432
722.73	52.245
723.05	57.551
723.37	64.407
723.68	62.162
724.00	57.692
724.32	54.667
724.63	57.727
724.95	58.515
725.27	61.290
725.58	58.898
725.90	54.762
726.22	51.351
726.53	52.881
726.85	53.933
727.16	51.698
727.48	47.368
727.80	52.227
728.11	50.847
728.43	50.196
728.74	48.790
729.06	50.400
729.38	58.647
729.69	51.793
730.01	48.462
730.32	54.104
730.64	53.710
730.96	55.094
731.27	49.000
731.59	47.797
731.90	49.045
732.22	47.950
732.53	51.163
732.85	49.291
733.16	54.209
733.48	46.763
733.80	49.275
734.11	49.153
734.43	45.017
734.74	45.758
735.06	49.511
735.37	46.828
735.69	50.168
736.00	48.084
736.32	47.987
736.63	48.239
736.95	50.171
737.26	49.110
737.58	44.295
737.89	47.619
738.21	54.887
738.52	52.263
738.83	49.782
739.15	53.275
739.46	48.031
739.78	45.055
740.09	45.425
740.41	46.377
740.72	45.276
741.04	48.988
741.35	51.064
741.66	48.815
741.98	53.061
742.29	47.525
742.61	53.403
742.92	44.550
743.23	45.833
743.55	55.204
743.86	52.153
744.18	48.325
744.49	52.660
744.80	53.261
745.12	56.684
745.43	50.732
745.74	65.104
746.06	46.341
746.37	49.215
746.68	53.081
747.00	49.468
747.31	48.259
747.62	52.427
747.94	47.368
748.25	47.525
748.56	49.727
748.88	44.503
749.19	58.511
749.50	50.246
749.82	45.283
750.13	46.789
750.44	45.865
750.75	47.015
751.07	47.445
751.38	47.893
751.69	42.353
752.01	53.101
752.32	49.004
752.63	46.245
752.94	49.138
753.26	52.720
753.57	48.416
753.88	48.673
754.19	42.917
754.51	42.975
754.82	42.915
755.13	49.583
755.44	51.613
755.75	48.437
756.07	44.747
756.38	46.415
756.69	42.529
757.00	38.333
757.31	43.137
757.63	38.415
757.94	38.333
758.25	38.082
758.56	40.957
758.87	36.544
759.18	42.056
759.50	44.727
759.81	45.151
760.12	42.258
760.43	40.000
760.74	41.667
761.05	40.000
761.36	38.920
761.67	44.242
761.99	42.857
762.30	41.818
762.61	43.083
762.92	41.176
763.23	45.495
763.54	44.860
763.85	42.797
764.16	41.079
764.47	44.355
764.78	38.095
765.10	43.434
765.41	41.325
765.72	43.175
766.03	38.722
766.34	39.781
766.65	40.239
766.96	44.949
767.27	54.255
767.58	43.103
767.89	37.589
768.20	46.591
768.51	43.407
768.82	39.901
769.13	42.396
769.44	41.202
769.75	40.639
770.06	39.655
770.37	46.635
770.68	43.655
770.99	33.484
771.30	43.627
771.61	41.629
771.92	39.655
772.23	41.379
772.54	42.473
772.85	47.531
773.16	43.258
773.47	57.516
773.78	43.137
774.09	41.916
774.39	46.667
774.70	45.223
775.01	43.448
775.32	46.429
775.63	44.628
775.94	47.328
776.25	47.244
776.56	46.667
776.87	45.192
777.18	42.735
777.48	46.552
777.79	38.261
778.10	50.476
778.41	47.748
778.72	44.444
779.03	40.602
779.34	48.227
779.65	45.205
779.95	45.890
780.26	42.759
780.57	43.089
780.88	41.732
781.19	50.000
781.50	42.636
781.80	36.686
782.11	30.189
782.42	34.615
782.73	38.129
783.04	45.185
783.34	35.417
783.65	25.641
783.96	37.705
784.27	44.828
784.57	42.276
784.88	38.281
785.19	51.000
785.50	55.000
785.81	39.655
786.11	38.793
786.42	45.631
786.73	51.818
787.04	50.000
787.34	38.393
787.65	44.762
787.96	42.478
788.26	34.545
788.57	38.462
788.88	42.969
789.19	36.508
789.49	38.261
789.80	40.816
790.11	33.333
790.41	40.909
790.72	39.130
791.03	34.091
791.33	48.750
791.64	45.000
791.95	30.233
792.25	38.298
792.56	56.180
792.87	43.836
793.17	46.377
793.48	42.667
793.79	27.500
794.09	53.750
794.40	31.132
794.70	34.951
795.01	36.585
795.32	36.752
795.62	41.905
795.93	37.255
796.23	32.075
796.54	42.708
796.85	50.000
797.15	46.479
797.46	44.444
797.76	43.939
798.07	31.395
798.37	28.947
798.68	27.273
798.99	30.864
799.29	54.286
799.60	46.377
799.90	50.667
800.21	31.148
800.51	38.462
800.82	23.729
801.12	44.928
801.43	42.623
801.73	42.857
802.04	36.000
802.34	49.254
802.65	32.692
802.95	25.000
803.26	23.077
803.56	56.863
803.87	32.609
804.17	36.000
804.48	47.619
804.78	5.556
805.09	50.000
805.39	42.222
805.70	48.148
806.00	28.070
806.30	33.803
806.61	57.143
806.91	16.667
807.22	36.842
807.52	46.667
807.83	58.182
808.13	41.667
808.43	32.353
808.74	26.866
809.04	33.898
809.35	30.769
809.65	29.688
809.95	24.324
810.26	36.364
810.56	27.397
810.86	59.524
811.17	34.000
811.47	55.102
811.77	42.105
812.08	43.182
812.38	28.302
812.69	52.500
812.99	42.424
813.29	63.158
813.59	14.286
813.90	25.000
814.20	43.590
814.50	30.769
814.81	35.849
815.11	34.043
815.41	44.068
815.72	52.381
816.02	41.176
816.32	39.583
816.62	43.902
816.93	2.703
817.23	45.714
817.53	41.667
817.84	10.870
818.14	34.615
818.44	23.684
818.74	36.957
819.04	12.500
819.35	29.730
819.65	0.000
819.95	22.222
820.25	26.190
820.56	35.000
820.86	20.690
821.16	35.000
821.46	53.191
821.76	47.500
822.07	30.233
822.37	2.703
822.67	9.375
822.97	57.143
823.27	10.714
823.57	52.000
823.88	-14.815
824.18	17.857
824.48	41.176
824.78	41.935
825.08	52.174
825.38	39.394
825.69	4.167
825.99	28.947
826.29	13.889
826.59	73.333
826.89	-9.524
827.19	32.609
827.49	32.500
827.79	25.714
828.09	46.429
828.39	75.758
828.70	45.946
829.00	-3.571
829.30	-19.048
829.60	23.333
829.90	34.375
830.20	18.421
830.50	33.333
830.80	26.087
831.10	22.727
831.40	63.636
831.70	41.935
832.00	33.333
832.30	-47.619
832.60	25.000
832.90	10.345
833.20	65.000
833.50	27.273
833.80	33.333
834.10	46.154
834.40	28.125
834.70	88.889
835.00	0.000
835.30	73.077
835.60	53.333
835.90	54.839
836.20	31.818
836.50	17.857
836.80	3.846
837.10	21.429
837.40	66.667
837.70	18.182
838.00	45.455
838.30	73.913
838.60	7.692
838.90	77.273
839.19	21.429
839.49	60.000
839.79	100.000
840.09	-83.333
840.39	28.571
840.69	28.571
840.99	30.769
841.29	-15.789
841.59	-60.000
841.88	-36.364
842.18	70.000
842.48	25.000
842.78	13.333
843.08	66.667
843.38	-10.000
843.68	43.478
843.97	40.000
844.27	-13.333
844.57	60.000
844.87	44.444
845.17	-9.524
845.47	33.333
845.76	-23.810
846.06	35.294
846.36	100.000
846.66	14.286
846.96	33.333
847.25	-175.000
847.55	85.714
847.85	187.500
848.15	31.818
848.44	-266.667
848.74	25.000
849.04	37.037
849.34	54.545
849.63	-16.667
849.93	-60.000
850.23	27.778
850.53	110.000
850.82	38.462
851.12	0.000
851.42	46.667
851.71	-15.385
852.01	42.857
852.31	-175.000
852.61	0.000
852.90	5.000
853.20	10.526
853.50	-50.000
853.79	-34.783
854.09	70.833
854.39	15.789
854.68	16.667
854.98	35.484
855.28	50.000
855.57	40.000
855.87	-16.667
856.17	14.815
856.46	-35.714
856.76	53.333
857.05	55.556
857.35	32.000
857.65	33.333
857.94	69.231
858.24	44.828
858.53	22.222
858.83	11.111
859.13	13.636
859.42	8.696
859.72	100.000
860.01	-133.333
860.31	20.000
860.60	-4.762
860.90	-433.333
861.20	-53.333
861.49	-200.000
861.79	-46.667
862.08	5.000
862.38	93.333
862.67	-120.000
862.97	-83.333
863.26	-16.667
863.56	27.778
863.85	-366.667
864.15	-5.556
864.44	-20.000
864.74	7.143
865.03	225.000
865.33	120.000
865.62	250.000
865.92	25.000
866.21	-200.000
866.51	56.250
866.80	-27.273
867.10	-600.000
867.39	108.333
867.69	0.000
867.98	30.769
868.27	-33.333
868.57	-6.667
868.86	16.667
869.16	-130.769
869.45	66.667
869.75	-900.000
870.04	0.000
870.33	28.571
870.63	42.857
870.92	566.667
871.22	-200.000
871.51	300.000
871.80	44.444
872.10	600.000
>>>>>End Processed Spectral Data<<<<<
