SpectraSuite Data File
++++++++++++++++++++++++++++++++++++
Date: Fri May 15 20:57:11 PDT 2015
User: schluterlab
Dark Spectrum Present: Yes
Reference Spectrum Present: Yes
Number of Sampled Component Spectra: 1
Spectrometers: USB2E3373
Integration Time (usec): 3000 (USB2E3373)
Spectra Averaged: 3 (USB2E3373)
Boxcar Smoothing: 0 (USB2E3373)
Correct for Electrical Dark: No (USB2E3373)
Strobe/Lamp Enabled: No (USB2E3373)
Correct for Detector Non-linearity: No (USB2E3373)
Correct for Stray Light: No (USB2E3373)
Number of Pixels in Processed Spectrum: 2048
>>>>>Begin Processed Spectral Data<<<<<
178.53	0.000
178.91	0.000
179.29	37.500
179.67	-250.000
180.04	28.571
180.42	100.000
180.80	-200.000
181.18	-0.000
181.56	300.000
181.94	-400.000
182.31	-0.000
182.69	40.000
183.07	-233.333
183.45	-260.000
183.83	-66.667
184.20	27.273
184.58	122.222
184.96	125.000
185.34	-66.667
185.72	-450.000
186.09	-0.000
186.47	-800.000
186.85	133.333
187.23	177.778
187.61	800.000
187.98	-233.333
188.36	144.444
188.74	-133.333
189.12	-5.882
189.49	27.778
189.87	0.000
190.25	42.857
190.63	150.000
191.00	-233.333
191.38	21.053
191.76	0.000
192.14	150.000
192.51	-350.000
192.89	-100.000
193.27	-71.429
193.65	183.333
194.02	118.182
194.40	40.000
194.78	-100.000
195.15	-25.000
195.53	-112.500
195.91	350.000
196.29	-200.000
196.66	107.692
197.04	128.571
197.42	-77.778
197.79	-466.667
198.17	-38.462
198.55	2200.000
198.92	-300.000
199.30	-700.000
199.68	-40.000
200.05	-400.000
200.43	0.000
200.81	-400.000
201.18	-166.667
201.56	2200.000
201.94	-450.000
202.31	-100.000
202.69	-200.000
203.07	300.000
203.44	-900.000
203.82	0.000
204.19	14.286
204.57	-166.667
204.95	125.000
205.32	30.000
205.70	-142.857
206.08	-200.000
206.45	55.556
206.83	57.143
207.20	-28.571
207.58	200.000
207.96	-66.667
208.33	-140.000
208.71	25.000
209.08	-216.667
209.46	-1200.000
209.84	-120.000
210.21	-400.000
210.59	0.000
210.96	33.333
211.34	-250.000
211.71	-20.000
212.09	-28.571
212.46	-1300.000
212.84	0.000
213.22	10.000
213.59	450.000
213.97	-15.385
214.34	27.273
214.72	33.333
215.09	450.000
215.47	-53.846
215.84	-54.545
216.22	-466.667
216.59	-50.000
216.97	-350.000
217.34	0.000
217.72	-220.000
218.09	75.000
218.47	125.000
218.84	-900.000
219.22	-144.444
219.59	-80.000
219.97	100.000
220.34	75.000
220.72	-42.857
221.09	-475.000
221.47	250.000
221.84	-1100.000
222.22	-500.000
222.59	0.000
222.97	100.000
223.34	-100.000
223.72	-64.286
224.09	38.095
224.46	14.286
224.84	533.333
225.21	30.000
225.59	6.667
225.96	-150.000
226.34	475.000
226.71	-28.571
227.08	-16.667
227.46	37.500
227.83	-500.000
228.21	77.778
228.58	-18.182
228.95	25.000
229.33	120.000
229.70	25.000
230.08	-162.500
230.45	-42.857
230.82	0.000
231.20	-86.667
231.57	-14.286
231.95	42.857
232.32	-70.000
232.69	57.143
233.07	-166.667
233.44	-280.000
233.81	-60.000
234.19	-88.889
234.56	-70.588
234.93	450.000
235.31	-300.000
235.68	-420.000
236.05	-30.769
236.43	-45.000
236.80	-17.647
237.17	21.875
237.55	0.000
237.92	40.741
238.29	-5.556
238.67	23.333
239.04	20.588
239.41	-29.268
239.79	-13.333
240.16	2.439
240.53	-10.526
240.91	-4.348
241.28	15.873
241.65	3.571
242.02	17.808
242.40	10.000
242.77	8.475
243.14	13.636
243.51	17.500
243.89	25.287
244.26	4.598
244.63	16.667
245.00	7.216
245.38	18.557
245.75	2.247
246.12	13.793
246.49	17.355
246.87	12.500
247.24	-2.521
247.61	10.526
247.98	4.065
248.36	8.750
248.73	17.105
249.10	15.584
249.47	12.658
249.84	10.458
250.22	15.882
250.59	9.150
250.96	14.554
251.33	6.977
251.70	15.882
252.08	15.736
252.45	14.851
252.82	15.075
253.19	15.207
253.56	9.346
253.94	13.514
254.31	17.826
254.68	16.667
255.05	16.142
255.42	14.847
255.79	12.355
256.16	15.564
256.54	17.910
256.91	12.928
257.28	15.985
257.65	15.356
258.02	12.057
258.39	17.845
258.76	14.286
259.14	15.282
259.51	14.239
259.88	10.997
260.25	15.686
260.62	18.750
260.99	12.203
261.36	10.274
261.73	10.759
262.10	14.590
262.47	15.031
262.85	9.718
263.22	15.077
263.59	14.642
263.96	15.217
264.33	15.455
264.70	12.798
265.07	12.202
265.44	15.864
265.81	15.819
266.18	16.393
266.55	16.452
266.92	13.212
267.29	14.360
267.66	15.601
268.03	14.660
268.40	13.055
268.77	16.845
269.14	12.950
269.51	16.452
269.88	12.718
270.25	16.071
270.62	12.439
270.99	12.532
271.36	13.203
271.73	14.319
272.10	15.085
272.47	13.948
272.84	12.871
273.21	16.009
273.58	13.735
273.95	15.561
274.32	14.088
274.69	13.122
275.06	14.509
275.43	12.925
275.80	13.687
276.17	13.103
276.54	15.203
276.91	14.693
277.28	17.031
277.65	16.529
278.02	14.468
278.39	14.442
278.76	13.208
279.13	12.241
279.50	14.076
279.87	15.767
280.23	13.548
280.60	14.815
280.97	14.949
281.34	14.423
281.71	17.248
282.08	12.883
282.45	13.503
282.82	14.865
283.19	12.766
283.56	14.066
283.92	13.283
284.29	14.038
284.66	12.984
285.03	14.342
285.40	13.043
285.77	11.424
286.14	14.260
286.51	15.129
286.87	12.614
287.24	12.155
287.61	11.993
287.98	15.263
288.35	11.438
288.72	13.135
289.08	12.500
289.45	15.290
289.82	10.839
290.19	12.457
290.56	11.664
290.93	11.279
291.29	13.867
291.66	13.386
292.03	13.078
292.40	11.613
292.77	9.888
293.13	10.390
293.50	10.319
293.87	12.977
294.24	11.437
294.60	12.519
294.97	12.500
295.34	9.509
295.71	10.581
296.08	10.762
296.44	8.819
296.81	11.111
297.18	9.855
297.55	12.737
297.91	10.685
298.28	11.346
298.65	10.855
299.02	11.186
299.38	8.482
299.75	9.379
300.12	10.340
300.48	10.013
300.85	11.914
301.22	9.870
301.59	9.737
301.95	10.886
302.32	11.284
302.69	9.453
303.05	10.025
303.42	10.336
303.79	10.631
304.15	12.186
304.52	10.345
304.89	10.175
305.25	9.443
305.62	10.035
305.99	7.953
306.35	9.942
306.72	9.336
307.09	9.122
307.45	11.940
307.82	11.343
308.19	11.963
308.55	9.487
308.92	12.200
309.29	10.615
309.65	10.334
310.02	10.891
310.38	12.184
310.75	12.787
311.12	11.410
311.48	11.453
311.85	10.785
312.22	9.810
312.58	10.510
312.95	11.633
313.31	11.077
313.68	11.832
314.05	11.837
314.41	12.577
314.78	12.165
315.14	13.052
315.51	13.665
315.87	13.012
316.24	14.762
316.61	13.287
316.97	14.385
317.34	15.137
317.70	14.627
318.07	15.673
318.43	16.569
318.80	17.235
319.16	16.602
319.53	17.949
319.89	17.028
320.26	18.320
320.62	19.157
320.99	19.102
321.35	19.013
321.72	19.834
322.08	21.047
322.45	21.726
322.81	22.986
323.18	21.590
323.54	22.973
323.91	22.980
324.27	24.902
324.64	26.124
325.00	27.464
325.37	29.109
325.73	27.199
326.10	29.519
326.46	29.327
326.83	30.971
327.19	32.171
327.56	31.103
327.92	33.451
328.29	32.857
328.65	35.094
329.01	35.110
329.38	35.668
329.74	35.694
330.11	37.535
330.47	36.456
330.84	38.077
331.20	39.449
331.56	38.333
331.93	38.995
332.29	39.780
332.66	41.629
333.02	41.822
333.38	40.330
333.75	41.300
334.11	40.734
334.48	41.342
334.84	41.300
335.20	42.726
335.57	40.526
335.93	42.457
336.29	42.173
336.66	42.325
337.02	43.680
337.38	42.593
337.75	44.636
338.11	44.635
338.47	44.617
338.84	44.917
339.20	44.241
339.56	43.486
339.93	45.121
340.29	46.147
340.65	46.147
341.02	45.301
341.38	45.575
341.74	44.170
342.11	43.328
342.47	45.641
342.83	44.550
343.20	44.861
343.56	44.783
343.92	46.413
344.28	46.200
344.65	46.805
345.01	46.759
345.37	46.341
345.73	46.276
346.10	46.506
346.46	44.912
346.82	46.072
347.19	45.636
347.55	46.366
347.91	46.278
348.27	46.079
348.63	48.041
349.00	46.596
349.36	47.132
349.72	49.088
350.08	46.230
350.45	47.007
350.81	46.844
351.17	46.580
351.53	47.510
351.89	46.821
352.26	46.320
352.62	47.661
352.98	46.827
353.34	46.860
353.70	48.867
354.07	47.177
354.43	46.677
354.79	47.316
355.15	47.857
355.51	46.994
355.87	46.521
356.24	46.574
356.60	47.211
356.96	48.175
357.32	46.885
357.68	47.772
358.04	47.658
358.40	48.714
358.77	47.448
359.13	49.480
359.49	45.917
359.85	48.284
360.21	49.123
360.57	47.360
360.93	46.369
361.29	48.187
361.66	48.354
362.02	48.636
362.38	48.058
362.74	48.524
363.10	49.962
363.46	47.591
363.82	48.911
364.18	47.675
364.54	46.029
364.90	48.244
365.26	47.962
365.62	48.248
365.98	48.827
366.35	48.725
366.71	48.633
367.07	49.057
367.43	48.382
367.79	47.138
368.15	47.882
368.51	48.216
368.87	47.882
369.23	48.664
369.59	49.052
369.95	49.927
370.31	49.277
370.67	48.731
371.03	48.768
371.39	48.286
371.75	48.352
372.11	48.146
372.47	48.817
372.83	48.829
373.19	48.146
373.55	48.159
373.91	49.100
374.27	50.319
374.63	48.528
374.99	48.298
375.35	47.563
375.71	50.420
376.07	51.194
376.42	49.252
376.78	48.523
377.14	48.747
377.50	48.938
377.86	49.465
378.22	48.054
378.58	49.808
378.94	49.086
379.30	48.035
379.66	47.837
380.02	48.620
380.38	48.631
380.74	48.534
381.09	49.080
381.45	47.890
381.81	49.044
382.17	48.541
382.53	48.157
382.89	50.157
383.25	50.653
383.61	49.634
383.97	49.460
384.32	48.030
384.68	48.607
385.04	49.020
385.40	48.724
385.76	49.434
386.12	49.418
386.48	49.745
386.83	48.320
387.19	49.084
387.55	50.000
387.91	48.227
388.27	48.840
388.62	49.717
388.98	48.742
389.34	49.032
389.70	48.477
390.06	48.206
390.42	49.547
390.77	49.248
391.13	48.991
391.49	49.030
391.85	48.928
392.20	48.085
392.56	49.714
392.92	49.031
393.28	49.175
393.64	49.189
393.99	48.589
394.35	47.565
394.71	48.148
395.07	47.517
395.42	46.570
395.78	49.186
396.14	48.991
396.50	49.715
396.85	47.650
397.21	47.180
397.57	48.150
397.92	46.495
398.28	47.471
398.64	46.747
399.00	47.348
399.35	46.558
399.71	46.984
400.07	47.582
400.42	47.552
400.78	47.581
401.14	46.763
401.49	46.158
401.85	46.618
402.21	46.988
402.57	46.875
402.92	45.671
403.28	45.927
403.63	47.100
403.99	45.599
404.35	45.971
404.70	44.464
405.06	45.182
405.42	44.438
405.77	44.858
406.13	44.994
406.49	44.819
406.84	45.049
407.20	45.093
407.55	45.332
407.91	43.917
408.27	44.232
408.62	44.800
408.98	44.547
409.34	44.610
409.69	43.540
410.05	43.473
410.40	44.938
410.76	44.632
411.11	44.750
411.47	45.233
411.83	42.938
412.18	44.015
412.54	42.509
412.89	41.810
413.25	42.539
413.60	41.739
413.96	42.025
414.31	42.744
414.67	42.014
415.03	42.011
415.38	41.188
415.74	42.280
416.09	41.999
416.45	41.458
416.80	41.837
417.16	42.472
417.51	41.772
417.87	41.265
418.22	41.645
418.58	41.605
418.93	41.129
419.29	39.821
419.64	41.348
420.00	41.436
420.35	40.836
420.71	42.224
421.06	39.902
421.42	40.805
421.77	40.867
422.12	39.784
422.48	39.524
422.83	40.487
423.19	39.842
423.54	39.683
423.90	39.340
424.25	39.208
424.61	39.596
424.96	39.082
425.31	39.341
425.67	39.847
426.02	39.517
426.38	38.948
426.73	38.923
427.09	40.063
427.44	39.529
427.79	38.480
428.15	38.228
428.50	37.371
428.85	36.179
429.21	37.691
429.56	37.520
429.92	37.853
430.27	36.892
430.62	36.644
430.98	37.527
431.33	36.225
431.68	36.944
432.04	37.228
432.39	36.110
432.74	36.741
433.10	38.046
433.45	37.276
433.80	36.680
434.16	37.008
434.51	36.613
434.86	36.237
435.22	36.287
435.57	36.245
435.92	36.048
436.28	35.838
436.63	36.110
436.98	35.921
437.34	35.027
437.69	35.599
438.04	34.302
438.39	35.064
438.75	34.669
439.10	35.031
439.45	34.693
439.81	34.801
440.16	35.333
440.51	34.866
440.86	36.193
441.22	34.050
441.57	34.713
441.92	35.205
442.27	33.592
442.63	35.011
442.98	34.003
443.33	34.446
443.68	34.005
444.03	34.228
444.39	34.727
444.74	34.727
445.09	34.688
445.44	34.302
445.79	34.812
446.15	34.857
446.50	33.611
446.85	34.060
447.20	33.420
447.55	34.096
447.91	33.277
448.26	33.808
448.61	33.794
448.96	33.333
449.31	33.757
449.66	32.520
450.02	33.200
450.37	33.195
450.72	32.761
451.07	34.367
451.42	32.272
451.77	32.309
452.12	32.356
452.47	32.196
452.83	32.391
453.18	31.499
453.53	31.858
453.88	32.423
454.23	32.514
454.58	32.620
454.93	33.119
455.28	30.730
455.63	31.556
455.98	31.990
456.34	31.481
456.69	31.893
457.04	32.325
457.39	30.863
457.74	31.378
458.09	30.253
458.44	30.720
458.79	30.308
459.14	32.094
459.49	31.403
459.84	30.400
460.19	30.886
460.54	31.296
460.89	30.966
461.24	30.807
461.59	30.938
461.94	30.818
462.29	30.881
462.64	31.561
462.99	30.738
463.34	28.929
463.69	30.309
464.04	30.024
464.39	29.412
464.74	29.448
465.09	30.568
465.44	29.313
465.79	28.855
466.14	29.133
466.49	29.097
466.84	29.923
467.19	28.723
467.54	28.799
467.89	29.817
468.24	29.562
468.59	29.968
468.94	28.254
469.29	29.443
469.64	28.571
469.99	29.222
470.34	27.986
470.68	29.530
471.03	29.866
471.38	28.531
471.73	28.501
472.08	29.308
472.43	27.651
472.78	27.416
473.13	29.388
473.48	28.274
473.83	27.646
474.17	28.238
474.52	28.015
474.87	28.061
475.22	27.578
475.57	27.103
475.92	27.921
476.27	28.056
476.61	28.935
476.96	27.328
477.31	27.204
477.66	26.798
478.01	27.681
478.36	27.015
478.70	27.841
479.05	27.637
479.40	26.709
479.75	27.320
480.10	27.343
480.45	27.850
480.79	27.694
481.14	27.971
481.49	26.404
481.84	27.317
482.19	26.473
482.53	26.427
482.88	26.587
483.23	26.488
483.58	26.509
483.92	25.750
484.27	26.071
484.62	25.818
484.97	26.410
485.31	25.759
485.66	25.443
486.01	25.083
486.36	25.088
486.70	25.640
487.05	25.419
487.40	25.155
487.75	25.155
488.09	25.309
488.44	24.381
488.79	25.215
489.13	25.160
489.48	24.968
489.83	25.605
490.17	24.719
490.52	25.450
490.87	24.618
491.22	25.979
491.56	25.332
491.91	24.857
492.26	25.766
492.60	24.664
492.95	25.381
493.30	24.670
493.64	25.147
493.99	24.734
494.34	24.272
494.68	25.143
495.03	24.282
495.37	24.289
495.72	25.391
496.07	24.927
496.41	24.717
496.76	24.275
497.11	24.034
497.45	23.962
497.80	25.328
498.14	24.540
498.49	24.530
498.84	24.451
499.18	23.946
499.53	24.653
499.87	24.173
500.22	23.937
500.56	24.710
500.91	23.946
501.26	23.431
501.60	23.856
501.95	24.503
502.29	23.438
502.64	24.035
502.98	24.026
503.33	23.583
503.67	23.855
504.02	24.242
504.36	23.850
504.71	22.929
505.06	23.704
505.40	23.909
505.75	24.691
506.09	23.974
506.44	24.179
506.78	24.286
507.13	23.785
507.47	23.760
507.82	22.115
508.16	23.402
508.51	24.029
508.85	24.123
509.19	23.363
509.54	23.861
509.88	22.762
510.23	23.938
510.57	22.929
510.92	23.188
511.26	23.568
511.61	23.102
511.95	23.945
512.30	22.894
512.64	24.263
512.98	22.684
513.33	23.279
513.67	23.081
514.02	24.714
514.36	23.029
514.70	23.660
515.05	23.384
515.39	23.554
515.74	24.431
516.08	23.132
516.42	24.323
516.77	23.113
517.11	23.323
517.46	23.279
517.80	23.719
518.14	23.515
518.49	23.137
518.83	23.694
519.17	22.923
519.52	23.564
519.86	23.349
520.20	23.451
520.55	22.889
520.89	23.714
521.23	22.799
521.58	23.344
521.92	23.462
522.26	22.381
522.61	23.377
522.95	24.305
523.29	23.253
523.64	23.698
523.98	23.850
524.32	22.358
524.66	23.367
525.01	23.312
525.35	23.850
525.69	22.357
526.04	22.817
526.38	23.865
526.72	22.629
527.06	22.892
527.41	23.285
527.75	23.525
528.09	22.259
528.43	23.498
528.78	22.508
529.12	23.097
529.46	22.417
529.80	22.546
530.15	23.630
530.49	23.434
530.83	22.777
531.17	22.095
531.51	23.051
531.86	22.638
532.20	22.547
532.54	22.328
532.88	23.682
533.22	23.051
533.57	22.215
533.91	21.084
534.25	22.917
534.59	21.937
534.93	22.215
535.27	21.256
535.62	20.868
535.96	23.027
536.30	23.021
536.64	22.261
536.98	21.533
537.32	22.973
537.66	22.651
538.01	22.028
538.35	21.012
538.69	22.503
539.03	21.531
539.37	22.342
539.71	22.086
540.05	21.996
540.39	21.884
540.73	21.269
541.07	22.099
541.42	21.304
541.76	22.712
542.10	21.266
542.44	21.821
542.78	20.647
543.12	20.536
543.46	21.488
543.80	21.582
544.14	20.895
544.48	21.319
544.82	21.941
545.16	22.609
545.50	21.963
545.84	21.813
546.18	21.702
546.52	22.278
546.86	21.352
547.20	22.175
547.54	20.141
547.88	22.147
548.22	20.447
548.56	19.855
548.90	20.755
549.24	20.179
549.58	21.086
549.92	20.157
550.26	20.293
550.60	20.372
550.94	20.090
551.28	20.402
551.62	20.769
551.96	20.902
552.30	20.249
552.64	20.099
552.98	20.534
553.32	21.184
553.66	19.811
554.00	20.292
554.34	20.384
554.68	20.723
555.02	20.759
555.36	19.521
555.69	20.513
556.03	19.914
556.37	20.641
556.71	19.928
557.05	20.433
557.39	19.554
557.73	19.715
558.07	20.513
558.41	20.444
558.75	20.577
559.08	20.016
559.42	19.921
559.76	20.416
560.10	20.566
560.44	19.509
560.78	20.000
561.12	19.535
561.45	20.379
561.79	19.538
562.13	20.156
562.47	19.424
562.81	19.885
563.15	19.605
563.48	19.943
563.82	18.874
564.16	20.822
564.50	19.527
564.84	19.813
565.17	19.852
565.51	20.082
565.85	18.930
566.19	19.297
566.52	19.973
566.86	19.409
567.20	19.116
567.54	18.005
567.88	19.508
568.21	19.400
568.55	18.696
568.89	18.840
569.23	19.307
569.56	19.133
569.90	19.570
570.24	18.794
570.57	19.491
570.91	19.170
571.25	18.415
571.59	18.094
571.92	18.163
572.26	18.659
572.60	18.357
572.93	18.230
573.27	18.370
573.61	18.138
573.95	18.105
574.28	18.194
574.62	18.052
574.96	18.275
575.29	17.592
575.63	17.647
575.97	17.430
576.30	18.218
576.64	17.722
576.98	18.172
577.31	17.768
577.65	18.165
577.98	18.238
578.32	17.977
578.66	17.645
578.99	17.969
579.33	17.487
579.67	17.462
580.00	17.570
580.34	17.736
580.67	17.334
581.01	18.036
581.35	17.786
581.68	17.811
582.02	17.636
582.35	17.549
582.69	17.667
583.02	17.646
583.36	17.625
583.70	17.523
584.03	17.681
584.37	17.589
584.70	17.912
585.04	17.306
585.37	17.420
585.71	17.452
586.04	17.373
586.38	17.125
586.72	18.049
587.05	17.880
587.39	17.836
587.72	17.824
588.06	17.963
588.39	17.345
588.73	17.949
589.06	18.265
589.40	17.974
589.73	18.474
590.07	17.938
590.40	17.647
590.73	18.081
591.07	17.727
591.40	17.988
591.74	17.692
592.07	18.553
592.41	17.889
592.74	17.125
593.08	17.045
593.41	17.364
593.75	17.828
594.08	17.405
594.41	17.613
594.75	17.824
595.08	17.329
595.42	17.446
595.75	17.799
596.09	16.888
596.42	18.313
596.75	17.718
597.09	17.677
597.42	17.886
597.75	18.094
598.09	17.746
598.42	17.238
598.76	17.246
599.09	17.628
599.42	17.090
599.76	16.968
600.09	17.421
600.42	17.475
600.76	17.348
601.09	17.481
601.42	16.843
601.76	16.554
602.09	17.492
602.42	17.523
602.76	17.615
603.09	17.899
603.42	17.726
603.76	17.097
604.09	16.687
604.42	17.766
604.76	17.623
605.09	17.550
605.42	17.833
605.75	17.732
606.09	17.197
606.42	17.348
606.75	17.403
607.09	17.495
607.42	16.792
607.75	17.362
608.08	16.532
608.42	17.314
608.75	17.687
609.08	17.539
609.41	17.310
609.75	16.784
610.08	17.773
610.41	16.957
610.74	17.260
611.07	17.209
611.41	17.852
611.74	18.177
612.07	17.077
612.40	17.177
612.73	17.175
613.07	17.267
613.40	16.740
613.73	16.844
614.06	16.861
614.39	17.484
614.72	16.863
615.06	16.816
615.39	17.959
615.72	16.954
616.05	17.877
616.38	16.296
616.71	17.125
617.05	17.912
617.38	16.593
617.71	17.736
618.04	17.206
618.37	18.285
618.70	17.162
619.03	17.569
619.36	16.643
619.69	16.452
620.03	18.408
620.36	16.810
620.69	17.844
621.02	18.272
621.35	18.340
621.68	17.772
622.01	16.833
622.34	18.356
622.67	17.350
623.00	16.692
623.33	16.845
623.66	17.352
623.99	18.003
624.32	16.806
624.65	16.617
624.99	17.532
625.32	16.224
625.65	17.518
625.98	17.889
626.31	17.124
626.64	18.024
626.97	17.888
627.30	17.250
627.63	18.024
627.96	17.071
628.29	18.409
628.62	18.879
628.95	17.435
629.28	17.036
629.61	18.544
629.94	17.302
630.26	17.984
630.59	18.314
630.92	18.051
631.25	16.410
631.58	17.731
631.91	16.886
632.24	16.514
632.57	17.841
632.90	16.133
633.23	16.471
633.56	18.010
633.89	18.372
634.22	18.519
634.55	18.297
634.88	15.581
635.20	18.205
635.53	17.200
635.86	16.775
636.19	18.241
636.52	17.474
636.85	16.005
637.18	16.730
637.51	17.358
637.83	16.426
638.16	18.417
638.49	17.302
638.82	18.553
639.15	19.674
639.48	17.194
639.81	17.573
640.13	17.749
640.46	18.805
640.79	16.348
641.12	18.759
641.45	19.670
641.77	16.444
642.10	18.325
642.43	18.650
642.76	18.977
643.09	19.225
643.41	16.828
643.74	17.463
644.07	17.734
644.40	20.946
644.73	18.039
645.05	19.631
645.38	19.048
645.71	18.262
646.04	18.312
646.36	17.908
646.69	19.245
647.02	19.471
647.35	19.030
647.67	19.013
648.00	17.724
648.33	15.700
648.66	18.983
648.98	14.908
649.31	16.198
649.64	16.641
649.96	16.856
650.29	18.399
650.62	16.923
650.94	16.111
651.27	16.760
651.60	17.477
651.92	18.531
652.25	16.696
652.58	16.500
652.90	20.412
653.23	16.639
653.56	16.074
653.88	16.838
654.21	16.287
654.54	15.110
654.86	17.827
655.19	17.690
655.52	17.570
655.84	15.612
656.17	17.287
656.49	22.809
656.82	23.697
657.15	18.054
657.47	13.559
657.80	10.089
658.13	9.928
658.45	14.919
658.78	14.840
659.10	14.787
659.43	15.262
659.75	15.590
660.08	15.103
660.41	15.832
660.73	16.575
661.06	17.851
661.38	13.894
661.71	15.811
662.03	18.884
662.36	20.879
662.68	17.035
663.01	18.559
663.33	16.241
663.66	15.814
663.98	19.070
664.31	16.844
664.63	17.742
664.96	14.783
665.28	15.453
665.61	16.667
665.93	18.913
666.26	16.920
666.58	14.318
666.91	17.647
667.23	19.811
667.56	18.246
667.88	16.787
668.21	18.138
668.53	17.494
668.86	15.094
669.18	17.925
669.50	17.676
669.83	17.209
670.15	17.249
670.48	17.464
670.80	17.742
671.13	14.094
671.45	15.297
671.77	18.026
672.10	15.842
672.42	16.292
672.75	15.631
673.07	19.141
673.39	17.615
673.72	14.201
674.04	18.125
674.37	17.585
674.69	15.418
675.01	19.778
675.34	18.243
675.66	19.213
675.98	17.295
676.31	19.495
676.63	16.390
676.95	14.773
677.28	16.000
677.60	19.277
677.92	16.055
678.25	15.755
678.57	15.152
678.89	15.126
679.22	14.765
679.54	16.265
679.86	14.513
680.18	17.476
680.51	14.583
680.83	14.911
681.15	17.200
681.48	17.623
681.80	17.562
682.12	14.516
682.44	16.527
682.77	17.219
683.09	16.934
683.41	16.818
683.73	13.594
684.06	17.257
684.38	15.484
684.70	16.558
685.02	16.390
685.34	13.043
685.67	14.071
685.99	16.094
686.31	15.929
686.63	16.512
686.96	15.209
687.28	15.758
687.60	14.829
687.92	18.384
688.24	17.137
688.56	17.249
688.89	15.625
689.21	16.889
689.53	15.545
689.85	16.744
690.17	18.750
690.49	16.076
690.82	14.563
691.14	14.762
691.46	16.822
691.78	16.216
692.10	16.344
692.42	16.450
692.74	16.667
693.06	14.865
693.39	13.575
693.71	14.480
694.03	13.395
694.35	13.084
694.67	16.667
694.99	15.666
695.31	17.232
695.63	17.750
695.95	14.646
696.27	17.098
696.59	16.667
696.91	17.087
697.23	14.910
697.56	14.851
697.88	19.785
698.20	14.579
698.52	14.588
698.84	15.311
699.16	16.500
699.48	17.794
699.80	18.114
700.12	16.442
700.44	15.686
700.76	13.663
701.08	15.758
701.40	17.169
701.72	18.827
702.04	13.201
702.36	17.726
702.68	16.817
703.00	16.667
703.32	17.009
703.64	14.124
703.96	15.072
704.28	16.258
704.60	16.825
704.91	13.880
705.23	14.950
705.55	19.788
705.87	15.162
706.19	20.741
706.51	14.089
706.83	18.328
707.15	13.396
707.47	16.527
707.79	17.448
708.11	18.250
708.43	18.750
708.74	15.504
709.06	16.901
709.38	19.266
709.70	15.680
710.02	14.968
710.34	20.124
710.66	11.859
710.98	15.232
711.29	20.000
711.61	16.949
711.93	18.567
712.25	19.931
712.57	18.315
712.89	16.418
713.20	17.301
713.52	16.376
713.84	17.406
714.16	19.244
714.48	14.839
714.80	17.628
715.11	14.894
715.43	14.734
715.75	13.333
716.07	14.618
716.39	18.121
716.70	15.129
717.02	12.595
717.34	16.599
717.66	15.044
717.97	15.652
718.29	14.226
718.61	14.961
718.93	20.155
719.24	15.209
719.56	12.851
719.88	18.900
720.20	15.152
720.51	14.559
720.83	20.077
721.15	17.227
721.46	17.742
721.78	11.858
722.10	13.755
722.42	12.033
722.73	14.286
723.05	15.918
723.37	19.915
723.68	21.171
724.00	14.103
724.32	11.556
724.63	10.909
724.95	15.721
725.27	20.276
725.58	16.949
725.90	12.698
726.22	12.741
726.53	17.966
726.85	16.105
727.16	18.491
727.48	13.360
727.80	15.789
728.11	10.169
728.43	20.392
728.74	9.677
729.06	14.800
729.38	19.549
729.69	12.749
730.01	7.308
730.32	18.657
730.64	16.608
730.96	20.755
731.27	14.000
731.59	15.254
731.90	14.013
732.22	19.243
732.53	16.279
732.85	15.957
733.16	15.152
733.48	10.791
733.80	14.855
734.11	17.627
734.43	10.653
734.74	15.455
735.06	12.052
735.37	16.012
735.69	15.152
736.00	18.815
736.32	17.785
736.63	17.958
736.95	17.406
737.26	12.456
737.58	11.074
737.89	12.088
738.21	11.278
738.52	16.461
738.83	11.790
739.15	17.031
739.46	16.929
739.78	12.821
740.09	15.359
740.41	13.768
740.72	12.205
741.04	15.385
741.35	12.766
741.66	11.374
741.98	14.796
742.29	14.851
742.61	13.089
742.92	7.583
743.23	13.426
743.55	17.647
743.86	12.919
744.18	12.919
744.49	9.574
744.80	15.761
745.12	20.856
745.43	8.293
745.74	14.583
746.06	16.098
746.37	9.424
746.68	21.801
747.00	11.170
747.31	14.428
747.62	8.738
747.94	12.919
748.25	6.436
748.56	15.301
748.88	17.277
749.19	18.617
749.50	19.704
749.82	9.906
750.13	8.257
750.44	11.278
750.75	15.672
751.07	16.058
751.38	9.195
751.69	16.863
752.01	15.891
752.32	13.546
752.63	10.672
752.94	14.655
753.26	18.828
753.57	13.122
753.88	15.929
754.19	9.167
754.51	14.463
754.82	13.360
755.13	15.417
755.44	13.710
755.75	14.844
756.07	15.953
756.38	12.830
756.69	13.027
757.00	16.333
757.31	10.784
757.63	10.976
757.94	14.722
758.25	12.603
758.56	13.564
758.87	11.615
759.18	13.707
759.50	13.818
759.81	19.398
760.12	15.161
760.43	13.030
760.74	15.741
761.05	12.000
761.36	16.477
761.67	17.576
761.99	15.306
762.30	16.727
762.61	16.996
762.92	9.955
763.23	10.811
763.54	10.280
763.85	12.712
764.16	13.278
764.47	14.516
764.78	11.722
765.10	15.488
765.41	13.880
765.72	15.556
766.03	5.263
766.34	12.774
766.65	15.538
766.96	16.667
767.27	15.426
767.58	10.920
767.89	11.348
768.20	18.182
768.51	12.088
768.82	18.227
769.13	8.756
769.44	13.305
769.75	8.676
770.06	12.500
770.37	12.500
770.68	13.706
770.99	10.407
771.30	14.706
771.61	17.195
771.92	15.086
772.23	13.793
772.54	14.516
772.85	15.432
773.16	17.416
773.47	30.065
773.78	16.340
774.09	13.174
774.39	13.333
774.70	16.561
775.01	22.069
775.32	17.857
775.63	7.438
775.94	9.924
776.25	7.087
776.56	4.167
776.87	10.577
777.18	6.838
777.48	8.621
777.79	3.478
778.10	0.952
778.41	8.108
778.72	20.635
779.03	23.308
779.34	16.312
779.65	17.123
779.95	6.164
780.26	11.724
780.57	12.195
780.88	15.748
781.19	12.931
781.50	10.853
781.80	6.509
782.11	10.692
782.42	6.923
782.73	12.230
783.04	8.889
783.34	21.528
783.65	-2.564
783.96	6.557
784.27	20.000
784.57	8.943
784.88	7.813
785.19	16.000
785.50	20.000
785.81	18.966
786.11	7.759
786.42	11.650
786.73	17.273
787.04	13.265
787.34	11.607
787.65	20.952
787.96	15.044
788.26	17.273
788.57	15.385
788.88	21.875
789.19	11.905
789.49	3.478
789.80	15.306
790.11	8.081
790.41	9.091
790.72	13.043
791.03	27.273
791.33	20.000
791.64	11.250
791.95	16.279
792.25	12.766
792.56	14.607
792.87	9.589
793.17	10.145
793.48	8.000
793.79	1.250
794.09	17.500
794.40	8.491
794.70	0.971
795.01	11.382
795.32	4.274
795.62	17.143
795.93	8.824
796.23	16.981
796.54	13.542
796.85	14.706
797.15	4.225
797.46	19.444
797.76	30.303
798.07	2.326
798.37	5.263
798.68	6.061
798.99	8.642
799.29	24.286
799.60	-10.145
799.90	12.000
800.21	32.787
800.51	23.077
800.82	-11.864
801.12	20.290
801.43	8.197
801.73	28.571
802.04	6.000
802.34	20.896
802.65	11.538
802.95	1.786
803.26	7.692
803.56	27.451
803.87	-17.391
804.17	4.000
804.48	20.635
804.78	3.704
805.09	4.348
805.39	-8.889
805.70	11.111
806.00	7.018
806.30	23.944
806.61	8.571
806.91	-13.889
807.22	23.684
807.52	16.000
807.83	-12.727
808.13	11.111
808.43	22.059
808.74	22.388
809.04	-3.390
809.35	-13.462
809.65	3.125
809.95	-21.622
810.26	-11.364
810.56	19.178
810.86	-11.905
811.17	8.000
811.47	8.163
811.77	-21.053
812.08	-6.818
812.38	1.887
812.69	10.000
812.99	-3.030
813.29	15.789
813.59	8.571
813.90	4.545
814.20	-5.128
814.50	3.846
814.81	11.321
815.11	-2.128
815.41	16.949
815.72	11.905
816.02	15.686
816.32	-4.167
816.62	9.756
816.93	37.838
817.23	-14.286
817.53	37.500
817.84	-4.348
818.14	1.923
818.44	7.895
818.74	8.696
819.04	-27.500
819.35	8.108
819.65	8.824
819.95	11.111
820.25	7.143
820.56	20.000
820.86	-17.241
821.16	47.500
821.46	23.404
821.76	27.500
822.07	-4.651
822.37	-48.649
822.67	-6.250
822.97	33.333
823.27	7.143
823.57	-20.000
823.88	-29.630
824.18	21.429
824.48	11.765
824.78	-19.355
825.08	-21.739
825.38	-12.121
825.69	-20.833
825.99	-21.053
826.29	-8.333
826.59	-73.333
826.89	-28.571
827.19	36.957
827.49	15.000
827.79	0.000
828.09	39.286
828.39	15.152
828.70	37.838
829.00	-42.857
829.30	-33.333
829.60	13.333
829.90	18.750
830.20	2.632
830.50	22.222
830.80	21.739
831.10	-18.182
831.40	21.212
831.70	25.806
832.00	-28.571
832.30	-33.333
832.60	-50.000
832.90	10.345
833.20	-60.000
833.50	42.424
833.80	-11.111
834.10	-15.385
834.40	-9.375
834.70	-111.111
835.00	-21.053
835.30	34.615
835.60	0.000
835.90	9.677
836.20	13.636
836.50	35.714
836.80	-42.308
837.10	-14.286
837.40	-33.333
837.70	9.091
838.00	0.000
838.30	-8.696
838.60	7.692
838.90	22.727
839.19	28.571
839.49	20.000
839.79	-100.000
840.09	-25.000
840.39	50.000
840.69	-17.857
840.99	-19.231
841.29	-26.316
841.59	-70.000
841.88	0.000
842.18	-60.000
842.48	0.000
842.78	-26.667
843.08	0.000
843.38	-130.000
843.68	26.087
843.97	-26.667
844.27	-46.667
844.57	-5.000
844.87	22.222
845.17	-33.333
845.47	6.667
845.76	-42.857
846.06	-23.529
846.36	-90.000
846.66	-35.714
846.96	20.000
847.25	-200.000
847.55	57.143
847.85	-75.000
848.15	9.091
848.44	-433.333
848.74	10.000
849.04	22.222
849.34	-9.091
849.63	-16.667
849.93	-340.000
850.23	-27.778
850.53	110.000
850.82	-53.846
851.12	-33.333
851.42	-13.333
851.71	-3.846
852.01	28.571
852.31	-300.000
852.61	-63.636
852.90	5.000
853.20	0.000
853.50	-25.000
853.79	13.043
854.09	33.333
854.39	-10.526
854.68	-33.333
854.98	0.000
855.28	7.692
855.57	-15.000
855.87	22.222
856.17	77.778
856.46	-21.429
856.76	20.000
857.05	55.556
857.35	-16.000
857.65	11.111
857.94	-30.769
858.24	31.034
858.53	55.556
858.83	37.037
859.13	22.727
859.42	26.087
859.72	25.000
860.01	-400.000
860.31	-4.000
860.60	4.762
860.90	-133.333
861.20	-53.333
861.49	-650.000
861.79	-26.667
862.08	0.000
862.38	73.333
862.67	-140.000
862.97	-83.333
863.26	-8.333
863.56	27.778
863.85	-500.000
864.15	22.222
864.44	-30.000
864.74	21.429
865.03	375.000
865.33	-120.000
865.62	16.667
865.92	-16.667
866.21	-50.000
866.51	31.250
866.80	-27.273
867.10	-400.000
867.39	58.333
867.69	0.000
867.98	53.846
868.27	-466.667
868.57	33.333
868.86	5.556
869.16	-53.846
869.45	20.000
869.75	-1800.000
870.04	0.000
870.33	-14.286
870.63	4.762
870.92	500.000
871.22	-240.000
871.51	-900.000
871.80	100.000
872.10	433.333
>>>>>End Processed Spectral Data<<<<<
