SpectraSuite Data File
++++++++++++++++++++++++++++++++++++
Date: Fri May 15 20:44:02 PDT 2015
User: schluterlab
Dark Spectrum Present: Yes
Reference Spectrum Present: Yes
Number of Sampled Component Spectra: 1
Spectrometers: USB2E3373
Integration Time (usec): 3000 (USB2E3373)
Spectra Averaged: 3 (USB2E3373)
Boxcar Smoothing: 0 (USB2E3373)
Correct for Electrical Dark: No (USB2E3373)
Strobe/Lamp Enabled: No (USB2E3373)
Correct for Detector Non-linearity: No (USB2E3373)
Correct for Stray Light: No (USB2E3373)
Number of Pixels in Processed Spectrum: 2048
>>>>>Begin Processed Spectral Data<<<<<
178.53	0.000
178.91	0.000
179.29	62.500
179.67	-650.000
180.04	100.000
180.42	225.000
180.80	0.000
181.18	100.000
181.56	500.000
181.94	250.000
182.31	800.000
182.69	20.000
183.07	-300.000
183.45	-160.000
183.83	266.667
184.20	-72.727
184.58	66.667
184.96	125.000
185.34	66.667
185.72	-300.000
186.09	107.692
186.47	-700.000
186.85	83.333
187.23	177.778
187.61	800.000
187.98	-433.333
188.36	-33.333
188.74	-200.000
189.12	52.941
189.49	44.444
189.87	0.000
190.25	71.429
190.63	0.000
191.00	-33.333
191.38	0.000
191.76	100.000
192.14	-25.000
192.51	-250.000
192.89	-44.444
193.27	28.571
193.65	233.333
194.02	136.364
194.40	30.000
194.78	-175.000
195.15	-41.667
195.53	-87.500
195.91	425.000
196.29	25.000
196.66	61.538
197.04	42.857
197.42	-44.444
197.79	-333.333
198.17	-69.231
198.55	1100.000
198.92	-133.333
199.30	-200.000
199.68	-80.000
200.05	-300.000
200.43	0.000
200.81	33.333
201.18	-333.333
201.56	600.000
201.94	-50.000
202.31	200.000
202.69	-220.000
203.07	350.000
203.44	-300.000
203.82	0.000
204.19	42.857
204.57	-333.333
204.95	112.500
205.32	-30.000
205.70	57.143
206.08	-75.000
206.45	300.000
206.83	64.286
207.20	-228.571
207.58	-400.000
207.96	-233.333
208.33	-100.000
208.71	-125.000
209.08	-316.667
209.46	-300.000
209.84	-120.000
210.21	-1500.000
210.59	142.857
210.96	0.000
211.34	-75.000
211.71	40.000
212.09	-200.000
212.46	-1500.000
212.84	0.000
213.22	-10.000
213.59	350.000
213.97	84.615
214.34	100.000
214.72	0.000
215.09	175.000
215.47	69.231
215.84	72.727
216.22	-433.333
216.59	-50.000
216.97	-150.000
217.34	50.000
217.72	-380.000
218.09	62.500
218.47	112.500
218.84	-200.000
219.22	-22.222
219.59	-300.000
219.97	566.667
220.34	300.000
220.72	-142.857
221.09	-125.000
221.47	-100.000
221.84	-200.000
222.22	-700.000
222.59	-9.091
222.97	8.333
223.34	-100.000
223.72	7.143
224.09	28.571
224.46	-7.143
224.84	433.333
225.21	-70.000
225.59	-20.000
225.96	-500.000
226.34	400.000
226.71	-28.571
227.08	100.000
227.46	-62.500
227.83	-1000.000
228.21	11.111
228.58	9.091
228.95	0.000
229.33	60.000
229.70	18.750
230.08	-75.000
230.45	71.429
230.82	-14.286
231.20	33.333
231.57	57.143
231.95	57.143
232.32	-110.000
232.69	-28.571
233.07	-200.000
233.44	-60.000
233.81	-20.000
234.19	-55.556
234.56	0.000
234.93	200.000
235.31	-25.000
235.68	-280.000
236.05	-107.692
236.43	-10.000
236.80	5.882
237.17	0.000
237.55	-50.000
237.92	7.407
238.29	33.333
238.67	23.333
239.04	29.412
239.41	-19.512
239.79	-10.000
240.16	19.512
240.53	2.632
240.91	-6.522
241.28	19.048
241.65	25.000
242.02	32.877
242.40	13.333
242.77	27.119
243.14	18.182
243.51	18.750
243.89	22.989
244.26	20.690
244.63	23.810
245.00	21.649
245.38	24.742
245.75	10.112
246.12	11.207
246.49	20.661
246.87	28.846
247.24	17.647
247.61	22.807
247.98	26.829
248.36	20.625
248.73	19.079
249.10	21.429
249.47	18.354
249.84	25.490
250.22	20.000
250.59	18.301
250.96	30.516
251.33	16.279
251.70	24.706
252.08	20.812
252.45	28.218
252.82	18.090
253.19	24.424
253.56	19.626
253.94	28.378
254.31	21.739
254.68	23.684
255.05	25.197
255.42	27.511
255.79	24.710
256.16	22.179
256.54	27.239
256.91	23.574
257.28	23.420
257.65	23.221
258.02	21.631
258.39	25.589
258.76	26.007
259.14	26.910
259.51	26.214
259.88	28.179
260.25	22.876
260.62	28.472
260.99	22.373
261.36	22.603
261.73	22.468
262.10	26.748
262.47	19.939
262.85	26.959
263.22	25.538
263.59	25.857
263.96	25.155
264.33	24.242
264.70	22.917
265.07	22.024
265.44	24.363
265.81	25.141
266.18	24.590
266.55	24.165
266.92	22.280
267.29	25.326
267.66	24.041
268.03	25.393
268.40	26.893
268.77	28.342
269.14	24.940
269.51	23.393
269.88	22.943
270.25	22.704
270.62	21.707
270.99	23.529
271.36	23.472
271.73	25.352
272.10	23.601
272.47	25.768
272.84	26.733
273.21	28.306
273.58	25.783
273.95	28.146
274.32	23.095
274.69	22.851
275.06	26.562
275.43	22.902
275.80	24.724
276.17	24.828
276.54	25.910
276.91	22.807
277.28	25.546
277.65	23.347
278.02	23.191
278.39	25.821
278.76	23.480
279.13	20.747
279.50	23.950
279.87	25.702
280.23	24.516
280.60	25.536
280.97	25.657
281.34	24.038
281.71	26.694
282.08	23.722
282.45	22.309
282.82	22.587
283.19	23.404
283.56	22.736
283.92	21.063
284.29	21.731
284.66	22.674
285.03	26.130
285.40	21.928
285.77	20.738
286.14	22.744
286.51	27.306
286.87	21.572
287.24	23.573
287.61	20.811
287.98	22.456
288.35	20.104
288.72	23.117
289.08	22.222
289.45	22.320
289.82	22.727
290.19	20.307
290.56	20.755
290.93	22.391
291.29	21.263
291.66	22.205
292.03	20.255
292.40	20.323
292.77	18.979
293.13	19.643
293.50	17.754
293.87	19.389
294.24	18.547
294.60	17.437
294.97	20.833
295.34	18.558
295.71	18.778
296.08	18.685
296.44	18.350
296.81	17.778
297.18	18.696
297.55	19.106
297.91	17.260
298.28	18.734
298.65	17.368
299.02	19.137
299.38	16.005
299.75	17.241
300.12	15.183
300.48	16.996
300.85	17.744
301.22	16.364
301.59	16.711
301.95	18.861
302.32	17.510
302.69	16.915
303.05	16.955
303.42	17.559
303.79	17.640
304.15	17.085
304.52	16.171
304.89	16.140
305.25	15.860
305.62	15.169
305.99	15.789
306.35	16.532
306.72	16.085
307.09	14.937
307.45	15.844
307.82	14.583
308.19	16.144
308.55	15.812
308.92	17.102
309.29	14.637
309.65	13.778
310.02	16.062
310.38	14.929
310.75	16.721
311.12	15.823
311.48	16.649
311.85	15.707
312.22	15.401
312.58	14.968
312.95	14.408
313.31	15.942
313.68	14.660
314.05	15.306
314.41	16.598
314.78	15.979
315.14	15.930
315.51	16.046
315.87	16.189
316.24	16.684
316.61	15.945
316.97	17.262
317.34	15.820
317.70	15.870
318.07	15.962
318.43	16.667
318.80	15.720
319.16	15.723
319.53	16.334
319.89	17.323
320.26	17.510
320.62	16.951
320.99	15.658
321.35	16.033
321.72	18.172
322.08	16.717
322.45	17.157
322.81	16.503
323.18	17.664
323.54	17.181
323.91	17.819
324.27	18.262
324.64	20.037
325.00	19.252
325.37	19.651
325.73	17.226
326.10	19.164
326.46	19.910
326.83	19.773
327.19	19.704
327.56	19.896
327.92	20.335
328.29	19.554
328.65	19.811
329.01	19.577
329.38	19.908
329.74	19.830
330.11	21.779
330.47	18.646
330.84	19.615
331.20	21.293
331.56	19.167
331.93	22.100
332.29	20.898
332.66	22.172
333.02	21.747
333.38	20.532
333.75	21.520
334.11	20.322
334.48	22.212
334.84	21.429
335.20	20.952
335.57	20.399
335.93	21.771
336.29	21.363
336.66	20.345
337.02	21.654
337.38	21.574
337.75	22.818
338.11	21.280
338.47	22.080
338.84	22.089
339.20	21.481
339.56	21.560
339.93	21.486
340.29	22.569
340.65	21.953
341.02	21.720
341.38	20.885
341.74	20.495
342.11	20.971
342.47	21.085
342.83	21.886
343.20	21.777
343.56	21.478
343.92	20.638
344.28	21.264
344.65	21.675
345.01	19.706
345.37	20.353
345.73	21.757
346.10	22.606
346.46	21.447
346.82	20.622
347.19	21.862
347.55	21.888
347.91	21.926
348.27	19.806
348.63	21.295
349.00	19.770
349.36	21.779
349.72	22.056
350.08	21.885
350.45	21.389
350.81	21.429
351.17	20.928
351.53	21.469
351.89	20.892
352.26	21.200
352.62	21.855
352.98	21.124
353.34	21.739
353.70	22.249
354.07	20.887
354.43	21.537
354.79	19.901
355.15	21.746
355.51	22.152
355.87	21.117
356.24	20.147
356.60	21.504
356.96	21.825
357.32	20.927
357.68	20.563
358.04	20.436
358.40	21.302
358.77	21.691
359.13	21.137
359.49	20.955
359.85	20.983
360.21	20.494
360.57	22.341
360.93	20.575
361.29	21.526
361.66	21.395
362.02	21.894
362.38	21.325
362.74	21.726
363.10	22.649
363.46	21.201
363.82	21.938
364.18	21.697
364.54	21.544
364.90	22.939
365.26	21.543
365.62	22.701
365.98	22.141
366.35	23.744
366.71	22.395
367.07	21.626
367.43	22.933
367.79	23.110
368.15	21.823
368.51	22.287
368.87	20.962
369.23	21.372
369.59	22.376
369.95	22.361
370.31	22.977
370.67	22.388
371.03	21.434
371.39	21.736
371.75	23.004
372.11	22.183
372.47	21.746
372.83	22.640
373.19	22.682
373.55	21.877
373.91	22.534
374.27	21.545
374.63	22.326
374.99	22.553
375.35	21.100
375.71	22.587
376.07	22.823
376.42	22.585
376.78	22.953
377.14	22.952
377.50	22.112
377.86	22.892
378.22	22.719
378.58	21.859
378.94	22.180
379.30	22.333
379.66	23.009
380.02	22.502
380.38	21.363
380.74	22.142
381.09	22.822
381.45	21.774
381.81	22.517
382.17	22.335
382.53	22.174
382.89	22.159
383.25	22.962
383.61	23.110
383.97	22.032
384.32	22.076
384.68	22.539
385.04	21.814
385.40	22.340
385.76	23.019
386.12	23.351
386.48	22.478
386.83	22.575
387.19	23.565
387.55	23.149
387.91	22.677
388.27	21.673
388.62	22.530
388.98	23.204
389.34	22.673
389.70	23.182
390.06	21.460
390.42	22.733
390.77	22.041
391.13	22.888
391.49	22.251
391.85	22.287
392.20	22.285
392.56	23.013
392.92	22.783
393.28	22.936
393.64	22.342
393.99	23.072
394.35	22.391
394.71	22.542
395.07	22.564
395.42	22.708
395.78	22.541
396.14	22.383
396.50	23.018
396.85	22.215
397.21	22.118
397.57	21.881
397.92	22.049
398.28	23.046
398.64	21.446
399.00	23.138
399.35	22.009
399.71	21.654
400.07	22.370
400.42	21.665
400.78	22.290
401.14	22.626
401.49	22.275
401.85	22.060
402.21	23.133
402.57	23.688
402.92	21.957
403.28	22.619
403.63	23.266
403.99	22.003
404.35	22.548
404.70	22.679
405.06	22.209
405.42	22.001
405.77	21.499
406.13	20.896
406.49	21.255
406.84	22.249
407.20	22.517
407.55	21.185
407.91	22.861
408.27	22.881
408.62	21.969
408.98	22.859
409.34	21.933
409.69	21.770
410.05	22.106
410.40	21.420
410.76	21.894
411.11	22.062
411.47	22.222
411.83	20.967
412.18	23.037
412.54	21.785
412.89	21.860
413.25	22.142
413.60	21.925
413.96	21.779
414.31	22.378
414.67	22.130
415.03	22.703
415.38	21.410
415.74	21.564
416.09	22.730
416.45	22.350
416.80	21.084
417.16	23.688
417.51	22.585
417.87	21.447
418.22	21.632
418.58	22.676
418.93	23.323
419.29	21.191
419.64	21.646
420.00	22.922
420.35	22.149
420.71	22.175
421.06	21.854
421.42	21.274
421.77	21.965
422.12	21.793
422.48	22.090
422.83	22.506
423.19	22.178
423.54	21.576
423.90	21.731
424.25	22.273
424.61	22.399
424.96	21.893
425.31	23.975
425.67	22.770
426.02	23.380
426.38	22.793
426.73	22.760
427.09	23.101
427.44	22.412
427.79	22.510
428.15	22.573
428.50	22.290
428.85	21.806
429.21	22.524
429.56	22.264
429.92	22.907
430.27	21.654
430.62	21.955
430.98	21.762
431.33	22.555
431.68	21.769
432.04	22.191
432.39	22.133
432.74	22.249
433.10	23.391
433.45	22.820
433.80	21.764
434.16	21.607
434.51	22.581
434.86	22.764
435.22	21.929
435.57	23.206
435.92	22.335
436.28	21.884
436.63	22.019
436.98	22.306
437.34	22.263
437.69	23.733
438.04	22.450
438.39	22.114
438.75	22.404
439.10	22.581
439.45	23.128
439.81	22.752
440.16	22.803
440.51	23.881
440.86	23.927
441.22	22.455
441.57	22.627
441.92	23.190
442.27	23.614
442.63	23.769
442.98	23.492
443.33	22.371
443.68	22.546
444.03	22.901
444.39	23.020
444.74	24.025
445.09	21.993
445.44	22.507
445.79	23.569
446.15	23.568
446.50	22.296
446.85	23.964
447.20	23.201
447.55	23.884
447.91	22.899
448.26	23.847
448.61	24.180
448.96	23.752
449.31	23.642
449.66	23.461
450.02	23.388
450.37	22.703
450.72	23.654
451.07	23.165
451.42	24.220
451.77	23.448
452.12	22.608
452.47	22.988
452.83	24.028
453.18	23.529
453.53	23.578
453.88	24.226
454.23	24.216
454.58	25.000
454.93	24.162
455.28	22.921
455.63	24.117
455.98	24.233
456.34	23.691
456.69	23.952
457.04	24.134
457.39	24.423
457.74	23.035
458.09	23.484
458.44	23.347
458.79	23.754
459.14	24.371
459.49	24.418
459.84	24.422
460.19	23.483
460.54	24.450
460.89	24.148
461.24	24.534
461.59	23.278
461.94	23.836
462.29	24.367
462.64	24.983
462.99	24.035
463.34	23.922
463.69	24.131
464.04	24.516
464.39	24.560
464.74	23.374
465.09	24.080
465.44	24.639
465.79	23.639
466.14	25.086
466.49	23.634
466.84	23.974
467.19	25.031
467.54	24.330
467.89	23.942
468.24	24.392
468.59	25.270
468.94	24.698
469.29	24.918
469.64	25.496
469.99	24.877
470.34	24.437
470.68	26.771
471.03	24.558
471.38	24.893
471.73	25.980
472.08	24.559
472.43	25.705
472.78	23.989
473.13	24.626
473.48	25.212
473.83	24.346
474.17	25.972
474.52	25.463
474.87	26.424
475.22	26.236
475.57	25.522
475.92	25.891
476.27	26.601
476.61	24.942
476.96	24.986
477.31	26.176
477.66	25.112
478.01	26.053
478.36	24.510
478.70	25.612
479.05	25.604
479.40	26.550
479.75	25.287
480.10	25.141
480.45	25.950
480.79	26.687
481.14	26.844
481.49	24.631
481.84	26.062
482.19	25.772
482.53	25.899
482.88	25.489
483.23	25.768
483.58	26.368
483.92	25.847
484.27	25.205
484.62	25.549
484.97	25.332
485.31	25.108
485.66	23.778
486.01	24.062
486.36	23.769
486.70	24.108
487.05	24.548
487.40	24.457
487.75	24.732
488.09	24.938
488.44	24.966
488.79	25.364
489.13	25.801
489.48	25.994
489.83	26.726
490.17	25.618
490.52	25.912
490.87	26.284
491.22	26.122
491.56	26.613
491.91	25.191
492.26	26.398
492.60	26.536
492.95	26.709
493.30	25.403
493.64	26.375
493.99	26.232
494.34	26.068
494.68	26.238
495.03	26.229
495.37	26.202
495.72	27.108
496.07	27.024
496.41	26.038
496.76	25.979
497.11	25.803
497.45	27.924
497.80	26.741
498.14	26.379
498.49	26.105
498.84	27.096
499.18	27.259
499.53	26.984
499.87	26.216
500.22	26.212
500.56	27.786
500.91	26.606
501.26	26.990
501.60	26.660
501.95	25.813
502.29	26.973
502.64	26.593
502.98	27.479
503.33	26.513
503.67	27.711
504.02	27.908
504.36	28.006
504.71	27.374
505.06	28.384
505.40	28.274
505.75	28.093
506.09	27.572
506.44	29.004
506.78	28.980
507.13	28.490
507.47	27.781
507.82	28.579
508.16	28.420
508.51	29.224
508.85	28.938
509.19	29.218
509.54	29.437
509.88	28.587
510.23	29.962
510.57	29.182
510.92	29.424
511.26	30.333
511.61	30.913
511.95	30.027
512.30	29.712
512.64	30.217
512.98	30.601
513.33	31.561
513.67	30.642
514.02	32.037
514.36	32.514
514.70	32.110
515.05	32.432
515.39	32.822
515.74	32.515
516.08	32.038
516.42	33.451
516.77	33.353
517.11	33.650
517.46	33.872
517.80	34.088
518.14	33.864
518.49	34.075
518.83	33.779
519.17	33.475
519.52	34.399
519.86	35.114
520.20	34.143
520.55	35.272
520.89	36.700
521.23	35.592
521.58	37.539
521.92	36.474
522.26	35.198
522.61	37.078
522.95	37.947
523.29	37.294
523.64	37.166
523.98	37.395
524.32	37.371
524.66	39.117
525.01	37.597
525.35	38.820
525.69	38.316
526.04	37.434
526.38	40.013
526.72	37.279
527.06	38.327
527.41	38.786
527.75	39.611
528.09	38.804
528.43	40.783
528.78	38.614
529.12	40.516
529.46	39.636
529.80	40.342
530.15	41.584
530.49	40.943
530.83	40.903
531.17	40.497
531.51	40.561
531.86	41.264
532.20	40.710
532.54	42.478
532.88	41.752
533.22	41.062
533.57	41.022
533.91	40.862
534.25	42.318
534.59	41.758
534.93	41.032
535.27	39.150
535.62	41.218
535.96	41.292
536.30	41.953
536.64	41.626
536.98	41.742
537.32	42.603
537.66	43.548
538.01	42.168
538.35	42.718
538.69	42.277
539.03	42.105
539.37	42.732
539.71	42.195
540.05	42.498
540.39	43.144
540.73	43.166
541.07	42.749
541.42	43.078
541.76	42.602
542.10	42.533
542.44	43.155
542.78	41.707
543.12	42.582
543.46	44.367
543.80	42.956
544.14	41.121
544.48	42.771
544.82	43.677
545.16	44.262
545.50	42.857
545.84	44.122
546.18	43.688
546.52	43.403
546.86	42.991
547.20	43.205
547.54	42.403
547.88	43.139
548.22	41.946
548.56	42.084
548.90	42.857
549.24	42.906
549.58	42.948
549.92	43.460
550.26	43.077
550.60	43.271
550.94	44.063
551.28	43.740
551.62	45.000
551.96	43.609
552.30	43.275
552.64	42.454
552.98	44.093
553.32	43.153
553.66	43.396
554.00	43.358
554.34	44.978
554.68	43.437
555.02	45.461
555.36	43.306
555.69	42.491
556.03	42.184
556.37	42.776
556.71	43.827
557.05	44.594
557.39	43.420
557.73	44.378
558.07	44.947
558.41	45.636
558.75	43.882
559.08	43.893
559.42	46.032
559.76	44.676
560.10	44.266
560.44	43.187
560.78	42.657
561.12	44.006
561.45	43.710
561.79	43.557
562.13	43.364
562.47	42.302
562.81	43.228
563.15	43.441
563.48	43.494
563.82	44.338
564.16	42.549
564.50	41.959
564.84	43.307
565.17	42.186
565.51	44.877
565.85	43.827
566.19	43.767
566.52	43.097
566.86	43.316
567.20	42.902
567.54	42.214
567.88	42.882
568.21	42.647
568.55	41.522
568.89	41.222
569.23	40.299
569.56	39.755
569.90	39.829
570.24	38.147
570.57	39.127
570.91	38.376
571.25	37.422
571.59	37.745
571.92	36.741
572.26	37.017
572.60	37.457
572.93	37.088
573.27	36.897
573.61	37.679
573.95	36.974
574.28	36.229
574.62	35.978
574.96	36.225
575.29	36.143
575.63	35.268
575.97	35.592
576.30	36.576
576.64	36.424
576.98	36.551
577.31	36.299
577.65	36.009
577.98	35.904
578.32	35.162
578.66	34.816
578.99	35.026
579.33	35.848
579.67	35.478
580.00	35.747
580.34	36.294
580.67	35.485
581.01	36.119
581.35	35.487
581.68	34.796
582.02	34.483
582.35	34.968
582.69	35.080
583.02	34.993
583.36	35.463
583.70	36.267
584.03	36.419
584.37	36.618
584.70	35.604
585.04	35.363
585.37	35.799
585.71	34.683
586.04	35.350
586.38	35.369
586.72	36.241
587.05	36.337
587.39	36.092
587.72	35.921
588.06	35.815
588.39	36.400
588.73	36.233
589.06	36.562
589.40	36.536
589.73	37.422
590.07	37.424
590.40	37.732
590.73	38.180
591.07	37.617
591.40	37.578
591.74	37.738
592.07	38.404
592.41	38.428
592.74	37.276
593.08	35.557
593.41	35.947
593.75	35.558
594.08	35.736
594.41	36.463
594.75	36.031
595.08	36.549
595.42	36.695
595.75	37.739
596.09	36.474
596.42	37.164
596.75	36.501
597.09	37.221
597.42	37.624
597.75	37.242
598.09	37.030
598.42	36.597
598.76	36.594
599.09	36.258
599.42	35.392
599.76	35.591
600.09	35.671
600.42	35.519
600.76	35.958
601.09	35.420
601.42	34.900
601.76	35.808
602.09	35.809
602.42	37.110
602.76	36.248
603.09	37.251
603.42	36.538
603.76	35.685
604.09	36.290
604.42	36.210
604.76	37.339
605.09	37.706
605.42	36.795
605.75	36.165
606.09	36.093
606.42	35.530
606.75	36.450
607.09	35.956
607.42	35.977
607.75	37.078
608.08	36.164
608.42	36.729
608.75	36.675
609.08	37.120
609.41	37.157
609.75	36.845
610.08	37.094
610.41	36.184
610.74	36.324
611.07	37.209
611.41	36.949
611.74	37.527
612.07	35.814
612.40	36.597
612.73	37.458
613.07	36.895
613.40	36.761
613.73	37.045
614.06	37.618
614.39	36.548
614.72	37.031
615.06	37.095
615.39	36.245
615.72	35.576
616.05	36.927
616.38	35.499
616.71	38.043
617.05	37.986
617.38	38.969
617.71	37.547
618.04	38.032
618.37	38.588
618.70	37.492
619.03	38.194
619.36	37.771
619.69	39.803
620.03	39.664
620.36	39.557
620.69	37.259
621.02	38.991
621.35	41.245
621.68	42.007
622.01	40.833
622.34	39.346
622.67	39.826
623.00	39.816
623.33	38.643
623.66	38.369
623.99	37.821
624.32	38.783
624.65	38.722
624.99	38.977
625.32	38.135
625.65	39.120
625.98	39.484
626.31	38.321
626.64	40.035
626.97	40.750
627.30	39.930
627.63	41.075
627.96	41.330
628.29	40.148
628.62	40.413
628.95	39.880
629.28	41.633
629.61	40.179
629.94	42.131
630.26	40.119
630.59	43.704
630.92	41.538
631.25	41.231
631.58	42.511
631.91	40.680
632.24	41.858
632.57	43.409
632.90	43.298
633.23	43.059
633.56	43.829
633.89	42.417
634.22	42.840
634.55	43.202
634.88	44.444
635.20	43.077
635.53	45.067
635.86	43.823
636.19	42.561
636.52	43.878
636.85	41.811
637.18	43.648
637.51	44.403
637.83	41.656
638.16	46.112
638.49	41.553
638.82	43.026
639.15	42.605
639.48	43.741
639.81	43.096
640.13	42.713
640.46	44.606
640.79	44.183
641.12	43.575
641.45	43.844
641.77	43.556
642.10	45.498
642.43	44.534
642.76	47.195
643.09	44.911
643.41	43.851
643.74	44.975
644.07	44.828
644.40	47.297
644.73	49.562
645.05	44.295
645.38	45.855
645.71	45.390
646.04	46.499
646.36	45.745
646.69	45.504
647.02	48.960
647.35	46.642
647.67	47.349
648.00	49.067
648.33	45.563
648.66	43.559
648.98	44.556
649.31	42.975
649.64	40.816
649.96	41.005
650.29	41.397
650.62	46.325
650.94	45.741
651.27	45.624
651.60	45.045
651.92	44.406
652.25	42.984
652.58	42.833
652.90	44.254
653.23	42.521
653.56	41.455
653.88	43.986
654.21	41.506
654.54	40.747
654.86	42.615
655.19	39.766
655.52	36.765
655.84	28.992
656.17	31.261
656.49	41.627
656.82	42.888
657.15	33.177
657.47	25.126
657.80	18.746
658.13	19.022
658.45	30.356
658.78	29.865
659.10	29.826
659.43	30.958
659.75	31.919
660.08	34.552
660.41	35.342
660.73	40.193
661.06	43.501
661.38	41.096
661.71	42.300
662.03	44.421
662.36	43.516
662.68	42.920
663.01	45.852
663.33	44.780
663.66	45.349
663.98	45.814
664.31	42.644
664.63	44.009
664.96	41.957
665.28	43.267
665.61	42.641
665.93	45.652
666.26	42.950
666.58	44.743
666.91	44.471
667.23	46.934
667.56	45.498
667.88	44.604
668.21	44.630
668.53	43.972
668.86	42.925
669.18	47.170
669.50	43.341
669.83	48.372
670.15	42.424
670.48	41.627
670.80	43.318
671.13	40.940
671.45	40.411
671.77	45.923
672.10	41.782
672.42	40.449
672.75	39.432
673.07	40.429
673.39	40.367
673.72	37.870
674.04	40.417
674.37	41.314
674.69	40.471
675.01	41.111
675.34	41.892
675.66	39.583
675.98	43.459
676.31	41.055
676.63	42.280
676.95	40.000
677.28	43.529
677.60	42.410
677.92	42.431
678.25	43.326
678.57	41.991
678.89	39.706
679.22	39.374
679.54	40.763
679.86	37.972
680.18	39.612
680.51	40.530
680.83	39.364
681.15	41.400
681.48	41.598
681.80	42.769
682.12	37.702
682.44	37.448
682.77	39.294
683.09	41.419
683.41	38.182
683.73	39.171
684.06	41.150
684.38	37.634
684.70	40.959
685.02	37.967
685.34	38.735
685.67	38.274
685.99	36.347
686.31	37.345
686.63	35.622
686.96	35.361
687.28	34.545
687.60	36.502
687.92	39.394
688.24	36.290
688.56	38.646
688.89	39.062
689.21	42.000
689.53	38.515
689.85	38.837
690.17	39.286
690.49	39.007
690.82	38.592
691.14	38.810
691.46	40.421
691.78	39.640
692.10	40.000
692.42	38.961
692.74	38.248
693.06	37.838
693.39	36.425
693.71	40.045
694.03	36.721
694.35	39.486
694.67	36.616
694.99	38.903
695.31	42.037
695.63	41.000
695.95	37.374
696.27	38.860
696.59	40.556
696.91	39.496
697.23	37.789
697.56	38.119
697.88	36.344
698.20	38.041
698.52	36.471
698.84	32.057
699.16	36.500
699.48	35.589
699.80	36.973
700.12	36.388
700.44	41.176
700.76	40.407
701.08	37.273
701.40	40.964
701.72	44.136
702.04	39.604
702.36	41.472
702.68	37.538
703.00	39.091
703.32	36.950
703.64	34.746
703.96	37.391
704.28	38.344
704.60	42.222
704.91	36.278
705.23	42.193
705.55	43.816
705.87	44.404
706.19	40.741
706.51	39.519
706.83	38.585
707.15	36.449
707.47	38.095
707.79	35.938
708.11	36.000
708.43	37.500
708.74	38.501
709.06	36.338
709.38	41.590
709.70	36.982
710.02	38.217
710.34	36.842
710.66	34.936
710.98	39.404
711.29	37.377
711.61	37.966
711.93	37.785
712.25	40.206
712.57	40.293
712.89	36.567
713.20	36.678
713.52	39.024
713.84	35.154
714.16	37.801
714.48	37.742
714.80	36.218
715.11	33.435
715.43	34.169
715.75	36.333
716.07	34.884
716.39	32.215
716.70	33.579
717.02	38.931
717.34	38.462
717.66	41.593
717.97	37.826
718.29	38.075
718.61	39.764
718.93	39.147
719.24	36.882
719.56	40.161
719.88	37.801
720.20	35.227
720.51	32.950
720.83	37.066
721.15	43.697
721.46	33.065
721.78	32.411
722.10	32.714
722.42	34.025
722.73	37.551
723.05	42.041
723.37	38.983
723.68	41.892
724.00	36.752
724.32	40.889
724.63	35.000
724.95	39.301
725.27	40.553
725.58	33.475
725.90	31.349
726.22	33.205
726.53	32.542
726.85	33.708
727.16	35.472
727.48	36.842
727.80	34.818
728.11	36.017
728.43	31.373
728.74	36.694
729.06	37.200
729.38	40.226
729.69	34.263
730.01	31.923
730.32	34.701
730.64	32.862
730.96	33.208
731.27	32.333
731.59	31.186
731.90	34.076
732.22	36.278
732.53	34.551
732.85	34.397
733.16	32.660
733.48	30.935
733.80	31.159
734.11	30.169
734.43	29.897
734.74	33.939
735.06	27.036
735.37	36.556
735.69	36.364
736.00	33.449
736.32	31.879
736.63	30.986
736.95	31.399
737.26	32.028
737.58	32.550
737.89	34.432
738.21	29.323
738.52	35.391
738.83	41.048
739.15	32.314
739.46	35.039
739.78	29.670
740.09	32.026
740.41	28.623
740.72	33.071
741.04	34.818
741.35	33.617
741.66	35.545
741.98	33.673
742.29	35.644
742.61	35.079
742.92	27.488
743.23	29.630
743.55	32.579
743.86	29.665
744.18	33.493
744.49	32.979
744.80	29.348
745.12	43.850
745.43	31.220
745.74	36.458
746.06	35.122
746.37	33.508
746.68	36.493
747.00	30.319
747.31	38.308
747.62	28.155
747.94	40.191
748.25	31.188
748.56	32.240
748.88	29.843
749.19	40.426
749.50	34.975
749.82	30.660
750.13	30.734
750.44	35.338
750.75	35.075
751.07	36.131
751.38	31.418
751.69	36.863
752.01	31.008
752.32	35.060
752.63	29.644
752.94	30.603
753.26	40.167
753.57	28.959
753.88	37.168
754.19	30.000
754.51	33.058
754.82	31.579
755.13	35.833
755.44	30.645
755.75	35.156
756.07	33.074
756.38	32.075
756.69	29.502
757.00	28.333
757.31	30.392
757.63	27.134
757.94	29.167
758.25	23.288
758.56	27.128
758.87	27.195
759.18	30.530
759.50	30.182
759.81	32.441
760.12	27.742
760.43	24.545
760.74	31.790
761.05	29.231
761.36	26.705
761.67	30.303
761.99	33.333
762.30	28.727
762.61	31.621
762.92	28.054
763.23	36.486
763.54	25.234
763.85	32.203
764.16	27.386
764.47	30.645
764.78	26.740
765.10	31.313
765.41	27.129
765.72	28.889
766.03	22.556
766.34	29.562
766.65	32.669
766.96	33.838
767.27	31.383
767.58	28.736
767.89	29.078
768.20	34.659
768.51	34.615
768.82	26.108
769.13	24.424
769.44	27.039
769.75	28.311
770.06	28.448
770.37	27.404
770.68	23.858
770.99	28.054
771.30	26.471
771.61	33.937
771.92	40.948
772.23	30.049
772.54	32.258
772.85	30.247
773.16	34.831
773.47	36.601
773.78	33.333
774.09	33.533
774.39	31.333
774.70	34.395
775.01	31.034
775.32	26.429
775.63	24.793
775.94	38.931
776.25	31.496
776.56	37.500
776.87	40.385
777.18	30.769
777.48	18.103
777.79	30.435
778.10	19.048
778.41	21.622
778.72	28.571
779.03	30.827
779.34	30.496
779.65	36.301
779.95	30.137
780.26	30.345
780.57	28.455
780.88	22.047
781.19	25.862
781.50	30.233
781.80	26.627
782.11	19.497
782.42	26.923
782.73	31.655
783.04	34.074
783.34	30.556
783.65	16.239
783.96	27.049
784.27	31.724
784.57	23.577
784.88	23.437
785.19	35.000
785.50	45.000
785.81	28.448
786.11	23.276
786.42	25.243
786.73	29.091
787.04	34.694
787.34	23.214
787.65	23.810
787.96	25.664
788.26	26.364
788.57	23.077
788.88	21.094
789.19	23.810
789.49	29.565
789.80	24.490
790.11	34.343
790.41	23.636
790.72	28.261
791.03	21.591
791.33	31.250
791.64	30.000
791.95	31.395
792.25	31.915
792.56	39.326
792.87	41.096
793.17	23.188
793.48	24.000
793.79	20.000
794.09	36.250
794.40	33.019
794.70	26.214
795.01	13.821
795.32	20.513
795.62	28.571
795.93	23.529
796.23	34.906
796.54	27.083
796.85	22.059
797.15	35.211
797.46	43.056
797.76	45.455
798.07	25.581
798.37	10.526
798.68	7.576
798.99	29.630
799.29	24.286
799.60	44.928
799.90	38.667
800.21	31.148
800.51	40.000
800.82	32.203
801.12	40.580
801.43	47.541
801.73	41.270
802.04	18.000
802.34	11.940
802.65	30.769
802.95	10.714
803.26	21.154
803.56	27.451
803.87	15.217
804.17	26.667
804.48	52.381
804.78	22.222
805.09	36.957
805.39	22.222
805.70	33.333
806.00	1.754
806.30	47.887
806.61	31.429
806.91	22.222
807.22	22.368
807.52	34.667
807.83	25.455
808.13	31.944
808.43	36.765
808.74	26.866
809.04	16.949
809.35	15.385
809.65	35.938
809.95	10.811
810.26	20.455
810.56	24.658
810.86	14.286
811.17	26.000
811.47	22.449
811.77	31.579
812.08	31.818
812.38	20.755
812.69	15.000
812.99	-15.152
813.29	0.000
813.59	20.000
813.90	38.636
814.20	25.641
814.50	46.154
814.81	26.415
815.11	-2.128
815.41	37.288
815.72	-2.381
816.02	39.216
816.32	27.083
816.62	21.951
816.93	37.838
817.23	14.286
817.53	12.500
817.84	15.217
818.14	34.615
818.44	23.684
818.74	32.609
819.04	-2.500
819.35	37.838
819.65	23.529
819.95	5.556
820.25	11.905
820.56	40.000
820.86	-3.448
821.16	52.500
821.46	27.660
821.76	12.500
822.07	32.558
822.37	-8.108
822.67	15.625
822.97	38.095
823.27	-32.143
823.57	12.000
823.88	-25.926
824.18	39.286
824.48	11.765
824.78	6.452
825.08	-17.391
825.38	18.182
825.69	-20.833
825.99	50.000
826.29	-11.111
826.59	13.333
826.89	-42.857
827.19	30.435
827.49	5.000
827.79	57.143
828.09	46.429
828.39	33.333
828.70	37.838
829.00	0.000
829.30	-9.524
829.60	30.000
829.90	25.000
830.20	23.684
830.50	-18.519
830.80	26.087
831.10	40.909
831.40	63.636
831.70	6.452
832.00	-4.762
832.30	-4.762
832.60	-25.000
832.90	0.000
833.20	25.000
833.50	27.273
833.80	11.111
834.10	15.385
834.40	25.000
834.70	-22.222
835.00	5.263
835.30	30.769
835.60	0.000
835.90	12.903
836.20	27.273
836.50	28.571
836.80	-7.692
837.10	7.143
837.40	-133.333
837.70	59.091
838.00	27.273
838.30	26.087
838.60	15.385
838.90	77.273
839.19	53.571
839.49	43.333
839.79	0.000
840.09	-83.333
840.39	60.714
840.69	0.000
840.99	-42.308
841.29	-31.579
841.59	0.000
841.88	81.818
842.18	90.000
842.48	18.750
842.78	-26.667
843.08	3.704
843.38	-60.000
843.68	0.000
843.97	6.667
844.27	-80.000
844.57	15.000
844.87	27.778
845.17	23.810
845.47	26.667
845.76	-9.524
846.06	29.412
846.36	-120.000
846.66	-7.143
846.96	46.667
847.25	-100.000
847.55	42.857
847.85	25.000
848.15	-13.636
848.44	-200.000
848.74	50.000
849.04	29.630
849.34	90.909
849.63	-116.667
849.93	-200.000
850.23	-16.667
850.53	70.000
850.82	30.769
851.12	-44.444
851.42	20.000
851.71	15.385
852.01	50.000
852.31	-425.000
852.61	9.091
852.90	0.000
853.20	-5.263
853.50	25.000
853.79	26.087
854.09	29.167
854.39	21.053
854.68	8.333
854.98	38.710
855.28	26.923
855.57	5.000
855.87	66.667
856.17	7.407
856.46	-35.714
856.76	6.667
857.05	-11.111
857.35	0.000
857.65	-33.333
857.94	-38.462
858.24	24.138
858.53	22.222
858.83	14.815
859.13	45.455
859.42	13.043
859.72	50.000
860.01	-466.667
860.31	44.000
860.60	33.333
860.90	-333.333
861.20	-13.333
861.49	-200.000
861.79	-106.667
862.08	30.000
862.38	100.000
862.67	20.000
862.97	-166.667
863.26	-8.333
863.56	38.889
863.85	-400.000
864.15	16.667
864.44	-30.000
864.74	71.429
865.03	150.000
865.33	-200.000
865.62	-100.000
865.92	-50.000
866.21	-33.333
866.51	6.250
866.80	18.182
867.10	150.000
867.39	133.333
867.69	0.000
867.98	-15.385
868.27	-300.000
868.57	53.333
868.86	0.000
869.16	-38.462
869.45	80.000
869.75	-1000.000
870.04	0.000
870.33	-157.143
870.63	19.048
870.92	433.333
871.22	-360.000
871.51	-1200.000
871.80	11.111
872.10	233.333
>>>>>End Processed Spectral Data<<<<<
