SpectraSuite Data File
++++++++++++++++++++++++++++++++++++
Date: Fri May 15 21:07:52 PDT 2015
User: schluterlab
Dark Spectrum Present: Yes
Reference Spectrum Present: Yes
Number of Sampled Component Spectra: 1
Spectrometers: USB2E3373
Integration Time (usec): 3000 (USB2E3373)
Spectra Averaged: 3 (USB2E3373)
Boxcar Smoothing: 0 (USB2E3373)
Correct for Electrical Dark: No (USB2E3373)
Strobe/Lamp Enabled: No (USB2E3373)
Correct for Detector Non-linearity: No (USB2E3373)
Correct for Stray Light: No (USB2E3373)
Number of Pixels in Processed Spectrum: 2048
>>>>>Begin Processed Spectral Data<<<<<
178.53	0.000
178.91	0.000
179.29	37.500
179.67	-400.000
180.04	14.286
180.42	50.000
180.80	-500.000
181.18	300.000
181.56	250.000
181.94	-50.000
182.31	400.000
182.69	-80.000
183.07	-33.333
183.45	-80.000
183.83	-0.000
184.20	27.273
184.58	255.556
184.96	125.000
185.34	200.000
185.72	-100.000
186.09	130.769
186.47	0.000
186.85	183.333
187.23	111.111
187.61	300.000
187.98	-233.333
188.36	-11.111
188.74	-100.000
189.12	23.529
189.49	44.444
189.87	0.000
190.25	21.429
190.63	550.000
191.00	-333.333
191.38	-31.579
191.76	50.000
192.14	175.000
192.51	-150.000
192.89	-33.333
193.27	-142.857
193.65	133.333
194.02	118.182
194.40	60.000
194.78	-187.500
195.15	-125.000
195.53	-100.000
195.91	250.000
196.29	-125.000
196.66	123.077
197.04	57.143
197.42	-44.444
197.79	-366.667
198.17	-76.923
198.55	1700.000
198.92	-566.667
199.30	-200.000
199.68	0.000
200.05	100.000
200.43	0.000
200.81	-166.667
201.18	-133.333
201.56	1200.000
201.94	-200.000
202.31	-33.333
202.69	-240.000
203.07	125.000
203.44	500.000
203.82	0.000
204.19	7.143
204.57	-400.000
204.95	112.500
205.32	100.000
205.70	-114.286
206.08	50.000
206.45	166.667
206.83	42.857
207.20	-85.714
207.58	300.000
207.96	-100.000
208.33	-100.000
208.71	-75.000
209.08	-266.667
209.46	-1800.000
209.84	-80.000
210.21	-2200.000
210.59	-228.571
210.96	16.667
211.34	-100.000
211.71	46.667
212.09	-171.429
212.46	-2200.000
212.84	0.000
213.22	0.000
213.59	900.000
213.97	-7.692
214.34	-72.727
214.72	-116.667
215.09	275.000
215.47	7.692
215.84	-36.364
216.22	-400.000
216.59	-87.500
216.97	-150.000
217.34	-25.000
217.72	-300.000
218.09	50.000
218.47	262.500
218.84	-900.000
219.22	-22.222
219.59	-240.000
219.97	100.000
220.34	225.000
220.72	-57.143
221.09	-75.000
221.47	-100.000
221.84	-350.000
222.22	-1000.000
222.59	54.545
222.97	41.667
223.34	-700.000
223.72	-35.714
224.09	0.000
224.46	7.143
224.84	400.000
225.21	-50.000
225.59	13.333
225.96	-50.000
226.34	275.000
226.71	-28.571
227.08	-116.667
227.46	-100.000
227.83	-350.000
228.21	-77.778
228.58	36.364
228.95	62.500
229.33	160.000
229.70	-31.250
230.08	-237.500
230.45	-71.429
230.82	-114.286
231.20	-46.667
231.57	42.857
231.95	-14.286
232.32	-200.000
232.69	7.143
233.07	-233.333
233.44	-20.000
233.81	-80.000
234.19	-66.667
234.56	17.647
234.93	800.000
235.31	-125.000
235.68	-380.000
236.05	-61.538
236.43	-65.000
236.80	-5.882
237.17	-3.125
237.55	-25.000
237.92	-62.963
238.29	19.444
238.67	20.000
239.04	-29.412
239.41	-34.146
239.79	0.000
240.16	-17.073
240.53	-18.421
240.91	-19.565
241.28	17.460
241.65	7.143
242.02	12.329
242.40	5.000
242.77	3.390
243.14	-15.152
243.51	-3.750
243.89	-2.299
244.26	-8.046
244.63	0.000
245.00	-2.062
245.38	-4.124
245.75	0.000
246.12	-1.724
246.49	1.653
246.87	0.962
247.24	-5.042
247.61	-4.386
247.98	-4.065
248.36	1.250
248.73	0.000
249.10	-0.649
249.47	-3.797
249.84	1.961
250.22	2.941
250.59	6.536
250.96	7.981
251.33	-2.907
251.70	0.588
252.08	5.584
252.45	2.970
252.82	6.030
253.19	5.069
253.56	0.000
253.94	5.405
254.31	0.870
254.68	4.386
255.05	0.394
255.42	-2.620
255.79	5.405
256.16	-1.556
256.54	6.716
256.91	1.141
257.28	6.691
257.65	1.124
258.02	2.128
258.39	2.020
258.76	4.762
259.14	0.997
259.51	2.913
259.88	2.062
260.25	4.248
260.62	5.903
260.99	2.712
261.36	-2.055
261.73	0.633
262.10	5.167
262.47	1.534
262.85	1.567
263.22	-0.308
263.59	2.492
263.96	2.174
264.33	5.455
264.70	1.488
265.07	-2.381
265.44	3.966
265.81	3.672
266.18	2.732
266.55	5.398
266.92	4.922
267.29	4.439
267.66	0.512
268.03	1.571
268.40	4.178
268.77	6.684
269.14	5.276
269.51	7.455
269.88	0.249
270.25	2.041
270.62	0.732
270.99	2.302
271.36	3.912
271.73	3.991
272.10	0.487
272.47	5.437
272.84	1.238
273.21	5.336
273.58	2.892
273.95	2.288
274.32	2.540
274.69	1.584
275.06	6.027
275.43	3.175
275.80	4.415
276.17	1.839
276.54	4.069
276.91	2.632
277.28	3.930
277.65	3.926
278.02	4.681
278.39	2.407
278.76	2.725
279.13	0.622
279.50	3.571
279.87	4.968
280.23	3.656
280.60	5.653
280.97	4.444
281.34	3.654
281.71	5.955
282.08	3.272
282.45	2.935
282.82	3.089
283.19	2.901
283.56	1.734
283.92	3.795
284.29	1.923
284.66	3.682
285.03	2.554
285.40	4.537
285.77	3.339
286.14	5.235
286.51	5.351
286.87	2.194
287.24	2.578
287.61	2.822
287.98	5.088
288.35	1.386
288.72	4.553
289.08	3.819
289.45	3.866
289.82	2.622
290.19	2.389
290.56	2.573
290.93	2.357
291.29	3.082
291.66	4.094
292.03	2.871
292.40	3.871
292.77	1.754
293.13	0.812
293.50	2.124
293.87	2.290
294.24	3.400
294.60	4.322
294.97	3.720
295.34	1.994
295.71	2.981
296.08	4.185
296.44	2.418
296.81	1.528
297.18	4.058
297.55	4.607
297.91	3.425
298.28	2.243
298.65	3.256
299.02	3.504
299.38	1.094
299.75	2.897
300.12	1.702
300.48	4.348
300.85	2.915
301.22	2.208
301.59	3.421
301.95	3.165
302.32	4.150
302.69	1.990
303.05	3.465
303.42	2.989
303.79	2.570
304.15	3.465
304.52	2.497
304.89	2.456
305.25	2.179
305.62	2.217
305.99	1.404
306.35	2.890
306.72	1.462
307.09	2.965
307.45	3.674
307.82	3.704
308.19	4.181
308.55	3.053
308.92	4.139
309.29	3.464
309.65	1.184
310.02	3.300
310.38	3.403
310.75	3.607
311.12	3.552
311.48	3.181
311.85	3.455
312.22	3.270
312.58	4.459
312.95	4.696
313.31	3.313
313.68	3.979
314.05	2.857
314.41	4.330
314.78	3.505
315.14	6.475
315.51	6.108
315.87	3.996
316.24	5.966
316.61	6.693
316.97	6.746
317.34	6.445
317.70	6.214
318.07	6.346
318.43	6.765
318.80	6.723
319.16	6.836
319.53	7.787
319.89	7.677
320.26	7.389
320.62	8.626
320.99	6.472
321.35	8.633
321.72	9.346
322.08	9.063
322.45	10.457
322.81	10.511
323.18	10.010
323.54	10.328
323.91	10.224
324.27	11.621
324.64	11.798
325.00	12.135
325.37	13.958
325.73	12.058
326.10	14.441
326.46	14.978
326.83	14.348
327.19	14.473
327.56	14.683
327.92	15.933
328.29	14.821
328.65	16.509
329.01	16.360
329.38	16.866
329.74	16.431
330.11	16.404
330.47	16.698
330.84	15.962
331.20	18.441
331.56	16.759
331.93	18.265
332.29	19.248
332.66	18.643
333.02	19.145
333.38	17.599
333.75	19.963
334.11	19.158
334.48	19.402
334.84	19.689
335.20	18.939
335.57	18.676
335.93	19.151
336.29	19.613
336.66	18.892
337.02	18.680
337.38	17.963
337.75	19.545
338.11	21.190
338.47	19.891
338.84	20.055
339.20	19.470
339.56	19.725
339.93	18.711
340.29	19.358
340.65	18.638
341.02	19.415
341.38	18.584
341.74	18.728
342.11	17.938
342.47	19.573
342.83	20.242
343.20	19.512
343.56	18.957
343.92	19.398
344.28	20.068
344.65	19.171
345.01	19.274
345.37	20.017
345.73	20.669
346.10	20.276
346.46	19.596
346.82	18.412
347.19	17.872
347.55	19.632
347.91	19.984
348.27	19.159
348.63	19.761
349.00	18.458
349.36	19.285
349.72	20.315
350.08	18.689
350.45	18.356
350.81	19.435
351.17	19.788
351.53	20.082
351.89	18.002
352.26	20.400
352.62	18.710
352.98	19.438
353.34	18.841
353.70	19.175
354.07	18.468
354.43	19.295
354.79	18.993
355.15	20.238
355.51	18.987
355.87	20.146
356.24	18.679
356.60	19.240
356.96	18.968
357.32	17.492
357.68	18.765
358.04	19.871
358.40	18.167
358.77	18.660
359.13	19.055
359.49	18.644
359.85	17.863
360.21	18.581
360.57	17.445
360.93	18.381
361.29	17.447
361.66	19.357
362.02	18.409
362.38	18.812
362.74	18.698
363.10	19.112
363.46	18.458
363.82	19.459
364.18	18.450
364.54	18.088
364.90	17.419
365.26	18.486
365.62	18.978
365.98	18.988
366.35	19.155
366.71	18.182
367.07	19.376
367.43	18.763
367.79	18.657
368.15	19.239
368.51	18.500
368.87	18.019
369.23	17.762
369.59	18.586
369.95	19.208
370.31	17.991
370.67	17.313
371.03	17.252
371.39	17.797
371.75	18.974
372.11	18.902
372.47	18.269
372.83	18.098
373.19	17.974
373.55	17.329
373.91	17.135
374.27	17.931
374.63	18.593
374.99	18.298
375.35	18.175
375.71	17.832
376.07	19.031
376.42	18.163
376.78	18.456
377.14	18.551
377.50	18.194
377.86	18.139
378.22	18.188
378.58	17.564
378.94	17.454
379.30	17.530
379.66	18.433
380.02	17.719
380.38	17.712
380.74	17.953
381.09	19.325
381.45	18.104
381.81	18.692
382.17	17.005
382.53	17.302
382.89	18.205
383.25	17.673
383.61	17.744
383.97	16.762
384.32	17.198
384.68	17.090
385.04	17.157
385.40	17.424
385.76	17.547
386.12	18.241
386.48	18.519
386.83	17.628
387.19	17.582
387.55	17.691
387.91	17.298
388.27	17.277
388.62	18.502
388.98	17.680
389.34	16.864
389.70	17.464
390.06	17.684
390.42	17.358
390.77	17.920
391.13	16.393
391.49	17.270
391.85	16.569
392.20	16.761
392.56	17.864
392.92	17.322
393.28	17.099
393.64	17.538
393.99	18.370
394.35	16.888
394.71	17.625
395.07	16.782
395.42	17.304
395.78	16.873
396.14	17.465
396.50	17.438
396.85	16.484
397.21	16.980
397.57	16.552
397.92	17.136
398.28	16.897
398.64	16.084
399.00	16.930
399.35	16.535
399.71	16.887
400.07	17.231
400.42	16.279
400.78	16.901
401.14	16.152
401.49	17.332
401.85	15.722
402.21	17.169
402.57	17.063
402.92	15.935
403.28	17.168
403.63	16.456
403.99	16.645
404.35	16.864
404.70	15.833
405.06	16.216
405.42	15.911
405.77	16.095
406.13	16.123
406.49	17.052
406.84	16.137
407.20	16.436
407.55	15.712
407.91	15.241
408.27	16.252
408.62	16.492
408.98	16.020
409.34	15.861
409.69	15.439
410.05	15.579
410.40	15.679
410.76	16.345
411.11	16.125
411.47	15.713
411.83	14.689
412.18	14.865
412.54	15.605
412.89	14.470
413.25	15.644
413.60	15.031
413.96	14.969
414.31	15.671
414.67	14.496
415.03	14.048
415.38	14.883
415.74	15.505
416.09	15.415
416.45	15.057
416.80	14.408
417.16	14.779
417.51	15.256
417.87	14.863
418.22	14.767
418.58	15.318
418.93	14.357
419.29	14.277
419.64	14.517
420.00	14.798
420.35	15.881
420.71	14.824
421.06	14.856
421.42	15.264
421.77	13.931
422.12	14.415
422.48	14.510
422.83	13.573
423.19	14.334
423.54	13.933
423.90	13.251
424.25	14.064
424.61	14.259
424.96	14.053
425.31	14.385
425.67	14.554
426.02	14.841
426.38	14.715
426.73	15.073
427.09	14.430
427.44	14.941
427.79	14.496
428.15	14.199
428.50	13.992
428.85	14.005
429.21	14.148
429.56	14.825
429.92	14.946
430.27	14.486
430.62	14.271
430.98	14.278
431.33	15.037
431.68	13.501
432.04	14.086
432.39	13.520
432.74	14.251
433.10	14.828
433.45	14.038
433.80	13.059
434.16	13.629
434.51	13.495
434.86	14.750
435.22	13.797
435.57	13.724
435.92	13.413
436.28	13.238
436.63	14.033
436.98	13.094
437.34	13.188
437.69	13.417
438.04	13.333
438.39	13.806
438.75	13.358
439.10	14.544
439.45	13.816
439.81	13.089
440.16	13.361
440.51	13.970
440.86	14.381
441.22	14.310
441.57	14.018
441.92	14.481
442.27	13.581
442.63	14.454
442.98	14.187
443.33	13.689
443.68	14.005
444.03	13.413
444.39	14.068
444.74	13.489
445.09	13.864
445.44	14.074
445.79	13.151
446.15	13.711
446.50	13.533
446.85	13.921
447.20	14.546
447.55	14.676
447.91	13.762
448.26	14.115
448.61	14.623
448.96	13.712
449.31	12.832
449.66	13.240
450.02	13.349
450.37	13.515
450.72	13.975
451.07	14.114
451.42	13.046
451.77	13.020
452.12	13.517
452.47	13.265
452.83	12.839
453.18	13.789
453.53	13.843
453.88	14.086
454.23	13.768
454.58	13.476
454.93	13.595
455.28	13.460
455.63	13.763
455.98	13.530
456.34	13.218
456.69	14.612
457.04	14.619
457.39	13.670
457.74	13.906
458.09	12.949
458.44	13.868
458.79	13.445
459.14	14.073
459.49	14.030
459.84	13.424
460.19	13.592
460.54	14.242
460.89	13.352
461.24	13.106
461.59	13.836
461.94	12.704
462.29	14.053
462.64	13.953
462.99	13.676
463.34	13.769
463.69	12.870
464.04	13.923
464.39	13.281
464.74	13.006
465.09	13.412
465.44	14.426
465.79	13.039
466.14	13.569
466.49	13.399
466.84	13.206
467.19	13.392
467.54	13.921
467.89	13.203
468.24	13.078
468.59	13.968
468.94	13.714
469.29	13.836
469.64	14.969
469.99	13.875
470.34	12.150
470.68	14.765
471.03	14.154
471.38	13.267
471.73	13.515
472.08	12.687
472.43	12.416
472.78	12.337
473.13	13.061
473.48	13.616
473.83	13.574
474.17	14.054
474.52	12.763
474.87	13.818
475.22	12.630
475.57	13.156
475.92	13.385
476.27	13.912
476.61	13.252
476.96	12.772
477.31	14.008
477.66	13.146
478.01	12.858
478.36	12.800
478.70	13.757
479.05	14.066
479.40	13.461
479.75	14.077
480.10	13.466
480.45	13.000
480.79	13.797
481.14	13.268
481.49	12.808
481.84	12.886
482.19	12.816
482.53	13.477
482.88	13.031
483.23	13.052
483.58	13.066
483.92	12.924
484.27	12.944
484.62	12.864
484.97	12.562
485.31	11.850
485.66	12.413
486.01	12.493
486.36	12.152
486.70	12.414
487.05	12.508
487.40	12.823
487.75	12.986
488.09	12.979
488.44	13.171
488.79	13.336
489.13	13.061
489.48	12.997
489.83	13.229
490.17	12.854
490.52	13.626
490.87	13.327
491.22	13.276
491.56	12.856
491.91	13.337
492.26	12.834
492.60	13.676
492.95	13.428
493.30	12.946
493.64	13.556
493.99	12.609
494.34	12.524
494.68	13.714
495.03	12.360
495.37	13.150
495.72	13.529
496.07	13.366
496.41	12.689
496.76	13.082
497.11	12.622
497.45	13.747
497.80	14.077
498.14	13.363
498.49	13.306
498.84	13.124
499.18	12.851
499.53	13.790
499.87	12.743
500.22	13.205
500.56	13.061
500.91	12.550
501.26	12.061
501.60	12.592
501.95	13.392
502.29	13.075
502.64	12.645
502.98	13.222
503.33	12.584
503.67	13.108
504.02	12.805
504.36	13.310
504.71	12.879
505.06	13.286
505.40	13.452
505.75	13.144
506.09	13.887
506.44	13.193
506.78	13.520
507.13	13.599
507.47	12.689
507.82	12.393
508.16	12.520
508.51	12.802
508.85	12.454
509.19	12.507
509.54	13.458
509.88	12.352
510.23	13.125
510.57	12.881
510.92	11.940
511.26	12.930
511.61	12.651
511.95	12.384
512.30	13.027
512.64	13.689
512.98	13.026
513.33	13.430
513.67	12.678
514.02	13.902
514.36	13.543
514.70	13.695
515.05	13.043
515.39	12.928
515.74	13.892
516.08	13.509
516.42	13.722
516.77	14.336
517.11	13.769
517.46	13.645
517.80	12.396
518.14	12.676
518.49	13.401
518.83	13.183
519.17	12.735
519.52	13.025
519.86	12.965
520.20	13.244
520.55	12.070
520.89	14.115
521.23	13.046
521.58	13.880
521.92	13.590
522.26	12.947
522.61	13.701
522.95	13.709
523.29	13.532
523.64	13.088
523.98	13.286
524.32	12.693
524.66	13.060
525.01	13.182
525.35	13.480
525.69	12.929
526.04	12.235
526.38	14.267
526.72	12.819
527.06	12.776
527.41	13.391
527.75	12.936
528.09	12.691
528.43	14.045
528.78	12.277
529.12	13.677
529.46	11.891
529.80	13.363
530.15	13.861
530.49	12.862
530.83	13.338
531.17	13.029
531.51	13.201
531.86	12.916
532.20	12.457
532.54	13.002
532.88	13.552
533.22	13.642
533.57	13.434
533.91	13.381
534.25	13.737
534.59	12.380
534.93	12.775
535.27	12.754
535.62	12.703
535.96	13.177
536.30	12.797
536.64	13.025
536.98	13.031
537.32	13.727
537.66	12.342
538.01	13.077
538.35	11.650
538.69	13.316
539.03	11.962
539.37	13.594
539.71	12.270
540.05	12.899
540.39	13.019
540.73	12.343
541.07	13.467
541.42	12.903
541.76	13.352
542.10	12.870
542.44	12.439
542.78	11.700
543.12	13.255
543.46	13.769
543.80	12.838
544.14	12.417
544.48	12.525
544.82	12.919
545.16	14.208
545.50	13.618
545.84	13.669
546.18	13.050
546.52	12.545
546.86	12.940
547.20	13.591
547.54	12.580
547.88	12.976
548.22	12.886
548.56	12.863
548.90	14.151
549.24	12.879
549.58	12.976
549.92	12.580
550.26	12.747
550.60	13.457
550.94	12.397
551.28	13.369
551.62	13.923
551.96	12.857
552.30	13.012
552.64	12.482
552.98	13.713
553.32	14.123
553.66	12.264
554.00	12.628
554.34	12.334
554.68	13.864
555.02	14.062
555.36	11.967
555.69	12.381
556.03	13.062
556.37	12.883
556.71	12.996
557.05	12.826
557.39	12.119
557.73	13.118
558.07	13.952
558.41	12.251
558.75	12.159
559.08	12.766
559.42	12.063
559.76	12.490
560.10	12.232
560.44	12.807
560.78	13.497
561.12	11.918
561.45	12.720
561.79	12.675
562.13	12.633
562.47	12.950
562.81	12.896
563.15	12.906
563.48	13.154
563.82	13.727
564.16	12.535
564.50	12.432
564.84	12.784
565.17	13.146
565.51	13.115
565.85	13.237
566.19	13.130
566.52	12.802
566.86	13.111
567.20	12.267
567.54	12.835
567.88	12.888
568.21	12.839
568.55	11.685
568.89	12.115
569.23	11.459
569.56	11.471
569.90	12.221
570.24	12.244
570.57	11.709
570.91	12.130
571.25	11.542
571.59	10.869
571.92	11.970
572.26	11.051
572.60	11.659
572.93	11.704
573.27	11.599
573.61	11.486
573.95	11.578
574.28	11.467
574.62	11.467
574.96	11.618
575.29	11.509
575.63	11.117
575.97	11.060
576.30	11.161
576.64	11.046
576.98	11.712
577.31	11.305
577.65	11.445
577.98	11.137
578.32	11.011
578.66	11.111
578.99	11.348
579.33	10.992
579.67	11.229
580.00	11.570
580.34	11.318
580.67	11.152
581.01	11.407
581.35	11.391
581.68	11.336
582.02	11.360
582.35	10.938
582.69	11.200
583.02	11.045
583.36	11.568
583.70	11.501
584.03	11.621
584.37	12.027
584.70	11.511
585.04	11.399
585.37	11.130
585.71	11.380
586.04	11.044
586.38	10.910
586.72	11.822
587.05	11.352
587.39	11.490
587.72	11.400
588.06	11.569
588.39	11.478
588.73	11.508
589.06	12.003
589.40	11.614
589.73	12.121
590.07	11.669
590.40	11.610
590.73	12.109
591.07	12.002
591.40	11.710
591.74	11.900
592.07	11.735
592.41	12.147
592.74	11.589
593.08	11.247
593.41	11.170
593.75	11.187
594.08	11.672
594.41	11.718
594.75	11.489
595.08	11.767
595.42	11.410
595.75	11.904
596.09	11.415
596.42	12.195
596.75	12.034
597.09	11.800
597.42	12.060
597.75	11.910
598.09	11.679
598.42	11.597
598.76	11.669
599.09	11.899
599.42	11.444
599.76	11.437
600.09	11.576
600.42	11.827
600.76	11.181
601.09	11.298
601.42	11.555
601.76	11.473
602.09	11.840
602.42	12.637
602.76	11.290
603.09	11.836
603.42	11.706
603.76	10.565
604.09	11.138
604.42	11.717
604.76	12.105
605.09	11.746
605.42	11.738
605.75	11.821
606.09	11.592
606.42	11.802
606.75	11.385
607.09	12.132
607.42	11.475
607.75	11.634
608.08	11.770
608.42	12.334
608.75	11.711
609.08	11.510
609.41	11.777
609.75	12.097
610.08	11.682
610.41	12.029
610.74	11.312
611.07	11.731
611.41	12.299
611.74	11.994
612.07	11.403
612.40	11.926
612.73	12.034
613.07	10.799
613.40	12.035
613.73	11.696
614.06	12.688
614.39	11.562
614.72	11.597
615.06	11.453
615.39	11.736
615.72	11.841
616.05	11.620
616.38	10.256
616.71	11.804
617.05	11.983
617.38	11.816
617.71	11.887
618.04	12.762
618.37	12.863
618.70	12.541
619.03	13.125
619.36	12.084
619.69	13.192
620.03	13.002
620.36	11.445
620.69	13.276
621.02	13.073
621.35	12.946
621.68	11.990
622.01	12.500
622.34	12.849
622.67	12.145
623.00	12.864
623.33	11.814
623.66	12.865
623.99	12.330
624.32	12.395
624.65	11.353
624.99	13.017
625.32	11.751
625.65	13.747
625.98	12.893
626.31	11.554
626.64	13.432
626.97	12.827
627.30	12.609
627.63	14.211
627.96	13.028
628.29	13.506
628.62	14.454
628.95	13.627
629.28	12.500
629.61	13.360
629.94	13.490
630.26	13.142
630.59	14.464
630.92	13.128
631.25	13.538
631.58	12.996
631.91	12.610
632.24	12.271
632.57	15.568
632.90	12.218
633.23	14.118
633.56	13.476
633.89	13.194
634.22	13.210
634.55	13.088
634.88	12.899
635.20	13.333
635.53	14.400
635.86	11.573
636.19	15.136
636.52	11.607
636.85	13.151
637.18	12.579
637.51	13.962
637.83	13.141
638.16	15.143
638.49	11.853
638.82	14.211
639.15	12.619
639.48	13.618
639.81	13.808
640.13	13.853
640.46	13.848
640.79	13.844
641.12	12.703
641.45	13.664
641.77	15.556
642.10	15.008
642.43	14.952
642.76	13.861
643.09	15.509
643.41	14.078
643.74	14.662
644.07	14.778
644.40	14.527
644.73	14.186
645.05	14.094
645.38	14.991
645.71	13.475
646.04	15.440
646.36	14.007
646.69	16.007
647.02	14.178
647.35	15.112
647.67	14.077
648.00	15.112
648.33	13.823
648.66	16.610
648.98	11.223
649.31	11.736
649.64	11.460
649.96	11.345
650.29	15.843
650.62	14.872
650.94	13.519
651.27	13.035
651.60	12.252
651.92	14.860
652.25	13.321
652.58	14.500
652.90	14.923
653.23	13.950
653.56	14.552
653.88	13.402
654.21	11.734
654.54	13.413
654.86	15.110
655.19	13.158
655.52	13.235
655.84	11.101
656.17	11.803
656.49	15.979
656.82	16.627
657.15	12.882
657.47	9.488
657.80	7.175
658.13	7.013
658.45	10.643
658.78	11.078
659.10	10.690
659.43	11.067
659.75	11.051
660.08	10.897
660.41	12.462
660.73	12.155
661.06	13.692
661.38	12.916
661.71	12.936
662.03	15.236
662.36	14.286
662.68	13.938
663.01	16.376
663.33	13.225
663.66	10.930
663.98	11.395
664.31	15.778
664.63	11.982
664.96	12.609
665.28	11.258
665.61	13.203
665.93	12.174
666.26	14.534
666.58	13.870
666.91	13.647
667.23	15.566
667.56	13.981
667.88	14.149
668.21	14.797
668.53	14.421
668.86	17.217
669.18	13.443
669.50	13.075
669.83	12.791
670.15	11.888
670.48	11.722
670.80	16.590
671.13	13.870
671.45	15.068
671.77	13.734
672.10	13.663
672.42	14.607
672.75	14.565
673.07	15.027
673.39	14.679
673.72	10.256
674.04	13.958
674.37	13.771
674.69	11.349
675.01	12.889
675.34	13.739
675.66	13.426
675.98	14.856
676.31	13.532
676.63	14.727
676.95	12.500
677.28	14.353
677.60	15.904
677.92	13.761
678.25	14.004
678.57	14.069
678.89	14.076
679.22	13.199
679.54	13.655
679.86	9.543
680.18	15.728
680.51	12.311
680.83	11.332
681.15	13.400
681.48	16.803
681.80	14.050
682.12	14.919
682.44	10.251
682.77	13.024
683.09	16.247
683.41	11.136
683.73	14.055
684.06	12.832
684.38	11.183
684.70	14.597
685.02	11.203
685.34	9.881
685.67	14.071
685.99	13.382
686.31	16.460
686.63	11.317
686.96	11.027
687.28	10.909
687.60	12.548
687.92	15.960
688.24	15.927
688.56	13.537
688.89	12.946
689.21	15.778
689.53	10.905
689.85	14.419
690.17	13.170
690.49	12.293
690.82	11.650
691.14	12.857
691.46	12.150
691.78	12.387
692.10	15.054
692.42	13.203
692.74	12.821
693.06	11.937
693.39	12.896
693.71	10.181
694.03	9.931
694.35	14.019
694.67	10.859
694.99	10.705
695.31	14.621
695.63	14.250
695.95	12.879
696.27	12.694
696.59	15.833
696.91	12.045
697.23	11.825
697.56	13.119
697.88	13.118
698.20	11.162
698.52	11.765
698.84	12.919
699.16	10.000
699.48	13.534
699.80	14.392
700.12	11.860
700.44	14.566
700.76	11.919
701.08	10.909
701.40	13.253
701.72	18.827
702.04	15.182
702.36	12.375
702.68	12.012
703.00	13.333
703.32	13.783
703.64	10.169
703.96	11.884
704.28	11.963
704.60	12.381
704.91	10.726
705.23	13.621
705.55	14.134
705.87	14.440
706.19	13.333
706.51	13.746
706.83	14.469
707.15	12.461
707.47	15.686
707.79	11.719
708.11	13.000
708.43	13.750
708.74	16.537
709.06	14.366
709.38	13.456
709.70	14.201
710.02	14.650
710.34	15.170
710.66	14.423
710.98	11.258
711.29	13.115
711.61	9.492
711.93	15.635
712.25	16.495
712.57	10.989
712.89	7.836
713.20	15.917
713.52	14.286
713.84	12.969
714.16	13.402
714.48	11.290
714.80	13.782
715.11	12.766
715.43	10.031
715.75	10.333
716.07	11.960
716.39	13.087
716.70	12.177
717.02	9.160
717.34	14.980
717.66	11.504
717.97	8.696
718.29	12.971
718.61	13.386
718.93	14.341
719.24	11.407
719.56	14.458
719.88	12.715
720.20	13.258
720.51	10.345
720.83	13.900
721.15	12.605
721.46	8.065
721.78	8.300
722.10	9.665
722.42	8.299
722.73	12.653
723.05	11.429
723.37	12.288
723.68	15.315
724.00	10.256
724.32	7.556
724.63	10.909
724.95	14.410
725.27	17.972
725.58	13.983
725.90	6.349
726.22	11.969
726.53	12.542
726.85	10.112
727.16	10.189
727.48	9.312
727.80	17.409
728.11	14.407
728.43	14.902
728.74	10.484
729.06	11.600
729.38	17.669
729.69	8.765
730.01	11.923
730.32	13.060
730.64	17.668
730.96	14.340
731.27	9.000
731.59	10.847
731.90	8.917
732.22	12.934
732.53	12.625
732.85	12.057
733.16	17.845
733.48	7.554
733.80	10.870
734.11	12.542
734.43	8.591
734.74	12.121
735.06	9.121
735.37	14.502
735.69	12.121
736.00	7.666
736.32	13.423
736.63	13.028
736.95	13.311
737.26	8.185
737.58	12.081
737.89	11.722
738.21	10.902
738.52	14.403
738.83	15.284
739.15	5.677
739.46	14.173
739.78	9.890
740.09	15.686
740.41	13.768
740.72	4.724
741.04	11.741
741.35	9.362
741.66	13.270
741.98	11.224
742.29	12.871
742.61	15.183
742.92	7.109
743.23	3.241
743.55	13.575
743.86	11.005
744.18	12.919
744.49	9.574
744.80	8.152
745.12	14.439
745.43	12.195
745.74	20.312
746.06	13.171
746.37	13.613
746.68	6.161
747.00	5.851
747.31	15.920
747.62	12.621
747.94	9.569
748.25	11.386
748.56	16.940
748.88	8.377
749.19	15.957
749.50	13.300
749.82	11.321
750.13	6.422
750.44	16.165
750.75	15.299
751.07	15.328
751.38	13.027
751.69	9.020
752.01	12.791
752.32	11.554
752.63	11.067
752.94	11.207
753.26	14.644
753.57	12.217
753.88	12.832
754.19	8.333
754.51	13.223
754.82	12.146
755.13	17.083
755.44	15.323
755.75	12.891
756.07	11.673
756.38	9.057
756.69	9.962
757.00	11.667
757.31	11.765
757.63	9.756
757.94	14.444
758.25	8.219
758.56	10.372
758.87	8.499
759.18	11.526
759.50	10.545
759.81	11.706
760.12	11.935
760.43	6.667
760.74	9.877
761.05	9.538
761.36	12.500
761.67	10.909
761.99	12.585
762.30	11.636
762.61	12.253
762.92	14.480
763.23	14.414
763.54	9.346
763.85	11.441
764.16	8.714
764.47	12.903
764.78	8.425
765.10	12.121
765.41	11.672
765.72	13.651
766.03	11.654
766.34	11.679
766.65	11.155
766.96	13.636
767.27	8.511
767.58	7.471
767.89	10.638
768.20	9.091
768.51	15.934
768.82	11.330
769.13	13.364
769.44	13.305
769.75	4.566
770.06	11.207
770.37	7.692
770.68	11.675
770.99	7.692
771.30	11.765
771.61	10.407
771.92	15.086
772.23	11.330
772.54	15.591
772.85	12.963
773.16	14.607
773.47	13.725
773.78	13.072
774.09	9.581
774.39	13.333
774.70	12.102
775.01	13.793
775.32	7.857
775.63	0.826
775.94	11.450
776.25	16.535
776.56	6.667
776.87	9.615
777.18	4.274
777.48	8.621
777.79	6.087
778.10	8.571
778.41	14.414
778.72	15.079
779.03	9.774
779.34	12.766
779.65	17.123
779.95	7.534
780.26	4.138
780.57	5.691
780.88	9.449
781.19	5.172
781.50	20.155
781.80	14.793
782.11	2.516
782.42	7.692
782.73	10.072
783.04	11.111
783.34	10.417
783.65	1.709
783.96	13.115
784.27	15.862
784.57	9.756
784.88	14.062
785.19	25.000
785.50	13.000
785.81	12.069
786.11	6.034
786.42	1.942
786.73	13.636
787.04	12.245
787.34	8.929
787.65	10.476
787.96	4.425
788.26	3.636
788.57	4.274
788.88	14.844
789.19	4.762
789.49	4.348
789.80	1.020
790.11	10.101
790.41	7.273
790.72	15.217
791.03	6.818
791.33	1.250
791.64	3.750
791.95	3.488
792.25	5.319
792.56	14.607
792.87	4.110
793.17	11.594
793.48	8.000
793.79	7.500
794.09	13.750
794.40	0.943
794.70	7.767
795.01	5.691
795.32	15.385
795.62	6.667
795.93	8.824
796.23	20.755
796.54	9.375
796.85	-1.471
797.15	12.676
797.46	12.500
797.76	13.636
798.07	23.256
798.37	2.632
798.68	6.061
798.99	2.469
799.29	10.000
799.60	-7.246
799.90	22.667
800.21	11.475
800.51	10.769
800.82	15.254
801.12	7.246
801.43	3.279
801.73	15.873
802.04	-12.000
802.34	1.493
802.65	17.308
802.95	-10.714
803.26	-17.308
803.56	-9.804
803.87	-2.174
804.17	13.333
804.48	23.810
804.78	0.000
805.09	4.348
805.39	-6.667
805.70	16.667
806.00	-8.772
806.30	16.901
806.61	-1.429
806.91	-2.778
807.22	13.158
807.52	30.667
807.83	-12.727
808.13	4.167
808.43	19.118
808.74	-2.985
809.04	-1.695
809.35	1.923
809.65	9.375
809.95	-51.351
810.26	-9.091
810.56	5.479
810.86	-11.905
811.17	-14.000
811.47	16.327
811.77	-2.632
812.08	2.273
812.38	11.321
812.69	2.500
812.99	-6.061
813.29	7.895
813.59	-31.429
813.90	-2.273
814.20	10.256
814.50	-9.615
814.81	7.547
815.11	-14.894
815.41	10.169
815.72	4.762
816.02	21.569
816.32	-4.167
816.62	0.000
816.93	-16.216
817.23	-20.000
817.53	10.417
817.84	0.000
818.14	15.385
818.44	-36.842
818.74	32.609
819.04	-22.500
819.35	-18.919
819.65	-20.588
819.95	-13.889
820.25	11.905
820.56	12.500
820.86	-24.138
821.16	20.000
821.46	10.638
821.76	2.500
822.07	2.326
822.37	-8.108
822.67	-25.000
822.97	7.143
823.27	0.000
823.57	-24.000
823.88	-18.519
824.18	14.286
824.48	17.647
824.78	-16.129
825.08	4.348
825.38	6.061
825.69	-20.833
825.99	26.316
826.29	27.778
826.59	-60.000
826.89	-128.571
827.19	19.565
827.49	0.000
827.79	14.286
828.09	-17.857
828.39	12.121
828.70	27.027
829.00	-32.143
829.30	-4.762
829.60	0.000
829.90	-12.500
830.20	-15.789
830.50	-37.037
830.80	-26.087
831.10	-36.364
831.40	-9.091
831.70	-12.903
832.00	61.905
832.30	-23.810
832.60	-75.000
832.90	-20.690
833.20	-50.000
833.50	-24.242
833.80	-11.111
834.10	-11.538
834.40	0.000
834.70	-122.222
835.00	-36.842
835.30	30.769
835.60	-60.000
835.90	41.935
836.20	13.636
836.50	10.714
836.80	-69.231
837.10	-21.429
837.40	-366.667
837.70	22.727
838.00	-118.182
838.30	34.783
838.60	-46.154
838.90	-36.364
839.19	32.143
839.49	20.000
839.79	-30.769
840.09	-16.667
840.39	28.571
840.69	3.571
840.99	-30.769
841.29	-73.684
841.59	-150.000
841.88	-118.182
842.18	20.000
842.48	-31.250
842.78	-80.000
843.08	-7.407
843.38	-140.000
843.68	-30.435
843.97	0.000
844.27	-100.000
844.57	-25.000
844.87	-38.889
845.17	-23.810
845.47	-33.333
845.76	-14.286
846.06	-23.529
846.36	70.000
846.66	-57.143
846.96	-73.333
847.25	-275.000
847.55	21.429
847.85	-50.000
848.15	-13.636
848.44	-566.667
848.74	25.000
849.04	14.815
849.34	-63.636
849.63	-200.000
849.93	-320.000
850.23	-83.333
850.53	-130.000
850.82	7.692
851.12	55.556
851.42	-26.667
851.71	-30.769
852.01	-7.143
852.31	-550.000
852.61	-100.000
852.90	-20.000
853.20	5.263
853.50	-8.333
853.79	-13.043
854.09	25.000
854.39	5.263
854.68	20.833
854.98	-22.581
855.28	23.077
855.57	25.000
855.87	-22.222
856.17	11.111
856.46	14.286
856.76	-46.667
857.05	-77.778
857.35	-8.000
857.65	-38.889
857.94	-15.385
858.24	51.724
858.53	0.000
858.83	25.926
859.13	13.636
859.42	-17.391
859.72	-25.000
860.01	-533.333
860.31	16.000
860.60	-9.524
860.90	-200.000
861.20	-26.667
861.49	-400.000
861.79	-60.000
862.08	-30.000
862.38	126.667
862.67	-220.000
862.97	-50.000
863.26	-66.667
863.56	38.889
863.85	-466.667
864.15	-11.111
864.44	-120.000
864.74	14.286
865.03	575.000
865.33	-400.000
865.62	133.333
865.92	-8.333
866.21	-250.000
866.51	-12.500
866.80	-145.455
867.10	-700.000
867.39	-16.667
867.69	0.000
867.98	30.769
868.27	-300.000
868.57	-26.667
868.86	5.556
869.16	-30.769
869.45	46.667
869.75	-1700.000
870.04	0.000
870.33	-14.286
870.63	47.619
870.92	500.000
871.22	-280.000
871.51	-1100.000
871.80	44.444
872.10	466.667
>>>>>End Processed Spectral Data<<<<<
