SpectraSuite Data File
++++++++++++++++++++++++++++++++++++
Date: Fri May 15 20:57:01 PDT 2015
User: schluterlab
Dark Spectrum Present: Yes
Reference Spectrum Present: Yes
Number of Sampled Component Spectra: 1
Spectrometers: USB2E3373
Integration Time (usec): 3000 (USB2E3373)
Spectra Averaged: 3 (USB2E3373)
Boxcar Smoothing: 0 (USB2E3373)
Correct for Electrical Dark: No (USB2E3373)
Strobe/Lamp Enabled: No (USB2E3373)
Correct for Detector Non-linearity: No (USB2E3373)
Correct for Stray Light: No (USB2E3373)
Number of Pixels in Processed Spectrum: 2048
>>>>>Begin Processed Spectral Data<<<<<
178.53	0.000
178.91	0.000
179.29	-62.500
179.67	-550.000
180.04	-0.000
180.42	175.000
180.80	-200.000
181.18	233.333
181.56	350.000
181.94	-300.000
182.31	600.000
182.69	-240.000
183.07	-300.000
183.45	160.000
183.83	66.667
184.20	-45.455
184.58	111.111
184.96	-75.000
185.34	-100.000
185.72	-550.000
186.09	84.615
186.47	-1100.000
186.85	166.667
187.23	144.444
187.61	500.000
187.98	-433.333
188.36	-55.556
188.74	-433.333
189.12	47.059
189.49	38.889
189.87	0.000
190.25	0.000
190.63	-50.000
191.00	-33.333
191.38	26.316
191.76	800.000
192.14	-50.000
192.51	0.000
192.89	-44.444
193.27	-157.143
193.65	150.000
194.02	154.545
194.40	20.000
194.78	-225.000
195.15	-58.333
195.53	-37.500
195.91	25.000
196.29	-50.000
196.66	53.846
197.04	314.286
197.42	-77.778
197.79	-433.333
198.17	-84.615
198.55	1100.000
198.92	-300.000
199.30	-700.000
199.68	-120.000
200.05	-666.667
200.43	0.000
200.81	-133.333
201.18	100.000
201.56	900.000
201.94	-400.000
202.31	266.667
202.69	-400.000
203.07	325.000
203.44	0.000
203.82	0.000
204.19	-14.286
204.57	-566.667
204.95	162.500
205.32	50.000
205.70	57.143
206.08	-200.000
206.45	122.222
206.83	-7.143
207.20	-71.429
207.58	700.000
207.96	-133.333
208.33	-30.000
208.71	-25.000
209.08	-66.667
209.46	-400.000
209.84	-200.000
210.21	-100.000
210.59	0.000
210.96	-100.000
211.34	-225.000
211.71	60.000
212.09	-85.714
212.46	-1600.000
212.84	0.000
213.22	50.000
213.59	750.000
213.97	61.538
214.34	-90.909
214.72	-133.333
215.09	450.000
215.47	-61.538
215.84	-63.636
216.22	-400.000
216.59	-50.000
216.97	550.000
217.34	-125.000
217.72	-200.000
218.09	0.000
218.47	112.500
218.84	-500.000
219.22	-88.889
219.59	120.000
219.97	333.333
220.34	250.000
220.72	-42.857
221.09	-250.000
221.47	50.000
221.84	-550.000
222.22	-600.000
222.59	18.182
222.97	16.667
223.34	-366.667
223.72	-50.000
224.09	19.048
224.46	-3.571
224.84	200.000
225.21	-50.000
225.59	0.000
225.96	-750.000
226.34	425.000
226.71	-114.286
227.08	-100.000
227.46	-87.500
227.83	-300.000
228.21	-22.222
228.58	0.000
228.95	-100.000
229.33	60.000
229.70	12.500
230.08	-112.500
230.45	-42.857
230.82	57.143
231.20	-86.667
231.57	35.714
231.95	-114.286
232.32	-90.000
232.69	-14.286
233.07	-66.667
233.44	-180.000
233.81	-10.000
234.19	-11.111
234.56	29.412
234.93	250.000
235.31	100.000
235.68	-240.000
236.05	-53.846
236.43	-65.000
236.80	-23.529
237.17	-9.375
237.55	-30.000
237.92	-51.852
238.29	-5.556
238.67	6.667
239.04	-32.353
239.41	-19.512
239.79	-30.000
240.16	0.000
240.53	-36.842
240.91	-4.348
241.28	-7.937
241.65	5.357
242.02	6.849
242.40	-10.000
242.77	-6.780
243.14	-12.121
243.51	2.500
243.89	18.391
244.26	-6.897
244.63	-10.714
245.00	-1.031
245.38	-3.093
245.75	-20.225
246.12	-6.897
246.49	4.132
246.87	0.962
247.24	-7.563
247.61	-13.158
247.98	-2.439
248.36	-1.250
248.73	0.000
249.10	-2.597
249.47	-3.797
249.84	-6.536
250.22	-2.353
250.59	0.000
250.96	6.573
251.33	-6.977
251.70	-7.647
252.08	-3.046
252.45	-4.455
252.82	-3.518
253.19	-0.922
253.56	-9.813
253.94	2.252
254.31	2.174
254.68	0.000
255.05	-1.575
255.42	-3.493
255.79	-0.386
256.16	0.389
256.54	2.612
256.91	1.521
257.28	-0.372
257.65	-1.873
258.02	-3.546
258.39	2.020
258.76	0.733
259.14	-0.664
259.51	-0.971
259.88	0.344
260.25	0.327
260.62	0.000
260.99	-0.339
261.36	-5.479
261.73	-3.481
262.10	1.824
262.47	-1.227
262.85	-3.135
263.22	-3.077
263.59	-1.869
263.96	0.621
264.33	-1.212
264.70	-0.298
265.07	-3.274
265.44	2.266
265.81	-1.130
266.18	-0.273
266.55	-1.542
266.92	2.850
267.29	0.783
267.66	0.256
268.03	-0.785
268.40	-1.044
268.77	2.139
269.14	-0.480
269.51	0.514
269.88	-2.743
270.25	-0.765
270.62	-1.220
270.99	-1.790
271.36	-3.423
271.73	1.408
272.10	0.973
272.47	-0.473
272.84	-0.248
273.21	0.232
273.58	0.000
273.95	2.975
274.32	0.462
274.69	-0.905
275.06	1.116
275.43	-1.814
275.80	-1.325
276.17	-2.529
276.54	-1.927
276.91	0.219
277.28	-0.437
277.65	0.207
278.02	0.213
278.39	-0.219
278.76	0.839
279.13	-2.490
279.50	-0.420
279.87	0.000
280.23	-2.366
280.60	2.534
280.97	0.404
281.34	-2.308
281.71	1.027
282.08	0.000
282.45	0.391
282.82	-0.386
283.19	-0.193
283.56	-0.385
283.92	-2.657
284.29	-3.654
284.66	-1.744
285.03	1.572
285.40	-0.756
285.77	0.879
286.14	-0.361
286.51	-0.369
286.87	-0.548
287.24	-1.105
287.61	-1.058
287.98	1.228
288.35	0.000
288.72	1.401
289.08	0.347
289.45	0.176
289.82	-0.524
290.19	-2.218
290.56	-1.201
290.93	0.000
291.29	1.233
291.66	1.575
292.03	-0.797
292.40	0.484
292.77	-0.319
293.13	-2.760
293.50	-0.607
293.87	1.374
294.24	0.618
294.60	0.894
294.97	1.488
295.34	-0.460
295.71	-0.596
296.08	0.897
296.44	-0.711
296.81	0.694
297.18	1.884
297.55	2.846
297.91	1.096
298.28	1.583
298.65	0.950
299.02	0.000
299.38	-0.684
299.75	-0.828
300.12	0.131
300.48	-1.054
300.85	0.760
301.22	0.130
301.59	-1.053
301.95	0.633
302.32	2.464
302.69	0.622
303.05	0.371
303.42	1.245
303.79	1.986
304.15	2.031
304.52	0.119
304.89	-0.351
305.25	0.121
305.62	0.233
305.99	0.000
306.35	0.925
306.72	0.562
307.09	-0.342
307.45	0.918
307.82	0.231
308.19	0.348
308.55	0.218
308.92	1.525
309.29	-1.564
309.65	0.538
310.02	0.660
310.38	1.756
310.75	2.295
311.12	1.184
311.48	1.273
311.85	1.571
312.22	1.266
312.58	1.380
312.95	0.640
313.31	0.828
313.68	1.885
314.05	0.408
314.41	3.093
314.78	2.784
315.14	3.289
315.51	3.416
315.87	2.664
316.24	5.460
316.61	4.724
316.97	3.373
317.34	4.980
317.70	4.971
318.07	5.000
318.43	5.784
318.80	5.492
319.16	6.543
319.53	7.217
319.89	7.874
320.26	7.996
320.62	9.328
320.99	8.873
321.35	9.147
321.72	10.903
322.08	10.574
322.45	11.472
322.81	11.690
323.18	12.365
323.54	13.127
323.91	13.924
324.27	15.625
324.64	16.760
325.00	16.332
325.37	18.733
325.73	18.132
326.10	19.255
326.46	21.345
326.83	20.822
327.19	21.273
327.56	22.068
327.92	23.239
328.29	23.036
328.65	24.434
329.01	25.551
329.38	25.899
329.74	26.157
330.11	26.784
330.47	26.902
330.84	25.865
331.20	30.228
331.56	28.611
331.93	29.406
332.29	30.156
332.66	29.955
333.02	30.483
333.38	29.239
333.75	31.227
334.11	30.707
334.48	33.001
334.84	32.051
335.20	32.205
335.57	30.916
335.93	31.888
336.29	31.584
336.66	32.879
337.02	31.877
337.38	32.130
337.75	33.091
338.11	33.003
338.47	34.124
338.84	33.826
339.20	34.644
339.56	34.220
339.93	33.662
340.29	33.670
340.65	34.767
341.02	33.245
341.38	33.717
341.74	33.922
342.11	34.315
342.47	33.808
342.83	34.689
343.20	33.101
343.56	34.957
343.92	33.835
344.28	34.500
344.65	33.247
345.01	34.140
345.37	33.894
345.73	35.314
346.10	35.116
346.46	34.062
346.82	33.142
347.19	34.746
347.55	33.918
347.91	35.356
348.27	34.842
348.63	35.605
349.00	34.537
349.36	35.495
349.72	35.904
350.08	35.082
350.45	35.036
350.81	34.718
351.17	34.039
351.53	35.592
351.89	33.774
352.26	33.920
352.62	34.839
352.98	33.173
353.34	32.609
353.70	34.466
354.07	34.032
354.43	34.267
354.79	34.187
355.15	34.048
355.51	35.047
355.87	35.113
356.24	34.421
356.60	34.681
356.96	34.683
357.32	34.425
357.68	33.776
358.04	34.733
358.40	32.797
358.77	34.689
359.13	35.629
359.49	33.821
359.85	34.321
360.21	34.450
360.57	34.047
360.93	33.661
361.29	32.704
361.66	34.404
362.02	33.864
362.38	33.587
362.74	34.217
363.10	34.537
363.46	33.506
363.82	34.636
364.18	33.653
364.54	33.162
364.90	32.975
365.26	34.207
365.62	35.547
365.98	33.065
366.35	35.324
366.71	33.925
367.07	33.091
367.43	34.004
367.79	33.216
368.15	33.094
368.51	32.411
368.87	32.592
369.23	31.552
369.59	33.673
369.95	31.598
370.31	34.176
370.67	33.657
371.03	31.740
371.39	32.458
371.75	32.454
372.11	32.596
372.47	32.027
372.83	33.144
373.19	33.024
373.55	31.913
373.91	33.117
374.27	31.821
374.63	34.027
374.99	33.191
375.35	30.989
375.71	32.448
376.07	32.303
376.42	32.381
376.78	31.477
377.14	31.821
377.50	32.138
377.86	31.459
378.22	31.461
378.58	31.667
378.94	30.624
379.30	30.193
379.66	31.285
380.02	31.208
380.38	30.432
380.74	30.281
381.09	30.798
381.45	30.826
381.81	29.796
382.17	30.838
382.53	30.981
382.89	30.320
383.25	30.678
383.61	31.524
383.97	30.222
384.32	30.832
384.68	29.721
385.04	30.453
385.40	29.932
385.76	31.509
386.12	31.113
386.48	30.332
386.83	30.057
387.19	29.976
387.55	30.238
387.91	29.034
388.27	29.609
388.62	29.956
388.98	29.466
389.34	29.731
389.70	30.081
390.06	28.760
390.42	28.109
390.77	28.515
391.13	26.986
391.49	28.913
391.85	28.785
392.20	27.746
392.56	28.481
392.92	29.419
393.28	28.597
393.64	27.928
393.99	30.157
394.35	28.020
394.71	26.948
395.07	27.593
395.42	27.565
395.78	27.427
396.14	28.058
396.50	27.647
396.85	26.980
397.21	27.569
397.57	27.210
397.92	27.322
398.28	27.529
398.64	25.542
399.00	26.467
399.35	27.088
399.71	26.824
400.07	26.844
400.42	26.132
400.78	26.454
401.14	26.497
401.49	26.206
401.85	25.046
402.21	25.904
402.57	26.375
402.92	26.035
403.28	26.128
403.63	24.527
403.99	25.128
404.35	25.484
404.70	24.048
405.06	25.264
405.42	24.984
405.77	24.463
406.13	25.204
406.49	24.334
406.84	24.389
407.20	25.105
407.55	23.117
407.91	23.930
408.27	24.665
408.62	24.615
408.98	23.845
409.34	23.482
409.69	23.643
410.05	23.153
410.40	23.148
410.76	23.945
411.11	23.188
411.47	22.551
411.83	21.532
412.18	22.651
412.54	21.473
412.89	21.860
413.25	22.864
413.60	21.988
413.96	20.491
414.31	22.134
414.67	21.232
415.03	21.571
415.38	21.018
415.74	21.042
416.09	21.424
416.45	21.337
416.80	21.811
417.16	20.649
417.51	21.053
417.87	20.339
418.22	20.855
418.58	20.870
418.93	20.752
419.29	20.038
419.64	20.544
420.00	21.348
420.35	20.119
420.71	20.778
421.06	20.074
421.42	20.553
421.77	20.173
422.12	19.637
422.48	19.004
422.83	19.896
423.19	20.090
423.54	18.754
423.90	19.199
424.25	19.747
424.61	19.951
424.96	19.454
425.31	19.469
425.67	19.894
426.02	19.906
426.38	18.723
426.73	19.068
427.09	19.873
427.44	19.294
427.79	19.505
428.15	19.114
428.50	18.474
428.85	17.998
429.21	19.242
429.56	18.598
429.92	18.028
430.27	17.794
430.62	17.041
430.98	17.569
431.33	17.455
431.68	17.739
432.04	17.663
432.39	17.513
432.74	17.619
433.10	18.851
433.45	17.742
433.80	17.818
434.16	16.565
434.51	18.172
434.86	17.944
435.22	17.443
435.57	16.843
435.92	16.647
436.28	17.651
436.63	17.399
436.98	16.222
437.34	16.697
437.69	17.472
438.04	16.752
438.39	16.127
438.75	16.758
439.10	17.261
439.45	16.190
439.81	16.636
440.16	16.568
440.51	17.134
440.86	17.825
441.22	16.629
441.57	16.446
441.92	17.629
442.27	16.962
442.63	16.916
442.98	17.059
443.33	16.472
443.68	15.544
444.03	16.890
444.39	16.626
444.74	17.001
445.09	16.648
445.44	15.840
445.79	17.277
446.15	16.189
446.50	15.752
446.85	17.003
447.20	17.049
447.55	17.076
447.91	15.962
448.26	16.619
448.61	16.350
448.96	16.638
449.31	15.954
449.66	15.621
450.02	16.030
450.37	16.420
450.72	16.094
451.07	17.152
451.42	16.042
451.77	15.793
452.12	16.148
452.47	16.162
452.83	16.254
453.18	14.991
453.53	16.372
453.88	15.422
454.23	15.427
454.58	15.743
454.93	16.817
455.28	15.556
455.63	15.871
455.98	17.078
456.34	15.390
456.69	15.629
457.04	16.572
457.39	15.371
457.74	16.324
458.09	15.656
458.44	14.921
458.79	15.462
459.14	15.789
459.49	15.881
459.84	15.398
460.19	14.927
460.54	16.320
460.89	15.398
461.24	15.776
461.59	15.558
461.94	15.094
462.29	15.923
462.64	15.349
462.99	15.708
463.34	14.534
463.69	15.444
464.04	15.073
464.39	15.221
464.74	14.540
465.09	15.159
465.44	15.580
465.79	14.796
466.14	15.051
466.49	13.744
466.84	15.110
467.19	14.143
467.54	14.559
467.89	14.150
468.24	14.599
468.59	15.175
468.94	13.143
469.29	15.672
469.64	14.901
469.99	14.366
470.34	14.061
470.68	14.392
471.03	14.508
471.38	14.123
471.73	14.636
472.08	13.840
472.43	13.490
472.78	13.297
473.13	13.878
473.48	14.332
473.83	14.134
474.17	14.443
474.52	14.422
474.87	14.000
475.22	14.094
475.57	14.060
475.92	14.372
476.27	14.261
476.61	13.194
476.96	13.720
477.31	13.575
477.66	13.989
478.01	13.139
478.36	12.908
478.70	13.975
479.05	13.791
479.40	13.884
479.75	13.347
480.10	13.262
480.45	13.350
480.79	13.948
481.14	13.320
481.49	13.054
481.84	13.031
482.19	13.003
482.53	13.525
482.88	13.842
483.23	13.388
483.58	13.538
483.92	12.827
484.27	12.671
484.62	13.268
484.97	12.935
485.31	12.247
485.66	11.902
486.01	12.394
486.36	12.419
486.70	12.414
487.05	12.464
487.40	12.642
487.75	12.817
488.09	12.268
488.44	11.829
488.79	12.850
489.13	13.101
489.48	12.527
489.83	12.287
490.17	12.135
490.52	12.333
490.87	12.402
491.22	13.037
491.56	12.381
491.91	12.333
492.26	12.786
492.60	12.236
492.95	12.543
493.30	12.506
493.64	12.230
493.99	12.609
494.34	11.699
494.68	11.905
495.03	11.825
495.37	12.610
495.72	12.670
496.07	12.488
496.41	12.453
496.76	12.114
497.11	11.924
497.45	12.458
497.80	12.159
498.14	12.022
498.49	11.478
498.84	12.076
499.18	12.701
499.53	12.847
499.87	11.770
500.22	11.474
500.56	11.750
500.91	11.345
501.26	11.814
501.60	11.904
501.95	11.451
502.29	11.622
502.64	11.921
502.98	11.544
503.33	11.383
503.67	11.373
504.02	11.632
504.36	11.875
504.71	12.172
505.06	12.582
505.40	11.371
505.75	11.959
506.09	11.607
506.44	12.320
506.78	11.531
507.13	11.634
507.47	11.018
507.82	11.645
508.16	11.516
508.51	11.752
508.85	11.146
509.19	10.750
509.54	11.957
509.88	10.626
510.23	10.920
510.57	12.186
510.92	10.981
511.26	11.784
511.61	11.441
511.95	11.452
512.30	11.086
512.64	11.408
512.98	11.230
513.33	11.975
513.67	11.143
514.02	11.842
514.36	11.829
514.70	11.830
515.05	11.751
515.39	11.275
515.74	11.796
516.08	10.938
516.42	11.955
516.77	11.235
517.11	11.751
517.46	10.832
517.80	11.681
518.14	11.145
518.49	11.478
518.83	10.632
519.17	10.491
519.52	11.427
519.86	10.444
520.20	10.875
520.55	10.444
520.89	11.794
521.23	10.766
521.58	12.240
521.92	11.538
522.26	11.191
522.61	11.234
522.95	11.126
523.29	11.182
523.64	10.864
523.98	11.342
524.32	10.180
524.66	10.563
525.01	10.260
525.35	11.342
525.69	10.303
526.04	11.111
526.38	11.025
526.72	10.203
527.06	10.441
527.41	10.356
527.75	9.853
528.09	10.299
528.43	11.681
528.78	10.297
529.12	10.645
529.46	10.526
529.80	10.956
530.15	11.419
530.49	10.640
530.83	10.944
531.17	9.872
531.51	11.491
531.86	9.517
532.20	10.508
532.54	10.551
532.88	11.225
533.22	10.349
533.57	10.223
533.91	9.465
534.25	10.482
534.59	10.199
534.93	10.069
535.27	9.772
535.62	9.203
535.96	11.220
536.30	10.290
536.64	10.407
536.98	10.314
537.32	10.597
537.66	11.290
538.01	10.000
538.35	9.986
538.69	9.654
539.03	9.979
539.37	9.960
539.71	10.157
540.05	9.708
540.39	9.903
540.73	9.972
541.07	9.461
541.42	10.282
541.76	10.255
542.10	9.704
542.44	10.146
542.78	9.085
543.12	9.615
543.46	11.196
543.80	10.132
544.14	9.212
544.48	10.593
544.82	9.296
545.16	10.587
545.50	10.547
545.84	10.057
546.18	10.355
546.52	9.156
546.86	9.418
547.20	9.514
547.54	8.763
547.88	10.598
548.22	9.336
548.56	10.158
548.90	9.771
549.24	9.229
549.58	9.520
549.92	9.793
550.26	9.670
550.60	9.665
550.94	10.829
551.28	9.428
551.62	9.615
551.96	9.699
552.30	9.795
552.64	9.309
552.98	9.986
553.32	9.558
553.66	9.361
554.00	9.562
554.34	10.414
554.68	9.292
555.02	9.970
555.36	8.452
555.69	8.132
556.03	9.350
556.37	9.466
556.71	9.314
557.05	9.918
557.39	8.178
557.73	9.370
558.07	9.804
558.41	8.959
558.75	8.730
559.08	8.983
559.42	8.492
559.76	8.327
560.10	9.251
560.44	8.563
560.78	9.510
561.12	9.450
561.45	9.206
561.79	9.174
562.13	9.368
562.47	8.417
562.81	8.934
563.15	9.379
563.48	8.628
563.82	9.334
564.16	8.914
564.50	8.446
564.84	9.304
565.17	9.725
565.51	8.743
565.85	9.534
566.19	8.753
566.52	8.780
566.86	9.833
567.20	8.531
567.54	9.063
567.88	8.963
568.21	9.559
568.55	8.859
568.89	8.368
569.23	8.763
569.56	8.319
569.90	9.135
570.24	8.262
570.57	8.509
570.91	8.574
571.25	7.991
571.59	8.564
571.92	8.119
572.26	8.182
572.60	8.062
572.93	8.315
573.27	8.276
573.61	8.652
573.95	8.411
574.28	8.130
574.62	8.035
574.96	7.953
575.29	7.547
575.63	7.515
575.97	7.834
576.30	7.703
576.64	7.629
576.98	8.211
577.31	8.036
577.65	7.959
577.98	7.925
578.32	7.842
578.66	7.672
578.99	7.861
579.33	7.719
579.67	7.974
580.00	7.772
580.34	7.512
580.67	7.740
581.01	7.373
581.35	8.075
581.68	7.794
582.02	7.433
582.35	7.391
582.69	7.889
583.02	7.584
583.36	7.854
583.70	8.022
584.03	8.201
584.37	7.905
584.70	7.857
585.04	7.539
585.37	7.862
585.71	7.529
586.04	7.590
586.38	6.882
586.72	7.891
587.05	8.088
587.39	7.940
587.72	7.846
588.06	7.639
588.39	7.605
588.73	7.845
589.06	7.991
589.40	8.227
589.73	8.178
590.07	8.044
590.40	8.204
590.73	8.567
591.07	7.761
591.40	7.836
591.74	8.643
592.07	8.488
592.41	8.525
592.74	8.602
593.08	7.719
593.41	7.974
593.75	7.458
594.08	7.655
594.41	7.933
594.75	8.015
595.08	7.794
595.42	7.913
595.75	8.149
596.09	7.975
596.42	7.813
596.75	7.726
597.09	8.246
597.42	8.040
597.75	8.200
598.09	8.375
598.42	7.581
598.76	7.937
599.09	7.853
599.42	7.238
599.76	7.374
600.09	8.145
600.42	7.354
600.76	7.281
601.09	7.557
601.42	7.286
601.76	8.019
602.09	7.632
602.42	7.624
602.76	7.725
603.09	7.434
603.42	8.236
603.76	7.258
604.09	7.695
604.42	7.826
604.76	8.055
605.09	8.181
605.42	7.404
605.75	7.487
606.09	7.643
606.42	7.756
606.75	7.922
607.09	8.220
607.42	7.842
607.75	7.593
608.08	7.098
608.42	8.040
608.75	8.193
609.08	7.125
609.41	7.513
609.75	7.712
610.08	7.838
610.41	7.923
610.74	7.362
611.07	7.700
611.41	8.563
611.74	8.316
612.07	7.441
612.40	8.151
612.73	7.458
613.07	7.705
613.40	8.972
613.73	8.114
614.06	8.013
614.39	7.727
614.72	7.619
615.06	7.709
615.39	7.533
615.72	8.019
616.05	8.212
616.38	7.521
616.71	8.135
617.05	8.030
617.38	7.668
617.71	7.673
618.04	7.429
618.37	9.142
618.70	8.317
619.03	8.819
619.36	7.598
619.69	8.264
620.03	8.985
620.36	8.369
620.69	8.280
621.02	7.951
621.35	7.884
621.68	7.653
622.01	8.417
622.34	7.502
622.67	8.912
623.00	9.112
623.33	6.784
623.66	7.928
623.99	7.791
624.32	9.354
624.65	7.669
624.99	8.202
625.32	6.444
625.65	9.505
625.98	7.977
626.31	8.229
626.64	8.666
626.97	7.504
627.30	8.581
627.63	9.879
627.96	8.625
628.29	8.048
628.62	9.341
628.95	8.317
629.28	7.863
629.61	7.577
629.94	9.482
630.26	8.597
630.59	8.533
630.92	7.282
631.25	9.026
631.58	7.819
631.91	7.675
632.24	7.683
632.57	9.773
632.90	9.609
633.23	8.000
633.56	9.068
633.89	9.125
634.22	9.383
634.55	8.513
634.88	8.174
635.20	9.359
635.53	9.600
635.86	7.802
636.19	8.279
636.52	6.378
636.85	8.313
637.18	8.050
637.51	9.686
637.83	7.753
638.16	10.914
638.49	7.629
638.82	10.263
639.15	7.598
639.48	8.391
639.81	9.484
640.13	8.802
640.46	8.892
640.79	7.806
641.12	8.715
641.45	8.408
641.77	9.037
642.10	9.163
642.43	8.039
642.76	10.066
643.09	9.532
643.41	8.576
643.74	8.237
644.07	8.703
644.40	9.459
644.73	9.457
645.05	9.564
645.38	8.642
645.71	9.574
646.04	7.899
646.36	11.170
646.69	11.331
647.02	8.318
647.35	8.022
647.67	9.689
648.00	9.328
648.33	9.044
648.66	7.797
648.98	9.045
649.31	7.769
649.64	7.849
649.96	6.159
650.29	7.836
650.62	8.547
650.94	8.889
651.27	7.263
651.60	6.847
651.92	9.091
652.25	6.039
652.58	8.500
652.90	9.262
653.23	8.908
653.56	8.122
653.88	9.107
654.21	5.079
654.54	6.452
654.86	9.847
655.19	5.263
655.52	7.508
655.84	6.836
656.17	7.613
656.49	9.933
656.82	10.298
657.15	7.745
657.47	5.885
657.80	4.448
658.13	4.499
658.45	6.465
658.78	6.526
659.10	6.341
659.43	6.980
659.75	6.660
660.08	6.828
660.41	7.865
660.73	7.182
661.06	9.185
661.38	8.415
661.71	5.749
662.03	9.227
662.36	9.011
662.68	6.637
663.01	9.607
663.33	9.049
663.66	4.419
663.98	6.279
664.31	10.661
664.63	8.986
664.96	4.348
665.28	4.857
665.61	7.792
665.93	6.739
666.26	10.195
666.58	6.488
666.91	2.588
667.23	10.377
667.56	6.161
667.88	7.434
668.21	8.592
668.53	10.402
668.86	9.198
669.18	8.255
669.50	5.327
669.83	9.767
670.15	9.324
670.48	5.981
670.80	7.834
671.13	7.159
671.45	5.708
671.77	7.296
672.10	9.901
672.42	8.427
672.75	9.769
673.07	10.018
673.39	9.725
673.72	7.692
674.04	8.125
674.37	8.263
674.69	10.064
675.01	8.667
675.34	9.685
675.66	9.491
675.98	9.091
676.31	7.110
676.63	9.501
676.95	9.318
677.28	9.647
677.60	7.470
677.92	7.798
678.25	11.379
678.57	6.494
678.89	6.933
679.22	8.054
679.54	7.028
679.86	5.368
680.18	9.903
680.51	8.523
680.83	7.753
681.15	10.400
681.48	9.016
681.80	7.438
682.12	5.847
682.44	5.439
682.77	7.726
683.09	10.297
683.41	7.273
683.73	8.295
684.06	8.186
684.38	6.237
684.70	8.279
685.02	8.091
685.34	5.929
685.67	6.191
685.99	8.137
686.31	5.841
686.63	7.050
686.96	4.943
687.28	4.444
687.60	4.563
687.92	7.879
688.24	7.661
688.56	7.860
688.89	6.696
689.21	9.333
689.53	6.729
689.85	6.512
690.17	8.036
690.49	7.801
690.82	5.097
691.14	5.000
691.46	8.645
691.78	6.757
692.10	8.602
692.42	8.009
692.74	8.974
693.06	7.207
693.39	4.751
693.71	6.787
694.03	4.388
694.35	5.374
694.67	5.303
694.99	7.833
695.31	10.183
695.63	8.500
695.95	6.818
696.27	5.699
696.59	10.278
696.91	8.683
697.23	7.712
697.56	6.683
697.88	6.882
698.20	6.378
698.52	7.765
698.84	6.459
699.16	8.000
699.48	7.769
699.80	5.211
700.12	6.199
700.44	9.804
700.76	6.395
701.08	2.121
701.40	8.735
701.72	9.568
702.04	4.950
702.36	7.023
702.68	5.105
703.00	7.879
703.32	7.625
703.64	6.497
703.96	9.275
704.28	8.896
704.60	7.937
704.91	3.470
705.23	5.980
705.55	11.661
705.87	8.303
706.19	10.370
706.51	7.560
706.83	9.325
707.15	1.246
707.47	8.683
707.79	2.865
708.11	9.750
708.43	6.750
708.74	11.111
709.06	11.268
709.38	3.976
709.70	7.396
710.02	8.599
710.34	5.882
710.66	5.449
710.98	3.642
711.29	7.541
711.61	5.085
711.93	5.863
712.25	9.966
712.57	7.326
712.89	0.746
713.20	10.381
713.52	6.272
713.84	7.850
714.16	4.467
714.48	4.839
714.80	9.295
715.11	7.295
715.43	4.389
715.75	6.333
716.07	5.980
716.39	8.054
716.70	4.797
717.02	3.817
717.34	10.526
717.66	2.212
717.97	7.826
718.29	8.368
718.61	8.268
718.93	2.326
719.24	6.464
719.56	5.221
719.88	7.904
720.20	7.576
720.51	6.130
720.83	5.792
721.15	6.303
721.46	4.032
721.78	3.162
722.10	3.717
722.42	-0.830
722.73	6.531
723.05	8.571
723.37	8.475
723.68	11.712
724.00	10.256
724.32	4.889
724.63	0.909
724.95	6.550
725.27	6.452
725.58	6.780
725.90	3.571
726.22	5.019
726.53	12.881
726.85	5.993
727.16	11.321
727.48	1.619
727.80	3.644
728.11	9.322
728.43	6.667
728.74	2.823
729.06	8.000
729.38	12.782
729.69	5.179
730.01	4.231
730.32	6.716
730.64	8.481
730.96	9.434
731.27	8.000
731.59	5.763
731.90	7.006
732.22	10.410
732.53	8.638
732.85	5.674
733.16	9.764
733.48	5.755
733.80	6.159
734.11	4.746
734.43	3.780
734.74	6.061
735.06	5.863
735.37	10.574
735.69	5.724
736.00	3.833
736.32	6.376
736.63	7.042
736.95	5.119
737.26	4.982
737.58	4.698
737.89	5.128
738.21	6.767
738.52	3.704
738.83	9.607
739.15	-0.437
739.46	6.299
739.78	1.832
740.09	7.843
740.41	7.246
740.72	5.906
741.04	6.478
741.35	4.681
741.66	7.583
741.98	5.612
742.29	2.475
742.61	3.665
742.92	-0.948
743.23	-0.463
743.55	11.312
743.86	4.306
744.18	1.435
744.49	1.064
744.80	5.978
745.12	7.487
745.43	-1.951
745.74	3.646
746.06	10.244
746.37	-1.047
746.68	9.479
747.00	7.447
747.31	4.478
747.62	3.398
747.94	3.349
748.25	1.980
748.56	0.000
748.88	7.330
749.19	10.638
749.50	6.897
749.82	1.887
750.13	5.046
750.44	9.023
750.75	8.209
751.07	11.314
751.38	8.046
751.69	2.745
752.01	9.690
752.32	5.578
752.63	2.767
752.94	8.190
753.26	14.644
753.57	1.810
753.88	2.212
754.19	3.750
754.51	1.240
754.82	5.263
755.13	10.417
755.44	7.661
755.75	6.641
756.07	5.447
756.38	2.642
756.69	1.916
757.00	6.000
757.31	8.170
757.63	3.963
757.94	8.889
758.25	5.205
758.56	3.723
758.87	5.382
759.18	3.738
759.50	5.818
759.81	12.375
760.12	5.806
760.43	6.667
760.74	5.864
761.05	4.308
761.36	7.102
761.67	8.182
761.99	8.163
762.30	4.000
762.61	6.719
762.92	9.050
763.23	5.405
763.54	4.673
763.85	8.475
764.16	7.054
764.47	3.629
764.78	8.059
765.10	8.754
765.41	7.571
765.72	5.397
766.03	3.008
766.34	5.109
766.65	7.570
766.96	3.535
767.27	5.851
767.58	-0.575
767.89	-6.383
768.20	6.818
768.51	3.846
768.82	6.897
769.13	5.069
769.44	6.009
769.75	1.370
770.06	7.759
770.37	5.769
770.68	4.569
770.99	2.262
771.30	6.863
771.61	4.525
771.92	8.190
772.23	4.433
772.54	6.989
772.85	8.642
773.16	5.056
773.47	7.190
773.78	3.922
774.09	2.395
774.39	6.667
774.70	3.822
775.01	7.586
775.32	17.143
775.63	-1.653
775.94	1.527
776.25	13.386
776.56	3.333
776.87	3.846
777.18	-1.709
777.48	11.207
777.79	0.000
778.10	-10.476
778.41	8.108
778.72	7.143
779.03	9.774
779.34	9.929
779.65	5.479
779.95	-1.370
780.26	13.103
780.57	6.504
780.88	7.087
781.19	8.621
781.50	3.876
781.80	2.959
782.11	4.403
782.42	5.385
782.73	3.597
783.04	1.481
783.34	3.472
783.65	-11.111
783.96	8.197
784.27	6.897
784.57	4.065
784.88	7.813
785.19	3.000
785.50	15.000
785.81	4.310
786.11	-2.586
786.42	0.971
786.73	16.364
787.04	-1.020
787.34	-4.464
787.65	3.810
787.96	1.770
788.26	4.545
788.57	-11.111
788.88	-0.781
789.19	-4.762
789.49	0.870
789.80	3.061
790.11	-3.030
790.41	6.364
790.72	5.435
791.03	2.273
791.33	2.500
791.64	-6.250
791.95	-4.651
792.25	9.574
792.56	5.618
792.87	0.000
793.17	5.797
793.48	-9.333
793.79	2.500
794.09	17.500
794.40	3.774
794.70	0.000
795.01	2.439
795.32	2.564
795.62	2.857
795.93	-0.980
796.23	5.660
796.54	4.167
796.85	7.353
797.15	-1.408
797.46	18.056
797.76	7.576
798.07	5.814
798.37	-2.632
798.68	-6.061
798.99	6.173
799.29	11.429
799.60	5.797
799.90	2.667
800.21	6.557
800.51	6.154
800.82	15.254
801.12	4.348
801.43	8.197
801.73	6.349
802.04	-4.000
802.34	-2.985
802.65	7.692
802.95	-16.071
803.26	-1.923
803.56	-13.725
803.87	-26.087
804.17	5.333
804.48	12.698
804.78	5.556
805.09	-8.696
805.39	8.889
805.70	7.407
806.00	-10.526
806.30	-8.451
806.61	8.571
806.91	-9.722
807.22	15.789
807.52	10.667
807.83	-12.727
808.13	9.722
808.43	7.353
808.74	8.955
809.04	-22.034
809.35	-17.308
809.65	3.125
809.95	-43.243
810.26	-31.818
810.56	-4.110
810.86	-4.762
811.17	-12.000
811.47	-4.082
811.77	-18.421
812.08	-15.909
812.38	13.208
812.69	-7.500
812.99	3.030
813.29	-15.789
813.59	-60.000
813.90	-9.091
814.20	-30.769
814.50	-11.538
814.81	-7.547
815.11	-6.383
815.41	3.390
815.72	-16.667
816.02	5.882
816.32	-10.417
816.62	7.317
816.93	-16.216
817.23	-14.286
817.53	18.750
817.84	-15.217
818.14	3.846
818.44	-18.421
818.74	-4.348
819.04	-32.500
819.35	-45.946
819.65	20.588
819.95	0.000
820.25	7.143
820.56	25.000
820.86	-55.172
821.16	-12.500
821.46	-8.511
821.76	-2.500
822.07	9.302
822.37	-37.838
822.67	-9.375
822.97	21.429
823.27	-42.857
823.57	-40.000
823.88	-74.074
824.18	-7.143
824.48	-8.824
824.78	-12.903
825.08	-21.739
825.38	-33.333
825.69	-37.500
825.99	5.263
826.29	5.556
826.59	-46.667
826.89	-38.095
827.19	4.348
827.49	-12.500
827.79	31.429
828.09	0.000
828.39	-3.030
828.70	32.432
829.00	-46.429
829.30	-76.190
829.60	-23.333
829.90	25.000
830.20	-7.895
830.50	-14.815
830.80	-21.739
831.10	-18.182
831.40	3.030
831.70	-9.677
832.00	-4.762
832.30	-14.286
832.60	-91.667
832.90	-17.241
833.20	5.000
833.50	-12.121
833.80	-14.815
834.10	-3.846
834.40	9.375
834.70	-100.000
835.00	-31.579
835.30	46.154
835.60	20.000
835.90	-12.903
836.20	-22.727
836.50	7.143
836.80	-30.769
837.10	7.143
837.40	-566.667
837.70	-18.182
838.00	-81.818
838.30	-17.391
838.60	-7.692
838.90	18.182
839.19	-3.571
839.49	-13.333
839.79	-100.000
840.09	-133.333
840.39	42.857
840.69	-7.143
840.99	-30.769
841.29	-42.105
841.59	-50.000
841.88	-63.636
842.18	-110.000
842.48	-12.500
842.78	-100.000
843.08	-14.815
843.38	-90.000
843.68	-21.739
843.97	-46.667
844.27	-80.000
844.57	-25.000
844.87	5.556
845.17	-14.286
845.47	-53.333
845.76	-23.810
846.06	-5.882
846.36	-90.000
846.66	-71.429
846.96	-40.000
847.25	62.500
847.55	50.000
847.85	-150.000
848.15	-36.364
848.44	-466.667
848.74	15.000
849.04	44.444
849.34	9.091
849.63	-66.667
849.93	-400.000
850.23	-66.667
850.53	-10.000
850.82	23.077
851.12	0.000
851.42	-40.000
851.71	19.231
852.01	14.286
852.31	-375.000
852.61	-72.727
852.90	-35.000
853.20	10.526
853.50	0.000
853.79	-21.739
854.09	33.333
854.39	21.053
854.68	-45.833
854.98	0.000
855.28	7.692
855.57	-25.000
855.87	-27.778
856.17	18.519
856.46	-57.143
856.76	-80.000
857.05	88.889
857.35	-36.000
857.65	22.222
857.94	-53.846
858.24	13.793
858.53	-22.222
858.83	0.000
859.13	40.909
859.42	34.783
859.72	-250.000
860.01	-300.000
860.31	-12.000
860.60	-4.762
860.90	-233.333
861.20	-60.000
861.49	-750.000
861.79	-60.000
862.08	-5.000
862.38	13.333
862.67	-80.000
862.97	-66.667
863.26	8.333
863.56	-27.778
863.85	-266.667
864.15	22.222
864.44	-50.000
864.74	7.143
865.03	300.000
865.33	-180.000
865.62	-100.000
865.92	-58.333
866.21	-416.667
866.51	87.500
866.80	-100.000
867.10	-400.000
867.39	0.000
867.69	0.000
867.98	-30.769
868.27	-333.333
868.57	-13.333
868.86	-11.111
869.16	-38.462
869.45	-40.000
869.75	-700.000
870.04	0.000
870.33	28.571
870.63	33.333
870.92	433.333
871.22	-160.000
871.51	100.000
871.80	77.778
872.10	600.000
>>>>>End Processed Spectral Data<<<<<
