SpectraSuite Data File
++++++++++++++++++++++++++++++++++++
Date: Fri May 15 21:09:31 PDT 2015
User: schluterlab
Dark Spectrum Present: Yes
Reference Spectrum Present: Yes
Number of Sampled Component Spectra: 1
Spectrometers: USB2E3373
Integration Time (usec): 3000 (USB2E3373)
Spectra Averaged: 3 (USB2E3373)
Boxcar Smoothing: 0 (USB2E3373)
Correct for Electrical Dark: No (USB2E3373)
Strobe/Lamp Enabled: No (USB2E3373)
Correct for Detector Non-linearity: No (USB2E3373)
Correct for Stray Light: No (USB2E3373)
Number of Pixels in Processed Spectrum: 2048
>>>>>Begin Processed Spectral Data<<<<<
178.53	0.000
178.91	0.000
179.29	-12.500
179.67	-400.000
180.04	71.429
180.42	50.000
180.80	-800.000
181.18	266.667
181.56	350.000
181.94	-50.000
182.31	-500.000
182.69	-40.000
183.07	-200.000
183.45	20.000
183.83	216.667
184.20	90.909
184.58	55.556
184.96	25.000
185.34	166.667
185.72	-450.000
186.09	69.231
186.47	-900.000
186.85	-33.333
187.23	77.778
187.61	-100.000
187.98	-66.667
188.36	-11.111
188.74	-133.333
189.12	35.294
189.49	0.000
189.87	0.000
190.25	21.429
190.63	150.000
191.00	-166.667
191.38	10.526
191.76	200.000
192.14	25.000
192.51	-100.000
192.89	-22.222
193.27	-157.143
193.65	116.667
194.02	127.273
194.40	30.000
194.78	-87.500
195.15	-8.333
195.53	-137.500
195.91	225.000
196.29	-275.000
196.66	84.615
197.04	114.286
197.42	11.111
197.79	-466.667
198.17	-123.077
198.55	1400.000
198.92	-466.667
199.30	-100.000
199.68	-160.000
200.05	-66.667
200.43	0.000
200.81	-166.667
201.18	-233.333
201.56	1500.000
201.94	-300.000
202.31	200.000
202.69	-360.000
203.07	125.000
203.44	-200.000
203.82	0.000
204.19	-35.714
204.57	-633.333
204.95	75.000
205.32	10.000
205.70	-71.429
206.08	-225.000
206.45	211.111
206.83	114.286
207.20	-214.286
207.58	300.000
207.96	0.000
208.33	-140.000
208.71	-100.000
209.08	-116.667
209.46	-400.000
209.84	-260.000
210.21	-600.000
210.59	42.857
210.96	16.667
211.34	150.000
211.71	46.667
212.09	-28.571
212.46	-1700.000
212.84	0.000
213.22	110.000
213.59	300.000
213.97	69.231
214.34	72.727
214.72	-200.000
215.09	375.000
215.47	-53.846
215.84	-27.273
216.22	-500.000
216.59	-75.000
216.97	50.000
217.34	-25.000
217.72	-320.000
218.09	-25.000
218.47	162.500
218.84	-800.000
219.22	-33.333
219.59	-120.000
219.97	466.667
220.34	250.000
220.72	0.000
221.09	-100.000
221.47	50.000
221.84	-150.000
222.22	-600.000
222.59	-54.545
222.97	100.000
223.34	0.000
223.72	-57.143
224.09	19.048
224.46	-7.143
224.84	233.333
225.21	-70.000
225.59	-13.333
225.96	-250.000
226.34	300.000
226.71	-57.143
227.08	-50.000
227.46	-125.000
227.83	-300.000
228.21	-22.222
228.58	-9.091
228.95	-100.000
229.33	150.000
229.70	18.750
230.08	-37.500
230.45	57.143
230.82	28.571
231.20	-33.333
231.57	114.286
231.95	-57.143
232.32	-110.000
232.69	57.143
233.07	-33.333
233.44	100.000
233.81	-20.000
234.19	111.111
234.56	-17.647
234.93	550.000
235.31	0.000
235.68	-180.000
236.05	23.077
236.43	-50.000
236.80	-35.294
237.17	34.375
237.55	-40.000
237.92	29.630
238.29	8.333
238.67	30.000
239.04	-5.882
239.41	-34.146
239.79	10.000
240.16	0.000
240.53	15.789
240.91	21.739
241.28	26.984
241.65	19.643
242.02	30.137
242.40	28.333
242.77	16.949
243.14	18.182
243.51	10.000
243.89	22.989
244.26	14.943
244.63	28.571
245.00	16.495
245.38	36.082
245.75	23.596
246.12	21.552
246.49	27.273
246.87	25.000
247.24	12.605
247.61	14.912
247.98	17.886
248.36	18.125
248.73	28.289
249.10	12.338
249.47	20.886
249.84	15.686
250.22	24.706
250.59	19.608
250.96	25.352
251.33	22.674
251.70	30.000
252.08	23.350
252.45	23.267
252.82	24.121
253.19	23.963
253.56	18.692
253.94	22.072
254.31	25.652
254.68	25.877
255.05	24.409
255.42	22.271
255.79	27.799
256.16	29.572
256.54	23.507
256.91	24.335
257.28	21.933
257.65	20.225
258.02	18.440
258.39	25.253
258.76	23.810
259.14	26.578
259.51	19.417
259.88	23.368
260.25	24.510
260.62	22.222
260.99	23.051
261.36	23.288
261.73	21.835
262.10	23.404
262.47	24.847
262.85	21.003
263.22	23.077
263.59	26.480
263.96	25.466
264.33	24.242
264.70	27.083
265.07	22.321
265.44	23.513
265.81	23.729
266.18	29.235
266.55	23.907
266.92	25.907
267.29	25.849
267.66	25.064
268.03	23.037
268.40	24.282
268.77	27.807
269.14	23.741
269.51	23.136
269.88	23.441
270.25	24.745
270.62	23.415
270.99	23.274
271.36	23.472
271.73	26.526
272.10	24.818
272.47	25.059
272.84	22.525
273.21	26.450
273.58	25.783
273.95	25.172
274.32	21.016
274.69	21.493
275.06	24.107
275.43	20.181
275.80	23.620
276.17	22.989
276.54	24.411
276.91	22.368
277.28	23.362
277.65	24.380
278.02	22.553
278.39	23.632
278.76	21.593
279.13	19.502
279.50	23.529
279.87	22.678
280.23	23.441
280.60	22.612
280.97	25.657
281.34	20.000
281.71	22.382
282.08	22.495
282.45	20.548
282.82	23.359
283.19	23.985
283.56	21.387
283.92	22.011
284.29	23.077
284.66	19.380
285.03	22.986
285.40	20.983
285.77	22.320
286.14	22.744
286.51	21.587
286.87	20.293
287.24	23.573
287.61	21.340
287.98	23.684
288.35	20.451
288.72	22.067
289.08	21.007
289.45	22.847
289.82	23.776
290.19	19.454
290.56	19.554
290.93	20.875
291.29	19.723
291.66	21.260
292.03	19.458
292.40	20.161
292.77	20.415
293.13	17.045
293.50	18.665
293.87	20.305
294.24	19.011
294.60	19.523
294.97	19.345
295.34	18.712
295.71	17.735
296.08	18.984
296.44	15.932
296.81	17.361
297.18	19.420
297.55	19.783
297.91	18.493
298.28	18.470
298.65	16.689
299.02	17.655
299.38	15.732
299.75	17.793
300.12	16.885
300.48	16.206
300.85	16.984
301.22	16.494
301.59	16.842
301.95	18.228
302.32	17.250
302.69	16.791
303.05	18.564
303.42	17.310
303.79	17.757
304.15	17.563
304.52	16.052
304.89	17.310
305.25	18.160
305.62	15.986
305.99	15.439
306.35	15.838
306.72	15.298
307.09	16.990
307.45	16.418
307.82	17.014
308.19	17.886
308.55	17.121
308.92	18.301
309.29	16.089
309.65	16.469
310.02	16.062
310.38	16.026
310.75	18.251
311.12	17.438
311.48	16.861
311.85	16.754
312.22	17.511
312.58	17.728
312.95	17.503
313.31	19.048
313.68	18.429
314.05	17.959
314.41	18.969
314.78	19.278
315.14	19.219
315.51	20.807
315.87	19.980
316.24	21.941
316.61	20.768
316.97	20.337
317.34	21.875
317.70	20.841
318.07	22.019
318.43	22.059
318.80	22.727
319.16	23.730
319.53	25.071
319.89	25.000
320.26	25.101
320.62	26.981
320.99	26.827
321.35	26.310
321.72	28.245
322.08	29.204
322.45	29.645
322.81	30.059
323.18	30.226
323.54	29.923
323.91	31.451
324.27	32.813
324.64	34.176
325.00	34.307
325.37	38.292
325.73	35.177
326.10	37.148
326.46	37.937
326.83	39.370
327.19	39.756
327.56	43.006
327.92	42.958
328.29	42.232
328.65	45.755
329.01	43.842
329.38	45.346
329.74	45.042
330.11	46.339
330.47	45.547
330.84	46.731
331.20	50.000
331.56	47.500
331.93	49.406
332.29	49.404
332.66	48.778
333.02	49.349
333.38	48.763
333.75	51.282
334.11	50.045
334.48	51.496
334.84	50.458
335.20	50.137
335.57	51.133
335.93	52.394
336.29	53.407
336.66	52.861
337.02	51.766
337.38	51.852
337.75	52.091
338.11	53.381
338.47	53.285
338.84	54.251
339.20	54.022
339.56	54.037
339.93	55.058
340.29	55.321
340.65	54.839
341.02	53.812
341.38	54.602
341.74	54.064
342.11	53.120
342.47	55.338
342.83	54.931
343.20	54.268
343.56	55.652
343.92	55.359
344.28	56.191
344.65	56.218
345.01	56.266
345.37	54.752
345.73	56.736
346.10	56.428
346.46	56.602
346.82	55.319
347.19	54.613
347.55	55.973
347.91	57.767
348.27	54.729
348.63	58.092
349.00	56.932
349.36	57.689
349.72	59.287
350.08	59.016
350.45	57.462
350.81	58.887
351.17	57.085
351.53	58.612
351.89	56.482
352.26	58.720
352.62	58.226
352.98	57.510
353.34	57.407
353.70	58.900
354.07	57.823
354.43	57.086
354.79	57.391
355.15	59.603
355.51	58.940
355.87	59.871
356.24	58.728
356.60	59.660
356.96	61.508
357.32	60.623
357.68	59.734
358.04	62.197
358.40	59.807
358.77	62.839
359.13	61.169
359.49	60.092
359.85	62.871
360.21	61.483
360.57	62.510
360.93	61.498
361.29	59.970
361.66	63.793
362.02	61.061
362.38	62.452
362.74	63.361
363.10	64.334
363.46	63.158
363.82	65.214
364.18	63.100
364.54	63.971
364.90	62.939
365.26	65.211
365.62	64.964
365.98	66.422
366.35	65.331
366.71	65.558
367.07	66.328
367.43	66.499
367.79	66.996
368.15	66.332
368.51	65.768
368.87	65.973
369.23	65.054
369.59	68.149
369.95	67.302
370.31	68.714
370.67	67.985
371.03	68.708
371.39	67.542
371.75	67.106
372.11	68.402
372.47	69.305
372.83	69.269
373.19	68.545
373.55	69.892
373.91	68.826
374.27	69.596
374.63	70.424
374.99	68.936
375.35	71.031
375.71	71.818
376.07	71.208
376.42	71.565
376.78	70.604
377.14	71.632
377.50	72.178
377.86	71.754
378.22	70.645
378.58	73.269
378.94	72.653
379.30	72.676
379.66	72.727
380.02	72.042
380.38	71.516
380.74	72.771
381.09	74.233
381.45	73.578
381.81	73.473
382.17	74.048
382.53	72.767
382.89	74.451
383.25	74.238
383.61	74.939
383.97	75.492
384.32	74.672
384.68	74.985
385.04	74.449
385.40	74.798
385.76	78.742
386.12	76.455
386.48	76.373
386.83	76.538
387.19	77.167
387.55	77.666
387.91	76.895
388.27	75.458
388.62	79.673
388.98	77.716
389.34	77.014
389.70	79.615
390.06	76.967
390.42	77.137
390.77	79.137
391.13	79.193
391.49	78.655
391.85	79.012
392.20	78.217
392.56	77.177
392.92	77.628
393.28	78.715
393.64	77.658
393.99	80.125
394.35	79.064
394.71	78.480
395.07	78.693
395.42	77.292
395.78	81.303
396.14	79.571
396.50	79.581
396.85	81.198
397.21	78.697
397.57	78.746
397.92	78.550
398.28	79.885
398.64	75.181
399.00	78.442
399.35	77.878
399.71	78.576
400.07	79.988
400.42	79.131
400.78	80.404
401.14	77.798
401.49	79.988
401.85	79.342
402.21	78.494
402.57	80.625
402.92	79.297
403.28	79.887
403.63	79.697
403.99	80.867
404.35	80.887
404.70	78.214
405.06	78.848
405.42	78.185
405.77	77.513
406.13	79.569
406.49	78.094
406.84	80.623
407.20	79.410
407.55	77.978
407.91	78.944
408.27	77.820
408.62	79.938
408.98	77.203
409.34	79.058
409.69	78.747
410.05	76.663
410.40	78.889
410.76	78.468
411.11	79.938
411.47	77.975
411.83	77.589
412.18	79.665
412.54	77.903
412.89	77.648
413.25	79.663
413.60	78.758
413.96	77.239
414.31	76.585
414.67	78.512
415.03	79.494
415.38	79.178
415.74	79.870
416.09	80.732
416.45	80.216
416.80	78.850
417.16	79.420
417.51	79.280
417.87	77.966
418.22	80.699
418.58	80.401
418.93	81.317
419.29	78.553
419.64	80.428
420.00	81.486
420.35	79.522
420.71	81.835
421.06	82.075
421.42	81.611
421.77	81.214
422.12	79.512
422.48	80.671
422.83	80.278
423.19	81.659
423.54	80.364
423.90	80.742
424.25	80.999
424.61	82.742
424.96	81.010
425.31	83.536
425.67	83.040
426.02	84.217
426.38	84.784
426.73	84.625
427.09	84.430
427.44	85.000
427.79	84.679
428.15	83.556
428.50	83.707
428.85	82.494
429.21	83.701
429.56	85.283
429.92	82.486
430.27	81.404
430.62	84.945
430.98	83.546
431.33	83.754
431.68	82.365
432.04	84.964
432.39	83.913
432.74	83.764
433.10	85.632
433.45	86.798
433.80	86.013
434.16	84.488
434.51	85.968
434.86	86.934
435.22	86.483
435.57	87.399
435.92	85.808
436.28	84.556
436.63	85.739
436.98	85.284
437.34	85.662
437.69	87.955
438.04	87.009
438.39	86.744
438.75	87.310
439.10	86.474
439.45	87.584
439.81	87.278
440.16	89.014
440.51	88.179
440.86	88.157
441.22	85.803
441.57	88.411
441.92	87.461
442.27	88.747
442.63	88.276
442.98	88.570
443.33	85.587
443.68	86.631
444.03	86.935
444.39	85.539
444.74	88.462
445.09	87.194
445.44	88.034
445.79	88.912
446.15	86.894
446.50	87.410
446.85	88.735
447.20	87.383
447.55	88.170
447.91	86.576
448.26	86.796
448.61	87.565
448.96	88.124
449.31	88.671
449.66	88.502
450.02	87.507
450.37	88.737
450.72	89.003
451.07	87.658
451.42	88.077
451.77	87.101
452.12	88.098
452.47	88.860
452.83	89.164
453.18	88.678
453.53	89.254
453.88	89.010
454.23	90.596
454.58	88.287
454.93	88.402
455.28	88.381
455.63	87.663
455.98	88.936
456.34	88.059
456.69	90.597
457.04	89.477
457.39	89.004
457.74	89.541
458.09	87.287
458.44	87.303
458.79	87.843
459.14	88.158
459.49	89.134
459.84	87.874
460.19	89.199
460.54	88.203
460.89	88.750
461.24	88.509
461.59	88.777
461.94	87.233
462.29	89.445
462.64	89.967
462.99	88.219
463.34	90.542
463.69	86.808
464.04	89.467
464.39	87.083
464.74	87.669
465.09	89.021
465.44	88.286
465.79	85.374
466.14	86.716
466.49	88.557
466.84	87.507
467.19	87.610
467.54	88.123
467.89	88.250
468.24	86.618
468.59	89.333
468.94	89.460
469.29	88.328
469.64	87.697
469.99	91.801
470.34	88.874
470.68	92.543
471.03	90.941
471.38	90.656
471.73	89.006
472.08	89.281
472.43	90.940
472.78	90.541
473.13	91.156
473.48	89.902
473.83	88.481
474.17	89.378
474.52	87.683
474.87	88.485
475.22	88.896
475.57	88.594
475.92	88.151
476.27	88.300
476.61	89.294
476.96	87.395
477.31	88.913
477.66	88.371
478.01	89.051
478.36	87.255
478.70	88.309
479.05	87.088
479.40	88.712
479.75	86.392
480.10	87.455
480.45	87.850
480.79	88.721
481.14	88.115
481.49	87.143
481.84	87.693
482.19	86.483
482.53	87.674
482.88	86.683
483.23	86.948
483.58	85.943
483.92	88.432
484.27	86.463
484.62	86.957
484.97	86.277
485.31	83.273
485.66	78.855
486.01	78.766
486.36	77.366
486.70	78.757
487.05	80.858
487.40	81.050
487.75	81.944
488.09	82.664
488.44	82.221
488.79	84.124
489.13	85.617
489.48	86.105
489.83	84.753
490.17	86.022
490.52	86.236
490.87	85.979
491.22	88.348
491.56	86.860
491.91	86.472
492.26	89.305
492.60	87.524
492.95	88.096
493.30	87.347
493.64	89.489
493.99	86.908
494.34	86.699
494.68	88.190
495.03	88.905
495.37	88.813
495.72	88.794
496.07	89.415
496.41	87.170
496.76	88.300
497.11	85.980
497.45	87.303
497.80	89.960
498.14	87.928
498.49	88.167
498.84	87.176
499.18	89.709
499.53	88.095
499.87	86.479
500.22	88.427
500.56	88.754
500.91	87.349
501.26	86.950
501.60	87.359
501.95	87.579
502.29	87.361
502.64	86.052
502.98	88.949
503.33	86.407
503.67	86.892
504.02	87.243
504.36	88.619
504.71	87.374
505.06	86.059
505.40	87.005
505.75	89.691
506.09	87.886
506.44	88.142
506.78	88.316
507.13	88.676
507.47	89.295
507.82	89.370
508.16	87.639
508.51	88.615
508.85	90.424
509.19	88.558
509.54	89.169
509.88	89.159
510.23	89.833
510.57	89.311
510.92	89.072
511.26	90.344
511.61	90.594
511.95	89.808
512.30	89.191
512.64	89.928
512.98	89.500
513.33	90.207
513.67	90.733
514.02	92.449
514.36	92.343
514.70	92.191
515.05	93.008
515.39	91.795
515.74	92.156
516.08	93.246
516.42	94.287
516.77	92.335
517.11	92.819
517.46	92.101
517.80	91.418
518.14	93.938
518.49	92.248
518.83	93.985
519.17	91.995
519.52	90.941
519.86	92.437
520.20	93.196
520.55	92.058
520.89	92.974
521.23	93.160
521.58	93.565
521.92	94.038
522.26	93.038
522.61	94.091
522.95	94.967
523.29	93.329
523.64	93.520
523.98	94.102
524.32	93.428
524.66	94.110
525.01	94.351
525.35	92.871
525.69	93.872
526.04	94.048
526.38	94.812
526.72	93.787
527.06	92.023
527.41	93.799
527.75	94.772
528.09	93.887
528.43	93.518
528.78	93.267
529.12	92.323
529.46	92.463
529.80	89.740
530.15	92.673
530.49	94.007
530.83	95.280
531.17	91.336
531.51	93.844
531.86	91.910
532.20	91.928
532.54	93.533
532.88	93.566
533.22	91.667
533.57	91.350
533.91	92.298
534.25	91.471
534.59	90.314
534.93	89.113
535.27	88.579
535.62	91.769
535.96	91.063
536.30	90.237
536.64	91.730
536.98	90.732
537.32	93.457
537.66	92.286
538.01	92.937
538.35	92.372
538.69	89.880
539.03	89.815
539.37	89.637
539.71	91.275
540.05	90.835
540.39	91.066
540.73	92.120
541.07	91.989
541.42	89.852
541.76	90.089
542.10	88.300
542.44	91.452
542.78	88.369
543.12	88.874
543.46	90.195
543.80	90.285
544.14	88.385
544.48	88.807
544.82	88.448
545.16	90.232
545.50	88.518
545.84	91.147
546.18	91.277
546.52	87.960
546.86	90.295
547.20	90.629
547.54	88.481
547.88	89.266
548.22	87.574
548.56	87.071
548.90	88.410
549.24	87.879
549.58	89.281
549.92	89.778
550.26	88.498
550.60	91.822
550.94	90.590
551.28	92.736
551.62	91.231
551.96	91.278
552.30	90.132
552.64	88.223
552.98	89.030
553.32	88.659
553.66	90.203
554.00	91.095
554.34	90.251
554.68	89.676
555.02	89.137
555.36	90.875
555.69	87.912
556.03	89.079
556.37	88.185
556.71	90.542
557.05	91.275
557.39	88.922
557.73	90.330
558.07	92.383
558.41	91.424
558.75	90.881
559.08	92.041
559.42	94.206
559.76	92.874
560.10	90.061
560.44	91.139
560.78	88.601
561.12	89.704
561.45	89.389
561.79	88.095
562.13	90.206
562.47	89.209
562.81	88.905
563.15	88.999
563.48	88.826
563.82	89.224
564.16	89.136
564.50	86.554
564.84	87.015
565.17	86.251
565.51	89.003
565.85	88.957
566.19	88.263
566.52	87.802
566.86	88.111
567.20	85.492
567.54	87.530
567.88	85.354
568.21	83.258
568.55	84.239
568.89	82.495
569.23	81.416
569.56	79.641
569.90	78.725
570.24	75.847
570.57	76.836
570.91	76.682
571.25	74.942
571.59	73.155
571.92	71.348
572.26	73.309
572.60	72.155
572.93	72.168
573.27	72.790
573.61	72.106
573.95	71.600
574.28	70.365
574.62	69.540
574.96	69.210
575.29	69.510
575.63	68.386
575.97	69.775
576.30	70.762
576.64	69.325
576.98	70.553
577.31	69.870
577.65	69.633
577.98	68.766
578.32	67.779
578.66	67.720
578.99	67.759
579.33	68.324
579.67	68.155
580.00	68.709
580.34	68.134
580.67	68.521
581.01	68.540
581.35	67.614
581.68	67.467
582.02	66.141
582.35	66.462
582.69	66.615
583.02	67.635
583.36	68.559
583.70	69.886
584.03	71.365
584.37	71.231
584.70	69.451
585.04	68.212
585.37	68.649
585.71	68.428
586.04	69.188
586.38	68.845
586.72	69.641
587.05	69.902
587.39	70.087
587.72	70.776
588.06	70.219
588.39	69.895
588.73	69.933
589.06	72.309
589.40	71.656
589.73	72.070
590.07	73.187
590.40	73.142
590.73	74.629
591.07	73.834
591.40	74.043
591.74	74.072
592.07	76.391
592.41	75.221
592.74	73.755
593.08	70.520
593.41	71.565
593.75	70.527
594.08	70.992
594.41	71.325
594.75	71.947
595.08	72.115
595.42	71.476
595.75	72.512
596.09	73.299
596.42	74.080
596.75	74.956
597.09	73.759
597.42	74.977
597.75	75.905
598.09	72.884
598.42	74.278
598.76	72.587
599.09	72.236
599.42	70.027
599.76	70.993
600.09	71.606
600.42	71.077
600.76	71.174
601.09	70.496
601.42	70.897
601.76	71.695
602.09	72.360
602.42	73.926
602.76	74.363
603.09	73.256
603.42	73.829
603.76	71.694
604.09	71.405
604.42	72.293
604.76	73.253
605.09	73.263
605.42	72.596
605.75	72.680
606.09	72.102
606.42	70.767
606.75	72.251
607.09	72.615
607.42	72.397
607.75	71.936
608.08	71.698
608.42	71.037
608.75	73.398
609.08	73.842
609.41	74.162
609.75	73.589
610.08	73.340
610.41	72.705
610.74	72.891
611.07	74.315
611.41	74.520
611.74	75.959
612.07	73.876
612.40	74.781
612.73	75.706
613.07	73.960
613.40	73.906
613.73	75.154
614.06	74.290
614.39	75.409
614.72	74.174
615.06	74.358
615.39	73.253
615.72	71.098
616.05	73.575
616.38	72.764
616.71	74.557
617.05	76.220
617.38	76.179
617.71	76.289
618.04	76.889
618.37	77.491
618.70	78.416
619.03	79.861
619.36	78.509
619.69	80.667
620.03	80.424
620.36	78.541
620.69	78.373
621.02	78.364
621.35	82.075
621.68	82.823
622.01	82.917
622.34	81.644
622.67	81.467
623.00	79.326
623.33	80.640
623.66	78.085
623.99	79.425
624.32	80.152
624.65	78.647
624.99	80.963
625.32	78.544
625.65	82.404
625.98	81.386
626.31	80.964
626.64	83.882
626.97	83.072
627.30	83.187
627.63	84.402
627.96	84.456
628.29	83.256
628.62	87.414
628.95	86.072
629.28	86.794
629.61	87.438
629.94	85.435
630.26	86.759
630.59	89.074
630.92	88.308
631.25	87.282
631.58	91.630
631.91	89.803
632.24	89.335
632.57	91.818
632.90	91.578
633.23	89.059
633.56	95.970
633.89	91.369
634.22	91.852
634.55	94.790
634.88	91.699
635.20	94.872
635.53	94.667
635.86	91.808
636.19	93.144
636.52	92.347
636.85	90.571
637.18	91.195
637.51	91.698
637.83	90.933
638.16	93.315
638.49	90.736
638.82	91.974
639.15	91.452
639.48	93.260
639.81	93.445
640.13	95.527
640.46	93.878
640.79	94.993
641.12	92.467
641.45	96.396
641.77	93.481
642.10	97.788
642.43	96.624
642.76	98.350
643.09	98.708
643.41	96.926
643.74	95.717
644.07	96.716
644.40	101.689
644.73	99.650
645.05	95.470
645.38	100.529
645.71	102.837
646.04	105.566
646.36	98.936
646.69	100.719
647.02	101.890
647.35	101.493
647.67	99.634
648.00	103.172
648.33	98.294
648.66	94.407
648.98	93.970
649.31	93.058
649.64	91.052
649.96	92.707
650.29	92.504
650.62	92.137
650.94	97.593
651.27	97.765
651.60	97.117
651.92	93.357
652.25	96.803
652.58	92.667
652.90	94.683
653.23	95.126
653.56	90.186
653.88	94.845
654.21	91.419
654.54	88.455
654.86	93.379
655.19	86.988
655.52	75.464
655.84	59.969
656.17	63.442
656.49	83.151
656.82	85.213
657.15	65.110
657.47	49.357
657.80	37.355
658.13	36.946
658.45	58.245
658.78	57.826
659.10	59.007
659.43	59.711
659.75	63.493
660.08	67.793
660.41	75.179
660.73	80.387
661.06	90.641
661.38	95.890
661.71	94.456
662.03	100.000
662.36	99.560
662.68	98.009
663.01	101.747
663.33	102.552
663.66	101.628
663.98	99.302
664.31	97.228
664.63	97.696
664.96	93.478
665.28	95.585
665.61	96.753
665.93	98.913
666.26	92.842
666.58	94.407
666.91	100.471
667.23	97.406
667.56	98.578
667.88	96.643
668.21	100.477
668.53	97.872
668.86	95.519
669.18	96.226
669.50	95.157
669.83	97.674
670.15	98.135
670.48	99.043
670.80	98.848
671.13	95.526
671.45	91.324
671.77	95.494
672.10	90.099
672.42	86.330
672.75	85.968
673.07	86.404
673.39	88.991
673.72	86.193
674.04	91.875
674.37	89.407
674.69	90.150
675.01	94.000
675.34	91.441
675.66	93.981
675.98	93.126
676.31	93.349
676.63	95.249
676.95	91.364
677.28	95.765
677.60	96.867
677.92	93.807
678.25	90.810
678.57	87.879
678.89	87.815
679.22	94.407
679.54	82.329
679.86	81.312
680.18	86.990
680.51	85.795
680.83	84.692
681.15	85.400
681.48	89.549
681.80	87.603
682.12	82.661
682.44	87.448
682.77	87.196
683.09	90.389
683.41	87.955
683.73	88.249
684.06	87.611
684.38	84.516
684.70	88.453
685.02	82.365
685.34	81.818
685.67	79.550
685.99	83.544
686.31	80.708
686.63	82.746
686.96	79.848
687.28	79.798
687.60	78.707
687.92	82.626
688.24	80.645
688.56	88.646
688.89	82.812
689.21	84.444
689.53	86.775
689.85	84.419
690.17	85.938
690.49	84.634
690.82	86.650
691.14	82.619
691.46	84.579
691.78	85.811
692.10	85.161
692.42	81.169
692.74	80.556
693.06	79.955
693.39	80.090
693.71	80.317
694.03	79.446
694.35	84.112
694.67	87.121
694.99	84.334
695.31	84.334
695.63	87.250
695.95	83.586
696.27	83.938
696.59	89.722
696.91	86.275
697.23	80.463
697.56	82.673
697.88	78.065
698.20	81.093
698.52	80.706
698.84	77.273
699.16	82.000
699.48	85.213
699.80	80.645
700.12	81.402
700.44	85.714
700.76	80.523
701.08	83.333
701.40	87.048
701.72	92.901
702.04	90.429
702.36	94.649
702.68	82.583
703.00	88.788
703.32	81.525
703.64	80.226
703.96	83.188
704.28	88.650
704.60	91.746
704.91	82.965
705.23	87.375
705.55	90.813
705.87	91.697
706.19	90.000
706.51	92.096
706.83	91.318
707.15	83.489
707.47	79.832
707.79	76.823
708.11	76.250
708.43	72.750
708.74	73.902
709.06	79.718
709.38	84.709
709.70	79.586
710.02	88.535
710.34	81.734
710.66	75.321
710.98	78.808
711.29	84.262
711.61	83.729
711.93	84.365
712.25	86.598
712.57	86.813
712.89	86.567
713.20	80.969
713.52	81.185
713.84	80.546
714.16	78.351
714.48	79.355
714.80	80.769
715.11	75.380
715.43	73.041
715.75	74.667
716.07	77.409
716.39	77.852
716.70	82.657
717.02	83.588
717.34	89.474
717.66	89.381
717.97	84.783
718.29	85.774
718.61	79.528
718.93	79.457
719.24	83.270
719.56	77.912
719.88	73.540
720.20	75.379
720.51	72.031
720.83	70.270
721.15	87.815
721.46	79.839
721.78	78.261
722.10	75.465
722.42	78.423
722.73	79.184
723.05	82.041
723.37	89.407
723.68	90.541
724.00	78.632
724.32	81.778
724.63	80.909
724.95	89.083
725.27	82.028
725.58	82.203
725.90	72.619
726.22	72.973
726.53	73.220
726.85	71.910
727.16	76.604
727.48	74.089
727.80	80.567
728.11	77.966
728.43	73.725
728.74	70.565
729.06	75.200
729.38	73.684
729.69	76.494
730.01	71.538
730.32	70.522
730.64	69.965
730.96	67.170
731.27	68.667
731.59	69.831
731.90	62.102
732.22	71.924
732.53	67.774
732.85	73.050
733.16	72.727
733.48	67.626
733.80	70.290
734.11	68.136
734.43	73.883
734.74	64.848
735.06	65.798
735.37	64.653
735.69	67.003
736.00	67.944
736.32	69.128
736.63	68.310
736.95	66.894
737.26	69.751
737.58	68.121
737.89	64.103
738.21	69.173
738.52	74.486
738.83	72.489
739.15	64.192
739.46	73.228
739.78	64.835
740.09	63.072
740.41	70.652
740.72	71.260
741.04	72.874
741.35	68.936
741.66	73.460
741.98	78.061
742.29	74.257
742.61	78.534
742.92	65.877
743.23	65.741
743.55	68.778
743.86	70.335
744.18	72.727
744.49	71.277
744.80	72.826
745.12	81.818
745.43	68.780
745.74	79.688
746.06	72.683
746.37	74.869
746.68	77.251
747.00	68.617
747.31	71.642
747.62	71.359
747.94	71.292
748.25	72.277
748.56	80.874
748.88	75.393
749.19	77.128
749.50	75.862
749.82	72.170
750.13	70.642
750.44	63.910
750.75	67.910
751.07	71.168
751.38	65.134
751.69	67.451
752.01	63.953
752.32	70.120
752.63	66.798
752.94	70.690
753.26	69.038
753.57	71.493
753.88	65.487
754.19	64.167
754.51	69.008
754.82	64.777
755.13	68.750
755.44	63.306
755.75	64.062
756.07	65.370
756.38	59.245
756.69	63.218
757.00	57.000
757.31	55.882
757.63	60.976
757.94	55.278
758.25	53.425
758.56	56.915
758.87	54.108
759.18	54.206
759.50	56.364
759.81	62.207
760.12	57.742
760.43	59.091
760.74	62.654
761.05	57.231
761.36	55.682
761.67	56.364
761.99	58.163
762.30	57.818
762.61	58.498
762.92	61.086
763.23	59.459
763.54	59.813
763.85	61.441
764.16	56.846
764.47	57.258
764.78	58.974
765.10	58.249
765.41	57.729
765.72	59.048
766.03	54.887
766.34	54.380
766.65	60.956
766.96	65.657
767.27	58.511
767.58	63.218
767.89	64.539
768.20	65.341
768.51	67.582
768.82	65.517
769.13	57.604
769.44	53.648
769.75	61.644
770.06	56.034
770.37	55.288
770.68	59.391
770.99	58.824
771.30	69.608
771.61	57.919
771.92	59.914
772.23	59.113
772.54	55.914
772.85	71.605
773.16	50.562
773.47	64.052
773.78	68.627
774.09	60.479
774.39	67.333
774.70	63.057
775.01	65.517
775.32	62.857
775.63	66.942
775.94	63.359
776.25	70.866
776.56	71.667
776.87	73.077
777.18	59.829
777.48	75.000
777.79	62.609
778.10	54.286
778.41	63.063
778.72	69.048
779.03	61.654
779.34	58.156
779.65	61.644
779.95	58.904
780.26	57.241
780.57	57.724
780.88	66.142
781.19	56.897
781.50	63.566
781.80	51.479
782.11	56.604
782.42	66.154
782.73	66.187
783.04	58.519
783.34	52.778
783.65	56.410
783.96	60.656
784.27	58.621
784.57	72.358
784.88	50.781
785.19	69.000
785.50	71.000
785.81	57.759
786.11	63.793
786.42	55.340
786.73	61.818
787.04	56.122
787.34	52.679
787.65	59.048
787.96	48.673
788.26	63.636
788.57	51.282
788.88	58.594
789.19	57.937
789.49	47.826
789.80	57.143
790.11	60.606
790.41	43.636
790.72	70.652
791.03	55.682
791.33	62.500
791.64	68.750
791.95	55.814
792.25	61.702
792.56	55.056
792.87	58.904
793.17	66.667
793.48	64.000
793.79	57.500
794.09	65.000
794.40	45.283
794.70	58.252
795.01	46.341
795.32	46.154
795.62	60.000
795.93	47.059
796.23	52.830
796.54	56.250
796.85	75.000
797.15	59.155
797.46	83.333
797.76	65.152
798.07	58.140
798.37	47.368
798.68	62.121
798.99	50.617
799.29	74.286
799.60	47.826
799.90	64.000
800.21	81.967
800.51	55.385
800.82	55.932
801.12	55.072
801.43	59.016
801.73	71.429
802.04	74.000
802.34	43.284
802.65	50.000
802.95	62.500
803.26	55.769
803.56	72.549
803.87	34.783
804.17	50.667
804.48	68.254
804.78	62.963
805.09	54.348
805.39	66.667
805.70	55.556
806.00	42.105
806.30	57.746
806.61	71.429
806.91	18.056
807.22	56.579
807.52	57.333
807.83	49.091
808.13	48.611
808.43	52.941
808.74	49.254
809.04	55.932
809.35	57.692
809.65	26.563
809.95	24.324
810.26	36.364
810.56	34.247
810.86	26.190
811.17	52.000
811.47	42.857
811.77	42.105
812.08	36.364
812.38	43.396
812.69	37.500
812.99	66.667
813.29	63.158
813.59	14.286
813.90	54.545
814.20	33.333
814.50	55.769
814.81	54.717
815.11	29.787
815.41	55.932
815.72	73.810
816.02	47.059
816.32	52.083
816.62	68.293
816.93	62.162
817.23	28.571
817.53	68.750
817.84	50.000
818.14	26.923
818.44	63.158
818.74	84.783
819.04	35.000
819.35	45.946
819.65	35.294
819.95	50.000
820.25	42.857
820.56	87.500
820.86	31.034
821.16	57.500
821.46	76.596
821.76	57.500
822.07	27.907
822.37	29.730
822.67	28.125
822.97	47.619
823.27	25.000
823.57	36.000
823.88	22.222
824.18	53.571
824.48	50.000
824.78	16.129
825.08	52.174
825.38	81.818
825.69	-4.167
825.99	36.842
826.29	55.556
826.59	93.333
826.89	33.333
827.19	41.304
827.49	67.500
827.79	48.571
828.09	64.286
828.39	54.545
828.70	64.865
829.00	7.143
829.30	52.381
829.60	40.000
829.90	37.500
830.20	52.632
830.50	77.778
830.80	13.043
831.10	36.364
831.40	48.485
831.70	51.613
832.00	95.238
832.30	19.048
832.60	83.333
832.90	24.138
833.20	-15.000
833.50	45.455
833.80	51.852
834.10	15.385
834.40	40.625
834.70	11.111
835.00	73.684
835.30	73.077
835.60	60.000
835.90	54.839
836.20	27.273
836.50	53.571
836.80	23.077
837.10	32.143
837.40	66.667
837.70	36.364
838.00	81.818
838.30	-4.348
838.60	38.462
838.90	36.364
839.19	32.143
839.49	46.667
839.79	15.385
840.09	-33.333
840.39	32.143
840.69	50.000
840.99	34.615
841.29	-5.263
841.59	-50.000
841.88	36.364
842.18	70.000
842.48	56.250
842.78	-6.667
843.08	66.667
843.38	-20.000
843.68	39.130
843.97	53.333
844.27	26.667
844.57	50.000
844.87	5.556
845.17	14.286
845.47	40.000
845.76	19.048
846.06	52.941
846.36	-50.000
846.66	35.714
846.96	20.000
847.25	-12.500
847.55	71.429
847.85	37.500
848.15	31.818
848.44	-333.333
848.74	15.000
849.04	48.148
849.34	18.182
849.63	-66.667
849.93	-100.000
850.23	-16.667
850.53	-20.000
850.82	-30.769
851.12	33.333
851.42	-20.000
851.71	-11.538
852.01	57.143
852.31	-200.000
852.61	36.364
852.90	0.000
853.20	31.579
853.50	25.000
853.79	30.435
854.09	83.333
854.39	63.158
854.68	0.000
854.98	51.613
855.28	50.000
855.57	80.000
855.87	38.889
856.17	18.519
856.46	28.571
856.76	26.667
857.05	122.222
857.35	48.000
857.65	44.444
857.94	76.923
858.24	68.966
858.53	27.778
858.83	37.037
859.13	40.909
859.42	47.826
859.72	-100.000
860.01	-633.333
860.31	32.000
860.60	61.905
860.90	-300.000
861.20	20.000
861.49	-100.000
861.79	33.333
862.08	-5.000
862.38	13.333
862.67	-180.000
862.97	-16.667
863.26	0.000
863.56	55.556
863.85	-166.667
864.15	11.111
864.44	40.000
864.74	121.429
865.03	225.000
865.33	-160.000
865.62	133.333
865.92	-25.000
866.21	-183.333
866.51	6.250
866.80	-36.364
867.10	-150.000
867.39	33.333
867.69	0.000
867.98	23.077
868.27	-300.000
868.57	0.000
868.86	11.111
869.16	-46.154
869.45	126.667
869.75	-200.000
870.04	0.000
870.33	-14.286
870.63	23.810
870.92	266.667
871.22	-140.000
871.51	-800.000
871.80	177.778
872.10	266.667
>>>>>End Processed Spectral Data<<<<<
