SpectraSuite Data File
++++++++++++++++++++++++++++++++++++
Date: Fri May 15 20:58:14 PDT 2015
User: schluterlab
Dark Spectrum Present: Yes
Reference Spectrum Present: Yes
Number of Sampled Component Spectra: 1
Spectrometers: USB2E3373
Integration Time (usec): 3000 (USB2E3373)
Spectra Averaged: 3 (USB2E3373)
Boxcar Smoothing: 0 (USB2E3373)
Correct for Electrical Dark: No (USB2E3373)
Strobe/Lamp Enabled: No (USB2E3373)
Correct for Detector Non-linearity: No (USB2E3373)
Correct for Stray Light: No (USB2E3373)
Number of Pixels in Processed Spectrum: 2048
>>>>>Begin Processed Spectral Data<<<<<
178.53	0.000
178.91	0.000
179.29	37.500
179.67	-350.000
180.04	-28.571
180.42	75.000
180.80	-600.000
181.18	166.667
181.56	200.000
181.94	350.000
182.31	1300.000
182.69	-140.000
183.07	-466.667
183.45	-120.000
183.83	166.667
184.20	27.273
184.58	122.222
184.96	-25.000
185.34	-166.667
185.72	-350.000
186.09	61.538
186.47	-400.000
186.85	250.000
187.23	66.667
187.61	400.000
187.98	-466.667
188.36	-11.111
188.74	-333.333
189.12	0.000
189.49	38.889
189.87	0.000
190.25	-28.571
190.63	-150.000
191.00	-366.667
191.38	-31.579
191.76	100.000
192.14	-75.000
192.51	-50.000
192.89	-111.111
193.27	-57.143
193.65	200.000
194.02	154.545
194.40	10.000
194.78	-175.000
195.15	-50.000
195.53	-25.000
195.91	475.000
196.29	-50.000
196.66	46.154
197.04	128.571
197.42	-11.111
197.79	-366.667
198.17	-92.308
198.55	1800.000
198.92	-366.667
199.30	-600.000
199.68	-280.000
200.05	-400.000
200.43	0.000
200.81	-333.333
201.18	-266.667
201.56	1600.000
201.94	-200.000
202.31	-266.667
202.69	-440.000
203.07	325.000
203.44	0.000
203.82	0.000
204.19	35.714
204.57	-266.667
204.95	250.000
205.32	30.000
205.70	-14.286
206.08	-275.000
206.45	211.111
206.83	28.571
207.20	-200.000
207.58	200.000
207.96	-133.333
208.33	0.000
208.71	-275.000
209.08	-166.667
209.46	-1300.000
209.84	-40.000
210.21	-800.000
210.59	-42.857
210.96	-150.000
211.34	-100.000
211.71	20.000
212.09	-314.286
212.46	-1900.000
212.84	0.000
213.22	90.000
213.59	500.000
213.97	30.769
214.34	27.273
214.72	33.333
215.09	450.000
215.47	-23.077
215.84	0.000
216.22	-366.667
216.59	0.000
216.97	50.000
217.34	-225.000
217.72	-360.000
218.09	-37.500
218.47	200.000
218.84	100.000
219.22	-100.000
219.59	-40.000
219.97	400.000
220.34	250.000
220.72	14.286
221.09	-375.000
221.47	-50.000
221.84	-200.000
222.22	-550.000
222.59	-72.727
222.97	-16.667
223.34	-500.000
223.72	-85.714
224.09	14.286
224.46	21.429
224.84	66.667
225.21	-160.000
225.59	26.667
225.96	-100.000
226.34	425.000
226.71	-142.857
227.08	-83.333
227.46	-75.000
227.83	-700.000
228.21	-55.556
228.58	9.091
228.95	-162.500
229.33	170.000
229.70	-62.500
230.08	-150.000
230.45	-28.571
230.82	114.286
231.20	-86.667
231.57	-21.429
231.95	-85.714
232.32	-120.000
232.69	-7.143
233.07	-366.667
233.44	-220.000
233.81	-120.000
234.19	-88.889
234.56	-17.647
234.93	950.000
235.31	-50.000
235.68	-220.000
236.05	-38.462
236.43	-65.000
236.80	-70.588
237.17	-9.375
237.55	-20.000
237.92	-88.889
238.29	-25.000
238.67	6.667
239.04	-17.647
239.41	-26.829
239.79	-46.667
240.16	-21.951
240.53	-26.316
240.91	-23.913
241.28	-15.873
241.65	7.143
242.02	8.219
242.40	-13.333
242.77	-13.559
243.14	-10.606
243.51	-5.000
243.89	8.046
244.26	-8.046
244.63	-8.333
245.00	-1.031
245.38	4.124
245.75	-31.461
246.12	-8.621
246.49	-7.438
246.87	4.808
247.24	0.840
247.61	-25.439
247.98	-15.447
248.36	-1.250
248.73	1.974
249.10	-5.844
249.47	-3.165
249.84	-1.961
250.22	-0.588
250.59	-4.575
250.96	4.225
251.33	0.581
251.70	-1.765
252.08	1.015
252.45	-2.970
252.82	-3.015
253.19	-2.304
253.56	-5.607
253.94	0.901
254.31	-0.870
254.68	0.000
255.05	-5.512
255.42	1.747
255.79	-5.792
256.16	1.556
256.54	-1.119
256.91	-1.141
257.28	-0.743
257.65	-3.745
258.02	-3.191
258.39	1.347
258.76	1.099
259.14	0.664
259.51	1.618
259.88	-1.031
260.25	-2.614
260.62	-0.694
260.99	-8.136
261.36	-3.767
261.73	-4.430
262.10	-2.432
262.47	-3.988
262.85	0.940
263.22	-2.462
263.59	1.869
263.96	-2.174
264.33	-2.121
264.70	-2.976
265.07	-0.893
265.44	-1.416
265.81	0.282
266.18	-0.820
266.55	1.285
266.92	-1.813
267.29	-2.350
267.66	-0.512
268.03	1.832
268.40	-0.783
268.77	4.278
269.14	0.000
269.51	3.342
269.88	-1.496
270.25	-2.806
270.62	-2.439
270.99	-3.581
271.36	-3.178
271.73	0.000
272.10	-2.676
272.47	-1.182
272.84	0.000
273.21	0.928
273.58	0.241
273.95	0.915
274.32	-0.462
274.69	-3.846
275.06	-0.446
275.43	-2.948
275.80	-1.325
276.17	-3.218
276.54	-0.214
276.91	-1.316
277.28	-1.528
277.65	1.446
278.02	-0.213
278.39	-1.969
278.76	-1.048
279.13	-3.942
279.50	-0.420
279.87	-0.216
280.23	-1.505
280.60	0.780
280.97	-1.414
281.34	-1.538
281.71	0.000
282.08	-0.613
282.45	-1.761
282.82	-0.579
283.19	-0.774
283.56	-1.349
283.92	-3.036
284.29	-0.385
284.66	-0.581
285.03	-0.786
285.40	-1.323
285.77	0.527
286.14	-1.264
286.51	-0.185
286.87	-1.463
287.24	-0.552
287.61	-2.116
287.98	-0.526
288.35	-1.733
288.72	0.175
289.08	0.174
289.45	-1.054
289.82	1.923
290.19	-1.877
290.56	-2.401
290.93	-0.505
291.29	-1.079
291.66	0.472
292.03	-0.638
292.40	-1.129
292.77	-1.595
293.13	-2.435
293.50	-0.152
293.87	1.679
294.24	0.155
294.60	-1.639
294.97	0.298
295.34	-1.687
295.71	-0.447
296.08	0.000
296.44	-2.560
296.81	-1.528
297.18	-0.145
297.55	1.626
297.91	0.137
298.28	1.715
298.65	0.407
299.02	-0.539
299.38	-2.462
299.75	0.276
300.12	0.131
300.48	-0.922
300.85	0.000
301.22	-0.519
301.59	-1.053
301.95	0.886
302.32	1.816
302.69	-0.871
303.05	-1.114
303.42	0.747
303.79	-0.350
304.15	0.956
304.52	-0.832
304.89	-0.468
305.25	-0.969
305.62	-1.167
305.99	-0.585
306.35	-1.503
306.72	-1.012
307.09	-0.114
307.45	-0.115
307.82	-0.810
308.19	0.116
308.55	0.109
308.92	0.871
309.29	-0.447
309.65	0.108
310.02	0.440
310.38	0.000
310.75	1.093
311.12	0.323
311.48	-0.742
311.85	-0.105
312.22	-0.105
312.58	0.743
312.95	0.213
313.31	-0.725
313.68	1.047
314.05	0.306
314.41	0.515
314.78	1.031
315.14	2.467
315.51	1.346
315.87	1.639
316.24	2.831
316.61	2.953
316.97	1.687
317.34	2.441
317.70	3.346
318.07	3.365
318.43	4.020
318.80	3.409
319.16	4.297
319.53	5.413
319.89	4.626
320.26	6.275
320.62	7.121
320.99	6.159
321.35	6.475
321.72	7.788
322.08	8.459
322.45	9.239
322.81	10.314
323.18	9.814
323.54	11.486
323.91	12.950
324.27	13.379
324.64	14.139
325.00	14.051
325.37	16.437
325.73	16.500
326.10	18.074
326.46	18.924
326.83	20.122
327.19	20.663
327.56	22.242
327.92	22.183
328.29	22.500
328.65	25.000
329.01	25.643
329.38	25.714
329.74	27.007
330.11	27.062
330.47	26.994
330.84	26.442
331.20	30.323
331.56	29.167
331.93	29.589
332.29	30.614
332.66	31.131
333.02	30.948
333.38	30.247
333.75	31.960
334.11	31.603
334.48	33.001
334.84	33.700
335.20	32.845
335.57	32.457
335.93	34.056
336.29	34.715
336.66	33.697
337.02	34.015
337.38	34.259
337.75	35.545
338.11	35.618
338.47	36.588
338.84	36.137
339.20	35.192
339.56	35.688
339.93	36.705
340.29	36.789
340.65	37.814
341.02	36.259
341.38	36.460
341.74	34.452
342.11	35.529
342.47	37.100
342.83	38.062
343.20	35.366
343.56	36.261
343.92	36.492
344.28	38.429
344.65	35.838
345.01	34.745
345.37	35.492
345.73	36.569
346.10	36.756
346.46	36.249
346.82	37.070
347.19	35.910
347.55	36.675
347.91	36.974
348.27	36.702
348.63	36.627
349.00	36.259
349.36	36.243
349.72	36.318
350.08	38.443
350.45	37.430
350.81	37.791
351.17	36.075
351.53	36.653
351.89	35.838
352.26	35.840
352.62	35.726
352.98	37.751
353.34	35.185
353.70	36.489
354.07	35.565
354.43	34.828
354.79	36.003
355.15	35.794
355.51	35.522
355.87	36.812
356.24	35.237
356.60	35.893
356.96	36.190
357.32	34.744
357.68	35.184
358.04	35.299
358.40	34.164
358.77	36.842
359.13	35.228
359.49	34.052
359.85	34.867
360.21	34.689
360.57	34.200
360.93	34.947
361.29	34.592
361.66	35.031
362.02	35.152
362.38	34.273
362.74	34.065
363.10	35.365
363.46	35.211
363.82	35.237
364.18	34.317
364.54	33.971
364.90	34.265
365.26	34.134
365.62	36.131
365.98	34.457
366.35	34.814
366.71	34.294
367.07	34.470
367.43	33.214
367.79	34.064
368.15	33.309
368.51	33.430
368.87	32.807
369.23	32.708
369.59	33.455
369.95	33.798
370.31	33.165
370.67	33.731
371.03	33.532
371.39	33.115
371.75	34.432
372.11	32.454
372.47	34.172
372.83	33.641
373.19	32.882
373.55	33.285
373.91	33.117
374.27	33.664
374.63	33.453
374.99	32.979
375.35	32.451
375.71	32.238
376.07	31.531
376.42	31.837
376.78	32.550
377.14	32.227
377.50	32.271
377.86	32.798
378.22	31.589
378.58	31.923
378.94	31.380
379.30	30.880
379.66	31.536
380.02	30.901
380.38	31.832
380.74	31.059
381.09	32.393
381.45	30.520
381.81	30.167
382.17	31.282
382.53	30.169
382.89	31.450
383.25	31.923
383.61	30.915
383.97	29.968
384.32	30.644
384.68	30.217
385.04	28.676
385.40	30.305
385.76	31.447
386.12	30.272
386.48	31.226
386.83	29.423
387.19	30.708
387.55	30.740
387.91	28.912
388.27	28.510
388.62	29.830
388.98	28.913
389.34	28.670
389.70	28.900
390.06	28.697
390.42	29.080
390.77	28.385
391.13	27.175
391.49	28.525
391.85	29.110
392.20	28.249
392.56	27.781
392.92	28.068
393.28	28.538
393.64	27.387
393.99	28.150
394.35	27.451
394.71	27.395
395.07	26.210
395.42	28.597
395.78	27.818
396.14	26.356
396.50	26.569
396.85	26.594
397.21	26.504
397.57	26.082
397.92	26.723
398.28	26.494
398.64	26.145
399.00	25.847
399.35	24.718
399.71	25.503
400.07	25.937
400.42	25.581
400.78	26.577
401.14	24.561
401.49	25.908
401.85	24.924
402.21	25.181
402.57	25.125
402.92	24.153
403.28	24.749
403.63	24.779
403.99	24.809
404.35	24.610
404.70	23.571
405.06	23.384
405.42	23.679
405.77	23.068
406.13	23.865
406.49	23.446
406.84	23.044
407.20	23.600
407.55	22.859
407.91	22.794
408.27	22.371
408.62	23.569
408.98	22.304
409.34	22.243
409.69	21.835
410.05	21.736
410.40	22.778
410.76	22.256
411.11	22.750
411.47	22.156
411.83	21.846
412.18	22.265
412.54	21.536
412.89	20.197
413.25	21.721
413.60	21.366
413.96	21.350
414.31	21.646
414.67	20.718
415.03	20.439
415.38	20.431
415.74	21.759
416.09	20.771
416.45	20.662
416.80	20.026
417.16	20.373
417.51	20.586
417.87	20.339
418.22	19.819
418.58	20.268
418.93	20.564
419.29	19.398
419.64	19.961
420.00	20.844
420.35	19.701
420.71	19.259
421.06	18.478
421.42	19.712
421.77	19.653
422.12	18.218
422.48	18.517
422.83	19.548
423.19	19.018
423.54	18.166
423.90	17.727
424.25	18.427
424.61	18.299
424.96	18.990
425.31	19.122
425.67	18.545
426.02	18.610
426.38	18.222
426.73	18.644
427.09	18.797
427.44	19.000
427.79	18.091
428.15	19.175
428.50	18.110
428.85	17.506
429.21	17.317
429.56	17.898
429.92	17.874
430.27	18.296
430.62	16.780
430.98	17.410
431.33	17.403
431.68	16.745
432.04	17.552
432.39	17.741
432.74	16.837
433.10	17.471
433.45	16.726
433.80	17.121
434.16	16.011
434.51	16.398
434.86	17.596
435.22	17.386
435.57	17.218
435.92	17.126
436.28	16.279
436.63	16.486
436.98	16.165
437.34	16.939
437.69	16.279
438.04	16.809
438.39	16.249
438.75	16.211
439.10	16.412
439.45	16.859
439.81	16.147
440.16	16.330
440.51	16.299
440.86	16.677
441.22	16.516
441.57	16.336
441.92	16.999
442.27	16.020
442.63	16.970
442.98	16.887
443.33	15.693
443.68	15.703
444.03	16.592
444.39	15.986
444.74	17.001
445.09	16.370
445.44	15.897
445.79	16.194
446.15	15.969
446.50	15.918
446.85	16.047
447.20	15.954
447.55	16.295
447.91	15.849
448.26	15.936
448.61	16.292
448.96	16.007
449.31	15.954
449.66	16.318
450.02	15.231
450.37	15.886
450.72	15.808
451.07	15.759
451.42	15.855
451.77	16.034
452.12	15.431
452.47	15.518
452.83	16.137
453.18	15.560
453.53	15.992
453.88	15.665
454.23	15.796
454.58	15.932
454.93	16.366
455.28	15.175
455.63	15.747
455.98	15.875
456.34	15.326
456.69	15.947
457.04	16.068
457.39	15.614
457.74	14.631
458.09	14.715
458.44	14.687
458.79	15.070
459.14	15.217
459.49	15.343
459.84	15.623
460.19	14.745
460.54	14.976
460.89	15.057
461.24	14.658
461.59	14.489
461.94	15.031
462.29	15.621
462.64	14.751
462.99	15.369
463.34	13.282
463.69	14.221
464.04	15.073
464.39	15.282
464.74	14.785
465.09	14.473
465.44	15.118
465.79	13.379
466.14	14.823
466.49	14.664
466.84	14.515
467.19	14.393
467.54	13.602
467.89	14.593
468.24	13.504
468.59	14.984
468.94	14.095
469.29	14.689
469.64	15.379
469.99	15.697
470.34	13.857
470.68	15.436
471.03	15.074
471.38	14.765
471.73	15.336
472.08	14.179
472.43	13.154
472.78	14.188
473.13	13.605
473.48	14.267
473.83	14.259
474.17	14.896
474.52	13.784
474.87	14.667
475.22	13.545
475.57	13.552
475.92	13.659
476.27	13.912
476.61	14.236
476.96	13.720
477.31	14.602
477.66	14.213
478.01	14.206
478.36	13.453
478.70	14.464
479.05	14.066
479.40	13.937
479.75	13.869
480.10	14.081
480.45	14.200
480.79	14.099
481.14	13.883
481.49	13.350
481.84	13.369
482.19	13.283
482.53	14.005
482.88	14.081
483.23	13.628
483.58	13.160
483.92	13.601
484.27	12.716
484.62	13.223
484.97	13.474
485.31	13.114
485.66	12.386
486.01	12.748
486.36	12.602
486.70	12.667
487.05	13.111
487.40	12.875
487.75	12.930
488.09	12.701
488.44	12.620
488.79	12.626
489.13	13.101
489.48	12.869
489.83	12.825
490.17	13.124
490.52	12.979
490.87	12.679
491.22	13.706
491.56	13.425
491.91	13.337
492.26	12.931
492.60	13.004
492.95	13.920
493.30	13.239
493.64	13.114
493.99	12.947
494.34	12.961
494.68	13.476
495.03	13.090
495.37	13.248
495.72	12.923
496.07	13.317
496.41	13.019
496.76	13.542
497.11	12.809
497.45	13.079
497.80	13.522
498.14	12.717
498.49	12.544
498.84	12.974
499.18	12.500
499.53	12.798
499.87	12.889
500.22	13.056
500.56	13.212
500.91	12.751
501.26	12.556
501.60	12.100
501.95	12.179
502.29	13.075
502.64	12.886
502.98	12.580
503.33	11.960
503.67	12.000
504.02	12.512
504.36	12.716
504.71	11.667
505.06	12.833
505.40	12.589
505.75	12.784
506.09	11.911
506.44	12.834
506.78	12.755
507.13	12.151
507.47	12.376
507.82	12.553
508.16	11.780
508.51	12.697
508.85	12.297
509.19	12.134
509.54	12.172
509.88	12.028
510.23	12.318
510.57	13.041
510.92	11.514
511.26	12.220
511.61	12.761
511.95	12.603
512.30	12.417
512.64	13.077
512.98	12.914
513.33	12.815
513.67	11.995
514.02	13.673
514.36	12.286
514.70	13.112
515.05	12.515
515.39	12.338
515.74	12.754
516.08	12.911
516.42	13.545
516.77	13.107
517.11	12.522
517.46	12.208
517.80	12.574
518.14	11.941
518.49	12.200
518.83	12.272
519.17	11.461
519.52	11.782
519.86	12.605
520.20	12.211
520.55	11.757
520.89	13.112
521.23	12.160
521.58	13.502
521.92	11.795
522.26	12.297
522.61	11.883
522.95	13.377
523.29	12.262
523.64	12.834
523.98	12.508
524.32	11.985
524.66	12.932
525.01	12.987
525.35	12.767
525.69	11.515
526.04	11.905
526.38	13.294
526.72	11.642
527.06	12.516
527.41	13.259
527.75	11.796
528.09	11.694
528.43	12.492
528.78	12.079
529.12	11.871
529.46	12.346
529.80	12.666
530.15	12.607
530.49	11.785
530.83	12.312
531.17	11.820
531.51	12.107
531.86	12.508
532.20	11.204
532.54	12.185
532.88	13.073
533.22	12.366
533.57	11.271
533.91	11.031
534.25	11.979
534.59	11.610
534.93	10.950
535.27	11.612
535.62	10.110
535.96	12.590
536.30	12.665
536.64	12.819
536.98	11.010
537.32	12.945
537.66	13.184
538.01	12.448
538.35	11.442
538.69	11.718
539.03	11.483
539.37	12.315
539.71	11.997
540.05	12.220
540.39	12.050
540.73	11.785
541.07	12.776
541.42	13.038
541.76	12.457
542.10	11.562
542.44	12.370
542.78	11.425
543.12	11.058
543.46	11.892
543.80	11.797
544.14	11.348
544.48	11.792
544.82	10.936
545.16	12.090
545.50	12.617
545.84	11.190
546.18	11.773
546.52	11.680
546.86	11.574
547.20	11.087
547.54	10.954
547.88	12.024
548.22	11.177
548.56	11.280
548.90	11.523
549.24	10.744
549.58	11.989
549.92	11.079
550.26	11.429
550.60	11.673
550.94	11.875
551.28	11.051
551.62	11.846
551.96	11.278
552.30	10.892
552.64	10.790
552.98	10.900
553.32	10.913
553.66	10.813
554.00	12.117
554.34	11.669
554.68	12.094
555.02	10.565
555.36	10.995
555.69	10.110
556.03	11.278
556.37	10.890
556.71	10.975
557.05	10.515
557.39	10.409
557.73	10.720
558.07	11.011
558.41	10.949
558.75	11.769
559.08	10.717
559.42	10.794
559.76	11.689
560.10	11.315
560.44	10.871
560.78	11.049
561.12	10.860
561.45	11.384
561.79	11.765
562.13	11.072
562.47	10.432
562.81	10.735
563.15	11.354
563.48	11.315
563.82	11.325
564.16	11.281
564.50	10.608
564.84	11.580
565.17	10.865
565.51	11.202
565.85	10.905
566.19	10.345
566.52	10.791
566.86	11.632
567.20	10.959
567.54	11.131
567.88	11.131
568.21	10.916
568.55	10.054
568.89	11.088
569.23	10.496
569.56	10.114
569.90	10.922
570.24	10.309
570.57	10.218
570.91	10.178
571.25	9.931
571.59	9.530
571.92	10.015
572.26	9.662
572.60	10.481
572.93	10.009
573.27	9.812
573.61	9.726
573.95	9.885
574.28	9.931
574.62	9.611
574.96	9.848
575.29	9.743
575.63	9.536
575.97	9.596
576.30	9.868
576.64	9.245
576.98	10.039
577.31	9.708
577.65	9.564
577.98	9.573
578.32	9.635
578.66	9.327
578.99	9.827
579.33	9.318
579.67	9.387
580.00	9.671
580.34	9.826
580.67	9.471
581.01	9.558
581.35	9.690
581.68	9.722
582.02	9.396
582.35	9.471
582.69	9.447
583.02	9.400
583.36	9.510
583.70	9.657
584.03	9.981
584.37	10.136
584.70	9.670
585.04	9.456
585.37	9.705
585.71	9.208
586.04	9.228
586.38	9.683
586.72	9.670
587.05	10.052
587.39	9.952
587.72	10.033
588.06	9.521
588.39	9.684
588.73	9.676
589.06	9.752
589.40	10.197
589.73	10.369
590.07	9.970
590.40	9.598
590.73	10.461
591.07	9.839
591.40	9.795
591.74	10.498
592.07	10.204
592.41	9.894
592.74	10.115
593.08	9.431
593.41	9.555
593.75	9.519
594.08	9.509
594.41	9.789
594.75	9.847
595.08	9.383
595.42	9.128
595.75	9.763
596.09	9.617
596.42	9.301
596.75	9.591
597.09	10.114
597.42	10.434
597.75	8.749
598.09	9.778
598.42	9.522
598.76	9.695
599.09	9.696
599.42	9.701
599.76	9.782
600.09	9.502
600.42	10.311
600.76	9.101
601.09	9.313
601.42	9.792
601.76	9.131
602.09	9.736
602.42	10.447
602.76	9.253
603.09	10.174
603.42	9.866
603.76	9.032
604.09	9.559
604.42	9.645
604.76	10.058
605.09	9.781
605.42	9.977
605.75	9.632
606.09	9.597
606.42	9.716
606.75	9.654
607.09	10.374
607.42	9.526
607.75	9.414
608.08	9.299
608.42	9.822
608.75	10.120
609.08	9.068
609.41	9.492
609.75	9.728
610.08	9.885
610.41	9.082
610.74	10.093
611.07	9.457
611.41	9.964
611.74	11.141
612.07	9.368
612.40	10.011
612.73	9.379
613.07	9.843
613.40	10.230
613.73	9.737
614.06	10.295
614.39	10.039
614.72	9.020
615.06	10.000
615.39	9.498
615.72	9.526
616.05	9.553
616.38	9.060
616.71	9.725
617.05	9.636
617.38	10.308
617.71	9.308
618.04	10.349
618.37	10.845
618.70	10.297
619.03	10.347
619.36	9.551
619.69	9.780
620.03	10.519
620.36	9.514
620.69	9.921
621.02	11.162
621.35	10.456
621.68	9.269
622.01	10.750
622.34	10.615
622.67	10.410
623.00	10.260
623.33	10.747
623.66	10.097
623.99	10.590
624.32	10.038
624.65	9.624
624.99	10.384
625.32	9.704
625.65	10.998
625.98	10.556
626.31	10.224
626.64	9.879
626.97	10.297
627.30	11.296
627.63	10.139
627.96	9.793
628.29	9.436
628.62	10.324
628.95	9.619
629.28	9.980
629.61	8.574
629.94	11.535
630.26	10.079
630.59	10.198
630.92	11.077
631.25	9.333
631.58	11.454
631.91	8.991
632.24	9.633
632.57	10.909
632.90	8.304
633.23	11.647
633.56	10.202
633.89	10.358
634.22	11.111
634.55	9.149
634.88	9.068
635.20	10.385
635.53	9.733
635.86	9.363
636.19	10.996
636.52	8.929
636.85	9.429
637.18	10.189
637.51	10.314
637.83	10.907
638.16	10.778
638.49	8.447
638.82	12.763
639.15	11.262
639.48	11.554
639.81	11.576
640.13	10.390
640.46	10.641
640.79	10.162
641.12	11.521
641.45	10.360
641.77	10.370
642.10	11.690
642.43	10.450
642.76	10.726
643.09	11.793
643.41	10.032
643.74	10.049
644.07	11.002
644.40	11.655
644.73	9.107
645.05	8.893
645.38	10.758
645.71	9.752
646.04	10.772
646.36	10.638
646.69	14.388
647.02	12.098
647.35	9.142
647.67	10.786
648.00	10.634
648.33	10.751
648.66	10.678
648.98	9.380
649.31	6.942
649.64	9.105
649.96	10.049
650.29	11.244
650.62	10.598
650.94	10.556
651.27	9.497
651.60	10.090
651.92	12.413
652.25	8.881
652.58	9.500
652.90	12.350
653.23	10.588
653.56	8.629
653.88	9.450
654.21	10.683
654.54	9.338
654.86	9.168
655.19	8.918
655.52	11.068
655.84	8.437
656.17	9.725
656.49	12.960
656.82	13.382
657.15	10.079
657.47	7.444
657.80	5.394
658.13	5.429
658.45	8.295
658.78	8.268
659.10	8.081
659.43	8.354
659.75	8.633
660.08	7.448
660.41	10.112
660.73	9.530
661.06	12.132
661.38	7.828
661.71	9.240
662.03	12.017
662.36	9.670
662.68	8.628
663.01	12.227
663.33	7.425
663.66	7.907
663.98	10.000
664.31	12.154
664.63	8.525
664.96	7.391
665.28	8.168
665.61	10.823
665.93	12.174
666.26	11.714
666.58	8.501
666.91	8.000
667.23	8.255
667.56	14.218
667.88	9.592
668.21	8.831
668.53	11.584
668.86	11.557
669.18	9.434
669.50	5.811
669.83	11.628
670.15	9.557
670.48	8.134
670.80	10.599
671.13	10.067
671.45	6.164
671.77	10.086
672.10	9.505
672.42	8.427
672.75	11.190
673.07	9.660
673.39	10.459
673.72	6.706
674.04	10.208
674.37	9.746
674.69	11.135
675.01	8.889
675.34	9.459
675.66	9.028
675.98	11.752
676.31	12.385
676.63	10.926
676.95	9.318
677.28	14.353
677.60	13.735
677.92	11.239
678.25	11.816
678.57	8.442
678.89	11.134
679.22	11.186
679.54	7.631
679.86	6.561
680.18	10.874
680.51	10.227
680.83	8.350
681.15	11.200
681.48	10.656
681.80	10.124
682.12	9.274
682.44	6.695
682.77	9.272
683.09	8.467
683.41	7.500
683.73	11.982
684.06	9.956
684.38	8.602
684.70	10.458
685.02	8.506
685.34	8.893
685.67	9.193
685.99	9.946
686.31	8.319
686.63	10.390
686.96	10.076
687.28	8.081
687.60	9.696
687.92	13.333
688.24	9.274
688.56	9.607
688.89	8.482
689.21	12.222
689.53	8.121
689.85	9.302
690.17	11.384
690.49	11.111
690.82	7.524
691.14	7.619
691.46	11.215
691.78	9.234
692.10	8.172
692.42	8.658
692.74	11.538
693.06	9.459
693.39	7.919
693.71	8.145
694.03	8.545
694.35	9.579
694.67	7.828
694.99	8.355
695.31	12.010
695.63	7.000
695.95	6.061
696.27	9.845
696.59	12.500
696.91	7.563
697.23	8.997
697.56	8.911
697.88	11.828
698.20	7.289
698.52	8.941
698.84	8.612
699.16	10.000
699.48	9.774
699.80	9.181
700.12	7.547
700.44	11.765
700.76	8.430
701.08	2.727
701.40	5.723
701.72	10.494
702.04	11.551
702.36	7.692
702.68	8.408
703.00	9.394
703.32	5.279
703.64	8.192
703.96	8.986
704.28	7.975
704.60	6.032
704.91	4.416
705.23	9.302
705.55	12.014
705.87	12.996
706.19	8.148
706.51	8.591
706.83	9.646
707.15	6.542
707.47	11.204
707.79	9.635
708.11	9.500
708.43	11.750
708.74	9.561
709.06	9.577
709.38	9.480
709.70	8.284
710.02	9.873
710.34	11.146
710.66	2.564
710.98	6.954
711.29	7.869
711.61	7.797
711.93	7.492
712.25	10.653
712.57	6.227
712.89	8.209
713.20	12.457
713.52	8.362
713.84	6.485
714.16	2.062
714.48	10.645
714.80	8.013
715.11	6.687
715.43	8.150
715.75	4.667
716.07	8.306
716.39	9.396
716.70	8.856
717.02	8.015
717.34	9.717
717.66	10.177
717.97	5.652
718.29	10.042
718.61	9.449
718.93	11.240
719.24	7.224
719.56	9.237
719.88	11.340
720.20	5.682
720.51	7.280
720.83	7.722
721.15	4.622
721.46	8.468
721.78	7.905
722.10	5.948
722.42	4.564
722.73	6.531
723.05	9.388
723.37	14.407
723.68	9.910
724.00	8.120
724.32	6.667
724.63	2.727
724.95	10.917
725.27	9.217
725.58	9.746
725.90	3.571
726.22	10.039
726.53	12.203
726.85	7.116
727.16	11.698
727.48	4.049
727.80	8.907
728.11	5.932
728.43	11.765
728.74	2.419
729.06	2.000
729.38	15.414
729.69	5.578
730.01	4.231
730.32	7.836
730.64	9.187
730.96	9.057
731.27	9.667
731.59	6.102
731.90	9.873
732.22	10.726
732.53	10.963
732.85	6.738
733.16	12.795
733.48	7.914
733.80	3.623
734.11	11.864
734.43	9.278
734.74	6.364
735.06	1.303
735.37	12.085
735.69	6.734
736.00	6.272
736.32	10.403
736.63	8.099
736.95	11.604
737.26	8.185
737.58	7.718
737.89	5.495
738.21	8.647
738.52	8.230
738.83	10.044
739.15	4.803
739.46	7.874
739.78	3.663
740.09	7.516
740.41	8.696
740.72	6.693
741.04	3.644
741.35	6.383
741.66	7.583
741.98	10.204
742.29	6.436
742.61	8.377
742.92	2.844
743.23	4.167
743.55	6.787
743.86	5.742
744.18	6.220
744.49	1.064
744.80	7.609
745.12	8.021
745.43	5.854
745.74	4.688
746.06	10.244
746.37	8.901
746.68	9.005
747.00	2.128
747.31	10.945
747.62	5.825
747.94	9.569
748.25	2.970
748.56	5.464
748.88	3.665
749.19	9.574
749.50	8.374
749.82	-0.943
750.13	5.505
750.44	10.902
750.75	8.209
751.07	12.044
751.38	6.130
751.69	2.353
752.01	10.078
752.32	5.179
752.63	3.953
752.94	7.328
753.26	14.644
753.57	4.525
753.88	8.407
754.19	3.750
754.51	10.331
754.82	6.478
755.13	11.667
755.44	8.871
755.75	9.766
756.07	5.447
756.38	6.038
756.69	1.533
757.00	9.333
757.31	10.131
757.63	5.793
757.94	8.056
758.25	6.027
758.56	6.117
758.87	7.082
759.18	7.788
759.50	5.818
759.81	7.358
760.12	9.355
760.43	8.485
760.74	8.333
761.05	6.769
761.36	7.102
761.67	11.212
761.99	8.503
762.30	5.818
762.61	7.905
762.92	7.692
763.23	6.306
763.54	2.336
763.85	6.356
764.16	5.809
764.47	4.032
764.78	8.791
765.10	9.764
765.41	7.886
765.72	9.841
766.03	3.383
766.34	4.745
766.65	6.773
766.96	6.566
767.27	9.043
767.58	6.322
767.89	-7.092
768.20	4.545
768.51	12.088
768.82	9.852
769.13	3.226
769.44	6.438
769.75	3.196
770.06	8.621
770.37	11.058
770.68	8.629
770.99	6.335
771.30	5.392
771.61	3.620
771.92	9.483
772.23	11.330
772.54	11.828
772.85	4.938
773.16	7.303
773.47	12.418
773.78	3.922
774.09	8.982
774.39	2.000
774.70	5.732
775.01	8.276
775.32	8.571
775.63	9.917
775.94	2.290
776.25	7.874
776.56	5.000
776.87	1.923
777.18	5.983
777.48	6.034
777.79	2.609
778.10	-3.810
778.41	5.405
778.72	7.143
779.03	3.759
779.34	11.348
779.65	9.589
779.95	3.425
780.26	6.897
780.57	-4.065
780.88	8.661
781.19	0.000
781.50	5.426
781.80	1.775
782.11	4.403
782.42	2.308
782.73	2.878
783.04	3.704
783.34	6.250
783.65	-7.692
783.96	5.738
784.27	10.345
784.57	0.000
784.88	1.563
785.19	17.000
785.50	15.000
785.81	11.207
786.11	6.897
786.42	3.883
786.73	13.636
787.04	4.082
787.34	-3.571
787.65	0.000
787.96	0.885
788.26	-1.818
788.57	6.838
788.88	10.937
789.19	3.968
789.49	0.000
789.80	-1.020
790.11	-5.051
790.41	-0.909
790.72	8.696
791.03	-2.273
791.33	23.750
791.64	3.750
791.95	-2.326
792.25	2.128
792.56	13.483
792.87	1.370
793.17	0.000
793.48	2.667
793.79	-1.250
794.09	2.500
794.40	0.000
794.70	0.971
795.01	-3.252
795.32	-4.274
795.62	8.571
795.93	1.961
796.23	7.547
796.54	14.583
796.85	-5.882
797.15	-4.225
797.46	26.389
797.76	10.606
798.07	12.791
798.37	-7.895
798.68	-10.606
798.99	12.346
799.29	8.571
799.60	-7.246
799.90	0.000
800.21	19.672
800.51	-1.538
800.82	10.169
801.12	8.696
801.43	-9.836
801.73	-1.587
802.04	-18.000
802.34	5.970
802.65	-3.846
802.95	-10.714
803.26	-5.769
803.56	11.765
803.87	-23.913
804.17	10.667
804.48	4.762
804.78	3.704
805.09	-8.696
805.39	-8.889
805.70	-7.407
806.00	-29.825
806.30	9.859
806.61	5.714
806.91	2.778
807.22	7.895
807.52	10.667
807.83	-12.727
808.13	1.389
808.43	14.706
808.74	-19.403
809.04	-11.864
809.35	-28.846
809.65	-1.562
809.95	-43.243
810.26	-11.364
810.56	-6.849
810.86	-23.810
811.17	6.000
811.47	-2.041
811.77	-28.947
812.08	-11.364
812.38	-13.208
812.69	-27.500
812.99	-45.455
813.29	10.526
813.59	-2.857
813.90	-18.182
814.20	-25.641
814.50	7.692
814.81	3.774
815.11	-27.660
815.41	22.034
815.72	-14.286
816.02	-13.725
816.32	-4.167
816.62	-12.195
816.93	-32.432
817.23	-31.429
817.53	18.750
817.84	-2.174
818.14	3.846
818.44	-7.895
818.74	17.391
819.04	-32.500
819.35	-13.514
819.65	-20.588
819.95	-19.444
820.25	7.143
820.56	22.500
820.86	-13.793
821.16	27.500
821.46	17.021
821.76	20.000
822.07	-9.302
822.37	-35.135
822.67	-21.875
822.97	16.667
823.27	-42.857
823.57	-8.000
823.88	-25.926
824.18	-14.286
824.48	5.882
824.78	-16.129
825.08	-30.435
825.38	-9.091
825.69	-75.000
825.99	-15.789
826.29	-19.444
826.59	13.333
826.89	-95.238
827.19	2.174
827.49	5.000
827.79	20.000
828.09	-39.286
828.39	-6.061
828.70	21.622
829.00	3.571
829.30	-80.952
829.60	30.000
829.90	25.000
830.20	-13.158
830.50	-22.222
830.80	-21.739
831.10	-4.545
831.40	12.121
831.70	22.581
832.00	9.524
832.30	-52.381
832.60	-116.667
832.90	24.138
833.20	-65.000
833.50	-24.242
833.80	-29.630
834.10	-38.462
834.40	31.250
834.70	-88.889
835.00	10.526
835.30	34.615
835.60	33.333
835.90	-16.129
836.20	-13.636
836.50	17.857
836.80	-42.308
837.10	7.143
837.40	-400.000
837.70	45.455
838.00	-54.545
838.30	4.348
838.60	-100.000
838.90	27.273
839.19	-3.571
839.49	10.000
839.79	-7.692
840.09	-25.000
840.39	35.714
840.69	-21.429
840.99	-46.154
841.29	-68.421
841.59	-110.000
841.88	-54.545
842.18	-150.000
842.48	-43.750
842.78	-33.333
843.08	-3.704
843.38	-140.000
843.68	43.478
843.97	-20.000
844.27	-73.333
844.57	20.000
844.87	-50.000
845.17	-57.143
845.47	0.000
845.76	-23.810
846.06	-35.294
846.36	-100.000
846.66	-92.857
846.96	-26.667
847.25	-162.500
847.55	28.571
847.85	-100.000
848.15	-50.000
848.44	-366.667
848.74	30.000
849.04	18.519
849.34	109.091
849.63	-100.000
849.93	-220.000
850.23	0.000
850.53	-10.000
850.82	-100.000
851.12	-88.889
851.42	-86.667
851.71	-7.692
852.01	-57.143
852.31	-125.000
852.61	-45.455
852.90	-25.000
853.20	-42.105
853.50	-66.667
853.79	13.043
854.09	8.333
854.39	-42.105
854.68	-25.000
854.98	61.290
855.28	0.000
855.57	5.000
855.87	-27.778
856.17	-7.407
856.46	35.714
856.76	-80.000
857.05	-33.333
857.35	36.000
857.65	-55.556
857.94	-84.615
858.24	0.000
858.53	16.667
858.83	14.815
859.13	-27.273
859.42	-13.043
859.72	0.000
860.01	-566.667
860.31	-12.000
860.60	-14.286
860.90	-400.000
861.20	0.000
861.49	-600.000
861.79	-73.333
862.08	-60.000
862.38	33.333
862.67	-120.000
862.97	-166.667
863.26	-50.000
863.56	27.778
863.85	-266.667
864.15	-33.333
864.44	-20.000
864.74	78.571
865.03	200.000
865.33	-80.000
865.62	-33.333
865.92	-66.667
866.21	-150.000
866.51	-18.750
866.80	-54.545
867.10	-700.000
867.39	75.000
867.69	0.000
867.98	-15.385
868.27	-333.333
868.57	-53.333
868.86	11.111
869.16	-76.923
869.45	0.000
869.75	-1600.000
870.04	0.000
870.33	-42.857
870.63	4.762
870.92	266.667
871.22	-260.000
871.51	-600.000
871.80	11.111
872.10	733.333
>>>>>End Processed Spectral Data<<<<<
