SpectraSuite Data File
++++++++++++++++++++++++++++++++++++
Date: Fri May 15 21:11:28 PDT 2015
User: schluterlab
Dark Spectrum Present: Yes
Reference Spectrum Present: Yes
Number of Sampled Component Spectra: 1
Spectrometers: USB2E3373
Integration Time (usec): 3000 (USB2E3373)
Spectra Averaged: 3 (USB2E3373)
Boxcar Smoothing: 0 (USB2E3373)
Correct for Electrical Dark: No (USB2E3373)
Strobe/Lamp Enabled: No (USB2E3373)
Correct for Detector Non-linearity: No (USB2E3373)
Correct for Stray Light: No (USB2E3373)
Number of Pixels in Processed Spectrum: 2048
>>>>>Begin Processed Spectral Data<<<<<
178.53	0.000
178.91	0.000
179.29	100.000
179.67	-1100.000
180.04	128.571
180.42	-75.000
180.80	-700.000
181.18	-33.333
181.56	450.000
181.94	-250.000
182.31	500.000
182.69	80.000
183.07	-33.333
183.45	-40.000
183.83	-0.000
184.20	-18.182
184.58	144.444
184.96	50.000
185.34	266.667
185.72	-500.000
186.09	123.077
186.47	-500.000
186.85	266.667
187.23	133.333
187.61	-300.000
187.98	33.333
188.36	22.222
188.74	-333.333
189.12	0.000
189.49	33.333
189.87	0.000
190.25	64.286
190.63	-200.000
191.00	-200.000
191.38	5.263
191.76	-50.000
192.14	400.000
192.51	-150.000
192.89	-111.111
193.27	-100.000
193.65	216.667
194.02	172.727
194.40	20.000
194.78	-175.000
195.15	-16.667
195.53	75.000
195.91	200.000
196.29	-175.000
196.66	138.462
197.04	228.571
197.42	-66.667
197.79	-866.667
198.17	-130.769
198.55	1200.000
198.92	-500.000
199.30	-300.000
199.68	-200.000
200.05	-233.333
200.43	0.000
200.81	33.333
201.18	33.333
201.56	1500.000
201.94	-550.000
202.31	-200.000
202.69	-60.000
203.07	225.000
203.44	-200.000
203.82	0.000
204.19	42.857
204.57	-266.667
204.95	75.000
205.32	-160.000
205.70	0.000
206.08	-75.000
206.45	22.222
206.83	42.857
207.20	-142.857
207.58	1500.000
207.96	-233.333
208.33	-10.000
208.71	-50.000
209.08	-300.000
209.46	-800.000
209.84	-220.000
210.21	-600.000
210.59	71.429
210.96	-66.667
211.34	25.000
211.71	13.333
212.09	-171.429
212.46	-900.000
212.84	0.000
213.22	80.000
213.59	200.000
213.97	-61.538
214.34	90.909
214.72	50.000
215.09	375.000
215.47	-84.615
215.84	-81.818
216.22	66.667
216.59	25.000
216.97	-100.000
217.34	-50.000
217.72	-240.000
218.09	0.000
218.47	100.000
218.84	-700.000
219.22	-55.556
219.59	-40.000
219.97	500.000
220.34	200.000
220.72	-57.143
221.09	-125.000
221.47	50.000
221.84	-800.000
222.22	-850.000
222.59	36.364
222.97	-8.333
223.34	0.000
223.72	-57.143
224.09	19.048
224.46	10.714
224.84	266.667
225.21	60.000
225.59	33.333
225.96	-450.000
226.34	275.000
226.71	-157.143
227.08	-100.000
227.46	-25.000
227.83	-550.000
228.21	77.778
228.58	18.182
228.95	-87.500
229.33	80.000
229.70	-18.750
230.08	-25.000
230.45	-185.714
230.82	0.000
231.20	-53.333
231.57	64.286
231.95	-128.571
232.32	-70.000
232.69	85.714
233.07	133.333
233.44	120.000
233.81	-60.000
234.19	122.222
234.56	5.882
234.93	350.000
235.31	200.000
235.68	-120.000
236.05	-15.385
236.43	15.000
236.80	70.588
237.17	28.125
237.55	5.000
237.92	-7.407
238.29	47.222
238.67	56.667
239.04	35.294
239.41	14.634
239.79	26.667
240.16	65.854
240.53	60.526
240.91	21.739
241.28	36.508
241.65	37.500
242.02	57.534
242.40	48.333
242.77	47.458
243.14	53.030
243.51	40.000
243.89	51.724
244.26	48.276
244.63	65.476
245.00	49.485
245.38	47.423
245.75	51.685
246.12	44.828
246.49	52.893
246.87	55.769
247.24	46.218
247.61	50.000
247.98	45.528
248.36	51.250
248.73	47.368
249.10	53.247
249.47	47.468
249.84	50.980
250.22	53.529
250.59	53.595
250.96	53.052
251.33	45.349
251.70	58.824
252.08	49.746
252.45	47.525
252.82	53.266
253.19	52.995
253.56	53.738
253.94	52.703
254.31	52.609
254.68	55.263
255.05	48.425
255.42	55.459
255.79	51.351
256.16	51.751
256.54	50.000
256.91	50.190
257.28	49.071
257.65	52.434
258.02	51.773
258.39	53.199
258.76	56.410
259.14	56.478
259.51	52.751
259.88	54.983
260.25	55.556
260.62	54.861
260.99	54.576
261.36	51.712
261.73	49.051
262.10	53.191
262.47	51.227
262.85	51.411
263.22	52.923
263.59	58.879
263.96	54.658
264.33	56.061
264.70	53.869
265.07	54.167
265.44	58.357
265.81	54.237
266.18	50.820
266.55	51.157
266.92	53.109
267.29	53.003
267.66	52.430
268.03	54.188
268.40	53.003
268.77	60.428
269.14	48.921
269.51	49.357
269.88	54.115
270.25	50.510
270.62	54.634
270.99	51.407
271.36	50.122
271.73	53.991
272.10	54.988
272.47	52.719
272.84	50.248
273.21	52.204
273.58	52.530
273.95	51.259
274.32	52.194
274.69	51.584
275.06	52.902
275.43	49.206
275.80	52.759
276.17	49.425
276.54	51.606
276.91	50.000
277.28	50.655
277.65	49.793
278.02	50.851
278.39	53.829
278.76	50.524
279.13	48.755
279.50	50.000
279.87	49.460
280.23	47.312
280.60	48.928
280.97	52.727
281.34	46.538
281.71	51.540
282.08	49.489
282.45	45.205
282.82	50.000
283.19	49.710
283.56	49.904
283.92	48.767
284.29	47.692
284.66	49.806
285.03	50.884
285.40	49.527
285.77	44.288
286.14	48.195
286.51	50.369
286.87	46.801
287.24	50.276
287.61	50.617
287.98	48.772
288.35	48.180
288.72	46.935
289.08	46.528
289.45	45.518
289.82	45.979
290.19	43.003
290.56	45.283
290.93	44.949
291.29	42.835
291.66	43.622
292.03	42.903
292.40	43.065
292.77	42.903
293.13	40.909
293.50	40.819
293.87	40.611
294.24	39.876
294.60	41.282
294.97	40.625
295.34	41.871
295.71	39.493
296.08	39.910
296.44	37.696
296.81	39.028
297.18	37.536
297.55	39.973
297.91	37.397
298.28	38.654
298.65	36.635
299.02	37.601
299.38	35.157
299.75	37.241
300.12	35.209
300.48	36.891
300.85	35.995
301.22	38.052
301.59	35.526
301.95	35.190
302.32	38.003
302.69	36.567
303.05	35.891
303.42	35.492
303.79	35.981
304.15	35.723
304.52	33.769
304.89	33.918
305.25	34.262
305.62	34.656
305.99	34.620
306.35	34.220
306.72	36.108
307.09	35.348
307.45	34.214
307.82	33.333
308.19	36.469
308.55	34.569
308.92	35.948
309.29	35.307
309.65	34.446
310.02	34.433
310.38	33.370
310.75	37.158
311.12	34.984
311.48	34.040
311.85	33.822
312.22	33.650
312.58	34.183
312.95	35.005
313.31	34.369
313.68	34.555
314.05	34.592
314.41	34.124
314.78	35.361
315.14	34.841
315.51	35.507
315.87	35.451
316.24	36.805
316.61	36.516
316.97	35.913
317.34	36.719
317.70	36.807
318.07	36.058
318.43	38.333
318.80	36.648
319.16	40.039
319.53	38.367
319.89	39.075
320.26	39.271
320.62	40.020
320.99	38.935
321.35	39.054
321.72	40.291
322.08	39.879
322.45	41.117
322.81	42.240
323.18	40.236
323.54	41.988
323.91	43.038
324.27	41.406
324.64	44.288
325.00	43.613
325.37	44.720
325.73	43.608
326.10	45.141
326.46	45.381
326.83	46.019
327.19	45.161
327.56	45.873
327.92	47.535
328.29	45.714
328.65	49.245
329.01	47.335
329.38	48.571
329.74	48.253
330.11	49.490
330.47	48.330
330.84	47.692
331.20	50.951
331.56	49.444
331.93	50.868
332.29	50.229
332.66	50.407
333.02	50.929
333.38	50.412
333.75	49.908
334.11	48.254
334.48	51.043
334.84	51.007
335.20	51.327
335.57	50.045
335.93	51.762
336.29	51.473
336.66	50.318
337.02	50.186
337.38	49.815
337.75	51.364
338.11	51.037
338.47	52.646
338.84	51.664
339.20	52.285
339.56	52.385
339.93	51.746
340.29	52.477
340.65	53.763
341.02	52.216
341.38	52.566
341.74	52.739
342.11	50.520
342.47	53.203
342.83	52.855
343.20	52.700
343.56	54.957
343.92	53.764
344.28	54.825
344.65	53.886
345.01	54.538
345.37	53.827
345.73	53.808
346.10	56.514
346.46	53.574
346.82	54.583
347.19	52.702
347.55	55.305
347.91	54.369
348.27	51.900
348.63	55.196
349.00	55.537
349.36	54.530
349.72	55.721
350.08	57.459
350.45	55.547
350.81	56.229
351.17	55.945
351.53	56.245
351.89	55.739
352.26	55.840
352.62	57.742
352.98	56.064
353.34	55.636
353.70	57.039
354.07	57.823
354.43	56.445
354.79	57.391
355.15	58.016
355.51	58.070
355.87	57.120
356.24	56.362
356.60	57.720
356.96	58.254
357.32	56.949
357.68	58.092
358.04	58.401
358.40	58.119
358.77	58.453
359.13	58.847
359.49	56.163
359.85	58.034
360.21	59.809
360.57	58.761
360.93	59.455
361.29	57.704
361.66	58.934
362.02	58.636
362.38	60.244
362.74	59.500
363.10	61.249
363.46	60.934
363.82	62.134
364.18	58.524
364.54	58.824
364.90	60.645
365.26	61.063
365.62	62.263
365.98	60.704
366.35	62.345
366.71	61.197
367.07	61.466
367.43	60.748
367.79	60.777
368.15	61.019
368.51	62.782
368.87	60.302
369.23	58.412
369.59	62.026
369.95	61.657
370.31	61.416
370.67	60.970
371.03	62.211
371.39	62.582
371.75	61.758
372.11	61.698
372.47	62.944
372.83	62.952
373.19	63.267
373.55	62.455
373.91	62.707
374.27	64.706
374.63	62.455
374.99	63.050
375.35	63.997
375.71	63.706
376.07	64.115
376.42	62.517
376.78	63.490
377.14	62.695
377.50	64.143
377.86	63.320
378.22	63.050
378.58	63.269
378.94	64.020
379.30	63.631
379.66	63.386
380.02	63.765
380.38	64.151
380.74	63.256
381.09	64.908
381.45	63.425
381.81	64.281
382.17	64.657
382.53	64.522
382.89	66.227
383.25	64.966
383.61	65.427
383.97	64.635
384.32	65.041
384.68	65.201
385.04	64.583
385.40	65.277
385.76	66.855
386.12	66.882
386.48	65.326
386.83	66.265
387.19	63.980
387.55	67.189
387.91	65.954
388.27	64.347
388.62	67.149
388.98	64.457
389.34	66.271
389.70	66.004
390.06	64.254
390.42	65.933
390.77	66.056
391.13	64.376
391.49	66.365
391.85	65.172
392.20	65.348
392.56	65.925
392.92	66.412
393.28	65.448
393.64	66.126
393.99	67.085
394.35	66.097
394.71	65.773
395.07	64.111
395.42	64.906
395.78	66.059
396.14	65.889
396.50	66.392
396.85	66.259
397.21	66.353
397.57	66.082
397.92	65.548
398.28	64.885
398.64	63.855
399.00	66.761
399.35	64.673
399.71	63.871
400.07	66.022
400.42	64.810
400.78	65.279
401.14	64.973
401.49	64.562
401.85	64.412
402.21	64.639
402.57	65.125
402.92	63.363
403.28	63.534
403.63	65.574
403.99	63.776
404.35	64.959
404.70	64.048
405.06	63.925
405.42	63.456
405.77	63.451
406.13	65.076
406.49	64.239
406.84	63.509
407.20	63.456
407.55	63.039
407.91	64.639
408.27	64.563
408.62	63.323
408.98	63.339
409.34	63.879
409.69	64.276
410.05	61.823
410.40	61.852
410.76	62.907
411.11	64.125
411.47	63.248
411.83	62.147
412.18	64.286
412.54	63.171
412.89	61.392
413.25	63.357
413.60	62.174
413.96	61.779
414.31	61.646
414.67	61.899
415.03	61.651
415.38	62.076
415.74	62.345
416.09	63.031
416.45	61.310
416.80	61.732
417.16	64.572
417.51	61.626
417.87	61.213
418.22	62.370
418.58	62.341
418.93	62.132
419.29	60.435
419.64	62.152
420.00	62.783
420.35	60.657
420.71	61.118
421.06	62.554
421.42	61.899
421.77	62.197
422.12	61.351
422.48	61.126
422.83	61.659
423.19	62.698
423.54	60.494
423.90	60.306
424.25	60.964
424.61	61.873
424.96	61.324
425.31	61.583
425.67	62.031
426.02	62.839
426.38	62.116
426.73	62.591
427.09	61.646
427.44	63.353
427.79	61.402
428.15	62.075
428.50	62.023
428.85	59.705
429.21	62.083
429.56	62.695
429.92	60.657
430.27	61.053
430.62	60.115
430.98	61.465
431.33	60.726
431.68	59.969
432.04	61.431
432.39	58.813
432.74	60.012
433.10	59.943
433.45	60.275
433.80	61.346
434.16	59.945
434.51	60.645
434.86	61.672
435.22	61.077
435.57	59.638
435.92	61.018
436.28	60.942
436.63	59.498
436.98	59.618
437.34	59.891
437.69	61.658
438.04	60.342
438.39	59.133
438.75	60.838
439.10	59.253
439.45	60.803
439.81	59.939
440.16	60.986
440.51	60.836
440.86	61.571
441.22	59.559
441.57	60.706
441.92	61.752
442.27	61.308
442.63	59.422
442.98	60.425
443.33	59.488
443.68	59.416
444.03	59.762
444.39	58.337
444.74	59.030
445.09	59.354
445.44	59.601
445.79	61.269
446.15	58.260
446.50	59.124
446.85	57.917
447.20	59.489
447.55	59.431
447.91	58.996
448.26	58.907
448.61	58.607
448.96	58.921
449.31	58.150
449.66	58.885
450.02	58.699
450.37	60.344
450.72	58.247
451.07	59.494
451.42	58.427
451.77	59.011
452.12	58.433
452.47	57.888
452.83	57.656
453.18	56.736
453.53	59.039
453.88	58.774
454.23	57.345
454.58	57.997
454.93	57.861
455.28	56.127
455.63	58.648
455.98	58.689
456.34	56.833
456.69	58.069
457.04	57.467
457.39	56.501
457.74	57.255
458.09	55.856
458.44	56.641
458.79	56.078
459.14	55.778
459.49	57.433
459.84	55.781
460.19	55.097
460.54	55.318
460.89	56.534
461.24	55.466
461.59	55.582
461.94	54.528
462.29	56.273
462.64	54.950
462.99	55.383
463.34	54.103
463.69	54.955
464.04	55.145
464.39	54.639
464.74	53.497
465.09	54.523
465.44	54.761
465.79	52.834
466.14	54.333
466.49	53.249
466.84	52.766
467.19	53.442
467.54	53.065
467.89	54.896
468.24	53.102
468.59	54.730
468.94	53.460
469.29	52.656
469.64	52.427
469.99	54.170
470.34	52.082
470.68	54.213
471.03	52.583
471.38	52.853
471.73	53.711
472.08	52.985
472.43	52.685
472.78	52.159
473.13	51.769
473.48	52.378
473.83	52.117
474.17	52.137
474.52	51.181
474.87	52.182
475.22	51.678
475.57	51.214
475.92	50.905
476.27	51.455
476.61	51.100
476.96	49.582
477.31	50.838
477.66	50.169
478.01	51.207
478.36	50.218
478.70	51.223
479.05	51.209
479.40	51.298
479.75	48.749
480.10	50.077
480.45	50.900
480.79	50.252
481.14	50.102
481.49	49.064
481.84	49.517
482.19	48.784
482.53	49.832
482.88	48.592
483.23	48.800
483.58	49.434
483.92	48.258
484.27	48.314
484.62	49.260
484.97	47.637
485.31	47.146
485.66	46.077
486.01	46.553
486.36	46.086
486.70	45.946
487.05	46.929
487.40	46.174
487.75	46.028
488.09	45.241
488.44	45.633
488.79	46.022
489.13	46.875
489.48	46.687
489.83	47.265
490.17	45.798
490.52	47.159
490.87	46.876
491.22	47.660
491.56	46.584
491.91	46.319
492.26	47.399
492.60	46.401
492.95	47.368
493.30	46.214
493.64	47.741
493.99	46.715
494.34	45.971
494.68	47.000
495.03	46.521
495.37	46.418
495.72	45.533
496.07	46.000
496.41	45.236
496.76	45.785
497.11	45.133
497.45	46.635
497.80	47.275
498.14	45.007
498.49	45.708
498.84	44.711
499.18	45.833
499.53	46.131
499.87	44.504
500.22	45.252
500.56	45.134
500.91	44.026
501.26	44.192
501.60	45.253
501.95	44.396
502.29	44.552
502.64	45.270
502.98	44.943
503.33	43.180
503.67	44.000
504.02	44.477
504.36	43.939
504.71	44.848
505.06	44.087
505.40	45.178
505.75	44.278
506.09	42.676
506.44	43.737
506.78	44.694
507.13	43.433
507.47	42.559
507.82	43.803
508.16	43.846
508.51	43.337
508.85	44.427
509.19	43.800
509.54	43.968
509.88	42.017
510.23	43.841
510.57	43.666
510.92	43.017
511.26	43.099
511.61	43.894
511.95	44.055
512.30	43.404
512.64	42.682
512.98	43.964
513.33	44.320
513.67	42.638
514.02	44.565
514.36	43.143
514.70	44.580
515.05	43.713
515.39	42.680
515.74	43.892
516.08	44.411
516.42	43.698
516.77	42.305
517.11	43.442
517.46	42.071
517.80	42.908
518.14	42.621
518.49	42.428
518.83	43.074
519.17	41.298
519.52	41.504
519.86	42.557
520.20	42.406
520.55	43.027
520.89	42.535
521.23	43.509
521.58	43.912
521.92	44.231
522.26	43.071
522.61	42.922
522.95	43.576
523.29	42.567
523.64	43.266
523.98	42.968
524.32	42.848
524.66	44.046
525.01	42.403
525.35	42.255
525.69	42.559
526.04	41.733
526.38	44.358
526.72	42.446
527.06	42.672
527.41	42.480
527.75	42.091
528.09	40.997
528.43	43.214
528.78	43.234
529.12	41.355
529.46	42.820
529.80	41.609
530.15	42.640
530.49	42.896
530.83	43.092
531.17	41.437
531.51	42.681
531.86	41.808
532.20	41.545
532.54	42.069
532.88	42.231
533.22	41.398
533.57	41.547
533.91	41.188
534.25	41.732
534.59	40.539
534.93	39.899
535.27	39.530
535.62	40.959
535.96	40.900
536.30	41.425
536.64	40.937
536.98	40.906
537.32	41.750
537.66	41.795
538.01	41.049
538.35	41.123
538.69	40.479
539.03	40.465
539.37	40.242
539.71	40.082
540.05	40.530
540.39	41.413
540.73	40.237
541.07	40.262
541.42	40.860
541.76	41.156
542.10	40.055
542.44	39.889
542.78	40.881
543.12	39.354
543.46	39.847
543.80	41.152
544.14	37.316
544.48	38.974
544.82	40.260
545.16	40.574
545.50	39.119
545.84	40.439
546.18	40.496
546.52	39.510
546.86	38.102
547.20	39.127
547.54	37.739
547.88	38.519
548.22	38.199
548.56	39.578
548.90	40.768
549.24	37.948
549.58	38.223
549.92	38.385
550.26	38.242
550.60	40.000
550.94	39.731
551.28	40.031
551.62	39.769
551.96	38.647
552.30	38.450
552.64	37.377
552.98	38.045
553.32	38.730
553.66	38.462
554.00	38.686
554.34	41.064
554.68	37.537
555.02	38.914
555.36	37.771
555.69	37.802
556.03	39.472
556.37	38.007
556.71	37.617
557.05	38.777
557.39	36.803
557.73	38.006
558.07	38.989
558.41	37.672
558.75	38.504
559.08	39.559
559.42	38.810
559.76	38.671
560.10	38.150
560.44	37.602
560.78	37.832
561.12	38.223
561.45	38.791
561.79	38.235
562.13	36.835
562.47	38.489
562.81	38.617
563.15	37.659
563.48	37.341
563.82	36.719
564.16	36.908
564.50	36.959
564.84	36.814
565.17	37.089
565.51	38.730
565.85	37.791
566.19	37.666
566.52	38.405
566.86	37.339
567.20	36.986
567.54	36.740
567.88	37.434
568.21	37.274
568.55	36.359
568.89	37.680
569.23	37.458
569.56	35.902
569.90	36.054
570.24	35.095
570.57	35.564
570.91	35.587
571.25	34.528
571.59	34.880
571.92	34.281
572.26	34.873
572.60	35.132
572.93	34.421
573.27	34.545
573.61	34.755
573.95	34.517
574.28	34.349
574.62	33.740
574.96	33.508
575.29	33.720
575.63	33.091
575.97	33.288
576.30	33.708
576.64	33.086
576.98	33.797
577.31	33.768
577.65	34.174
577.98	33.855
578.32	33.180
578.66	32.904
578.99	33.318
579.33	33.125
579.67	32.702
580.00	32.886
580.34	33.632
580.67	33.136
581.01	33.477
581.35	33.484
581.68	33.674
582.02	32.997
582.35	33.352
582.69	33.424
583.02	33.134
583.36	33.097
583.70	34.086
584.03	33.778
584.37	33.851
584.70	33.352
585.04	32.927
585.37	33.120
585.71	32.955
586.04	32.854
586.38	32.835
586.72	33.056
587.05	34.027
587.39	33.827
587.72	33.324
588.06	33.546
588.39	32.982
588.73	33.700
589.06	33.790
589.40	34.255
589.73	33.078
590.07	34.101
590.40	33.901
590.73	34.885
591.07	34.436
591.40	33.927
591.74	34.118
592.07	35.019
592.41	34.143
592.74	33.373
593.08	32.798
593.41	33.674
593.75	32.941
594.08	33.127
594.41	33.224
594.75	33.359
595.08	33.447
595.42	33.530
595.75	33.609
596.09	33.346
596.42	34.270
596.75	33.481
597.09	33.759
597.42	33.469
597.75	34.311
598.09	33.997
598.42	33.348
598.76	32.733
599.09	32.853
599.42	32.740
599.76	33.183
600.09	32.843
600.42	33.169
600.76	32.764
601.09	32.519
601.42	32.432
601.76	32.235
602.09	32.591
602.42	34.330
602.76	32.980
603.09	33.596
603.42	33.319
603.76	32.621
604.09	33.293
604.42	33.122
604.76	34.134
605.09	33.821
605.42	33.409
605.75	33.363
606.09	33.291
606.42	32.736
606.75	33.420
607.09	32.791
607.42	32.964
607.75	32.638
608.08	32.704
608.42	32.435
608.75	33.253
609.08	32.935
609.41	33.249
609.75	33.165
610.08	33.999
610.41	32.899
610.74	33.301
611.07	33.540
611.41	34.043
611.74	34.168
612.07	32.334
612.40	34.081
612.73	33.164
613.07	33.633
613.40	34.190
613.73	32.457
614.06	34.001
614.39	33.221
614.72	33.333
615.06	33.240
615.39	32.478
615.72	32.992
616.05	33.631
616.38	31.966
616.71	33.700
617.05	32.922
617.38	32.935
617.71	33.208
618.04	33.587
618.37	34.363
618.70	35.248
619.03	33.750
619.36	33.792
619.69	34.344
620.03	34.405
620.36	33.548
620.69	34.333
621.02	34.021
621.35	35.436
621.68	35.034
622.01	35.583
622.34	33.360
622.67	34.385
623.00	34.686
623.33	33.613
623.66	33.807
623.99	33.359
624.32	33.916
624.65	32.782
624.99	34.161
625.32	33.131
625.65	34.014
625.98	33.441
626.31	33.001
626.64	34.575
626.97	34.729
627.30	35.114
627.63	33.969
627.96	33.962
628.29	34.320
628.62	34.808
628.95	35.271
629.28	35.585
629.61	36.889
629.94	36.657
630.26	33.597
630.59	35.484
630.92	36.410
631.25	34.051
631.58	35.463
631.91	35.636
632.24	35.780
632.57	35.909
632.90	33.926
633.23	33.765
633.56	36.020
633.89	35.265
634.22	36.914
634.55	36.722
634.88	36.526
635.20	34.872
635.53	35.067
635.86	34.330
636.19	35.964
636.52	35.204
636.85	34.615
637.18	34.591
637.51	35.346
637.83	35.874
638.16	36.153
638.49	33.924
638.82	36.447
639.15	35.414
639.48	36.864
639.81	37.099
640.13	36.075
640.46	37.026
640.79	34.904
641.12	32.939
641.45	34.985
641.77	35.259
642.10	37.125
642.43	36.174
642.76	36.634
643.09	36.026
643.41	34.466
643.74	35.750
644.07	35.632
644.40	34.797
644.73	38.529
645.05	33.054
645.38	35.450
645.71	35.993
646.04	38.779
646.36	35.284
646.69	36.871
647.02	37.618
647.35	38.993
647.67	34.369
648.00	39.552
648.33	35.154
648.66	36.441
648.98	34.673
649.31	35.537
649.64	32.496
649.96	32.901
650.29	35.605
650.62	35.726
650.94	34.259
651.27	35.940
651.60	37.297
651.92	34.615
652.25	34.103
652.58	35.000
652.90	34.820
653.23	35.798
653.56	35.195
653.88	37.113
654.21	35.552
654.54	35.484
654.86	33.447
655.19	35.088
655.52	36.146
655.84	32.856
656.17	35.672
656.49	47.314
656.82	47.743
657.15	35.767
657.47	26.608
657.80	19.717
658.13	19.159
658.45	29.083
658.78	29.401
659.10	28.563
659.43	28.065
659.75	29.551
660.08	29.655
660.41	29.928
660.73	32.459
661.06	31.542
661.38	34.051
661.71	31.211
662.03	39.056
662.36	33.846
662.68	34.071
663.01	36.681
663.33	37.123
663.66	33.023
663.98	30.698
664.31	33.689
664.63	32.488
664.96	32.174
665.28	32.009
665.61	33.333
665.93	36.304
666.26	36.443
666.58	33.781
666.91	32.235
667.23	38.679
667.56	35.071
667.88	33.813
668.21	38.902
668.53	33.806
668.86	36.792
669.18	30.896
669.50	32.930
669.83	33.256
670.15	35.664
670.48	32.297
670.80	35.945
671.13	34.452
671.45	30.822
671.77	36.266
672.10	32.277
672.42	35.019
672.75	33.748
673.07	37.030
673.39	34.495
673.72	28.994
674.04	32.500
674.37	32.627
674.69	33.619
675.01	33.111
675.34	33.784
675.66	34.954
675.98	36.142
676.31	30.734
676.63	34.679
676.95	32.045
677.28	35.294
677.60	34.699
677.92	33.945
678.25	35.011
678.57	32.900
678.89	30.462
679.22	34.004
679.54	31.727
679.86	32.604
680.18	32.039
680.51	34.280
680.83	33.797
681.15	31.200
681.48	36.066
681.80	35.537
682.12	32.056
682.44	35.565
682.77	33.333
683.09	32.952
683.41	32.955
683.73	36.636
684.06	34.513
684.38	33.548
684.70	34.858
685.02	32.365
685.34	29.644
685.67	35.084
685.99	32.007
686.31	31.327
686.63	31.540
686.96	31.749
687.28	30.303
687.60	32.510
687.92	31.313
688.24	32.863
688.56	34.279
688.89	33.259
689.21	34.444
689.53	29.466
689.85	29.070
690.17	31.027
690.49	33.570
690.82	33.252
691.14	30.952
691.46	34.346
691.78	34.234
692.10	32.043
692.42	29.004
692.74	34.188
693.06	30.405
693.39	30.317
693.71	32.127
694.03	32.102
694.35	31.542
694.67	32.828
694.99	31.332
695.31	31.593
695.63	34.750
695.95	32.828
696.27	33.938
696.59	33.889
696.91	33.053
697.23	33.162
697.56	31.683
697.88	32.473
698.20	30.068
698.52	34.353
698.84	31.100
699.16	29.000
699.48	33.835
699.80	31.017
700.12	31.806
700.44	31.933
700.76	29.070
701.08	32.121
701.40	31.325
701.72	37.346
702.04	33.663
702.36	37.793
702.68	34.535
703.00	31.818
703.32	32.845
703.64	28.249
703.96	29.565
704.28	28.528
704.60	35.238
704.91	31.230
705.23	33.555
705.55	34.982
705.87	31.047
706.19	30.370
706.51	36.770
706.83	35.370
707.15	28.349
707.47	33.894
707.79	31.510
708.11	33.750
708.43	33.000
708.74	33.333
709.06	34.366
709.38	32.110
709.70	32.840
710.02	31.529
710.34	33.746
710.66	32.372
710.98	26.821
711.29	32.787
711.61	29.492
711.93	33.225
712.25	39.175
712.57	32.601
712.89	27.985
713.20	33.564
713.52	32.056
713.84	33.106
714.16	30.584
714.48	27.419
714.80	32.051
715.11	34.043
715.43	26.019
715.75	30.333
716.07	30.233
716.39	31.208
716.70	29.520
717.02	28.244
717.34	30.769
717.66	26.549
717.97	30.870
718.29	35.983
718.61	34.646
718.93	30.620
719.24	31.939
719.56	32.129
719.88	30.584
720.20	28.030
720.51	28.352
720.83	31.274
721.15	31.513
721.46	28.629
721.78	28.854
722.10	28.625
722.42	24.896
722.73	29.388
723.05	35.102
723.37	33.475
723.68	33.333
724.00	35.470
724.32	29.778
724.63	27.273
724.95	34.498
725.27	31.336
725.58	30.085
725.90	25.397
726.22	33.205
726.53	30.847
726.85	36.330
727.16	34.340
727.48	31.174
727.80	30.769
728.11	27.966
728.43	29.804
728.74	27.823
729.06	32.400
729.38	33.083
729.69	29.084
730.01	27.692
730.32	30.970
730.64	31.095
730.96	32.075
731.27	30.333
731.59	26.102
731.90	31.847
732.22	28.076
732.53	30.565
732.85	27.660
733.16	37.374
733.48	27.338
733.80	26.087
734.11	32.881
734.43	32.302
734.74	30.909
735.06	27.687
735.37	27.795
735.69	33.670
736.00	28.920
736.32	29.866
736.63	33.451
736.95	29.352
737.26	25.979
737.58	26.510
737.89	27.473
738.21	34.211
738.52	29.218
738.83	26.638
739.15	26.201
739.46	29.528
739.78	28.571
740.09	32.026
740.41	32.246
740.72	26.772
741.04	25.506
741.35	27.660
741.66	27.962
741.98	34.184
742.29	25.248
742.61	33.508
742.92	19.431
743.23	27.315
743.55	28.959
743.86	30.622
744.18	33.971
744.49	24.468
744.80	32.609
745.12	36.364
745.43	26.341
745.74	35.417
746.06	25.854
746.37	35.079
746.68	27.488
747.00	31.383
747.31	35.323
747.62	31.553
747.94	32.057
748.25	26.733
748.56	30.055
748.88	31.414
749.19	32.447
749.50	26.108
749.82	25.472
750.13	32.569
750.44	27.820
750.75	31.343
751.07	32.117
751.38	29.119
751.69	27.843
752.01	33.721
752.32	31.474
752.63	28.458
752.94	22.845
753.26	33.473
753.57	27.602
753.88	26.991
754.19	24.583
754.51	26.033
754.82	26.316
755.13	32.500
755.44	28.629
755.75	31.641
756.07	27.626
756.38	29.057
756.69	24.138
757.00	26.667
757.31	26.471
757.63	28.049
757.94	28.889
758.25	26.301
758.56	28.723
758.87	24.929
759.18	26.480
759.50	25.455
759.81	29.097
760.12	29.677
760.43	30.606
760.74	28.704
761.05	30.154
761.36	29.261
761.67	30.303
761.99	29.252
762.30	28.727
762.61	29.644
762.92	30.769
763.23	30.180
763.54	26.168
763.85	29.237
764.16	27.801
764.47	27.419
764.78	28.205
765.10	28.283
765.41	25.552
765.72	27.302
766.03	27.068
766.34	25.912
766.65	33.068
766.96	31.313
767.27	31.915
767.58	24.138
767.89	31.206
768.20	22.727
768.51	29.121
768.82	25.616
769.13	26.267
769.44	25.751
769.75	27.854
770.06	28.448
770.37	25.962
770.68	26.396
770.99	28.507
771.30	28.922
771.61	29.412
771.92	29.310
772.23	38.424
772.54	26.344
772.85	28.395
773.16	30.899
773.47	35.948
773.78	25.490
774.09	30.539
774.39	23.333
774.70	20.382
775.01	33.103
775.32	20.714
775.63	23.967
775.94	28.244
776.25	16.535
776.56	15.000
776.87	45.192
777.18	27.350
777.48	31.897
777.79	19.130
778.10	23.810
778.41	25.225
778.72	23.810
779.03	28.571
779.34	38.298
779.65	24.658
779.95	32.877
780.26	28.966
780.57	33.333
780.88	22.835
781.19	20.690
781.50	34.884
781.80	25.444
782.11	22.013
782.42	26.154
782.73	18.705
783.04	28.148
783.34	23.611
783.65	11.966
783.96	34.426
784.27	28.276
784.57	19.512
784.88	28.906
785.19	26.000
785.50	41.000
785.81	28.448
786.11	29.310
786.42	30.097
786.73	28.182
787.04	16.327
787.34	19.643
787.65	35.238
787.96	17.699
788.26	23.636
788.57	25.641
788.88	33.594
789.19	14.286
789.49	16.522
789.80	27.551
790.11	24.242
790.41	21.818
790.72	29.348
791.03	26.136
791.33	26.250
791.64	8.750
791.95	25.581
792.25	23.404
792.56	24.719
792.87	32.877
793.17	23.188
793.48	12.000
793.79	27.500
794.09	28.750
794.40	24.528
794.70	20.388
795.01	18.699
795.32	17.094
795.62	24.762
795.93	26.471
796.23	33.019
796.54	27.083
796.85	35.294
797.15	19.718
797.46	13.889
797.76	28.788
798.07	17.442
798.37	23.684
798.68	18.182
798.99	18.519
799.29	20.000
799.60	10.145
799.90	25.333
800.21	27.869
800.51	21.538
800.82	10.169
801.12	30.435
801.43	13.115
801.73	4.762
802.04	18.000
802.34	16.418
802.65	19.231
802.95	19.643
803.26	21.154
803.56	3.922
803.87	10.870
804.17	26.667
804.48	38.095
804.78	24.074
805.09	17.391
805.39	-15.556
805.70	33.333
806.00	10.526
806.30	19.718
806.61	34.286
806.91	13.889
807.22	35.526
807.52	26.667
807.83	21.818
808.13	23.611
808.43	29.412
808.74	14.925
809.04	23.729
809.35	11.538
809.65	20.313
809.95	-13.514
810.26	-4.545
810.56	17.808
810.86	-14.286
811.17	22.000
811.47	24.490
811.77	10.526
812.08	18.182
812.38	33.962
812.69	25.000
812.99	24.242
813.29	26.316
813.59	-2.857
813.90	40.909
814.20	0.000
814.50	3.846
814.81	16.981
815.11	14.894
815.41	13.559
815.72	38.095
816.02	31.373
816.32	16.667
816.62	-9.756
816.93	-8.108
817.23	14.286
817.53	41.667
817.84	10.870
818.14	-1.923
818.44	0.000
818.74	19.565
819.04	5.000
819.35	21.622
819.65	2.941
819.95	5.556
820.25	9.524
820.56	40.000
820.86	-27.586
821.16	35.000
821.46	17.021
821.76	42.500
822.07	34.884
822.37	-5.405
822.67	-9.375
822.97	35.714
823.27	0.000
823.57	12.000
823.88	-7.407
824.18	0.000
824.48	11.765
824.78	38.710
825.08	13.043
825.38	12.121
825.69	-54.167
825.99	23.684
826.29	13.889
826.59	6.667
826.89	-38.095
827.19	19.565
827.49	12.500
827.79	11.429
828.09	28.571
828.39	18.182
828.70	37.838
829.00	0.000
829.30	19.048
829.60	66.667
829.90	56.250
830.20	7.895
830.50	29.630
830.80	-34.783
831.10	13.636
831.40	27.273
831.70	9.677
832.00	23.810
832.30	-61.905
832.60	-16.667
832.90	24.138
833.20	-5.000
833.50	-27.273
833.80	-7.407
834.10	-3.846
834.40	34.375
834.70	-66.667
835.00	5.263
835.30	42.308
835.60	-13.333
835.90	9.677
836.20	45.455
836.50	17.857
836.80	-19.231
837.10	3.571
837.40	-200.000
837.70	9.091
838.00	-36.364
838.30	30.435
838.60	38.462
838.90	-4.545
839.19	14.286
839.49	10.000
839.79	-30.769
840.09	-25.000
840.39	32.143
840.69	10.714
840.99	-30.769
841.29	-36.842
841.59	40.000
841.88	-72.727
842.18	60.000
842.48	56.250
842.78	-6.667
843.08	-7.407
843.38	-200.000
843.68	0.000
843.97	-46.667
844.27	-26.667
844.57	10.000
844.87	16.667
845.17	-38.095
845.47	6.667
845.76	-19.048
846.06	-11.765
846.36	-30.000
846.66	-35.714
846.96	53.333
847.25	12.500
847.55	35.714
847.85	-112.500
848.15	27.273
848.44	-200.000
848.74	-15.000
849.04	3.704
849.34	63.636
849.63	-350.000
849.93	-280.000
850.23	38.889
850.53	0.000
850.82	-7.692
851.12	-66.667
851.42	33.333
851.71	-19.231
852.01	-21.429
852.31	-100.000
852.61	-9.091
852.90	-15.000
853.20	26.316
853.50	-83.333
853.79	30.435
854.09	83.333
854.39	0.000
854.68	-16.667
854.98	41.935
855.28	38.462
855.57	-5.000
855.87	5.556
856.17	22.222
856.46	-7.143
856.76	-33.333
857.05	11.111
857.35	0.000
857.65	-33.333
857.94	-23.077
858.24	27.586
858.53	27.778
858.83	25.926
859.13	13.636
859.42	30.435
859.72	-275.000
860.01	-533.333
860.31	16.000
860.60	9.524
860.90	-166.667
861.20	-66.667
861.49	-600.000
861.79	-33.333
862.08	-5.000
862.38	80.000
862.67	-60.000
862.97	-116.667
863.26	0.000
863.56	27.778
863.85	-500.000
864.15	33.333
864.44	-50.000
864.74	7.143
865.03	250.000
865.33	20.000
865.62	33.333
865.92	66.667
866.21	-16.667
866.51	-6.250
866.80	-63.636
867.10	-300.000
867.39	-50.000
867.69	0.000
867.98	-46.154
868.27	-166.667
868.57	33.333
868.86	5.556
869.16	-38.462
869.45	-20.000
869.75	-1100.000
870.04	0.000
870.33	-85.714
870.63	28.571
870.92	166.667
871.22	-240.000
871.51	-1200.000
871.80	-22.222
872.10	666.667
>>>>>End Processed Spectral Data<<<<<
