SpectraSuite Data File
++++++++++++++++++++++++++++++++++++
Date: Fri May 15 20:39:39 PDT 2015
User: schluterlab
Dark Spectrum Present: Yes
Reference Spectrum Present: Yes
Number of Sampled Component Spectra: 1
Spectrometers: USB2E3373
Integration Time (usec): 3000 (USB2E3373)
Spectra Averaged: 3 (USB2E3373)
Boxcar Smoothing: 0 (USB2E3373)
Correct for Electrical Dark: No (USB2E3373)
Strobe/Lamp Enabled: No (USB2E3373)
Correct for Detector Non-linearity: No (USB2E3373)
Correct for Stray Light: No (USB2E3373)
Number of Pixels in Processed Spectrum: 2048
>>>>>Begin Processed Spectral Data<<<<<
178.53	0.000
178.91	0.000
179.29	50.000
179.67	100.000
180.04	42.857
180.42	-100.000
180.80	-1300.000
181.18	-200.000
181.56	650.000
181.94	-50.000
182.31	300.000
182.69	-100.000
183.07	-66.667
183.45	-100.000
183.83	250.000
184.20	9.091
184.58	88.889
184.96	-0.000
185.34	466.667
185.72	-750.000
186.09	69.231
186.47	-1000.000
186.85	-16.667
187.23	177.778
187.61	200.000
187.98	-133.333
188.36	-22.222
188.74	-166.667
189.12	17.647
189.49	-38.889
189.87	0.000
190.25	57.143
190.63	250.000
191.00	-133.333
191.38	5.263
191.76	450.000
192.14	200.000
192.51	100.000
192.89	-55.556
193.27	-42.857
193.65	400.000
194.02	145.455
194.40	20.000
194.78	-162.500
195.15	-16.667
195.53	50.000
195.91	150.000
196.29	-25.000
196.66	53.846
197.04	42.857
197.42	66.667
197.79	-333.333
198.17	-115.385
198.55	1300.000
198.92	-233.333
199.30	-600.000
199.68	-360.000
200.05	-66.667
200.43	0.000
200.81	133.333
201.18	-300.000
201.56	1100.000
201.94	-700.000
202.31	166.667
202.69	-40.000
203.07	50.000
203.44	300.000
203.82	0.000
204.19	42.857
204.57	-500.000
204.95	100.000
205.32	50.000
205.70	85.714
206.08	-125.000
206.45	133.333
206.83	85.714
207.20	-114.286
207.58	900.000
207.96	-200.000
208.33	-110.000
208.71	125.000
209.08	-200.000
209.46	-400.000
209.84	-60.000
210.21	-600.000
210.59	0.000
210.96	16.667
211.34	-150.000
211.71	46.667
212.09	-42.857
212.46	-1600.000
212.84	0.000
213.22	60.000
213.59	350.000
213.97	-23.077
214.34	9.091
214.72	-233.333
215.09	200.000
215.47	-15.385
215.84	18.182
216.22	-66.667
216.59	25.000
216.97	0.000
217.34	25.000
217.72	-60.000
218.09	-87.500
218.47	150.000
218.84	-1100.000
219.22	-77.778
219.59	-260.000
219.97	166.667
220.34	175.000
220.72	-214.286
221.09	-275.000
221.47	-250.000
221.84	-750.000
222.22	-550.000
222.59	27.273
222.97	108.333
223.34	-66.667
223.72	-64.286
224.09	-4.762
224.46	7.143
224.84	166.667
225.21	100.000
225.59	73.333
225.96	150.000
226.34	275.000
226.71	-100.000
227.08	33.333
227.46	0.000
227.83	-350.000
228.21	111.111
228.58	-18.182
228.95	-62.500
229.33	210.000
229.70	-6.250
230.08	-112.500
230.45	-28.571
230.82	-57.143
231.20	0.000
231.57	35.714
231.95	-71.429
232.32	-80.000
232.69	35.714
233.07	-33.333
233.44	100.000
233.81	0.000
234.19	55.556
234.56	11.765
234.93	-150.000
235.31	350.000
235.68	-140.000
236.05	69.231
236.43	-15.000
236.80	29.412
237.17	65.625
237.55	65.000
237.92	59.259
238.29	0.000
238.67	60.000
239.04	35.294
239.41	26.829
239.79	56.667
240.16	39.024
240.53	36.842
240.91	41.304
241.28	49.206
241.65	51.786
242.02	53.425
242.40	51.667
242.77	54.237
243.14	43.939
243.51	55.000
243.89	55.172
244.26	37.931
244.63	59.524
245.00	58.763
245.38	40.206
245.75	42.697
246.12	53.448
246.49	43.802
246.87	67.308
247.24	50.420
247.61	58.772
247.98	49.593
248.36	53.125
248.73	47.368
249.10	48.052
249.47	54.430
249.84	55.556
250.22	47.647
250.59	58.824
250.96	53.052
251.33	48.837
251.70	60.000
252.08	55.330
252.45	57.921
252.82	51.759
253.19	52.535
253.56	50.467
253.94	50.450
254.31	54.348
254.68	64.035
255.05	48.425
255.42	60.262
255.79	55.985
256.16	49.027
256.54	53.358
256.91	57.795
257.28	51.301
257.65	56.929
258.02	53.546
258.39	55.219
258.76	54.579
259.14	55.482
259.51	53.722
259.88	53.265
260.25	55.229
260.62	64.583
260.99	55.254
261.36	55.137
261.73	56.962
262.10	51.368
262.47	51.534
262.85	52.351
263.22	57.538
263.59	56.386
263.96	55.901
264.33	57.879
264.70	54.464
265.07	53.571
265.44	55.524
265.81	53.672
266.18	56.557
266.55	51.671
266.92	58.031
267.29	52.219
267.66	55.499
268.03	56.806
268.40	54.830
268.77	59.893
269.14	54.436
269.51	52.956
269.88	54.863
270.25	50.510
270.62	54.390
270.99	50.895
271.36	52.078
271.73	54.225
272.10	53.528
272.47	55.083
272.84	56.188
273.21	54.292
273.58	55.181
273.95	49.886
274.32	55.196
274.69	51.810
275.06	55.134
275.43	50.340
275.80	52.980
276.17	54.713
276.54	52.677
276.91	54.167
277.28	52.620
277.65	52.066
278.02	50.638
278.39	53.392
278.76	52.411
279.13	49.378
279.50	53.361
279.87	49.676
280.23	49.677
280.60	51.852
280.97	53.535
281.34	50.769
281.71	54.620
282.08	48.262
282.45	49.706
282.82	50.965
283.19	50.870
283.56	50.674
283.92	53.321
284.29	51.154
284.66	50.581
285.03	50.884
285.40	48.204
285.77	46.573
286.14	47.473
286.51	47.786
286.87	47.349
287.24	49.355
287.61	47.443
287.98	48.421
288.35	46.447
288.72	50.263
289.08	46.701
289.45	47.627
289.82	47.902
290.19	46.587
290.56	44.254
290.93	44.444
291.29	42.373
291.66	42.835
292.03	44.338
292.40	44.355
292.77	43.222
293.13	41.071
293.50	41.882
293.87	44.122
294.24	41.422
294.60	39.642
294.97	39.881
295.34	41.411
295.71	40.089
296.08	40.359
296.44	36.842
296.81	39.583
297.18	39.710
297.55	38.889
297.91	38.356
298.28	38.786
298.65	37.856
299.02	36.119
299.38	36.662
299.75	35.862
300.12	36.257
300.48	36.232
300.85	36.629
301.22	38.701
301.59	36.184
301.95	35.949
302.32	36.316
302.69	35.697
303.05	35.644
303.42	35.243
303.79	34.463
304.15	36.081
304.52	34.007
304.89	32.398
305.25	34.140
305.62	33.372
305.99	33.333
306.35	35.029
306.72	32.283
307.09	34.094
307.45	34.902
307.82	34.375
308.19	35.075
308.55	33.697
308.92	34.096
309.29	32.067
309.65	34.015
310.02	33.003
310.38	34.687
310.75	34.536
311.12	32.723
311.48	33.828
311.85	34.031
312.22	32.384
312.58	32.272
312.95	31.057
313.31	33.023
313.68	33.089
314.05	31.531
314.41	33.196
314.78	32.371
315.14	33.505
315.51	34.058
315.87	33.402
316.24	33.569
316.61	33.366
316.97	33.730
317.34	32.812
317.70	32.600
318.07	32.885
318.43	34.804
318.80	32.576
319.16	36.328
319.53	33.713
319.89	34.154
320.26	33.907
320.62	35.707
320.99	33.194
321.35	35.149
321.72	35.826
322.08	36.556
322.45	35.838
322.81	36.739
323.18	37.880
323.54	38.514
323.91	38.267
324.27	38.867
324.64	38.390
325.00	39.599
325.37	38.935
325.73	38.713
326.10	40.327
326.46	40.000
326.83	40.507
327.19	40.715
327.56	42.224
327.92	42.430
328.29	41.518
328.65	42.358
329.01	41.636
329.38	44.147
329.74	42.871
330.11	44.300
330.47	43.135
330.84	44.712
331.20	45.152
331.56	43.796
331.93	44.749
332.29	45.830
332.66	44.615
333.02	44.981
333.38	44.363
333.75	46.612
334.11	44.584
334.48	45.331
334.84	46.337
335.20	46.203
335.57	45.966
335.93	45.619
336.29	47.698
336.66	47.048
337.02	46.468
337.38	44.907
337.75	45.818
338.11	47.160
338.47	48.084
338.84	47.227
339.20	46.252
339.56	48.532
339.93	47.449
340.29	47.064
340.65	47.401
341.02	45.301
341.38	47.168
341.74	46.731
342.11	45.321
342.47	47.865
342.83	47.318
343.20	46.603
343.56	48.261
343.92	47.741
344.28	48.591
344.65	47.668
345.01	47.623
345.37	46.341
345.73	47.866
346.10	48.404
346.46	47.267
346.82	46.399
347.19	46.800
347.55	47.452
347.91	46.602
348.27	47.373
348.63	50.256
349.00	49.385
349.36	48.379
349.72	48.259
350.08	47.049
350.45	46.688
350.81	47.176
351.17	47.638
351.53	47.429
351.89	46.738
352.26	47.200
352.62	49.032
352.98	48.032
353.34	47.585
353.70	48.058
354.07	47.984
354.43	48.279
354.79	50.537
355.15	49.365
355.51	48.972
355.87	49.191
356.24	49.103
356.60	48.181
356.96	49.444
357.32	48.882
357.68	48.319
358.04	49.111
358.40	49.678
358.77	50.638
359.13	49.079
359.49	49.923
359.85	50.468
360.21	51.116
360.57	48.891
360.93	50.378
361.29	48.867
361.66	50.549
362.02	50.758
362.38	51.790
362.74	52.082
363.10	51.919
363.46	51.964
363.82	52.141
364.18	50.480
364.54	50.221
364.90	50.538
365.26	52.475
365.62	52.263
365.98	52.493
366.35	53.824
366.71	51.663
367.07	54.064
367.43	52.408
367.79	53.074
368.15	53.195
368.51	53.678
368.87	52.405
369.23	53.213
369.59	53.134
369.95	53.372
370.31	52.457
370.67	53.806
371.03	53.398
371.39	53.975
371.75	53.114
372.11	52.211
372.47	53.624
372.83	53.229
373.19	52.354
373.55	53.935
373.91	54.644
374.27	56.485
374.63	53.984
374.99	53.972
375.35	54.875
375.71	55.594
376.07	55.197
376.42	54.490
376.78	55.034
377.14	56.060
377.50	55.179
377.86	56.091
378.22	56.733
378.58	56.474
378.94	55.388
379.30	55.708
379.66	56.991
380.02	56.591
380.38	56.178
380.74	56.254
381.09	56.933
381.45	57.125
381.81	56.076
382.17	57.170
382.53	56.465
382.89	58.067
383.25	57.187
383.61	58.476
383.97	58.222
384.32	57.724
384.68	57.833
385.04	58.211
385.40	57.063
385.76	59.119
386.12	59.508
386.48	59.004
386.83	57.578
387.19	58.608
387.55	59.159
387.91	59.046
388.27	58.120
388.62	60.415
388.98	58.072
389.34	58.651
389.70	59.354
390.06	59.094
390.42	59.067
390.77	58.470
391.13	58.890
391.49	58.991
391.85	59.454
392.20	60.264
392.56	58.805
392.92	59.307
393.28	61.262
393.64	58.198
393.99	60.752
394.35	59.899
394.71	61.111
395.07	58.957
395.42	59.684
395.78	60.000
396.14	59.962
396.50	58.909
396.85	59.755
397.21	59.398
397.57	59.248
397.92	58.358
398.28	59.885
398.64	58.976
399.00	59.989
399.35	58.804
399.71	60.080
400.07	60.399
400.42	58.201
400.78	59.829
401.14	58.863
401.49	59.738
401.85	59.354
402.21	58.554
402.57	59.562
402.92	59.159
403.28	59.461
403.63	60.719
403.99	58.929
404.35	59.963
404.70	58.988
405.06	57.403
405.42	58.173
405.77	57.990
406.13	58.615
406.49	57.963
406.84	60.452
407.20	59.422
407.55	59.047
407.91	59.158
408.27	57.935
408.62	60.062
408.98	57.979
409.34	57.745
409.69	57.946
410.05	57.574
410.40	56.420
410.76	58.504
411.11	58.125
411.47	57.922
411.83	57.313
412.18	59.717
412.54	57.553
412.89	57.204
413.25	58.363
413.60	58.447
413.96	56.748
414.31	57.988
414.67	57.793
415.03	57.257
415.38	56.005
415.74	57.068
416.09	57.479
416.45	57.056
416.80	57.898
417.16	58.149
417.51	58.028
417.87	56.845
418.22	57.966
418.58	58.328
418.93	56.426
419.29	56.210
419.64	57.939
420.00	58.501
420.35	56.000
420.71	56.440
421.06	56.354
421.42	56.490
421.77	56.358
422.12	56.243
422.48	56.199
422.83	56.671
423.19	56.038
423.54	56.379
423.90	57.479
424.25	55.454
424.61	55.875
424.96	55.923
425.31	56.384
425.67	56.455
426.02	56.714
426.38	57.358
426.73	56.659
427.09	56.962
427.44	56.059
427.79	55.569
428.15	55.583
428.50	55.603
428.85	55.221
429.21	53.990
429.56	56.496
429.92	54.391
430.27	53.885
430.62	54.260
430.98	55.467
431.33	55.205
431.68	53.689
432.04	55.562
432.39	54.706
432.74	53.397
433.10	55.805
433.45	53.943
433.80	54.846
434.16	53.795
434.51	54.194
434.86	55.110
435.22	53.954
435.57	53.837
435.92	54.671
436.28	52.952
436.63	53.565
436.98	52.781
437.34	54.386
437.69	55.516
438.04	53.105
438.39	53.635
438.75	55.556
439.10	52.801
439.45	53.987
439.81	53.823
440.16	54.869
440.51	54.388
440.86	55.347
441.22	52.545
441.57	53.532
441.92	53.882
442.27	53.271
442.63	53.212
442.98	54.279
443.33	53.534
443.68	53.475
444.03	53.154
444.39	54.402
444.74	55.128
445.09	53.563
445.44	54.872
445.79	55.028
446.15	52.368
446.50	53.966
446.85	53.348
447.20	53.545
447.55	53.348
447.91	54.033
448.26	53.330
448.61	52.850
448.96	54.274
449.31	53.642
449.66	51.336
450.02	52.881
450.37	53.171
450.72	52.005
451.07	53.291
451.42	52.497
451.77	51.296
452.12	51.615
452.47	52.479
452.83	52.532
453.18	53.004
453.53	52.781
453.88	50.577
454.23	51.875
454.58	52.708
454.93	52.577
455.28	50.667
455.63	52.263
455.98	51.594
456.34	50.639
456.69	52.414
457.04	51.670
457.39	51.215
457.74	51.149
458.09	50.088
458.44	50.439
458.79	51.597
459.14	51.773
459.49	52.239
459.84	49.577
460.19	50.910
460.54	49.756
460.89	50.852
461.24	50.932
461.59	50.475
461.94	49.874
462.29	50.724
462.64	51.096
462.99	50.779
463.34	50.070
463.69	49.678
464.04	49.213
464.39	49.848
464.74	50.245
465.09	49.782
465.44	50.260
465.79	47.789
466.14	49.031
466.49	48.361
466.84	49.613
467.19	48.498
467.54	49.298
467.89	48.326
468.24	48.905
468.59	48.317
468.94	48.254
469.29	47.213
469.64	48.189
469.99	48.914
470.34	47.235
470.68	48.173
471.03	48.337
471.38	49.715
471.73	48.459
472.08	47.218
472.43	48.591
472.78	46.744
473.13	47.823
473.48	47.622
473.83	46.887
474.17	47.927
474.52	47.862
474.87	47.273
475.22	47.041
475.57	47.149
475.92	47.010
476.27	46.740
476.61	46.875
476.96	45.510
477.31	46.620
477.66	45.674
478.01	45.705
478.36	46.024
478.70	46.819
479.05	46.703
479.40	46.423
479.75	45.255
480.10	45.929
480.45	45.700
480.79	46.375
481.14	45.902
481.49	44.877
481.84	45.946
482.19	44.341
482.53	44.748
482.88	44.630
483.23	44.050
483.58	45.283
483.92	45.015
484.27	43.984
484.62	44.285
484.97	44.279
485.31	43.533
485.66	42.450
486.01	43.764
486.36	43.849
486.70	44.505
487.05	44.114
487.40	44.286
487.75	44.197
488.09	43.572
488.44	44.292
488.79	44.004
489.13	44.151
489.48	43.181
489.83	42.825
490.17	41.798
490.52	43.141
490.87	42.156
491.22	43.028
491.56	42.362
491.91	40.535
492.26	41.663
492.60	41.459
492.95	44.024
493.30	41.866
493.64	41.847
493.99	42.126
494.34	41.602
494.68	42.048
495.03	40.389
495.37	41.168
495.72	41.545
496.07	41.512
496.41	40.613
496.76	40.580
497.11	40.708
497.45	40.811
497.80	41.877
498.14	39.543
498.49	40.427
498.84	39.920
499.18	41.315
499.53	40.923
499.87	40.759
500.22	39.960
500.56	40.292
500.91	40.060
501.26	39.446
501.60	39.941
501.95	39.398
502.29	40.145
502.64	40.830
502.98	39.517
503.33	39.193
503.67	39.422
504.02	40.127
504.36	39.287
504.71	38.788
505.06	39.406
505.40	39.645
505.75	39.536
506.09	39.280
506.44	39.887
506.78	39.286
507.13	38.780
507.47	37.389
507.82	38.194
508.16	39.250
508.51	39.087
508.85	38.566
509.19	38.212
509.54	38.713
509.88	38.511
510.23	38.677
510.57	38.536
510.92	36.087
511.26	38.298
511.61	38.449
511.95	38.137
512.30	37.251
512.64	37.284
512.98	37.900
513.33	38.500
513.67	37.010
514.02	38.444
514.36	38.114
514.70	37.879
515.05	38.308
515.39	37.721
515.74	39.162
516.08	37.776
516.42	38.987
516.77	37.800
517.11	38.338
517.46	38.959
517.80	37.723
518.14	36.987
518.49	37.500
518.83	37.181
519.17	36.750
519.52	37.478
519.86	36.014
520.20	36.756
520.55	36.085
520.89	37.829
521.23	36.542
521.58	37.666
521.92	36.795
522.26	36.695
522.61	36.818
522.95	38.212
523.29	36.976
523.64	37.294
523.98	37.978
524.32	36.405
524.66	37.196
525.01	36.364
525.35	36.487
525.69	36.162
526.04	34.987
526.38	36.446
526.72	34.859
527.06	36.381
527.41	36.939
527.75	36.260
528.09	35.947
528.43	37.475
528.78	36.700
529.12	36.258
529.46	35.153
529.80	35.085
530.15	36.898
530.49	35.354
530.83	36.731
531.17	35.594
531.51	36.252
531.86	34.874
532.20	34.795
532.54	34.922
532.88	35.524
533.22	35.551
533.57	35.714
533.91	35.509
534.25	36.263
534.59	34.830
534.93	34.676
535.27	34.201
535.62	34.997
535.96	34.573
536.30	35.884
536.64	35.700
536.98	34.843
537.32	34.780
537.66	36.255
538.01	35.385
538.35	34.397
538.69	33.222
539.03	34.860
539.37	34.388
539.71	33.810
540.05	34.487
540.39	34.418
540.73	34.519
541.07	33.978
541.42	34.812
541.76	33.861
542.10	34.274
542.44	33.148
542.78	33.792
543.12	33.379
543.46	34.075
543.80	33.657
544.14	33.178
544.48	33.111
544.82	33.288
545.16	34.153
545.50	33.712
545.84	34.278
546.18	33.830
546.52	33.237
546.86	34.651
547.20	33.405
547.54	32.509
547.88	32.609
548.22	32.742
548.56	32.982
548.90	34.030
549.24	32.025
549.58	32.440
549.92	32.380
550.26	32.821
550.60	32.937
550.94	33.084
551.28	31.839
551.62	32.385
551.96	31.504
552.30	31.506
552.64	32.863
552.98	31.153
553.32	32.953
553.66	31.132
554.00	32.263
554.34	31.684
554.68	32.080
555.02	32.664
555.36	32.311
555.69	31.429
556.03	32.477
556.37	31.957
556.71	31.408
557.05	32.066
557.39	30.781
557.73	31.484
558.07	31.297
558.41	31.164
558.75	31.177
559.08	30.890
559.42	31.746
559.76	31.305
560.10	31.651
560.44	30.529
560.78	31.189
561.12	32.087
561.45	32.186
561.79	32.003
562.13	30.660
562.47	31.727
562.81	30.403
563.15	30.113
563.48	30.410
563.82	31.846
564.16	31.825
564.50	30.270
564.84	31.727
565.17	31.120
565.51	32.309
565.85	30.590
566.19	30.570
566.52	31.501
566.86	32.069
567.20	31.320
567.54	31.144
567.88	32.337
568.21	32.070
568.55	31.087
568.89	32.238
569.23	30.717
569.56	31.567
569.90	32.318
570.24	31.783
570.57	32.473
570.91	32.381
571.25	31.733
571.59	31.735
571.92	31.081
572.26	31.793
572.60	31.659
572.93	31.628
573.27	31.442
573.61	31.891
573.95	31.841
574.28	32.177
574.62	32.138
574.96	31.538
575.29	31.701
575.63	30.837
575.97	31.580
576.30	31.712
576.64	31.550
576.98	31.300
577.31	31.629
577.65	31.697
577.98	31.403
578.32	31.533
578.66	31.270
578.99	30.697
579.33	31.227
579.67	30.987
580.00	31.646
580.34	31.194
580.67	31.108
581.01	31.940
581.35	31.245
581.68	31.628
582.02	30.978
582.35	31.216
582.69	31.340
583.02	31.745
583.36	31.535
583.70	31.983
584.03	32.277
584.37	32.213
584.70	31.511
585.04	31.088
585.37	30.885
585.71	31.449
586.04	30.837
586.38	30.435
586.72	31.564
587.05	31.340
587.39	30.668
587.72	31.875
588.06	31.248
588.39	31.416
588.73	31.654
589.06	32.224
589.40	30.937
589.73	31.544
590.07	31.420
590.40	31.463
590.73	31.837
591.07	31.213
591.40	31.256
591.74	30.588
592.07	30.102
592.41	30.786
592.74	30.665
593.08	29.794
593.41	30.082
593.75	30.422
594.08	29.969
594.41	30.531
594.75	30.534
595.08	30.874
595.42	30.585
595.75	30.943
596.09	31.040
596.42	30.798
596.75	30.950
597.09	30.615
597.42	29.991
597.75	29.959
598.09	30.014
598.42	29.377
598.76	30.159
599.09	30.409
599.42	29.405
599.76	30.361
600.09	29.336
600.42	29.719
600.76	29.532
601.09	29.237
601.42	29.926
601.76	30.885
602.09	30.198
602.42	30.708
602.76	30.136
603.09	30.233
603.42	30.268
603.76	30.282
604.09	29.283
604.42	29.103
604.76	29.239
605.09	29.205
605.42	30.158
605.75	29.510
606.09	29.427
606.42	29.399
606.75	29.177
607.09	29.407
607.42	29.021
607.75	28.730
608.08	29.111
608.42	29.283
608.75	29.976
609.08	29.347
609.41	29.695
609.75	29.083
610.08	29.556
610.41	28.116
610.74	29.303
611.07	29.974
611.41	29.061
611.74	28.891
612.07	29.443
612.40	29.486
612.73	29.435
613.07	28.065
613.40	28.775
613.73	28.875
614.06	29.549
614.39	28.990
614.72	27.731
615.06	28.715
615.39	28.330
615.72	27.933
616.05	28.715
616.38	28.376
616.71	28.318
617.05	29.092
617.38	28.975
617.71	30.000
618.04	29.079
618.37	27.995
618.70	28.449
619.03	28.681
619.36	28.365
619.69	28.658
620.03	28.926
620.36	27.682
620.69	28.408
621.02	27.829
621.35	28.714
621.68	28.741
622.01	27.167
622.34	28.013
622.67	29.101
623.00	28.484
623.33	27.210
623.66	27.973
623.99	27.685
624.32	27.529
624.65	27.368
624.99	28.442
625.32	26.611
625.65	28.201
625.98	27.720
626.31	27.016
626.64	27.123
626.97	28.185
627.30	27.408
627.63	26.603
627.96	28.032
628.29	26.179
628.62	28.122
628.95	29.158
629.28	27.016
629.61	25.723
629.94	27.664
630.26	27.866
630.59	27.159
630.92	25.231
631.25	25.641
631.58	28.744
631.91	26.096
632.24	27.408
632.57	26.477
632.90	25.386
633.23	25.294
633.56	26.322
633.89	25.524
634.22	28.642
634.55	26.557
634.88	27.458
635.20	26.154
635.53	25.867
635.86	25.618
636.19	26.908
636.52	26.531
636.85	25.682
637.18	26.164
637.51	25.283
637.83	25.361
638.16	26.739
638.49	25.341
638.82	25.789
639.15	27.273
639.48	27.235
639.81	25.105
640.13	24.531
640.46	26.531
640.79	24.595
641.12	24.372
641.45	24.925
641.77	25.481
642.10	24.013
642.43	24.116
642.76	25.413
643.09	25.687
643.41	22.977
643.74	26.689
644.07	25.780
644.40	24.662
644.73	24.168
645.05	25.336
645.38	25.397
645.71	27.128
646.04	23.519
646.36	24.291
646.69	28.597
647.02	27.032
647.35	25.187
647.67	22.669
648.00	25.560
648.33	24.573
648.66	25.593
648.98	23.283
649.31	23.306
649.64	24.333
649.96	23.177
650.29	24.872
650.62	23.419
650.94	24.259
651.27	26.071
651.60	25.405
651.92	23.951
652.25	26.110
652.58	25.667
652.90	25.214
653.23	23.866
653.56	23.012
653.88	23.711
654.21	23.643
654.54	27.165
654.86	25.467
655.19	25.585
655.52	28.483
655.84	27.344
656.17	31.057
656.49	42.624
656.82	45.332
657.15	35.810
657.47	27.119
657.80	20.399
658.13	20.046
658.45	31.211
658.78	32.188
659.10	31.538
659.43	31.573
659.75	31.771
660.08	30.621
660.41	29.009
660.73	27.486
661.06	25.823
661.38	24.070
661.71	20.534
662.03	26.609
662.36	23.077
662.68	22.788
663.01	25.983
663.33	21.578
663.66	22.326
663.98	21.628
664.31	23.241
664.63	21.659
664.96	20.870
665.28	22.296
665.61	23.377
665.93	23.913
666.26	23.644
666.58	21.700
666.91	23.529
667.23	22.406
667.56	23.697
667.88	26.139
668.21	23.866
668.53	21.749
668.86	24.528
669.18	20.991
669.50	21.308
669.83	20.465
670.15	24.476
670.48	20.335
670.80	24.885
671.13	23.266
671.45	22.146
671.77	21.245
672.10	27.129
672.42	24.345
672.75	26.643
673.07	23.792
673.39	26.972
673.72	20.710
674.04	24.375
674.37	25.000
674.69	22.698
675.01	23.333
675.34	22.297
675.66	25.000
675.98	24.834
676.31	25.917
676.63	19.952
676.95	20.909
677.28	25.882
677.60	22.410
677.92	20.413
678.25	22.976
678.57	21.212
678.89	24.160
679.22	24.161
679.54	22.691
679.86	21.471
680.18	24.272
680.51	23.295
680.83	22.664
681.15	24.800
681.48	25.615
681.80	23.140
682.12	23.387
682.44	23.849
682.77	23.841
683.09	22.654
683.41	21.818
683.73	20.276
684.06	24.779
684.38	23.011
684.70	27.015
685.02	23.029
685.34	23.913
685.67	24.953
685.99	24.955
686.31	23.186
686.63	21.707
686.96	23.194
687.28	20.000
687.60	21.673
687.92	24.242
688.24	24.798
688.56	23.144
688.89	24.107
689.21	24.000
689.53	21.810
689.85	23.488
690.17	22.545
690.49	23.168
690.82	22.330
691.14	21.905
691.46	21.028
691.78	23.874
692.10	25.806
692.42	21.645
692.74	25.214
693.06	23.423
693.39	20.362
693.71	22.172
694.03	20.092
694.35	25.000
694.67	24.747
694.99	18.799
695.31	22.193
695.63	24.250
695.95	20.960
696.27	22.539
696.59	23.056
696.91	22.129
697.23	19.280
697.56	23.515
697.88	24.086
698.20	22.779
698.52	21.176
698.84	21.770
699.16	21.250
699.48	26.817
699.80	21.836
700.12	24.798
700.44	24.370
700.76	18.314
701.08	18.485
701.40	22.289
701.72	23.765
702.04	20.792
702.36	23.746
702.68	22.823
703.00	26.970
703.32	27.566
703.64	22.599
703.96	22.899
704.28	21.166
704.60	23.492
704.91	19.874
705.23	21.595
705.55	24.735
705.87	21.300
706.19	22.222
706.51	22.337
706.83	23.473
707.15	18.692
707.47	21.569
707.79	22.135
708.11	24.500
708.43	20.750
708.74	24.806
709.06	23.099
709.38	22.018
709.70	22.781
710.02	21.338
710.34	24.768
710.66	17.949
710.98	22.517
711.29	25.246
711.61	21.356
711.93	24.104
712.25	23.024
712.57	23.077
712.89	20.522
713.20	17.993
713.52	21.254
713.84	22.867
714.16	16.495
714.48	20.645
714.80	23.077
715.11	21.277
715.43	20.376
715.75	20.333
716.07	23.920
716.39	21.477
716.70	24.354
717.02	18.321
717.34	21.862
717.66	20.354
717.97	21.304
718.29	21.757
718.61	17.717
718.93	19.380
719.24	20.532
719.56	22.490
719.88	22.680
720.20	23.864
720.51	21.456
720.83	16.988
721.15	22.689
721.46	21.371
721.78	14.229
722.10	22.677
722.42	17.012
722.73	17.143
723.05	22.449
723.37	21.610
723.68	28.378
724.00	20.085
724.32	16.000
724.63	16.818
724.95	24.891
725.27	19.816
725.58	22.458
725.90	22.222
726.22	22.780
726.53	24.068
726.85	22.097
727.16	23.019
727.48	20.243
727.80	21.862
728.11	22.034
728.43	21.176
728.74	18.548
729.06	24.800
729.38	30.075
729.69	18.327
730.01	16.923
730.32	23.881
730.64	26.148
730.96	23.019
731.27	23.333
731.59	20.000
731.90	21.338
732.22	22.397
732.53	28.239
732.85	24.823
733.16	23.569
733.48	19.424
733.80	26.812
734.11	22.034
734.43	25.086
734.74	22.424
735.06	19.870
735.37	27.795
735.69	24.579
736.00	20.209
736.32	23.154
736.63	28.169
736.95	24.232
737.26	24.911
737.58	21.812
737.89	19.414
738.21	22.180
738.52	20.988
738.83	20.961
739.15	18.341
739.46	22.835
739.78	19.780
740.09	23.203
740.41	23.188
740.72	19.291
741.04	21.862
741.35	22.553
741.66	20.379
741.98	18.878
742.29	18.812
742.61	21.466
742.92	14.218
743.23	18.981
743.55	20.362
743.86	20.574
744.18	20.096
744.49	17.021
744.80	20.652
745.12	25.134
745.43	16.585
745.74	23.958
746.06	23.415
746.37	25.131
746.68	20.853
747.00	18.085
747.31	29.353
747.62	21.359
747.94	23.445
748.25	17.822
748.56	18.033
748.88	14.660
749.19	28.723
749.50	19.704
749.82	20.283
750.13	17.431
750.44	22.932
750.75	21.642
751.07	29.927
751.38	22.222
751.69	16.863
752.01	25.969
752.32	21.116
752.63	19.368
752.94	22.845
753.26	26.360
753.57	19.910
753.88	22.566
754.19	18.333
754.51	19.835
754.82	25.101
755.13	24.167
755.44	20.161
755.75	29.687
756.07	20.623
756.38	19.245
756.69	16.475
757.00	20.333
757.31	24.183
757.63	22.561
757.94	25.556
758.25	21.096
758.56	22.074
758.87	22.946
759.18	21.184
759.50	18.909
759.81	21.739
760.12	21.613
760.43	19.091
760.74	23.765
761.05	19.692
761.36	22.727
761.67	25.455
761.99	22.789
762.30	20.000
762.61	28.854
762.92	18.552
763.23	19.820
763.54	21.495
763.85	19.068
764.16	21.992
764.47	20.161
764.78	19.780
765.10	27.946
765.41	24.606
765.72	25.397
766.03	18.045
766.34	22.263
766.65	21.514
766.96	23.737
767.27	27.660
767.58	20.115
767.89	18.440
768.20	21.023
768.51	23.077
768.82	19.212
769.13	23.502
769.44	23.605
769.75	21.461
770.06	24.569
770.37	15.865
770.68	19.797
770.99	20.814
771.30	26.471
771.61	23.529
771.92	25.431
772.23	23.153
772.54	18.817
772.85	27.160
773.16	23.596
773.47	18.954
773.78	20.261
774.09	23.353
774.39	20.667
774.70	25.478
775.01	20.000
775.32	17.857
775.63	16.529
775.94	13.740
776.25	22.047
776.56	13.333
776.87	10.577
777.18	15.385
777.48	24.138
777.79	18.261
778.10	6.667
778.41	9.009
778.72	19.841
779.03	19.549
779.34	21.277
779.65	19.178
779.95	10.274
780.26	17.241
780.57	5.691
780.88	14.961
781.19	15.517
781.50	22.481
781.80	23.669
782.11	21.384
782.42	15.385
782.73	23.022
783.04	20.741
783.34	18.056
783.65	12.821
783.96	11.475
784.27	22.069
784.57	17.073
784.88	25.781
785.19	23.000
785.50	17.000
785.81	22.414
786.11	21.552
786.42	7.767
786.73	20.000
787.04	17.347
787.34	15.179
787.65	19.048
787.96	9.735
788.26	28.182
788.57	23.077
788.88	28.125
789.19	29.365
789.49	20.000
789.80	19.388
790.11	17.172
790.41	13.636
790.72	34.783
791.03	15.909
791.33	38.750
791.64	15.000
791.95	15.116
792.25	21.277
792.56	14.607
792.87	10.959
793.17	18.841
793.48	9.333
793.79	11.250
794.09	23.750
794.40	18.868
794.70	18.447
795.01	22.764
795.32	20.513
795.62	19.048
795.93	28.431
796.23	13.208
796.54	19.792
796.85	23.529
797.15	16.901
797.46	20.833
797.76	19.697
798.07	15.116
798.37	6.579
798.68	-4.545
798.99	4.938
799.29	12.857
799.60	13.043
799.90	14.667
800.21	22.951
800.51	20.000
800.82	25.424
801.12	14.493
801.43	11.475
801.73	15.873
802.04	12.000
802.34	14.925
802.65	30.769
802.95	3.571
803.26	1.923
803.56	3.922
803.87	-4.348
804.17	30.667
804.48	25.397
804.78	3.704
805.09	13.043
805.39	-17.778
805.70	11.111
806.00	-10.526
806.30	21.127
806.61	27.143
806.91	13.889
807.22	30.263
807.52	25.333
807.83	5.455
808.13	12.500
808.43	16.176
808.74	19.403
809.04	16.949
809.35	3.846
809.65	34.375
809.95	-2.703
810.26	-6.818
810.56	-4.110
810.86	28.571
811.17	26.000
811.47	20.408
811.77	-7.895
812.08	0.000
812.38	11.321
812.69	-15.000
812.99	-3.030
813.29	2.632
813.59	-45.714
813.90	25.000
814.20	0.000
814.50	19.231
814.81	18.868
815.11	17.021
815.41	20.339
815.72	14.286
816.02	35.294
816.32	12.500
816.62	-9.756
816.93	0.000
817.23	-8.571
817.53	27.083
817.84	2.174
818.14	25.000
818.44	-15.789
818.74	26.087
819.04	-22.500
819.35	-5.405
819.65	2.941
819.95	-5.556
820.25	14.286
820.56	22.500
820.86	-6.897
821.16	30.000
821.46	2.128
821.76	37.500
822.07	9.302
822.37	-18.919
822.67	21.875
822.97	-2.381
823.27	-14.286
823.57	0.000
823.88	-18.519
824.18	-7.143
824.48	17.647
824.78	19.355
825.08	-65.217
825.38	3.030
825.69	-37.500
825.99	5.263
826.29	0.000
826.59	-80.000
826.89	-14.286
827.19	21.739
827.49	25.000
827.79	2.857
828.09	7.143
828.39	18.182
828.70	32.432
829.00	14.286
829.30	0.000
829.60	36.667
829.90	15.625
830.20	-10.526
830.50	-11.111
830.80	0.000
831.10	-18.182
831.40	12.121
831.70	6.452
832.00	4.762
832.30	-66.667
832.60	-50.000
832.90	0.000
833.20	-15.000
833.50	42.424
833.80	51.852
834.10	7.692
834.40	12.500
834.70	11.111
835.00	-21.053
835.30	26.923
835.60	6.667
835.90	-6.452
836.20	45.455
836.50	28.571
836.80	-34.615
837.10	-28.571
837.40	-200.000
837.70	-4.545
838.00	-54.545
838.30	-4.348
838.60	15.385
838.90	22.727
839.19	10.714
839.49	13.333
839.79	-15.385
840.09	-75.000
840.39	39.286
840.69	14.286
840.99	15.385
841.29	-68.421
841.59	-30.000
841.88	27.273
842.18	-30.000
842.48	31.250
842.78	20.000
843.08	14.815
843.38	-120.000
843.68	21.739
843.97	-20.000
844.27	-33.333
844.57	-35.000
844.87	5.556
845.17	-38.095
845.47	-13.333
845.76	14.286
846.06	82.353
846.36	-20.000
846.66	-14.286
846.96	0.000
847.25	-187.500
847.55	57.143
847.85	-50.000
848.15	-31.818
848.44	-466.667
848.74	-25.000
849.04	44.444
849.34	-18.182
849.63	-333.333
849.93	-120.000
850.23	-11.111
850.53	-10.000
850.82	7.692
851.12	11.111
851.42	0.000
851.71	-15.385
852.01	-7.143
852.31	-275.000
852.61	9.091
852.90	20.000
853.20	-10.526
853.50	16.667
853.79	17.391
854.09	54.167
854.39	21.053
854.68	16.667
854.98	-29.032
855.28	11.538
855.57	10.000
855.87	16.667
856.17	0.000
856.46	-14.286
856.76	-26.667
857.05	11.111
857.35	8.000
857.65	16.667
857.94	-46.154
858.24	34.483
858.53	0.000
858.83	25.926
859.13	31.818
859.42	-17.391
859.72	-200.000
860.01	-533.333
860.31	44.000
860.60	-23.810
860.90	-366.667
861.20	-53.333
861.49	-400.000
861.79	-26.667
862.08	-10.000
862.38	86.667
862.67	-320.000
862.97	50.000
863.26	-16.667
863.56	5.556
863.85	-433.333
864.15	61.111
864.44	-40.000
864.74	92.857
865.03	125.000
865.33	-260.000
865.62	-83.333
865.92	-8.333
866.21	-233.333
866.51	50.000
866.80	-54.545
867.10	-50.000
867.39	-25.000
867.69	0.000
867.98	7.692
868.27	-333.333
868.57	-26.667
868.86	-27.778
869.16	-23.077
869.45	20.000
869.75	-300.000
870.04	0.000
870.33	-100.000
870.63	-4.762
870.92	400.000
871.22	-260.000
871.51	-500.000
871.80	77.778
872.10	333.333
>>>>>End Processed Spectral Data<<<<<
