SpectraSuite Data File
++++++++++++++++++++++++++++++++++++
Date: Fri May 15 20:45:32 PDT 2015
User: schluterlab
Dark Spectrum Present: Yes
Reference Spectrum Present: Yes
Number of Sampled Component Spectra: 1
Spectrometers: USB2E3373
Integration Time (usec): 3000 (USB2E3373)
Spectra Averaged: 3 (USB2E3373)
Boxcar Smoothing: 0 (USB2E3373)
Correct for Electrical Dark: No (USB2E3373)
Strobe/Lamp Enabled: No (USB2E3373)
Correct for Detector Non-linearity: No (USB2E3373)
Correct for Stray Light: No (USB2E3373)
Number of Pixels in Processed Spectrum: 2048
>>>>>Begin Processed Spectral Data<<<<<
178.53	0.000
178.91	0.000
179.29	12.500
179.67	-850.000
180.04	-0.000
180.42	75.000
180.80	-700.000
181.18	266.667
181.56	350.000
181.94	-150.000
182.31	500.000
182.69	-220.000
183.07	-400.000
183.45	-220.000
183.83	33.333
184.20	-36.364
184.58	188.889
184.96	125.000
185.34	-33.333
185.72	-50.000
186.09	192.308
186.47	-1100.000
186.85	300.000
187.23	111.111
187.61	-200.000
187.98	-233.333
188.36	44.444
188.74	-200.000
189.12	0.000
189.49	27.778
189.87	0.000
190.25	35.714
190.63	-350.000
191.00	-300.000
191.38	-21.053
191.76	400.000
192.14	200.000
192.51	250.000
192.89	-111.111
193.27	-28.571
193.65	200.000
194.02	218.182
194.40	-60.000
194.78	-87.500
195.15	-83.333
195.53	-100.000
195.91	250.000
196.29	-175.000
196.66	123.077
197.04	228.571
197.42	-122.222
197.79	-800.000
198.17	-130.769
198.55	1900.000
198.92	-366.667
199.30	-600.000
199.68	-20.000
200.05	-200.000
200.43	0.000
200.81	-466.667
201.18	-100.000
201.56	1100.000
201.94	-650.000
202.31	66.667
202.69	-300.000
203.07	300.000
203.44	-200.000
203.82	0.000
204.19	-14.286
204.57	-566.667
204.95	112.500
205.32	20.000
205.70	114.286
206.08	-200.000
206.45	155.556
206.83	21.429
207.20	-142.857
207.58	-0.000
207.96	-733.333
208.33	-200.000
208.71	-200.000
209.08	-216.667
209.46	-800.000
209.84	-180.000
210.21	-1100.000
210.59	-85.714
210.96	16.667
211.34	-175.000
211.71	66.667
212.09	-271.429
212.46	-1700.000
212.84	0.000
213.22	90.000
213.59	750.000
213.97	46.154
214.34	-9.091
214.72	16.667
215.09	375.000
215.47	-15.385
215.84	-127.273
216.22	-533.333
216.59	25.000
216.97	-500.000
217.34	150.000
217.72	-100.000
218.09	50.000
218.47	237.500
218.84	-400.000
219.22	-77.778
219.59	-320.000
219.97	100.000
220.34	325.000
220.72	-171.429
221.09	-100.000
221.47	0.000
221.84	-700.000
222.22	-200.000
222.59	-9.091
222.97	25.000
223.34	-266.667
223.72	-78.571
224.09	-4.762
224.46	7.143
224.84	633.333
225.21	40.000
225.59	33.333
225.96	-50.000
226.34	525.000
226.71	-57.143
227.08	83.333
227.46	-87.500
227.83	-800.000
228.21	-22.222
228.58	-9.091
228.95	-12.500
229.33	100.000
229.70	0.000
230.08	-125.000
230.45	-100.000
230.82	-28.571
231.20	-33.333
231.57	42.857
231.95	-71.429
232.32	-170.000
232.69	35.714
233.07	-366.667
233.44	40.000
233.81	-20.000
234.19	-11.111
234.56	-23.529
234.93	500.000
235.31	100.000
235.68	-360.000
236.05	-46.154
236.43	-40.000
236.80	17.647
237.17	-9.375
237.55	-10.000
237.92	-40.741
238.29	19.444
238.67	0.000
239.04	-5.882
239.41	-41.463
239.79	-6.667
240.16	7.317
240.53	0.000
240.91	-4.348
241.28	14.286
241.65	17.857
242.02	20.548
242.40	13.333
242.77	0.000
243.14	-3.030
243.51	12.500
243.89	11.494
244.26	2.299
244.63	10.714
245.00	3.093
245.38	10.309
245.75	-13.483
246.12	0.862
246.49	18.182
246.87	15.385
247.24	0.840
247.61	6.140
247.98	1.626
248.36	10.000
248.73	8.553
249.10	4.545
249.47	10.127
249.84	6.536
250.22	1.765
250.59	5.229
250.96	11.737
251.33	9.884
251.70	12.353
252.08	12.183
252.45	9.406
252.82	11.055
253.19	11.521
253.56	10.280
253.94	7.658
254.31	12.174
254.68	15.789
255.05	8.661
255.42	8.297
255.79	11.969
256.16	13.619
256.54	12.687
256.91	7.985
257.28	8.922
257.65	11.985
258.02	9.574
258.39	12.121
258.76	13.919
259.14	9.967
259.51	9.709
259.88	8.591
260.25	6.863
260.62	13.194
260.99	6.780
261.36	4.795
261.73	8.861
262.10	12.462
262.47	11.350
262.85	7.524
263.22	10.769
263.59	14.019
263.96	13.975
264.33	10.303
264.70	9.226
265.07	9.226
265.44	10.198
265.81	11.582
266.18	12.568
266.55	11.568
266.92	9.845
267.29	11.749
267.66	10.997
268.03	10.733
268.40	9.661
268.77	10.428
269.14	10.552
269.51	9.769
269.88	7.980
270.25	6.633
270.62	10.000
270.99	8.951
271.36	8.068
271.73	8.920
272.10	10.706
272.47	12.057
272.84	7.921
273.21	10.905
273.58	11.807
273.95	10.297
274.32	10.162
274.69	9.276
275.06	12.500
275.43	10.431
275.80	9.492
276.17	7.816
276.54	10.707
276.91	11.404
277.28	8.515
277.65	11.570
278.02	9.149
278.39	10.722
278.76	9.434
279.13	5.602
279.50	10.084
279.87	10.583
280.23	8.817
280.60	9.747
280.97	9.293
281.34	9.615
281.71	11.294
282.08	9.611
282.45	9.980
282.82	11.390
283.19	10.058
283.56	8.863
283.92	9.488
284.29	7.500
284.66	9.302
285.03	7.859
285.40	10.586
285.77	8.612
286.14	9.928
286.51	11.993
286.87	8.775
287.24	8.840
287.61	7.231
287.98	11.754
288.35	9.532
288.72	9.632
289.08	6.597
289.45	9.315
289.82	7.867
290.19	8.191
290.56	8.062
290.93	10.101
291.29	7.858
291.66	10.079
292.03	7.974
292.40	8.710
292.77	6.858
293.13	6.981
293.50	7.132
293.87	8.702
294.24	8.501
294.60	9.389
294.97	7.887
295.34	6.902
295.71	10.134
296.08	8.670
296.44	5.548
296.81	9.306
297.18	7.681
297.55	8.943
297.91	7.808
298.28	9.631
298.65	7.734
299.02	7.951
299.38	6.566
299.75	8.138
300.12	6.937
300.48	7.905
300.85	8.492
301.22	6.364
301.59	6.842
301.95	8.101
302.32	7.393
302.69	7.711
303.05	8.292
303.42	6.974
303.79	8.178
304.15	9.200
304.52	6.064
304.89	6.433
305.25	6.659
305.62	5.834
305.99	6.550
306.35	6.127
306.72	6.299
307.09	7.982
307.45	6.889
307.82	6.019
308.19	7.898
308.55	6.761
308.92	8.606
309.29	5.140
309.65	6.674
310.02	7.261
310.38	6.696
310.75	7.432
311.12	7.858
311.48	7.317
311.85	7.644
312.22	6.435
312.58	7.749
312.95	7.150
313.31	6.315
313.68	6.492
314.05	7.347
314.41	7.835
314.78	6.701
315.14	8.119
315.51	7.453
315.87	7.172
316.24	7.988
316.61	8.661
316.97	8.829
317.34	8.594
317.70	7.839
318.07	8.942
318.43	9.216
318.80	8.049
319.16	8.301
319.53	9.497
319.89	8.957
320.26	8.806
320.62	11.334
320.99	8.873
321.35	9.969
321.72	11.319
322.08	11.178
322.45	10.355
322.81	10.413
323.18	11.286
323.54	11.486
323.91	11.100
324.27	11.426
324.64	12.453
325.00	12.865
325.37	14.141
325.73	12.965
326.10	14.260
326.46	14.439
326.83	14.086
327.19	14.821
327.56	15.465
327.92	16.373
328.29	15.804
328.65	17.264
329.01	16.452
329.38	15.668
329.74	16.053
330.11	17.331
330.47	16.883
330.84	16.923
331.20	17.776
331.56	16.944
331.93	16.895
332.29	17.232
332.66	17.557
333.02	17.379
333.38	17.874
333.75	18.681
334.11	17.457
334.48	19.402
334.84	18.223
335.20	18.298
335.57	17.770
335.93	19.603
336.29	19.613
336.66	18.347
337.02	17.751
337.38	18.796
337.75	19.091
338.11	18.665
338.47	18.522
338.84	18.762
339.20	18.556
339.56	18.991
339.93	19.069
340.29	19.908
340.65	20.161
341.02	18.617
341.38	18.319
341.74	19.435
342.11	18.198
342.47	19.395
342.83	19.550
343.20	18.902
343.56	19.913
343.92	19.132
344.28	18.787
344.65	19.948
345.01	19.533
345.37	18.755
345.73	20.000
346.10	19.758
346.46	18.755
346.82	19.231
347.19	19.119
347.55	19.716
347.91	20.631
348.27	18.836
348.63	19.336
349.00	18.540
349.36	18.953
349.72	19.983
350.08	19.344
350.45	20.271
350.81	18.854
351.17	18.078
351.53	19.755
351.89	18.332
352.26	19.040
352.62	18.952
352.98	19.438
353.34	19.002
353.70	19.741
354.07	19.516
354.43	19.376
354.79	18.827
355.15	20.952
355.51	19.699
355.87	19.741
356.24	18.842
356.60	18.755
356.96	20.635
357.32	19.649
357.68	19.234
358.04	19.467
358.40	19.453
358.77	20.175
359.13	18.975
359.49	19.954
359.85	19.969
360.21	18.979
360.57	19.893
360.93	20.197
361.29	19.033
361.66	20.768
362.02	20.227
362.38	20.183
362.74	20.061
363.10	19.789
363.46	20.237
363.82	21.337
364.18	20.886
364.54	20.662
364.90	20.717
365.26	19.578
365.62	22.044
365.98	20.894
366.35	21.559
366.71	20.399
367.07	20.755
367.43	20.920
367.79	20.565
368.15	21.752
368.51	20.903
368.87	21.393
369.23	20.505
369.59	22.085
369.95	21.041
370.31	21.532
370.67	20.672
371.03	21.210
371.39	21.663
371.75	22.051
372.11	21.327
372.47	22.559
372.83	21.930
373.19	22.183
373.55	22.022
373.91	22.390
374.27	21.758
374.63	21.536
374.99	22.199
375.35	22.702
375.71	22.657
376.07	22.472
376.42	22.245
376.78	22.953
377.14	23.561
377.50	22.444
377.86	22.825
378.22	23.548
378.58	23.333
378.94	23.125
379.30	23.581
379.66	25.141
380.02	23.053
380.38	23.798
380.74	23.579
381.09	24.479
381.45	23.976
381.81	24.429
382.17	23.858
382.53	25.547
382.89	25.110
383.25	25.264
383.61	24.878
383.97	24.952
384.32	25.078
384.68	25.263
385.04	24.632
385.40	25.078
385.76	26.164
386.12	26.003
386.48	26.117
386.83	25.365
387.19	24.908
387.55	27.227
387.91	25.611
388.27	25.092
388.62	25.614
388.98	26.274
389.34	26.359
389.70	27.222
390.06	26.683
390.42	26.295
390.77	26.095
391.13	27.364
391.49	27.555
391.85	26.641
392.20	27.558
392.56	26.510
392.92	27.305
393.28	26.828
393.64	28.168
393.99	28.088
394.35	27.261
394.71	28.289
395.07	27.090
395.42	27.990
395.78	27.362
396.14	27.364
396.50	28.345
396.85	28.590
397.21	27.130
397.57	27.147
397.92	27.022
398.28	27.816
398.64	26.265
399.00	28.047
399.35	27.088
399.71	27.858
400.07	28.356
400.42	27.662
400.78	27.740
401.14	27.223
401.49	28.291
401.85	28.154
402.21	27.651
402.57	29.000
402.92	26.788
403.28	28.195
403.63	28.310
403.99	28.571
404.35	27.608
404.70	26.726
405.06	27.732
405.42	27.781
405.77	27.716
406.13	28.056
406.49	27.768
406.84	27.934
407.20	28.296
407.55	27.366
407.91	28.142
408.27	28.107
408.62	28.062
408.98	27.295
409.34	27.819
409.69	26.680
410.05	27.278
410.40	26.790
410.76	28.046
411.11	27.812
411.47	27.745
411.83	27.056
412.18	27.027
412.54	27.715
412.89	26.601
413.25	27.918
413.60	26.708
413.96	26.564
414.31	27.195
414.67	26.491
415.03	27.563
415.38	26.240
415.74	27.101
416.09	27.564
416.45	27.144
416.80	26.504
417.16	28.729
417.51	27.582
417.87	26.988
418.22	28.044
418.58	27.759
418.93	27.774
419.29	27.209
419.64	28.062
420.00	28.589
420.35	26.806
420.71	27.947
421.06	28.484
421.42	28.305
421.77	27.803
422.12	27.753
422.48	28.045
422.83	28.538
423.19	27.596
423.54	27.572
423.90	27.208
424.25	28.358
424.61	28.703
424.96	28.339
425.31	29.521
425.67	28.932
426.02	29.388
426.38	29.117
426.73	29.116
427.09	29.177
427.44	29.118
427.79	29.169
428.15	29.248
428.50	28.710
428.85	28.010
429.21	29.598
429.56	29.380
429.92	30.200
430.27	28.972
430.62	28.698
430.98	28.450
431.33	29.127
431.68	29.880
432.04	29.514
432.39	29.264
432.74	28.743
433.10	29.598
433.45	29.749
433.80	29.483
434.16	29.307
434.51	30.054
434.86	29.152
435.22	30.006
435.57	29.258
435.92	28.683
436.28	29.159
436.63	30.405
436.98	29.200
437.34	29.704
437.69	30.054
438.04	30.370
438.39	30.116
438.75	30.480
439.10	30.221
439.45	31.041
439.81	29.847
440.16	30.226
440.51	31.582
440.86	31.843
441.22	29.016
441.57	29.636
441.92	30.955
442.27	31.208
442.63	31.745
442.98	30.787
443.33	30.328
443.68	30.822
444.03	31.595
444.39	30.939
444.74	31.550
445.09	31.013
445.44	31.510
445.79	32.027
446.15	31.222
446.50	31.115
446.85	30.978
447.20	31.126
447.55	32.757
447.91	31.303
448.26	31.246
448.61	31.031
448.96	31.670
449.31	31.329
449.66	31.591
450.02	31.603
450.37	30.468
450.72	30.756
451.07	32.595
451.42	31.149
451.77	31.404
452.12	31.041
452.47	31.423
452.83	31.625
453.18	31.626
453.53	31.479
453.88	31.269
454.23	31.530
454.58	32.053
454.93	31.572
455.28	30.603
455.63	31.494
455.98	32.351
456.34	32.375
456.69	32.465
457.04	32.451
457.39	31.592
457.74	31.802
458.09	30.724
458.44	31.656
458.79	30.196
459.14	32.094
459.49	31.881
459.84	32.036
460.19	31.493
460.54	31.112
460.89	31.364
461.24	30.807
461.59	31.473
461.94	31.384
462.29	31.484
462.64	32.226
462.99	31.618
463.34	31.224
463.69	31.081
464.04	31.840
464.39	31.352
464.74	32.577
465.09	33.063
465.44	31.737
465.79	30.385
466.14	31.357
466.49	30.535
466.84	32.540
467.19	31.289
467.54	31.226
467.89	31.775
468.24	31.204
468.59	31.873
468.94	31.429
469.29	30.820
469.64	31.032
469.99	33.076
470.34	29.829
470.68	32.438
471.03	31.139
471.38	31.170
471.73	31.863
472.08	31.343
472.43	30.805
472.78	30.158
473.13	31.701
473.48	30.489
473.83	30.946
474.17	31.347
474.52	31.142
474.87	31.818
475.22	32.215
475.57	30.548
475.92	31.103
476.27	31.607
476.61	31.192
476.96	29.671
477.31	30.827
477.66	31.404
478.01	30.657
478.36	31.645
478.70	31.974
479.05	31.264
479.40	31.214
479.75	29.823
480.10	30.773
480.45	31.350
480.79	31.370
481.14	30.840
481.49	30.591
481.84	30.792
482.19	30.122
482.53	30.552
482.88	29.499
483.23	30.614
483.58	30.425
483.92	29.090
484.27	29.763
484.62	29.538
484.97	29.809
485.31	28.938
485.66	27.888
486.01	28.973
486.36	27.909
486.70	29.189
487.05	29.283
487.40	29.214
487.75	29.014
488.09	28.492
488.44	29.195
488.79	29.174
489.13	30.248
489.48	30.184
489.83	30.090
490.17	29.843
490.52	30.115
490.87	29.755
491.22	30.372
491.56	29.886
491.91	29.589
492.26	29.460
492.60	29.463
492.95	30.448
493.30	29.409
493.64	30.108
493.99	29.807
494.34	29.369
494.68	29.429
495.03	29.294
495.37	30.079
495.72	29.833
496.07	30.390
496.41	29.292
496.76	29.203
497.11	29.436
497.45	30.597
497.80	30.121
498.14	29.657
498.49	29.507
498.84	29.790
499.18	30.221
499.53	30.010
499.87	29.475
500.22	29.179
500.56	29.097
500.91	29.167
501.26	28.621
501.60	29.267
501.95	29.791
502.29	29.346
502.64	28.909
502.98	29.156
503.33	28.002
503.67	28.819
504.02	28.739
504.36	28.996
504.71	28.333
505.06	28.384
505.40	29.391
505.75	29.639
506.09	29.346
506.44	29.158
506.78	29.184
507.13	29.524
507.47	28.303
507.82	29.754
508.16	29.741
508.51	28.856
508.85	29.042
509.19	28.632
509.54	29.759
509.88	29.018
510.23	28.994
510.57	29.610
510.92	27.985
511.26	28.314
511.61	29.593
511.95	29.753
512.30	29.213
512.64	28.214
512.98	29.141
513.33	29.267
513.67	28.823
514.02	29.863
514.36	30.400
514.70	29.196
515.05	30.611
515.39	29.870
515.74	30.599
516.08	28.990
516.42	30.506
516.77	29.023
517.11	29.199
517.46	29.623
517.80	29.321
518.14	29.271
518.49	29.447
518.83	28.433
519.17	27.774
519.52	28.123
519.86	28.571
520.20	29.951
520.55	28.580
520.89	29.172
521.23	29.512
521.58	30.095
521.92	29.679
522.26	28.237
522.61	29.481
522.95	30.132
523.29	29.860
523.64	29.543
523.98	30.655
524.32	28.737
524.66	29.770
525.01	30.195
525.35	30.006
525.69	28.687
526.04	28.175
526.38	30.156
526.72	28.254
527.06	29.637
527.41	29.156
527.75	29.223
528.09	28.439
528.43	29.034
528.78	29.175
529.12	28.645
529.46	28.915
529.80	28.879
530.15	29.241
530.49	28.889
530.83	29.275
531.17	28.878
531.51	29.275
531.86	29.096
532.20	27.766
532.54	29.544
532.88	29.979
533.22	27.957
533.57	27.457
533.91	27.350
534.25	29.883
534.59	28.544
534.93	26.558
535.27	27.030
535.62	27.868
535.96	27.462
536.30	28.496
536.64	28.739
536.98	28.711
537.32	28.876
537.66	28.401
538.01	27.203
538.35	28.017
538.69	27.830
539.03	27.341
539.37	28.466
539.71	29.175
540.05	26.952
540.39	29.086
540.73	28.033
541.07	28.177
541.42	27.957
541.76	28.630
542.10	27.667
542.44	27.172
542.78	26.084
543.12	26.236
543.46	27.677
543.80	27.412
544.14	26.636
544.48	28.248
544.82	27.820
545.16	27.527
545.50	27.437
545.84	27.550
546.18	28.511
546.52	27.397
546.86	27.965
547.20	28.326
547.54	26.784
547.88	27.853
548.22	27.350
548.56	25.923
548.90	26.887
549.24	26.102
549.58	27.010
549.92	26.447
550.26	27.179
550.60	27.138
550.94	28.081
551.28	27.357
551.62	27.154
551.96	27.293
552.30	26.827
552.64	27.715
552.98	27.145
553.32	26.534
553.66	25.835
554.00	27.372
554.34	27.031
554.68	26.401
555.02	27.902
555.36	27.150
555.69	25.934
556.03	26.410
556.37	26.904
556.71	25.993
557.05	27.740
557.39	26.320
557.73	28.261
558.07	26.546
558.41	27.259
558.75	26.500
559.08	26.635
559.42	26.429
559.76	27.462
560.10	25.535
560.44	25.465
560.78	26.434
561.12	26.375
561.45	26.564
561.79	26.471
562.13	26.615
562.47	26.043
562.81	25.360
563.15	26.093
563.48	25.743
563.82	26.218
564.16	26.323
564.50	25.541
564.84	26.506
565.17	24.950
565.51	26.776
565.85	25.789
566.19	25.398
566.52	26.273
566.86	25.707
567.20	24.907
567.54	25.365
567.88	24.839
568.21	25.452
568.55	24.728
568.89	25.462
569.23	24.121
569.56	23.818
569.90	24.158
570.24	23.558
570.57	23.309
570.91	24.120
571.25	22.953
571.59	22.423
571.92	22.844
572.26	22.464
572.60	22.512
572.93	22.937
573.27	22.821
573.61	22.703
573.95	22.638
574.28	22.299
574.62	22.197
574.96	22.688
575.29	22.085
575.63	21.612
575.97	21.469
576.30	22.294
576.64	21.563
576.98	21.853
577.31	21.873
577.65	21.972
577.98	22.041
578.32	21.502
578.66	21.062
578.99	21.689
579.33	21.759
579.67	21.575
580.00	21.595
580.34	21.667
580.67	21.686
581.01	21.854
581.35	21.275
581.68	21.315
582.02	21.619
582.35	21.263
582.69	21.231
583.02	21.256
583.36	21.647
583.70	21.989
584.03	22.018
584.37	22.445
584.70	21.786
585.04	21.244
585.37	21.376
585.71	21.624
586.04	21.331
586.38	21.339
586.72	21.836
587.05	22.270
587.39	22.393
587.72	22.253
588.06	21.561
588.39	21.703
588.73	21.673
589.06	22.016
589.40	22.157
589.73	22.636
590.07	21.866
590.40	22.252
590.73	21.993
591.07	22.816
591.40	22.707
591.74	22.715
592.07	23.191
592.41	22.129
592.74	21.904
593.08	22.180
593.41	21.516
593.75	21.623
594.08	21.593
594.41	21.689
594.75	21.985
595.08	21.718
595.42	21.605
595.75	22.268
596.09	21.970
596.42	22.241
596.75	22.469
597.09	21.503
597.42	21.725
597.75	22.492
598.09	21.322
598.42	21.570
598.76	20.849
599.09	21.194
599.42	20.728
599.76	20.918
600.09	20.928
600.42	20.849
600.76	20.988
601.09	20.687
601.42	21.269
601.76	21.636
602.09	21.947
602.42	21.398
602.76	21.138
603.09	21.844
603.42	21.614
603.76	21.371
604.09	20.899
604.42	22.462
604.76	21.673
605.09	22.075
605.42	21.851
605.75	21.497
606.09	21.486
606.42	20.726
606.75	20.649
607.09	21.011
607.42	20.514
607.75	21.048
608.08	21.159
608.42	21.334
608.75	21.976
609.08	21.176
609.41	21.675
609.75	21.573
610.08	21.867
610.41	20.338
610.74	21.404
611.07	21.860
611.41	21.744
611.74	21.802
612.07	21.413
612.40	21.335
612.73	22.599
613.07	21.766
613.40	21.827
613.73	21.824
614.06	22.259
614.39	21.433
614.72	20.896
615.06	22.067
615.39	21.343
615.72	20.614
616.05	21.173
616.38	21.425
616.71	21.835
617.05	21.495
617.38	21.182
617.71	21.572
618.04	22.730
618.37	22.446
618.70	22.838
619.03	23.611
619.36	22.214
619.69	23.351
620.03	22.571
620.36	21.888
620.69	22.555
621.02	22.554
621.35	22.822
621.68	23.980
622.01	22.333
622.34	22.825
622.67	22.240
623.00	22.129
623.33	22.409
623.66	22.588
623.99	21.785
624.32	21.293
624.65	21.128
624.99	22.348
625.32	22.138
625.65	23.095
625.98	22.321
626.31	21.862
626.64	23.830
626.97	23.822
627.30	22.767
627.63	23.570
627.96	23.720
628.29	23.312
628.62	23.795
628.95	22.846
629.28	23.891
629.61	23.031
629.94	23.558
630.26	22.530
630.59	24.766
630.92	23.692
631.25	22.256
631.58	23.678
631.91	23.026
632.24	22.248
632.57	24.545
632.90	22.301
633.23	24.824
633.56	24.307
633.89	23.305
634.22	24.444
634.55	22.745
634.88	23.372
635.20	23.718
635.53	23.867
635.86	22.757
636.19	24.968
636.52	23.724
636.85	23.325
637.18	23.396
637.51	24.277
637.83	24.967
638.16	25.239
638.49	22.752
638.82	24.868
639.15	22.524
639.48	24.347
639.81	23.849
640.13	24.242
640.46	23.761
640.79	24.006
641.12	24.225
641.45	23.724
641.77	23.407
642.10	25.434
642.43	24.277
642.76	26.403
643.09	24.879
643.41	25.405
643.74	23.723
644.07	24.631
644.40	24.831
644.73	24.869
645.05	25.671
645.38	25.926
645.71	23.759
646.04	26.391
646.36	25.532
646.69	25.180
647.02	27.032
647.35	25.933
647.67	25.046
648.00	26.493
648.33	25.768
648.66	24.068
648.98	21.106
649.31	22.645
649.64	21.978
649.96	23.987
650.29	24.702
650.62	26.496
650.94	26.296
651.27	26.257
651.60	25.766
651.92	25.175
652.25	23.979
652.58	24.500
652.90	24.185
653.23	23.025
653.56	22.166
653.88	23.196
654.21	22.067
654.54	23.599
654.86	25.467
655.19	22.368
655.52	22.368
655.84	17.552
656.17	19.118
656.49	25.827
656.82	26.721
657.15	20.278
657.47	15.339
657.80	11.571
658.13	11.375
658.45	17.804
658.78	18.021
659.10	17.312
659.43	17.902
659.75	18.648
660.08	19.379
660.41	20.735
660.73	22.238
661.06	22.704
661.38	22.896
661.71	23.203
662.03	25.751
662.36	27.473
662.68	22.124
663.01	27.729
663.33	22.506
663.66	24.419
663.98	24.186
664.31	25.800
664.63	24.654
664.96	19.565
665.28	20.530
665.61	24.242
665.93	25.435
666.26	24.512
666.58	20.358
666.91	24.000
667.23	24.292
667.56	23.697
667.88	24.460
668.21	25.060
668.53	25.532
668.86	25.000
669.18	22.642
669.50	20.097
669.83	24.186
670.15	23.543
670.48	23.684
670.80	25.346
671.13	23.490
671.45	20.776
671.77	26.395
672.10	21.584
672.42	19.850
672.75	22.913
673.07	24.150
673.39	22.202
673.72	18.738
674.04	21.667
674.37	25.636
674.69	22.270
675.01	21.556
675.34	23.198
675.66	24.537
675.98	27.273
676.31	25.917
676.63	24.466
676.95	23.864
677.28	24.471
677.60	22.892
677.92	20.642
678.25	22.538
678.57	19.913
678.89	24.160
679.22	23.043
679.54	20.683
679.86	20.676
680.18	22.913
680.51	21.591
680.83	21.272
681.15	22.600
681.48	23.770
681.80	22.107
682.12	20.161
682.44	21.548
682.77	22.958
683.09	24.027
683.41	21.136
683.73	23.963
684.06	25.664
684.38	17.419
684.70	22.876
685.02	20.124
685.34	19.565
685.67	19.137
685.99	21.881
686.31	20.354
686.63	21.892
686.96	19.011
687.28	17.778
687.60	20.913
687.92	22.424
688.24	21.774
688.56	21.397
688.89	20.982
689.21	24.667
689.53	21.114
689.85	20.465
690.17	21.205
690.49	19.622
690.82	22.816
691.14	21.905
691.46	20.561
691.78	21.171
692.10	22.151
692.42	19.481
692.74	23.077
693.06	22.072
693.39	18.326
693.71	17.873
694.03	18.938
694.35	20.561
694.67	22.222
694.99	19.321
695.31	21.671
695.63	24.000
695.95	21.970
696.27	19.430
696.59	23.333
696.91	23.529
697.23	19.023
697.56	23.020
697.88	22.151
698.20	21.412
698.52	18.353
698.84	17.943
699.16	18.500
699.48	23.058
699.80	17.618
700.12	25.606
700.44	21.849
700.76	19.477
701.08	21.818
701.40	21.386
701.72	25.617
702.04	22.442
702.36	22.742
702.68	21.021
703.00	21.818
703.32	20.235
703.64	17.514
703.96	22.609
704.28	19.632
704.60	18.095
704.91	22.397
705.23	22.924
705.55	27.208
705.87	26.715
706.19	20.370
706.51	21.993
706.83	21.222
707.15	19.938
707.47	18.768
707.79	19.010
708.11	21.250
708.43	20.500
708.74	19.380
709.06	19.718
709.38	21.407
709.70	20.710
710.02	21.019
710.34	25.697
710.66	19.231
710.98	16.887
711.29	22.295
711.61	16.949
711.93	19.544
712.25	24.055
712.57	19.414
712.89	16.045
713.20	25.606
713.52	20.906
713.84	21.160
714.16	17.526
714.48	17.097
714.80	21.154
715.11	21.581
715.43	15.987
715.75	19.333
716.07	17.608
716.39	19.799
716.70	15.867
717.02	20.992
717.34	22.672
717.66	20.354
717.97	20.435
718.29	20.921
718.61	24.016
718.93	18.992
719.24	23.194
719.56	17.671
719.88	18.557
720.20	21.970
720.51	15.709
720.83	20.463
721.15	26.050
721.46	16.129
721.78	13.439
722.10	20.446
722.42	13.278
722.73	19.592
723.05	28.163
723.37	19.068
723.68	26.577
724.00	18.803
724.32	17.333
724.63	17.727
724.95	16.594
725.27	19.816
725.58	21.186
725.90	17.063
726.22	19.305
726.53	20.000
726.85	22.846
727.16	22.642
727.48	16.599
727.80	24.696
728.11	17.373
728.43	23.137
728.74	20.968
729.06	16.800
729.38	22.932
729.69	19.124
730.01	12.308
730.32	17.910
730.64	17.668
730.96	20.377
731.27	19.667
731.59	19.661
731.90	18.153
732.22	17.666
732.53	22.259
732.85	19.149
733.16	21.886
733.48	11.511
733.80	16.667
734.11	17.288
734.43	18.213
734.74	18.182
735.06	16.287
735.37	18.429
735.69	18.519
736.00	18.467
736.32	18.121
736.63	18.662
736.95	16.724
737.26	15.658
737.58	17.785
737.89	18.315
738.21	16.165
738.52	23.045
738.83	20.087
739.15	14.410
739.46	18.504
739.78	17.582
740.09	20.261
740.41	17.754
740.72	13.780
741.04	22.267
741.35	14.043
741.66	20.379
741.98	18.878
742.29	24.257
742.61	15.707
742.92	9.479
743.23	12.963
743.55	22.172
743.86	15.311
744.18	18.182
744.49	12.766
744.80	11.413
745.12	17.112
745.43	12.683
745.74	21.354
746.06	14.634
746.37	13.089
746.68	19.431
747.00	12.766
747.31	19.403
747.62	20.388
747.94	21.531
748.25	15.842
748.56	18.579
748.88	10.995
749.19	18.085
749.50	18.719
749.82	12.736
750.13	16.055
750.44	21.429
750.75	17.164
751.07	22.263
751.38	17.625
751.69	15.686
752.01	16.279
752.32	11.554
752.63	16.601
752.94	15.086
753.26	26.360
753.57	16.290
753.88	15.044
754.19	14.167
754.51	16.116
754.82	16.194
755.13	23.333
755.44	18.952
755.75	16.406
756.07	17.510
756.38	14.717
756.69	15.326
757.00	20.000
757.31	15.686
757.63	14.939
757.94	17.500
758.25	15.890
758.56	16.223
758.87	15.297
759.18	14.019
759.50	14.182
759.81	21.070
760.12	18.065
760.43	17.879
760.74	16.358
761.05	17.538
761.36	14.205
761.67	16.364
761.99	18.707
762.30	20.000
762.61	19.763
762.92	17.195
763.23	18.018
763.54	13.084
763.85	11.864
764.16	20.332
764.47	14.113
764.78	12.821
765.10	21.549
765.41	15.773
765.72	20.000
766.03	11.278
766.34	18.613
766.65	18.725
766.96	16.667
767.27	19.681
767.58	15.517
767.89	7.801
768.20	14.205
768.51	12.088
768.82	14.286
769.13	13.825
769.44	13.305
769.75	14.155
770.06	18.534
770.37	17.788
770.68	11.168
770.99	13.575
771.30	16.176
771.61	15.837
771.92	15.948
772.23	19.212
772.54	16.129
772.85	12.346
773.16	14.045
773.47	24.837
773.78	18.954
774.09	18.563
774.39	8.667
774.70	15.287
775.01	20.000
775.32	12.143
775.63	14.876
775.94	22.137
776.25	17.323
776.56	16.667
776.87	10.577
777.18	14.530
777.48	18.103
777.79	9.565
778.10	10.476
778.41	7.207
778.72	19.048
779.03	13.534
779.34	14.184
779.65	21.233
779.95	8.219
780.26	22.069
780.57	4.878
780.88	22.835
781.19	14.655
781.50	14.729
781.80	11.834
782.11	8.176
782.42	20.000
782.73	15.108
783.04	11.111
783.34	13.889
783.65	0.000
783.96	9.836
784.27	13.793
784.57	10.569
784.88	19.531
785.19	20.000
785.50	21.000
785.81	18.966
786.11	14.655
786.42	12.621
786.73	22.727
787.04	14.286
787.34	25.000
787.65	9.524
787.96	0.000
788.26	13.636
788.57	5.983
788.88	18.750
789.19	13.492
789.49	12.174
789.80	15.306
790.11	5.051
790.41	5.455
790.72	22.826
791.03	11.364
791.33	16.250
791.64	17.500
791.95	3.488
792.25	19.149
792.56	17.978
792.87	10.959
793.17	-7.246
793.48	8.000
793.79	12.500
794.09	6.250
794.40	9.434
794.70	1.942
795.01	13.821
795.32	13.675
795.62	11.429
795.93	14.706
796.23	15.094
796.54	16.667
796.85	10.294
797.15	9.859
797.46	16.667
797.76	34.848
798.07	12.791
798.37	10.526
798.68	9.091
798.99	4.938
799.29	17.143
799.60	15.942
799.90	25.333
800.21	19.672
800.51	15.385
800.82	6.780
801.12	8.696
801.43	3.279
801.73	14.286
802.04	0.000
802.34	11.940
802.65	11.538
802.95	-1.786
803.26	-1.923
803.56	15.686
803.87	0.000
804.17	25.333
804.48	28.571
804.78	9.259
805.09	2.174
805.39	-4.444
805.70	16.667
806.00	5.263
806.30	4.225
806.61	15.714
806.91	-9.722
807.22	10.526
807.52	18.667
807.83	-10.909
808.13	11.111
808.43	10.294
808.74	13.433
809.04	-5.085
809.35	-1.923
809.65	18.750
809.95	-8.108
810.26	-11.364
810.56	5.479
810.86	0.000
811.17	-14.000
811.47	34.694
811.77	-10.526
812.08	-13.636
812.38	0.000
812.69	-10.000
812.99	-9.091
813.29	15.789
813.59	-14.286
813.90	11.364
814.20	-30.769
814.50	19.231
814.81	18.868
815.11	-17.021
815.41	25.424
815.72	0.000
816.02	29.412
816.32	14.583
816.62	0.000
816.93	27.027
817.23	-2.857
817.53	-6.250
817.84	-10.870
818.14	19.231
818.44	-13.158
818.74	34.783
819.04	-2.500
819.35	-8.108
819.65	8.824
819.95	0.000
820.25	7.143
820.56	30.000
820.86	-44.828
821.16	20.000
821.46	6.383
821.76	15.000
822.07	4.651
822.37	-10.811
822.67	-18.750
822.97	9.524
823.27	-32.143
823.57	-16.000
823.88	-25.926
824.18	14.286
824.48	17.647
824.78	6.452
825.08	-39.130
825.38	6.061
825.69	-25.000
825.99	7.895
826.29	13.889
826.59	-6.667
826.89	-57.143
827.19	17.391
827.49	2.500
827.79	45.714
828.09	17.857
828.39	24.242
828.70	43.243
829.00	-25.000
829.30	-14.286
829.60	50.000
829.90	-15.625
830.20	18.421
830.50	-33.333
830.80	-43.478
831.10	4.545
831.40	30.303
831.70	-3.226
832.00	14.286
832.30	-52.381
832.60	-50.000
832.90	27.586
833.20	-35.000
833.50	-15.152
833.80	-18.519
834.10	11.538
834.40	28.125
834.70	-111.111
835.00	42.105
835.30	46.154
835.60	-66.667
835.90	16.129
836.20	-18.182
836.50	3.571
836.80	-23.077
837.10	0.000
837.40	-166.667
837.70	-31.818
838.00	-100.000
838.30	-56.522
838.60	-84.615
838.90	13.636
839.19	17.857
839.49	16.667
839.79	-7.692
840.09	-91.667
840.39	10.714
840.69	-53.571
840.99	-69.231
841.29	-47.368
841.59	-50.000
841.88	-9.091
842.18	-60.000
842.48	-37.500
842.78	0.000
843.08	11.111
843.38	-130.000
843.68	-4.348
843.97	-6.667
844.27	40.000
844.57	-25.000
844.87	16.667
845.17	-23.810
845.47	73.333
845.76	-33.333
846.06	64.706
846.36	-70.000
846.66	-57.143
846.96	20.000
847.25	-37.500
847.55	14.286
847.85	-37.500
848.15	-22.727
848.44	-433.333
848.74	20.000
849.04	29.630
849.34	-27.273
849.63	-150.000
849.93	-120.000
850.23	-5.556
850.53	60.000
850.82	23.077
851.12	-33.333
851.42	33.333
851.71	-19.231
852.01	0.000
852.31	0.000
852.61	-9.091
852.90	-25.000
853.20	5.263
853.50	-58.333
853.79	4.348
854.09	25.000
854.39	21.053
854.68	20.833
854.98	16.129
855.28	26.923
855.57	-65.000
855.87	-11.111
856.17	11.111
856.46	-21.429
856.76	6.667
857.05	-77.778
857.35	-24.000
857.65	33.333
857.94	-92.308
858.24	10.345
858.53	11.111
858.83	-11.111
859.13	9.091
859.42	-8.696
859.72	125.000
860.01	-666.667
860.31	32.000
860.60	14.286
860.90	-233.333
861.20	-13.333
861.49	-750.000
861.79	-33.333
862.08	35.000
862.38	40.000
862.67	-140.000
862.97	33.333
863.26	-41.667
863.56	11.111
863.85	-433.333
864.15	16.667
864.44	20.000
864.74	28.571
865.03	150.000
865.33	-280.000
865.62	33.333
865.92	-25.000
866.21	-133.333
866.51	0.000
866.80	-45.455
867.10	50.000
867.39	-41.667
867.69	0.000
867.98	15.385
868.27	-200.000
868.57	-6.667
868.86	16.667
869.16	-38.462
869.45	20.000
869.75	-1200.000
870.04	0.000
870.33	42.857
870.63	-52.381
870.92	533.333
871.22	-140.000
871.51	-800.000
871.80	22.222
872.10	466.667
>>>>>End Processed Spectral Data<<<<<
