SpectraSuite Data File
++++++++++++++++++++++++++++++++++++
Date: Fri May 15 20:38:09 PDT 2015
User: schluterlab
Dark Spectrum Present: Yes
Reference Spectrum Present: Yes
Number of Sampled Component Spectra: 1
Spectrometers: USB2E3373
Integration Time (usec): 3000 (USB2E3373)
Spectra Averaged: 3 (USB2E3373)
Boxcar Smoothing: 0 (USB2E3373)
Correct for Electrical Dark: No (USB2E3373)
Strobe/Lamp Enabled: No (USB2E3373)
Correct for Detector Non-linearity: No (USB2E3373)
Correct for Stray Light: No (USB2E3373)
Number of Pixels in Processed Spectrum: 2048
>>>>>Begin Processed Spectral Data<<<<<
178.53	0.000
178.91	0.000
179.29	12.500
179.67	-600.000
180.04	14.286
180.42	50.000
180.80	-400.000
181.18	100.000
181.56	200.000
181.94	-100.000
182.31	400.000
182.69	-40.000
183.07	100.000
183.45	-160.000
183.83	116.667
184.20	-72.727
184.58	133.333
184.96	200.000
185.34	200.000
185.72	-300.000
186.09	115.385
186.47	-500.000
186.85	-16.667
187.23	188.889
187.61	-200.000
187.98	0.000
188.36	11.111
188.74	-66.667
189.12	5.882
189.49	-5.556
189.87	0.000
190.25	28.571
190.63	150.000
191.00	-266.667
191.38	5.263
191.76	-50.000
192.14	25.000
192.51	100.000
192.89	-88.889
193.27	-128.571
193.65	16.667
194.02	154.545
194.40	60.000
194.78	-225.000
195.15	-25.000
195.53	-62.500
195.91	100.000
196.29	-100.000
196.66	92.308
197.04	14.286
197.42	77.778
197.79	-133.333
198.17	-100.000
198.55	200.000
198.92	-233.333
199.30	-700.000
199.68	-160.000
200.05	-400.000
200.43	0.000
200.81	0.000
201.18	-266.667
201.56	500.000
201.94	-500.000
202.31	66.667
202.69	-180.000
203.07	-0.000
203.44	-500.000
203.82	0.000
204.19	50.000
204.57	-500.000
204.95	75.000
205.32	-10.000
205.70	71.429
206.08	-75.000
206.45	166.667
206.83	85.714
207.20	-157.143
207.58	-200.000
207.96	-100.000
208.33	-140.000
208.71	-75.000
209.08	-16.667
209.46	-500.000
209.84	20.000
210.21	-1700.000
210.59	-100.000
210.96	-50.000
211.34	-75.000
211.71	73.333
212.09	-114.286
212.46	-2100.000
212.84	0.000
213.22	30.000
213.59	700.000
213.97	-15.385
214.34	-36.364
214.72	-50.000
215.09	475.000
215.47	-7.692
215.84	45.455
216.22	-233.333
216.59	-37.500
216.97	-450.000
217.34	-50.000
217.72	-260.000
218.09	150.000
218.47	100.000
218.84	-1100.000
219.22	-44.444
219.59	-200.000
219.97	200.000
220.34	400.000
220.72	42.857
221.09	-225.000
221.47	-50.000
221.84	-850.000
222.22	-800.000
222.59	54.545
222.97	16.667
223.34	-233.333
223.72	-28.571
224.09	-9.524
224.46	14.286
224.84	266.667
225.21	-80.000
225.59	80.000
225.96	-350.000
226.34	375.000
226.71	-100.000
227.08	33.333
227.46	-150.000
227.83	-850.000
228.21	-88.889
228.58	-9.091
228.95	0.000
229.33	110.000
229.70	-18.750
230.08	25.000
230.45	128.571
230.82	28.571
231.20	-26.667
231.57	28.571
231.95	-14.286
232.32	-20.000
232.69	28.571
233.07	-266.667
233.44	60.000
233.81	-130.000
234.19	-100.000
234.56	-41.176
234.93	650.000
235.31	-175.000
235.68	-240.000
236.05	-123.077
236.43	-5.000
236.80	23.529
237.17	3.125
237.55	-15.000
237.92	-18.519
238.29	16.667
238.67	33.333
239.04	17.647
239.41	-26.829
239.79	-3.333
240.16	29.268
240.53	-5.263
240.91	0.000
241.28	26.984
241.65	14.286
242.02	17.808
242.40	21.667
242.77	10.169
243.14	6.061
243.51	5.000
243.89	10.345
244.26	2.299
244.63	5.952
245.00	7.216
245.38	14.433
245.75	8.989
246.12	-4.310
246.49	10.744
246.87	11.538
247.24	5.042
247.61	-2.632
247.98	8.943
248.36	13.750
248.73	15.132
249.10	7.143
249.47	8.861
249.84	9.150
250.22	7.647
250.59	14.379
250.96	22.066
251.33	4.651
251.70	10.588
252.08	10.660
252.45	8.416
252.82	8.040
253.19	11.060
253.56	6.542
253.94	9.459
254.31	13.043
254.68	14.035
255.05	13.780
255.42	13.100
255.79	11.583
256.16	12.451
256.54	11.567
256.91	9.886
257.28	12.268
257.65	10.487
258.02	7.447
258.39	16.498
258.76	13.553
259.14	12.957
259.51	14.563
259.88	8.591
260.25	9.804
260.62	12.847
260.99	7.119
261.36	8.562
261.73	13.291
262.10	13.374
262.47	10.123
262.85	10.031
263.22	14.154
263.59	11.838
263.96	13.043
264.33	14.545
264.70	8.631
265.07	9.226
265.44	16.147
265.81	13.559
266.18	13.661
266.55	13.368
266.92	12.435
267.29	11.488
267.66	8.440
268.03	12.827
268.40	10.966
268.77	14.171
269.14	11.990
269.51	14.910
269.88	10.474
270.25	9.949
270.62	11.220
270.99	8.951
271.36	10.513
271.73	10.563
272.10	11.192
272.47	12.766
272.84	9.901
273.21	12.065
273.58	13.735
273.95	11.442
274.32	10.855
274.69	12.217
275.06	10.045
275.43	11.791
275.80	9.492
276.17	9.655
276.54	10.278
276.91	13.377
277.28	11.572
277.65	10.331
278.02	10.851
278.39	11.597
278.76	11.740
279.13	8.091
279.50	14.076
279.87	11.879
280.23	10.968
280.60	12.281
280.97	13.333
281.34	9.808
281.71	12.526
282.08	11.043
282.45	11.350
282.82	12.548
283.19	10.058
283.56	10.212
283.92	8.349
284.29	10.962
284.66	12.016
285.03	10.413
285.40	10.397
285.77	10.193
286.14	12.094
286.51	12.915
286.87	10.603
287.24	9.392
287.61	9.347
287.98	11.930
288.35	10.399
288.72	11.559
289.08	10.590
289.45	11.072
289.82	11.364
290.19	8.362
290.56	8.062
290.93	9.259
291.29	10.478
291.66	11.654
292.03	10.048
292.40	10.161
292.77	9.410
293.13	8.442
293.50	9.408
293.87	9.160
294.24	8.346
294.60	10.432
294.97	7.589
295.34	9.049
295.71	8.942
296.08	9.118
296.44	6.828
296.81	8.611
297.18	8.261
297.55	10.569
297.91	8.767
298.28	9.499
298.65	7.870
299.02	8.895
299.38	6.840
299.75	7.448
300.12	9.031
300.48	6.983
300.85	7.985
301.22	7.792
301.59	7.763
301.95	8.101
302.32	8.431
302.69	8.085
303.05	8.292
303.42	8.717
303.79	8.762
304.15	9.080
304.52	6.778
304.89	6.199
305.25	8.354
305.62	7.001
305.99	7.836
306.35	8.439
306.72	7.537
307.09	8.438
307.45	8.611
307.82	8.102
308.19	8.130
308.55	8.070
308.92	7.952
309.29	6.927
309.65	7.320
310.02	7.371
310.38	7.903
310.75	7.322
311.12	8.611
311.48	8.165
311.85	8.796
312.22	7.278
312.58	7.856
312.95	7.471
313.31	7.557
313.68	7.644
314.05	7.857
314.41	7.938
314.78	9.175
315.14	8.941
315.51	8.696
315.87	8.504
316.24	10.718
316.61	9.547
316.97	9.226
317.34	9.473
317.70	10.038
318.07	10.577
318.43	9.216
318.80	10.038
319.16	11.133
319.53	11.776
319.89	11.024
320.26	10.830
320.62	12.437
320.99	10.960
321.35	10.894
321.72	12.461
322.08	11.380
322.45	12.690
322.81	12.868
323.18	12.169
323.54	12.259
323.91	13.535
324.27	13.770
324.64	13.764
325.00	15.237
325.37	15.794
325.73	14.143
326.10	15.077
326.46	16.413
326.83	16.448
327.19	15.519
327.56	16.421
327.92	16.989
328.29	17.321
328.65	16.509
329.01	16.544
329.38	17.880
329.74	16.619
330.11	17.238
330.47	17.718
330.84	17.596
331.20	19.582
331.56	17.593
331.93	18.813
332.29	18.607
332.66	18.914
333.02	17.751
333.38	18.973
333.75	18.590
334.11	18.711
334.48	18.948
334.84	19.139
335.20	19.671
335.57	16.682
335.93	18.970
336.29	19.429
336.66	18.347
337.02	18.309
337.38	19.352
337.75	18.636
338.11	19.567
338.47	18.613
338.84	19.501
339.20	19.378
339.56	20.275
339.93	21.218
340.29	20.734
340.65	19.624
341.02	20.213
341.38	19.912
341.74	18.905
342.11	18.804
342.47	19.929
342.83	19.983
343.20	19.774
343.56	20.783
343.92	20.018
344.28	20.837
344.65	20.121
345.01	19.879
345.37	20.185
345.73	22.594
346.10	21.484
346.46	20.521
346.82	19.640
347.19	19.285
347.55	20.551
347.91	21.117
348.27	20.129
348.63	20.613
349.00	19.442
349.36	19.867
349.72	20.730
350.08	20.656
350.45	20.351
350.81	21.013
351.17	20.521
351.53	20.653
351.89	19.983
352.26	21.760
352.62	20.645
352.98	21.124
353.34	19.807
353.70	20.793
354.07	20.484
354.43	20.657
354.79	20.892
355.15	21.111
355.51	21.044
355.87	20.793
356.24	20.962
356.60	20.776
356.96	22.143
357.32	21.406
357.68	20.328
358.04	21.729
358.40	20.338
358.77	21.611
359.13	20.737
359.49	21.263
359.85	21.529
360.21	20.893
360.57	21.270
360.93	21.558
361.29	20.242
361.66	22.806
362.02	22.727
362.38	22.391
362.74	22.483
363.10	22.649
363.46	21.572
363.82	22.539
364.18	22.731
364.54	22.132
364.90	22.366
365.26	22.125
365.62	23.066
365.98	22.361
366.35	23.525
366.71	22.469
367.07	22.714
367.43	23.077
367.79	23.180
368.15	23.044
368.51	22.651
368.87	22.972
369.23	22.744
369.59	23.178
369.95	23.607
370.31	23.410
370.67	22.612
371.03	23.749
371.39	23.122
371.75	22.711
372.11	23.395
372.47	24.038
372.83	24.273
373.19	23.181
373.55	23.971
373.91	24.694
374.27	23.104
374.63	23.618
374.99	23.972
375.35	24.652
375.71	25.105
376.07	24.789
376.42	23.673
376.78	24.966
377.14	24.983
377.50	25.033
377.86	25.167
378.22	24.505
378.58	24.744
378.94	24.449
379.30	24.828
379.66	25.517
380.02	25.690
380.38	24.833
380.74	26.212
381.09	24.969
381.45	25.566
381.81	26.095
382.17	26.967
382.53	26.858
382.89	26.114
383.25	27.007
383.61	27.012
383.97	27.238
384.32	26.579
384.68	27.554
385.04	26.225
385.40	26.882
385.76	28.742
386.12	28.266
386.48	27.139
386.83	27.838
387.19	26.740
387.55	27.604
387.91	28.178
388.27	27.473
388.62	28.068
388.98	28.361
389.34	28.482
389.70	28.838
390.06	28.571
390.42	28.951
390.77	29.104
391.13	27.995
391.49	28.525
391.85	28.980
392.20	29.190
392.56	29.688
392.92	29.066
393.28	29.245
393.64	29.249
393.99	31.160
394.35	30.803
394.71	29.949
395.07	30.233
395.42	30.298
395.78	30.814
396.14	30.706
396.50	31.072
396.85	31.165
397.21	31.642
397.57	32.163
397.92	31.456
398.28	32.241
398.64	31.627
399.00	32.280
399.35	30.813
399.71	31.476
400.07	33.495
400.42	32.130
400.78	33.435
401.14	31.760
401.49	32.996
401.85	32.663
402.21	33.253
402.57	33.250
402.92	32.873
403.28	34.712
403.63	34.489
403.99	33.673
404.35	34.416
404.70	33.690
405.06	33.255
405.42	32.256
405.77	34.457
406.13	34.400
406.49	34.044
406.84	34.963
407.20	35.701
407.55	33.033
407.91	36.029
408.27	34.863
408.62	36.185
408.98	35.182
409.34	35.254
409.69	35.336
410.05	36.022
410.40	35.556
410.76	36.671
411.11	35.562
411.47	36.358
411.83	35.719
412.18	37.259
412.54	35.830
412.89	35.530
413.25	37.786
413.60	37.019
413.96	36.442
414.31	36.829
414.67	37.203
415.03	37.150
415.38	36.815
415.74	37.199
416.09	37.622
416.45	38.420
416.80	36.814
417.16	39.157
417.51	38.974
417.87	38.396
418.22	38.925
418.58	40.870
418.93	39.875
419.29	38.092
419.64	40.441
420.00	41.247
420.35	39.164
420.71	40.036
421.06	39.963
421.42	40.385
421.77	40.578
422.12	40.409
422.48	39.578
422.83	40.661
423.19	41.591
423.54	40.858
423.90	40.459
424.25	41.332
424.61	41.432
424.96	40.941
425.31	42.692
425.67	41.549
426.02	43.110
426.38	42.768
426.73	43.462
427.09	42.848
427.44	42.235
427.79	43.724
428.15	43.689
428.50	42.944
428.85	42.076
429.21	42.558
429.56	43.450
429.92	42.681
430.27	42.707
430.62	42.708
430.98	42.887
431.33	43.375
431.68	43.537
432.04	44.438
432.39	43.468
432.74	43.957
433.10	45.287
433.45	43.369
433.80	44.573
434.16	43.823
434.51	44.731
434.86	45.819
435.22	44.363
435.57	44.729
435.92	44.611
436.28	45.438
436.63	44.780
436.98	45.365
437.34	44.223
437.69	46.452
438.04	45.641
438.39	44.472
438.75	47.055
439.10	46.350
439.45	46.561
439.81	46.361
440.16	46.971
440.51	46.209
440.86	47.915
441.22	46.041
441.57	45.861
441.92	48.006
442.27	47.506
442.63	47.537
442.98	47.846
443.33	46.633
443.68	47.374
444.03	47.491
444.39	47.073
444.74	49.108
445.09	48.385
445.44	48.205
445.79	47.860
446.15	47.797
446.50	46.478
446.85	49.256
447.20	49.114
447.55	49.051
447.91	48.787
448.26	48.378
448.61	48.187
448.96	49.799
449.31	48.902
449.66	49.361
450.02	48.945
450.37	49.378
450.72	49.485
451.07	49.557
451.42	47.253
451.77	48.704
452.12	48.266
452.47	48.809
452.83	48.822
453.18	49.083
453.53	49.558
453.88	50.273
454.23	49.478
454.58	51.637
454.93	49.936
455.28	48.889
455.63	50.527
455.98	51.293
456.34	50.192
456.69	50.889
457.04	50.221
457.39	50.668
457.74	50.000
458.09	49.029
458.44	49.561
458.79	49.860
459.14	50.858
459.49	50.627
459.84	49.803
460.19	50.061
460.54	50.428
460.89	51.534
461.24	50.248
461.59	49.822
461.94	50.252
462.29	51.206
462.64	50.233
462.99	51.253
463.34	50.695
463.69	50.837
464.04	50.484
464.39	51.910
464.74	50.675
465.09	50.780
465.44	50.548
465.79	50.340
466.14	50.969
466.49	50.316
466.84	51.398
467.19	51.752
467.54	50.511
467.89	51.674
468.24	51.582
468.59	52.952
468.94	50.159
469.29	52.525
469.64	50.991
469.99	54.170
470.34	52.150
470.68	53.318
471.03	52.654
471.38	53.424
471.73	53.221
472.08	52.103
472.43	51.611
472.78	52.365
473.13	53.605
473.48	52.834
473.83	51.494
474.17	53.044
474.52	52.521
474.87	53.273
475.22	53.142
475.57	52.343
475.92	52.496
476.27	53.783
476.61	53.530
476.96	52.370
477.31	53.380
477.66	51.966
478.01	53.341
478.36	51.906
478.70	53.725
479.05	53.791
479.40	53.630
479.75	51.981
480.10	53.763
480.45	53.650
480.79	53.676
481.14	54.508
481.49	52.069
481.84	53.620
482.19	52.245
482.53	53.813
482.88	53.031
483.23	52.351
483.58	51.840
483.92	52.517
484.27	52.963
484.62	51.591
484.97	51.534
485.31	50.506
485.66	49.060
486.01	48.654
486.36	48.222
486.70	48.649
487.05	50.078
487.40	50.543
487.75	51.268
488.09	50.494
488.44	51.891
488.79	52.148
489.13	52.604
489.48	53.100
489.83	52.108
490.17	53.034
490.52	54.088
490.87	53.031
491.22	54.585
491.56	53.273
491.91	53.059
492.26	54.205
492.60	53.311
492.95	54.993
493.30	53.395
493.64	55.206
493.99	53.720
494.34	52.573
494.68	53.000
495.03	54.599
495.37	54.661
495.72	55.124
496.07	55.122
496.41	54.151
496.76	53.708
497.11	53.796
497.45	54.272
497.80	54.188
498.14	54.496
498.49	54.647
498.84	54.641
499.18	55.271
499.53	54.911
499.87	55.204
500.22	53.610
500.56	55.825
500.91	54.769
501.26	54.276
501.60	54.599
501.95	54.925
502.29	54.915
502.64	54.585
502.98	56.438
503.33	53.987
503.67	55.518
504.02	55.963
504.36	54.775
504.71	54.646
505.06	54.253
505.40	55.939
505.75	56.186
506.09	54.688
506.44	56.571
506.78	55.663
507.13	55.998
507.47	56.188
507.82	56.357
508.16	55.468
508.51	57.083
508.85	57.771
509.19	57.052
509.54	57.319
509.88	57.012
510.23	57.612
510.57	57.616
510.92	56.237
511.26	57.174
511.61	58.636
511.95	58.904
512.30	57.428
512.64	58.264
512.98	58.675
513.33	59.653
513.67	59.125
514.02	59.554
514.36	59.829
514.70	60.140
515.05	61.046
515.39	60.626
515.74	61.078
516.08	60.550
516.42	60.836
516.77	60.503
517.11	61.009
517.46	61.341
517.80	59.774
518.14	61.788
518.49	60.517
518.83	60.146
519.17	60.643
519.52	60.391
519.86	59.484
520.20	62.880
520.55	61.789
520.89	63.425
521.23	61.495
521.58	61.514
521.92	62.564
522.26	63.110
522.61	62.857
522.95	64.834
523.29	63.914
523.64	63.278
523.98	64.290
524.32	63.080
524.66	64.277
525.01	64.935
525.35	64.550
525.69	64.579
526.04	64.484
526.38	66.407
526.72	64.683
527.06	63.619
527.41	64.710
527.75	63.807
528.09	64.718
528.43	67.117
528.78	65.215
529.12	64.000
529.46	64.912
529.80	63.838
530.15	63.564
530.49	66.263
530.83	67.579
531.17	65.749
531.51	66.758
531.86	64.922
532.20	66.388
532.54	65.283
532.88	68.104
533.22	65.726
533.57	65.269
533.91	65.927
534.25	65.234
534.59	64.721
534.93	62.681
535.27	64.594
535.62	66.170
535.96	65.753
536.30	65.963
536.64	65.886
536.98	64.878
537.32	68.421
537.66	67.672
538.01	67.343
538.35	66.436
538.69	66.045
539.03	64.730
539.37	66.420
539.71	66.530
540.05	65.445
540.39	67.036
540.73	65.969
541.07	65.953
541.42	65.390
541.76	66.552
542.10	67.034
542.44	66.296
542.78	65.588
543.12	66.277
543.46	66.551
543.80	68.078
544.14	64.820
544.48	65.556
544.82	65.003
545.16	66.530
545.50	65.821
545.84	67.139
546.18	66.312
546.52	67.195
546.86	67.002
547.20	66.953
547.54	66.219
547.88	66.372
548.22	63.051
548.56	64.182
548.90	65.768
549.24	65.978
549.58	65.303
549.92	65.833
550.26	65.348
550.60	68.327
550.94	67.289
551.28	68.856
551.62	68.462
551.96	68.421
552.30	67.617
552.64	65.585
552.98	65.893
553.32	66.548
553.66	65.094
554.00	68.540
554.34	68.538
554.68	66.224
555.02	68.155
555.36	67.539
555.69	67.912
556.03	65.239
556.37	66.406
556.71	67.220
557.05	68.233
557.39	65.279
557.73	68.441
558.07	69.457
558.41	68.989
558.75	66.641
559.08	68.164
559.42	69.048
559.76	69.896
560.10	67.813
560.44	67.982
560.78	67.273
561.12	66.079
561.45	66.620
561.79	67.227
562.13	66.714
562.47	66.475
562.81	65.922
563.15	66.714
563.48	64.922
563.82	66.712
564.16	66.643
564.50	65.000
564.84	65.730
565.17	64.655
565.51	67.350
565.85	66.324
566.19	65.782
566.52	66.220
566.86	65.231
567.20	64.944
567.54	64.599
567.88	65.495
568.21	64.253
568.55	62.935
568.89	63.501
569.23	62.253
569.56	60.201
569.90	60.130
570.24	58.243
570.57	58.364
570.91	58.836
571.25	56.955
571.59	57.116
571.92	56.207
572.26	56.220
572.60	55.473
572.93	56.479
573.27	56.395
573.61	56.116
573.95	55.571
574.28	55.985
574.62	54.564
574.96	54.500
575.29	54.745
575.63	53.045
575.97	53.944
576.30	54.568
576.64	54.278
576.98	54.955
577.31	54.067
577.65	54.106
577.98	53.635
578.32	52.868
578.66	52.160
578.99	53.276
579.33	53.335
579.67	53.444
580.00	53.899
580.34	53.881
580.67	53.586
581.01	53.794
581.35	52.606
581.68	52.785
582.02	52.487
582.35	52.442
582.69	52.454
583.02	53.130
583.36	53.608
583.70	54.335
584.03	55.741
584.37	54.545
584.70	54.313
585.04	53.083
585.37	53.317
585.71	53.049
586.04	52.849
586.38	53.454
586.72	55.323
587.05	54.131
587.39	54.263
587.72	55.358
588.06	54.470
588.39	54.571
588.73	54.548
589.06	55.512
589.40	56.447
589.73	56.627
590.07	56.760
590.40	57.276
590.73	57.825
591.07	57.167
591.40	57.524
591.74	58.054
592.07	58.813
592.41	57.509
592.74	56.392
593.08	54.558
593.41	54.432
593.75	54.629
594.08	53.553
594.41	55.968
594.75	55.916
595.08	55.808
595.42	55.944
595.75	56.741
596.09	56.489
596.42	57.090
596.75	56.927
597.09	57.084
597.42	57.949
597.75	58.039
598.09	56.994
598.42	55.596
598.76	56.027
599.09	55.970
599.42	54.490
599.76	54.251
600.09	54.412
600.42	54.094
600.76	53.975
601.09	54.466
601.42	55.112
601.76	55.776
602.09	55.652
602.42	56.318
602.76	57.088
603.09	56.437
603.42	56.940
603.76	55.645
604.09	54.678
604.42	55.795
604.76	56.119
605.09	56.216
605.42	56.117
605.75	55.998
606.09	55.881
606.42	53.878
606.75	56.061
607.09	55.736
607.42	55.250
607.75	55.506
608.08	55.301
608.42	54.363
608.75	57.301
609.08	56.951
609.41	57.360
609.75	57.107
610.08	56.865
610.41	54.928
610.74	56.558
611.07	56.641
611.41	57.291
611.74	57.623
612.07	56.049
612.40	57.932
612.73	58.475
613.07	58.211
613.40	57.823
613.73	57.023
614.06	56.650
614.39	58.037
614.72	57.255
615.06	56.927
615.39	56.223
615.72	55.274
616.05	56.816
616.38	56.410
616.71	58.349
617.05	59.358
617.38	59.082
617.71	58.994
618.04	58.476
618.37	58.575
618.70	59.010
619.03	59.931
619.36	60.420
619.69	61.410
620.03	60.409
620.36	59.156
620.69	59.529
621.02	59.862
621.35	63.734
621.68	63.605
622.01	62.500
622.34	61.373
622.67	61.120
623.00	61.639
623.33	61.128
623.66	59.312
623.99	59.304
624.32	61.065
624.65	61.654
624.99	60.873
625.32	58.453
625.65	61.744
625.98	61.402
626.31	61.264
626.64	62.825
626.97	64.223
627.30	61.996
627.63	61.438
627.96	63.792
628.29	62.812
628.62	65.290
628.95	65.130
629.28	65.222
629.61	64.506
629.94	64.809
630.26	62.253
630.59	66.805
630.92	66.872
631.25	63.282
631.58	66.079
631.91	66.009
632.24	66.628
632.57	69.545
632.90	69.870
633.23	66.706
633.56	69.270
633.89	67.818
634.22	68.889
634.55	69.377
634.88	69.093
635.20	66.795
635.53	69.600
635.86	69.311
636.19	68.047
636.52	70.663
636.85	67.122
637.18	67.296
637.51	68.428
637.83	67.806
638.16	69.031
638.49	66.621
638.82	69.342
639.15	67.843
639.48	69.188
639.81	70.572
640.13	72.872
640.46	69.825
640.79	72.018
641.12	70.162
641.45	67.267
641.77	68.889
642.10	71.090
642.43	71.222
642.76	72.277
643.09	71.244
643.41	68.770
643.74	71.170
644.07	71.593
644.40	73.818
644.73	76.182
645.05	72.483
645.38	71.958
645.71	68.794
646.04	75.224
646.36	74.823
646.69	74.820
647.02	74.480
647.35	75.560
647.67	74.223
648.00	76.306
648.33	69.625
648.66	67.797
648.98	66.164
649.31	71.901
649.64	67.818
649.96	64.019
650.29	69.336
650.62	70.769
650.94	71.111
651.27	68.901
651.60	73.153
651.92	69.056
652.25	70.515
652.58	67.333
652.90	70.497
653.23	67.563
653.56	62.606
653.88	68.557
654.21	66.725
654.54	65.705
654.86	71.647
655.19	63.596
655.52	56.811
655.84	44.865
656.17	48.071
656.49	64.640
656.82	66.942
657.15	52.066
657.47	39.511
657.80	29.414
658.13	29.552
658.45	46.389
658.78	46.842
659.10	47.110
659.43	48.463
659.75	50.765
660.08	52.621
660.41	58.018
660.73	62.293
661.06	68.284
661.38	66.536
661.71	67.146
662.03	71.674
662.36	70.769
662.68	68.805
663.01	73.144
663.33	69.606
663.66	73.023
663.98	71.163
664.31	72.068
664.63	69.585
664.96	69.565
665.28	67.770
665.61	70.130
665.93	70.217
666.26	68.113
666.58	70.246
666.91	73.176
667.23	72.877
667.56	74.171
667.88	72.182
668.21	72.315
668.53	74.941
668.86	71.698
669.18	70.047
669.50	68.281
669.83	69.302
670.15	71.795
670.48	72.010
670.80	72.581
671.13	63.982
671.45	64.840
671.77	69.742
672.10	62.574
672.42	64.232
672.75	62.877
673.07	64.043
673.39	64.220
673.72	63.511
674.04	65.625
674.37	67.161
674.69	63.812
675.01	66.000
675.34	68.468
675.66	69.676
675.98	67.627
676.31	72.477
676.63	67.696
676.95	65.682
677.28	69.176
677.60	71.566
677.92	69.266
678.25	64.770
678.57	64.935
678.89	64.496
679.22	69.575
679.54	64.458
679.86	61.829
680.18	61.942
680.51	59.470
680.83	62.028
681.15	62.600
681.48	63.320
681.80	63.430
682.12	61.694
682.44	63.180
682.77	65.563
683.09	65.446
683.41	64.318
683.73	64.747
684.06	63.938
684.38	61.505
684.70	66.013
685.02	58.714
685.34	61.067
685.67	60.976
685.99	60.579
686.31	57.876
686.63	58.813
686.96	55.133
687.28	58.788
687.60	57.985
687.92	62.828
688.24	59.879
688.56	64.192
688.89	62.054
689.21	62.000
689.53	64.733
689.85	62.558
690.17	61.607
690.49	62.175
690.82	62.136
691.14	61.429
691.46	64.486
691.78	63.739
692.10	62.796
692.42	58.874
692.74	57.479
693.06	61.036
693.39	59.276
693.71	56.787
694.03	58.430
694.35	64.953
694.67	64.394
694.99	60.574
695.31	62.402
695.63	63.000
695.95	62.374
696.27	61.140
696.59	62.222
696.91	66.667
697.23	62.468
697.56	61.386
697.88	58.065
698.20	60.820
698.52	59.294
698.84	54.306
699.16	58.250
699.48	60.652
699.80	58.313
700.12	60.916
700.44	63.025
700.76	61.628
701.08	64.242
701.40	62.349
701.72	67.901
702.04	66.007
702.36	66.890
702.68	58.559
703.00	66.364
703.32	65.103
703.64	61.582
703.96	61.449
704.28	60.123
704.60	64.762
704.91	58.044
705.23	62.458
705.55	65.724
705.87	67.509
706.19	66.667
706.51	62.543
706.83	62.058
707.15	58.879
707.47	59.664
707.79	53.385
708.11	54.250
708.43	60.000
708.74	57.106
709.06	62.254
709.38	63.914
709.70	58.284
710.02	64.013
710.34	64.396
710.66	56.090
710.98	60.265
711.29	64.262
711.61	63.729
711.93	61.238
712.25	63.918
712.57	65.934
712.89	58.955
713.20	64.360
713.52	58.537
713.84	62.799
714.16	56.357
714.48	57.097
714.80	62.500
715.11	59.271
715.43	56.113
715.75	58.000
716.07	59.136
716.39	56.040
716.70	62.731
717.02	62.595
717.34	61.943
717.66	64.602
717.97	63.043
718.29	61.506
718.61	60.236
718.93	61.240
719.24	62.357
719.56	60.241
719.88	54.983
720.20	56.818
720.51	56.705
720.83	54.440
721.15	57.983
721.46	64.919
721.78	58.893
722.10	53.160
722.42	58.921
722.73	60.408
723.05	61.224
723.37	63.136
723.68	60.811
724.00	59.829
724.32	53.333
724.63	59.091
724.95	63.755
725.27	65.438
725.58	63.136
725.90	48.413
726.22	55.212
726.53	54.915
726.85	56.180
727.16	55.472
727.48	55.466
727.80	53.846
728.11	56.356
728.43	54.510
728.74	60.887
729.06	58.000
729.38	60.150
729.69	62.151
730.01	50.769
730.32	57.463
730.64	53.357
730.96	53.962
731.27	48.667
731.59	51.864
731.90	49.045
732.22	52.997
732.53	49.502
732.85	52.837
733.16	53.199
733.48	50.000
733.80	53.986
734.11	53.220
734.43	50.859
734.74	50.303
735.06	47.231
735.37	48.943
735.69	52.189
736.00	51.568
736.32	47.987
736.63	51.056
736.95	51.877
737.26	50.178
737.58	49.329
737.89	51.282
738.21	52.632
738.52	53.909
738.83	55.459
739.15	45.852
739.46	53.937
739.78	49.817
740.09	47.059
740.41	47.826
740.72	50.394
741.04	53.441
741.35	51.915
741.66	51.185
741.98	60.204
742.29	53.465
742.61	60.209
742.92	48.815
743.23	48.611
743.55	51.131
743.86	55.981
744.18	53.589
744.49	51.064
744.80	54.348
745.12	59.358
745.43	50.244
745.74	50.521
746.06	54.634
746.37	60.733
746.68	58.768
747.00	53.723
747.31	54.229
747.62	53.398
747.94	54.067
748.25	50.495
748.56	58.470
748.88	57.592
749.19	63.298
749.50	58.621
749.82	54.245
750.13	56.422
750.44	50.000
750.75	54.104
751.07	53.650
751.38	50.575
751.69	50.588
752.01	51.550
752.32	51.793
752.63	48.617
752.94	50.862
753.26	52.301
753.57	52.036
753.88	50.000
754.19	49.583
754.51	47.934
754.82	55.061
755.13	55.417
755.44	45.565
755.75	53.516
756.07	44.747
756.38	44.906
756.69	42.912
757.00	44.333
757.31	47.712
757.63	44.512
757.94	42.500
758.25	43.288
758.56	45.213
758.87	41.360
759.18	41.121
759.50	44.364
759.81	48.495
760.12	43.548
760.43	45.455
760.74	43.827
761.05	42.154
761.36	43.750
761.67	44.242
761.99	48.639
762.30	41.455
762.61	49.407
762.92	50.226
763.23	52.703
763.54	49.533
763.85	45.763
764.16	46.058
764.47	41.935
764.78	42.125
765.10	47.475
765.41	44.479
765.72	43.175
766.03	39.850
766.34	45.255
766.65	49.402
766.96	50.505
767.27	49.468
767.58	44.253
767.89	48.227
768.20	46.023
768.51	46.703
768.82	51.232
769.13	40.553
769.44	47.639
769.75	37.900
770.06	46.552
770.37	45.192
770.68	49.746
770.99	42.534
771.30	51.961
771.61	42.986
771.92	45.690
772.23	45.813
772.54	46.774
772.85	47.531
773.16	51.685
773.47	56.209
773.78	56.209
774.09	46.707
774.39	49.333
774.70	50.955
775.01	52.414
775.32	44.286
775.63	42.149
775.94	48.092
776.25	57.480
776.56	48.333
776.87	56.731
777.18	50.427
777.48	51.724
777.79	56.522
778.10	43.810
778.41	51.351
778.72	49.206
779.03	49.624
779.34	54.610
779.65	43.151
779.95	48.630
780.26	41.379
780.57	48.780
780.88	42.520
781.19	48.276
781.50	44.186
781.80	40.237
782.11	45.912
782.42	48.462
782.73	48.921
783.04	41.481
783.34	40.972
783.65	31.624
783.96	40.984
784.27	49.655
784.57	46.341
784.88	53.125
785.19	60.000
785.50	66.000
785.81	48.276
786.11	43.966
786.42	49.515
786.73	41.818
787.04	43.878
787.34	45.536
787.65	48.571
787.96	40.708
788.26	45.455
788.57	41.026
788.88	43.750
789.19	40.476
789.49	49.565
789.80	41.837
790.11	47.475
790.41	45.455
790.72	51.087
791.03	37.500
791.33	65.000
791.64	48.750
791.95	52.326
792.25	48.936
792.56	56.180
792.87	60.274
793.17	42.029
793.48	36.000
793.79	37.500
794.09	61.250
794.40	37.736
794.70	44.660
795.01	39.837
795.32	36.752
795.62	44.762
795.93	42.157
796.23	44.340
796.54	41.667
796.85	50.000
797.15	50.704
797.46	47.222
797.76	63.636
798.07	43.023
798.37	34.211
798.68	36.364
798.99	39.506
799.29	37.143
799.60	43.478
799.90	54.667
800.21	42.623
800.51	47.692
800.82	50.847
801.12	47.826
801.43	47.541
801.73	58.730
802.04	70.000
802.34	58.209
802.65	48.077
802.95	42.857
803.26	36.538
803.56	52.941
803.87	36.957
804.17	42.667
804.48	42.857
804.78	55.556
805.09	26.087
805.39	48.889
805.70	40.741
806.00	14.035
806.30	36.620
806.61	37.143
806.91	37.500
807.22	46.053
807.52	52.000
807.83	21.818
808.13	40.278
808.43	48.529
808.74	25.373
809.04	35.593
809.35	19.231
809.65	40.625
809.95	16.216
810.26	38.636
810.56	54.795
810.86	69.048
811.17	38.000
811.47	38.776
811.77	18.421
812.08	65.909
812.38	45.283
812.69	12.500
812.99	36.364
813.29	60.526
813.59	28.571
813.90	29.545
814.20	5.128
814.50	21.154
814.81	45.283
815.11	29.787
815.41	42.373
815.72	54.762
816.02	49.020
816.32	39.583
816.62	39.024
816.93	62.162
817.23	42.857
817.53	52.083
817.84	10.870
818.14	26.923
818.44	44.737
818.74	54.348
819.04	17.500
819.35	54.054
819.65	32.353
819.95	30.556
820.25	19.048
820.56	70.000
820.86	27.586
821.16	60.000
821.46	44.681
821.76	50.000
822.07	39.535
822.37	13.514
822.67	15.625
822.97	40.476
823.27	46.429
823.57	52.000
823.88	18.519
824.18	46.429
824.48	50.000
824.78	38.710
825.08	34.783
825.38	24.242
825.69	50.000
825.99	52.632
826.29	41.667
826.59	80.000
826.89	4.762
827.19	32.609
827.49	45.000
827.79	42.857
828.09	50.000
828.39	45.455
828.70	56.757
829.00	28.571
829.30	-19.048
829.60	66.667
829.90	37.500
830.20	50.000
830.50	25.926
830.80	13.043
831.10	4.545
831.40	51.515
831.70	64.516
832.00	61.905
832.30	-28.571
832.60	33.333
832.90	62.069
833.20	-65.000
833.50	36.364
833.80	59.259
834.10	73.077
834.40	62.500
834.70	66.667
835.00	73.684
835.30	96.154
835.60	66.667
835.90	54.839
836.20	22.727
836.50	32.143
836.80	0.000
837.10	39.286
837.40	366.667
837.70	72.727
838.00	72.727
838.30	47.826
838.60	-53.846
838.90	63.636
839.19	67.857
839.49	33.333
839.79	61.538
840.09	33.333
840.39	71.429
840.69	35.714
840.99	3.846
841.29	15.789
841.59	-10.000
841.88	72.727
842.18	10.000
842.48	75.000
842.78	26.667
843.08	14.815
843.38	-100.000
843.68	43.478
843.97	66.667
844.27	40.000
844.57	35.000
844.87	72.222
845.17	4.762
845.47	113.333
845.76	42.857
846.06	41.176
846.36	70.000
846.66	-35.714
846.96	33.333
847.25	-112.500
847.55	57.143
847.85	75.000
848.15	-22.727
848.44	-400.000
848.74	15.000
849.04	18.519
849.34	109.091
849.63	-116.667
849.93	-40.000
850.23	-11.111
850.53	90.000
850.82	-30.769
851.12	-33.333
851.42	26.667
851.71	38.462
852.01	100.000
852.31	-75.000
852.61	36.364
852.90	5.000
853.20	63.158
853.50	8.333
853.79	0.000
854.09	62.500
854.39	31.579
854.68	54.167
854.98	35.484
855.28	46.154
855.57	35.000
855.87	116.667
856.17	55.556
856.46	-7.143
856.76	0.000
857.05	77.778
857.35	68.000
857.65	83.333
857.94	-69.231
858.24	58.621
858.53	44.444
858.83	25.926
859.13	0.000
859.42	8.696
859.72	-225.000
860.01	-433.333
860.31	36.000
860.60	47.619
860.90	-100.000
861.20	0.000
861.49	-500.000
861.79	46.667
862.08	0.000
862.38	126.667
862.67	-160.000
862.97	66.667
863.26	33.333
863.56	72.222
863.85	-200.000
864.15	105.556
864.44	-80.000
864.74	100.000
865.03	75.000
865.33	-120.000
865.62	-33.333
865.92	33.333
866.21	-183.333
866.51	12.500
866.80	-18.182
867.10	-450.000
867.39	125.000
867.69	0.000
867.98	7.692
868.27	-566.667
868.57	0.000
868.86	27.778
869.16	-15.385
869.45	113.333
869.75	-800.000
870.04	0.000
870.33	-42.857
870.63	38.095
870.92	166.667
871.22	40.000
871.51	700.000
871.80	133.333
872.10	66.667
>>>>>End Processed Spectral Data<<<<<
