SpectraSuite Data File
++++++++++++++++++++++++++++++++++++
Date: Fri May 15 20:45:34 PDT 2015
User: schluterlab
Dark Spectrum Present: Yes
Reference Spectrum Present: Yes
Number of Sampled Component Spectra: 1
Spectrometers: USB2E3373
Integration Time (usec): 3000 (USB2E3373)
Spectra Averaged: 3 (USB2E3373)
Boxcar Smoothing: 0 (USB2E3373)
Correct for Electrical Dark: No (USB2E3373)
Strobe/Lamp Enabled: No (USB2E3373)
Correct for Detector Non-linearity: No (USB2E3373)
Correct for Stray Light: No (USB2E3373)
Number of Pixels in Processed Spectrum: 2048
>>>>>Begin Processed Spectral Data<<<<<
178.53	0.000
178.91	0.000
179.29	-12.500
179.67	-300.000
180.04	57.143
180.42	100.000
180.80	-400.000
181.18	-100.000
181.56	700.000
181.94	50.000
182.31	500.000
182.69	-240.000
183.07	-266.667
183.45	-140.000
183.83	100.000
184.20	36.364
184.58	144.444
184.96	-125.000
185.34	366.667
185.72	-750.000
186.09	30.769
186.47	-900.000
186.85	83.333
187.23	133.333
187.61	-100.000
187.98	-433.333
188.36	77.778
188.74	-166.667
189.12	52.941
189.49	-11.111
189.87	0.000
190.25	64.286
190.63	0.000
191.00	-266.667
191.38	-5.263
191.76	0.000
192.14	250.000
192.51	250.000
192.89	0.000
193.27	-85.714
193.65	16.667
194.02	136.364
194.40	-50.000
194.78	-225.000
195.15	-33.333
195.53	-50.000
195.91	325.000
196.29	25.000
196.66	69.231
197.04	200.000
197.42	-22.222
197.79	-233.333
198.17	-92.308
198.55	1200.000
198.92	-233.333
199.30	-200.000
199.68	-200.000
200.05	-466.667
200.43	0.000
200.81	-366.667
201.18	-166.667
201.56	400.000
201.94	-400.000
202.31	-133.333
202.69	-260.000
203.07	-25.000
203.44	0.000
203.82	0.000
204.19	-14.286
204.57	-366.667
204.95	125.000
205.32	-30.000
205.70	0.000
206.08	-200.000
206.45	211.111
206.83	57.143
207.20	-85.714
207.58	1100.000
207.96	-133.333
208.33	-110.000
208.71	-25.000
209.08	-133.333
209.46	-400.000
209.84	-140.000
210.21	-1600.000
210.59	-128.571
210.96	50.000
211.34	25.000
211.71	0.000
212.09	-200.000
212.46	-2700.000
212.84	0.000
213.22	80.000
213.59	550.000
213.97	23.077
214.34	-54.545
214.72	0.000
215.09	600.000
215.47	15.385
215.84	9.091
216.22	-366.667
216.59	-212.500
216.97	400.000
217.34	-225.000
217.72	-200.000
218.09	0.000
218.47	200.000
218.84	-400.000
219.22	-166.667
219.59	-200.000
219.97	300.000
220.34	125.000
220.72	0.000
221.09	-275.000
221.47	-300.000
221.84	-850.000
222.22	-300.000
222.59	9.091
222.97	41.667
223.34	-233.333
223.72	-64.286
224.09	-28.571
224.46	14.286
224.84	400.000
225.21	-30.000
225.59	0.000
225.96	50.000
226.34	450.000
226.71	-142.857
227.08	-100.000
227.46	-37.500
227.83	-750.000
228.21	-33.333
228.58	0.000
228.95	-75.000
229.33	190.000
229.70	-25.000
230.08	25.000
230.45	-200.000
230.82	14.286
231.20	-60.000
231.57	35.714
231.95	0.000
232.32	-80.000
232.69	21.429
233.07	-266.667
233.44	-220.000
233.81	-170.000
234.19	-55.556
234.56	-17.647
234.93	550.000
235.31	-175.000
235.68	-240.000
236.05	-61.538
236.43	-35.000
236.80	23.529
237.17	-25.000
237.55	-35.000
237.92	-3.704
238.29	-16.667
238.67	3.333
239.04	-8.824
239.41	-7.317
239.79	-16.667
240.16	4.878
240.53	-15.789
240.91	2.174
241.28	9.524
241.65	5.357
242.02	2.740
242.40	-5.000
242.77	13.559
243.14	-4.545
243.51	8.750
243.89	13.793
244.26	3.448
244.63	-4.762
245.00	1.031
245.38	3.093
245.75	-13.483
246.12	1.724
246.49	7.438
246.87	3.846
247.24	3.361
247.61	-9.649
247.98	4.065
248.36	-3.750
248.73	3.289
249.10	-2.597
249.47	3.165
249.84	2.614
250.22	4.118
250.59	2.614
250.96	7.042
251.33	2.326
251.70	5.882
252.08	2.538
252.45	7.426
252.82	1.508
253.19	7.373
253.56	-0.467
253.94	7.207
254.31	4.348
254.68	5.263
255.05	5.906
255.42	5.240
255.79	5.405
256.16	4.280
256.54	8.582
256.91	3.802
257.28	2.602
257.65	5.243
258.02	0.709
258.39	2.694
258.76	8.425
259.14	4.319
259.51	2.913
259.88	2.405
260.25	7.190
260.62	8.333
260.99	2.373
261.36	2.397
261.73	7.278
262.10	5.775
262.47	3.067
262.85	1.881
263.22	0.308
263.59	5.919
263.96	6.211
264.33	5.758
264.70	3.571
265.07	4.464
265.44	7.649
265.81	4.802
266.18	4.372
266.55	5.913
266.92	4.145
267.29	4.961
267.66	4.604
268.03	5.236
268.40	3.655
268.77	4.545
269.14	5.755
269.51	5.913
269.88	6.733
270.25	5.612
270.62	5.366
270.99	1.535
271.36	2.934
271.73	3.286
272.10	4.623
272.47	8.274
272.84	5.941
273.21	3.016
273.58	5.301
273.95	3.661
274.32	3.002
274.69	3.394
275.06	5.134
275.43	3.628
275.80	3.974
276.17	2.299
276.54	7.066
276.91	3.509
277.28	3.930
277.65	5.785
278.02	4.255
278.39	4.158
278.76	3.145
279.13	0.415
279.50	2.521
279.87	4.536
280.23	3.656
280.60	4.678
280.97	5.657
281.34	3.654
281.71	5.955
282.08	1.431
282.45	3.327
282.82	2.317
283.19	6.576
283.56	5.395
283.92	2.087
284.29	1.538
284.66	3.488
285.03	5.894
285.40	2.647
285.77	4.569
286.14	2.708
286.51	3.875
286.87	3.108
287.24	2.947
287.61	4.056
287.98	5.263
288.35	4.159
288.72	4.904
289.08	3.993
289.45	6.327
289.82	2.797
290.19	4.266
290.56	1.544
290.93	2.525
291.29	2.157
291.66	6.299
292.03	3.190
292.40	3.710
292.77	3.349
293.13	2.760
293.50	4.249
293.87	4.733
294.24	5.564
294.60	4.918
294.97	3.869
295.34	2.607
295.71	4.769
296.08	3.288
296.44	2.276
296.81	3.750
297.18	2.609
297.55	4.065
297.91	3.562
298.28	3.430
298.65	3.935
299.02	2.426
299.38	2.736
299.75	3.310
300.12	3.272
300.48	2.240
300.85	4.563
301.22	4.026
301.59	1.842
301.95	3.418
302.32	4.929
302.69	3.109
303.05	2.351
303.42	3.611
303.79	4.089
304.15	3.465
304.52	2.378
304.89	3.275
305.25	3.148
305.62	3.734
305.99	2.573
306.35	3.237
306.72	3.150
307.09	3.991
307.45	3.100
307.82	2.894
308.19	4.181
308.55	2.726
308.92	4.139
309.29	2.682
309.65	3.875
310.02	2.420
310.38	4.391
310.75	3.825
311.12	2.583
311.48	4.772
311.85	3.141
312.22	3.270
312.58	3.185
312.95	3.735
313.31	3.209
313.68	3.665
314.05	4.694
314.41	4.536
314.78	4.124
315.14	5.344
315.51	4.762
315.87	4.406
316.24	7.280
316.61	6.398
316.97	6.052
317.34	6.055
317.70	5.449
318.07	4.808
318.43	5.392
318.80	6.629
319.16	7.031
319.53	8.072
319.89	6.594
320.26	6.984
320.62	8.024
320.99	7.516
321.35	8.633
321.72	8.827
322.08	9.869
322.45	9.543
322.81	10.806
323.18	10.500
323.54	11.100
323.91	11.685
324.27	11.816
324.64	11.985
325.00	12.226
325.37	15.427
325.73	14.143
326.10	14.805
326.46	15.247
326.83	15.836
327.19	15.432
327.56	15.986
327.92	18.046
328.29	16.518
328.65	18.302
329.01	18.474
329.38	19.078
329.74	17.564
330.11	19.184
330.47	19.202
330.84	19.327
331.20	22.433
331.56	20.741
331.93	22.192
332.29	21.448
332.66	20.543
333.02	21.283
333.38	20.990
333.75	21.612
334.11	20.591
334.48	23.844
334.84	22.711
335.20	22.781
335.57	21.487
335.93	22.764
336.29	23.112
336.66	23.978
337.02	23.327
337.38	21.944
337.75	22.818
338.11	23.535
338.47	24.270
338.84	24.677
339.20	23.126
339.56	23.486
339.93	24.261
340.29	23.486
340.65	24.104
341.02	23.670
341.38	23.274
341.74	23.057
342.11	22.097
342.47	24.021
342.83	25.519
343.20	23.780
343.56	24.348
343.92	24.358
344.28	23.740
344.65	22.884
345.01	22.385
345.37	23.633
345.73	23.431
346.10	23.900
346.46	23.802
346.82	23.650
347.19	22.527
347.55	23.810
347.91	24.919
348.27	22.393
348.63	23.765
349.00	23.462
349.36	22.527
349.72	24.295
350.08	23.934
350.45	23.384
350.81	22.508
351.17	22.883
351.53	23.918
351.89	22.543
352.26	24.160
352.62	23.790
352.98	23.454
353.34	23.349
353.70	24.353
354.07	23.710
354.43	23.939
354.79	23.865
355.15	23.651
355.51	24.130
355.87	24.434
356.24	22.431
356.60	24.818
356.96	24.683
357.32	23.482
357.68	24.003
358.04	25.525
358.40	23.714
358.77	24.801
359.13	22.338
359.49	24.268
359.85	24.181
360.21	23.923
360.57	23.718
360.93	23.828
361.29	23.716
361.66	23.668
362.02	22.803
362.38	23.382
362.74	24.375
363.10	24.831
363.46	24.388
363.82	25.995
364.18	24.649
364.54	23.750
364.90	24.229
365.26	23.217
365.62	25.547
365.98	24.853
366.35	25.710
366.71	25.277
367.07	25.835
367.43	24.659
367.79	25.583
368.15	26.274
368.51	25.273
368.87	24.551
369.23	24.043
369.59	25.219
369.95	26.026
370.31	26.517
370.67	25.896
371.03	25.541
371.39	25.529
371.75	25.641
372.11	26.177
372.47	26.109
372.83	25.905
373.19	26.248
373.55	25.560
373.91	26.134
374.27	26.577
374.63	26.992
374.99	26.596
375.35	26.393
375.71	27.343
376.07	26.404
376.42	27.551
376.78	27.315
377.14	27.150
377.50	27.490
377.86	27.644
378.22	27.951
378.58	27.372
378.94	26.087
379.30	27.573
379.66	28.715
380.02	27.652
380.38	27.389
380.74	27.169
381.09	28.405
381.45	27.706
381.81	28.316
382.17	28.109
382.53	28.107
382.89	28.311
383.25	28.998
383.61	28.841
383.97	28.952
384.32	27.955
384.68	28.483
385.04	29.289
385.40	29.185
385.76	30.189
386.12	29.431
386.48	29.438
386.83	29.360
387.19	29.060
387.55	30.364
387.91	29.951
388.27	29.487
388.62	30.396
388.98	29.896
389.34	29.294
389.70	30.827
390.06	28.446
390.42	29.210
390.77	29.235
391.13	29.067
391.49	29.560
391.85	30.929
392.20	30.320
392.56	29.625
392.92	29.947
393.28	30.071
393.64	30.030
393.99	30.972
394.35	29.665
394.71	29.949
395.07	29.793
395.42	30.905
395.78	29.772
396.14	30.895
396.50	29.613
396.85	30.844
397.21	30.639
397.57	31.285
397.92	30.557
398.28	29.253
398.64	28.795
399.00	31.151
399.35	29.910
399.71	31.017
400.07	30.713
400.42	29.621
400.78	30.435
401.14	31.397
401.49	29.482
401.85	30.408
402.21	30.723
402.57	30.687
402.92	29.799
403.28	29.950
403.63	31.084
403.99	30.166
404.35	30.294
404.70	29.881
405.06	30.082
405.42	29.956
405.77	29.634
406.13	29.627
406.49	29.544
406.84	30.318
407.20	30.945
407.55	29.298
407.91	30.013
408.27	30.210
408.62	30.277
408.98	30.561
409.34	30.421
409.69	29.393
410.05	29.865
410.40	30.062
410.76	30.639
411.11	30.188
411.47	29.849
411.83	29.253
412.18	29.215
412.54	29.588
412.89	29.680
413.25	29.844
413.60	30.000
413.96	28.773
414.31	29.512
414.67	29.570
415.03	30.360
415.38	29.439
415.74	30.423
416.09	30.568
416.45	29.980
416.80	29.610
417.16	28.798
417.51	31.046
417.87	30.769
418.22	31.153
418.58	30.502
418.93	31.661
419.29	29.513
419.64	29.942
420.00	30.542
420.35	30.746
420.71	30.741
421.06	30.510
421.42	30.950
421.77	30.578
422.12	31.044
422.48	30.807
422.83	30.626
423.19	30.305
423.54	31.511
423.90	30.860
424.25	31.401
424.61	31.028
424.96	30.546
425.31	31.254
425.67	30.340
426.02	32.214
426.38	32.749
426.73	31.295
427.09	32.595
427.44	31.412
427.79	31.762
428.15	31.735
428.50	32.283
428.85	30.405
429.21	32.032
429.56	31.752
429.92	32.203
430.27	31.328
430.62	31.312
430.98	31.529
431.33	32.650
431.68	31.450
432.04	32.085
432.39	31.945
432.74	31.449
433.10	32.816
433.45	33.214
433.80	32.153
434.16	31.579
434.51	32.204
434.86	32.462
435.22	32.361
435.57	32.190
435.92	32.335
436.28	32.379
436.63	32.402
436.98	31.634
437.34	33.091
437.69	32.976
438.04	32.422
438.39	32.987
438.75	32.544
439.10	32.881
439.45	32.562
439.81	32.783
440.16	33.729
440.51	33.612
440.86	34.562
441.22	33.201
441.57	32.892
441.92	33.998
442.27	34.867
442.63	33.994
442.98	33.429
443.33	32.888
443.68	33.422
444.03	33.830
444.39	33.891
444.74	34.002
445.09	33.519
445.44	34.986
445.79	34.193
446.15	33.205
446.50	33.001
446.85	34.697
447.20	33.472
447.55	33.929
447.91	33.785
448.26	33.921
448.61	34.542
448.96	35.112
449.31	33.237
449.66	33.740
450.02	33.714
450.37	34.914
450.72	33.620
451.07	33.797
451.42	34.457
451.77	34.539
452.12	34.031
452.47	34.192
452.83	33.863
453.18	33.903
453.53	34.829
453.88	34.851
454.23	34.358
454.58	35.705
454.93	34.407
455.28	34.222
455.63	36.082
455.98	33.794
456.34	34.483
456.69	34.371
457.04	34.846
457.39	34.083
457.74	35.067
458.09	34.373
458.44	33.762
458.79	34.566
459.14	34.668
459.49	34.866
459.84	34.236
460.19	34.284
460.54	35.391
460.89	34.773
461.24	35.155
461.59	33.610
461.94	33.522
462.29	34.861
462.64	36.013
462.99	33.717
463.34	35.327
463.69	35.393
464.04	34.625
464.39	33.657
464.74	34.233
465.09	35.184
465.44	35.257
465.79	33.277
466.14	33.808
466.49	33.122
466.84	34.682
467.19	34.731
467.54	35.057
467.89	33.923
468.24	33.151
468.59	34.540
468.94	33.524
469.29	34.623
469.64	35.407
469.99	34.408
470.34	33.242
470.68	35.123
471.03	34.820
471.38	35.521
471.73	34.384
472.08	33.989
472.43	33.356
472.78	33.927
473.13	35.170
473.48	34.137
473.83	33.811
474.17	34.845
474.52	34.588
474.87	34.242
475.22	33.740
475.57	34.613
475.92	34.284
476.27	34.808
476.61	33.912
476.96	33.631
477.31	34.289
477.66	33.876
478.01	34.531
478.36	34.477
478.70	33.986
479.05	34.121
479.40	34.552
479.75	33.212
480.10	33.794
480.45	33.300
480.79	33.787
481.14	33.863
481.49	33.695
481.84	33.639
482.19	34.191
482.53	33.477
482.88	33.031
483.23	33.637
483.58	33.585
483.92	33.204
484.27	33.136
484.62	33.303
484.97	32.877
485.31	32.225
485.66	31.220
486.01	31.703
486.36	31.798
486.70	32.270
487.05	31.963
487.40	32.265
487.75	31.437
488.09	31.242
488.44	32.187
488.79	32.424
489.13	32.532
489.48	32.150
489.83	32.735
490.17	33.169
490.52	33.672
490.87	32.300
491.22	33.047
491.56	32.400
491.91	32.887
492.26	33.252
492.60	32.582
492.95	33.743
493.30	32.145
493.64	32.957
493.99	34.010
494.34	32.379
494.68	32.619
495.03	32.749
495.37	33.121
495.72	33.468
496.07	32.878
496.41	32.453
496.76	32.520
497.11	32.371
497.45	32.220
497.80	33.754
498.14	32.538
498.49	33.012
498.84	32.535
499.18	32.631
499.53	32.589
499.87	31.955
500.22	32.394
500.56	32.980
500.91	32.982
501.26	31.784
501.60	32.268
501.95	31.635
502.29	32.397
502.64	32.288
502.98	32.906
503.33	31.940
503.67	31.904
504.02	32.258
504.36	32.212
504.71	31.061
505.06	32.058
505.40	31.929
505.75	32.320
506.09	32.337
506.44	32.392
506.78	32.245
507.13	33.351
507.47	31.488
507.82	30.983
508.16	31.643
508.51	32.057
508.85	32.653
509.19	30.867
509.54	32.225
509.88	31.392
510.23	31.361
510.57	31.962
510.92	30.117
511.26	31.478
511.61	32.068
511.95	31.616
512.30	32.539
512.64	32.276
512.98	32.229
513.33	32.065
513.67	32.177
514.02	32.265
514.36	32.514
514.70	33.042
515.05	32.550
515.39	31.877
515.74	32.934
516.08	32.815
516.42	32.803
516.77	32.183
517.11	31.988
517.46	31.658
517.80	32.122
518.14	32.456
518.49	32.512
518.83	31.956
519.17	32.262
519.52	31.676
519.86	31.393
520.20	32.685
520.55	31.582
520.89	31.493
521.23	32.616
521.58	32.366
521.92	31.410
522.26	32.271
522.61	31.558
522.95	33.377
523.29	32.274
523.64	32.147
523.98	31.562
524.32	30.863
524.66	31.498
525.01	32.857
525.35	31.367
525.69	31.650
526.04	31.085
526.38	32.361
526.72	31.197
527.06	31.323
527.41	30.871
527.75	31.300
528.09	31.163
528.43	31.938
528.78	30.561
529.12	30.581
529.46	31.189
529.80	30.082
530.15	31.815
530.49	30.640
530.83	31.053
531.17	31.229
531.51	32.558
531.86	29.844
532.20	30.828
532.54	30.225
532.88	31.211
533.22	31.116
533.57	30.996
533.91	29.634
534.25	31.315
534.59	30.597
534.93	30.271
535.27	29.188
535.62	29.229
535.96	30.920
536.30	30.013
536.64	30.186
536.98	29.965
537.32	30.725
537.66	30.996
538.01	30.629
538.35	29.404
538.69	29.827
539.03	29.255
539.37	30.215
539.71	30.061
540.05	29.124
540.39	30.125
540.73	30.335
541.07	29.627
541.42	29.503
541.76	30.557
542.10	29.043
542.44	29.534
542.78	28.424
543.12	29.464
543.46	29.485
543.80	30.534
544.14	28.638
544.48	29.447
544.82	30.417
545.16	29.781
545.50	29.172
545.84	30.028
546.18	30.142
546.52	29.560
546.86	29.116
547.20	29.185
547.54	27.986
547.88	28.804
548.22	27.876
548.56	27.770
548.90	29.380
549.24	27.961
549.58	29.196
549.92	27.448
550.26	29.451
550.60	29.071
550.94	28.678
551.28	28.980
551.62	28.000
551.96	27.970
552.30	28.363
552.64	28.491
552.98	27.989
553.32	28.031
553.66	28.229
554.00	28.540
554.34	28.582
554.68	27.729
555.02	29.836
555.36	27.749
555.69	27.546
556.03	27.195
556.37	28.114
556.71	28.592
557.05	28.113
557.39	27.807
557.73	27.736
558.07	29.261
558.41	28.025
558.75	28.605
559.08	28.842
559.42	27.381
559.76	27.942
560.10	28.058
560.44	27.848
560.78	27.273
561.12	27.574
561.45	27.758
561.79	28.221
562.13	27.821
562.47	26.691
562.81	27.017
563.15	27.786
563.48	26.945
563.82	27.316
564.16	26.950
564.50	26.689
564.84	26.305
565.17	26.761
565.51	27.527
565.85	27.778
566.19	27.255
566.52	27.346
566.86	27.314
567.20	26.775
567.54	27.251
567.88	26.538
568.21	26.867
568.55	26.304
568.89	27.002
569.23	25.518
569.56	25.569
569.90	25.903
570.24	24.563
570.57	24.618
570.91	24.643
571.25	24.466
571.59	23.949
571.92	23.556
572.26	23.762
572.60	23.938
572.93	23.502
573.27	23.793
573.61	23.807
573.95	23.648
574.28	23.279
574.62	22.756
574.96	22.912
575.29	23.221
575.63	22.648
575.97	23.204
576.30	23.559
576.64	22.940
576.98	22.857
577.31	22.856
577.65	23.372
577.98	22.675
578.32	22.482
578.66	22.072
578.99	22.438
579.33	22.308
579.67	22.205
580.00	22.658
580.34	22.338
580.67	22.082
581.01	22.118
581.35	22.308
581.68	22.220
582.02	22.059
582.35	21.746
582.69	22.205
583.02	22.260
583.36	22.262
583.70	22.586
584.03	22.686
584.37	22.925
584.70	22.473
585.04	22.021
585.37	22.604
585.71	22.192
586.04	22.088
586.38	21.899
586.72	22.496
587.05	22.097
587.39	22.225
587.72	22.581
588.06	21.921
588.39	22.216
588.73	22.558
589.06	23.255
589.40	22.883
589.73	23.147
590.07	22.432
590.40	22.485
590.73	23.229
591.07	22.604
591.40	23.419
591.74	23.394
592.07	23.655
592.41	22.482
592.74	22.541
593.08	21.656
593.41	22.306
593.75	22.506
594.08	21.215
594.41	22.016
594.75	21.947
595.08	22.285
595.42	22.010
595.75	22.606
596.09	22.400
596.42	21.951
596.75	22.780
597.09	22.642
597.42	21.996
597.75	22.126
598.09	22.816
598.42	21.525
598.76	21.793
599.09	21.995
599.42	21.675
599.76	21.219
600.09	21.531
600.42	21.531
600.76	20.951
601.09	20.802
601.42	21.073
601.76	21.715
602.09	21.328
602.42	22.115
602.76	22.326
603.09	21.470
603.42	22.199
603.76	20.968
604.09	21.466
604.42	22.166
604.76	21.851
605.09	21.618
605.42	21.580
605.75	20.753
606.09	21.062
606.42	21.435
606.75	21.861
607.09	21.275
607.42	20.913
607.75	21.226
608.08	20.889
608.42	21.654
608.75	21.590
609.08	21.475
609.41	20.609
609.75	21.724
610.08	21.767
610.41	21.063
610.74	21.453
611.07	21.912
611.41	21.380
611.74	21.802
612.07	21.520
612.40	21.335
612.73	22.203
613.07	21.429
613.40	21.882
613.73	21.433
614.06	22.204
614.39	21.263
614.72	21.232
615.06	21.955
615.39	21.070
615.72	21.206
616.05	21.285
616.38	20.456
616.71	21.284
617.05	21.433
617.38	20.742
617.71	21.321
618.04	22.286
618.37	22.573
618.70	21.782
619.03	22.083
619.36	21.056
619.69	21.911
620.03	22.790
620.36	22.389
620.69	21.342
621.02	22.018
621.35	22.988
621.68	22.789
622.01	23.417
622.34	22.187
622.67	22.003
623.00	22.818
623.33	22.561
623.66	20.793
623.99	21.785
624.32	21.749
624.65	20.602
624.99	21.896
625.32	22.062
625.65	23.016
625.98	22.643
626.31	21.613
626.64	22.444
626.97	23.124
627.30	22.767
627.63	22.010
627.96	22.102
628.29	22.294
628.62	24.090
628.95	22.345
629.28	21.472
629.61	21.934
629.94	22.874
630.26	23.221
630.59	23.621
630.92	24.000
631.25	22.564
631.58	24.339
631.91	23.794
632.24	22.362
632.57	23.295
632.90	21.234
633.23	23.647
633.56	23.174
633.89	23.428
634.22	23.210
634.55	22.999
634.88	23.499
635.20	22.692
635.53	23.200
635.86	23.017
636.19	22.251
636.52	24.617
636.85	21.836
637.18	22.013
637.51	22.264
637.83	23.259
638.16	26.194
638.49	22.071
638.82	24.474
639.15	21.438
639.48	24.072
639.81	23.291
640.13	23.088
640.46	22.741
640.79	21.502
641.12	23.191
641.45	22.523
641.77	25.630
642.10	23.697
642.43	23.633
642.76	21.452
643.09	25.363
643.41	23.139
643.74	21.746
644.07	25.452
644.40	23.311
644.73	22.592
645.05	23.993
645.38	24.515
645.71	23.582
646.04	24.417
646.36	23.404
646.69	24.640
647.02	23.062
647.35	25.933
647.67	24.680
648.00	25.560
648.33	23.549
648.66	22.881
648.98	20.436
649.31	21.653
649.64	21.978
649.96	21.070
650.29	23.680
650.62	23.761
650.94	20.926
651.27	22.719
651.60	24.144
651.92	23.252
652.25	20.782
652.58	20.333
652.90	24.014
653.23	21.008
653.56	22.673
653.88	21.649
654.21	21.366
654.54	21.053
654.86	22.581
655.19	20.029
655.52	21.749
655.84	17.644
656.17	18.794
656.49	25.136
656.82	26.175
657.15	19.997
657.47	14.675
657.80	10.890
658.13	10.678
658.45	16.551
658.78	16.187
659.10	16.190
659.43	15.949
659.75	15.984
660.08	17.931
660.41	18.693
660.73	20.442
661.06	22.184
661.38	20.157
661.71	19.302
662.03	22.747
662.36	23.077
662.68	21.681
663.01	25.546
663.33	21.114
663.66	20.698
663.98	22.791
664.31	21.962
664.63	20.276
664.96	20.435
665.28	19.205
665.61	21.861
665.93	21.087
666.26	22.560
666.58	20.358
666.91	22.824
667.23	24.528
667.56	22.038
667.88	21.343
668.21	21.957
668.53	24.586
668.86	22.877
669.18	23.113
669.50	19.613
669.83	23.256
670.15	24.009
670.48	21.053
670.80	22.581
671.13	23.937
671.45	19.178
671.77	22.961
672.10	21.782
672.42	20.974
672.75	22.380
673.07	23.792
673.39	22.018
673.72	19.527
674.04	18.542
674.37	23.305
674.69	20.128
675.01	20.222
675.34	18.694
675.66	21.296
675.98	22.173
676.31	21.101
676.63	19.715
676.95	21.818
677.28	20.471
677.60	21.928
677.92	20.183
678.25	20.788
678.57	18.831
678.89	24.370
679.22	20.805
679.54	20.281
679.86	19.284
680.18	20.000
680.51	21.023
680.83	19.284
681.15	20.600
681.48	20.287
681.80	22.107
682.12	19.355
682.44	18.828
682.77	19.868
683.09	18.307
683.41	20.909
683.73	18.664
684.06	19.248
684.38	19.140
684.70	20.261
685.02	19.502
685.34	19.565
685.67	17.636
685.99	19.168
686.31	18.230
686.63	18.553
686.96	18.061
687.28	19.192
687.60	17.681
687.92	22.020
688.24	18.347
688.56	20.524
688.89	20.759
689.21	21.333
689.53	17.865
689.85	19.535
690.17	18.973
690.49	20.331
690.82	22.573
691.14	16.667
691.46	17.523
691.78	20.045
692.10	19.570
692.42	21.212
692.74	17.735
693.06	18.243
693.39	19.005
693.71	17.421
694.03	15.935
694.35	18.692
694.67	20.455
694.99	18.016
695.31	18.799
695.63	20.250
695.95	14.899
696.27	13.472
696.59	23.056
696.91	17.647
697.23	14.653
697.56	17.574
697.88	17.634
698.20	18.223
698.52	16.235
698.84	18.182
699.16	18.500
699.48	16.541
699.80	16.377
700.12	21.833
700.44	18.207
700.76	18.023
701.08	16.364
701.40	19.277
701.72	21.605
702.04	17.822
702.36	21.405
702.68	17.417
703.00	16.061
703.32	14.663
703.64	17.514
703.96	19.420
704.28	20.552
704.60	17.143
704.91	18.927
705.23	20.266
705.55	20.848
705.87	19.856
706.19	21.852
706.51	18.213
706.83	21.543
707.15	15.888
707.47	17.927
707.79	17.448
708.11	20.250
708.43	17.750
708.74	18.863
709.06	18.873
709.38	18.349
709.70	20.414
710.02	18.790
710.34	21.053
710.66	17.628
710.98	12.252
711.29	18.689
711.61	17.966
711.93	20.521
712.25	23.368
712.57	14.652
712.89	11.940
713.20	17.993
713.52	16.725
713.84	19.795
714.16	18.900
714.48	14.194
714.80	21.795
715.11	17.629
715.43	14.420
715.75	18.333
716.07	14.618
716.39	18.121
716.70	13.653
717.02	16.412
717.34	16.194
717.66	19.912
717.97	15.217
718.29	17.992
718.61	20.079
718.93	20.543
719.24	19.392
719.56	17.269
719.88	18.213
720.20	15.530
720.51	14.176
720.83	22.008
721.15	18.908
721.46	14.516
721.78	17.391
722.10	13.011
722.42	14.523
722.73	17.551
723.05	18.776
723.37	19.492
723.68	23.874
724.00	13.248
724.32	17.778
724.63	13.182
724.95	20.087
725.27	13.825
725.58	13.559
725.90	14.683
726.22	20.077
726.53	20.339
726.85	16.854
727.16	22.642
727.48	11.336
727.80	15.789
728.11	15.254
728.43	14.902
728.74	15.323
729.06	16.800
729.38	21.053
729.69	15.139
730.01	6.154
730.32	18.657
730.64	18.021
730.96	18.491
731.27	16.667
731.59	13.898
731.90	14.650
732.22	16.404
732.53	18.937
732.85	14.184
733.16	23.906
733.48	14.029
733.80	17.391
734.11	14.576
734.43	12.715
734.74	15.455
735.06	14.658
735.37	17.221
735.69	17.845
736.00	14.634
736.32	13.087
736.63	15.845
736.95	18.771
737.26	14.947
737.58	13.423
737.89	14.652
738.21	12.030
738.52	18.519
738.83	16.157
739.15	11.790
739.46	16.142
739.78	12.088
740.09	15.686
740.41	11.232
740.72	12.205
741.04	12.146
741.35	13.617
741.66	13.270
741.98	14.286
742.29	15.347
742.61	16.754
742.92	9.479
743.23	12.037
743.55	13.122
743.86	11.005
744.18	10.526
744.49	13.298
744.80	9.783
745.12	19.786
745.43	10.244
745.74	13.542
746.06	15.610
746.37	14.660
746.68	17.536
747.00	12.234
747.31	17.910
747.62	10.680
747.94	19.617
748.25	10.891
748.56	13.661
748.88	15.707
749.19	22.340
749.50	16.749
749.82	9.906
750.13	9.174
750.44	12.782
750.75	18.657
751.07	19.708
751.38	15.709
751.69	8.627
752.01	17.442
752.32	12.749
752.63	10.672
752.94	8.621
753.26	19.665
753.57	14.480
753.88	10.177
754.19	15.417
754.51	13.223
754.82	10.526
755.13	20.833
755.44	11.694
755.75	14.844
756.07	9.728
756.38	12.453
756.69	8.046
757.00	13.667
757.31	12.092
757.63	11.280
757.94	12.778
758.25	10.411
758.56	13.298
758.87	11.898
759.18	13.707
759.50	8.727
759.81	14.047
760.12	15.806
760.43	13.333
760.74	14.198
761.05	12.615
761.36	12.500
761.67	15.152
761.99	13.946
762.30	11.636
762.61	13.043
762.92	14.027
763.23	12.162
763.54	10.280
763.85	14.407
764.16	11.618
764.47	11.290
764.78	12.454
765.10	14.815
765.41	10.726
765.72	13.016
766.03	10.150
766.34	14.234
766.65	15.936
766.96	12.121
767.27	10.106
767.58	3.448
767.89	6.383
768.20	10.795
768.51	9.890
768.82	13.793
769.13	5.991
769.44	12.446
769.75	6.849
770.06	14.224
770.37	15.385
770.68	15.228
770.99	15.837
771.30	12.745
771.61	9.502
771.92	14.224
772.23	13.793
772.54	14.516
772.85	6.173
773.16	7.303
773.47	16.340
773.78	11.111
774.09	16.766
774.39	10.667
774.70	14.013
775.01	15.862
775.32	14.286
775.63	13.223
775.94	7.634
776.25	11.811
776.56	12.500
776.87	7.692
777.18	0.855
777.48	16.379
777.79	6.087
778.10	1.905
778.41	1.802
778.72	11.111
779.03	9.023
779.34	14.894
779.65	15.068
779.95	6.849
780.26	12.414
780.57	0.813
780.88	12.598
781.19	12.931
781.50	9.302
781.80	17.160
782.11	6.289
782.42	15.385
782.73	5.755
783.04	11.852
783.34	13.194
783.65	5.983
783.96	4.098
784.27	15.172
784.57	16.260
784.88	7.031
785.19	7.000
785.50	18.000
785.81	6.897
786.11	13.793
786.42	5.825
786.73	17.273
787.04	4.082
787.34	12.500
787.65	11.429
787.96	9.735
788.26	8.182
788.57	16.239
788.88	13.281
789.19	15.079
789.49	8.696
789.80	3.061
790.11	2.020
790.41	-0.909
790.72	19.565
791.03	11.364
791.33	15.000
791.64	7.500
791.95	1.163
792.25	8.511
792.56	13.483
792.87	6.849
793.17	18.841
793.48	-4.000
793.79	5.000
794.09	13.750
794.40	13.208
794.70	0.971
795.01	-0.813
795.32	9.402
795.62	0.000
795.93	11.765
796.23	17.925
796.54	17.708
796.85	5.882
797.15	8.451
797.46	16.667
797.76	25.758
798.07	15.116
798.37	2.632
798.68	10.606
798.99	9.877
799.29	4.286
799.60	-1.449
799.90	24.000
800.21	1.639
800.51	16.923
800.82	-1.695
801.12	7.246
801.43	19.672
801.73	11.111
802.04	14.000
802.34	8.955
802.65	21.154
802.95	-5.357
803.26	1.923
803.56	13.725
803.87	-32.609
804.17	6.667
804.48	17.460
804.78	-12.963
805.09	-10.870
805.39	-11.111
805.70	18.519
806.00	0.000
806.30	14.085
806.61	1.429
806.91	-18.056
807.22	14.474
807.52	16.000
807.83	-12.727
808.13	4.167
808.43	13.235
808.74	13.433
809.04	10.169
809.35	-1.923
809.65	-1.562
809.95	-27.027
810.26	-2.273
810.56	-4.110
810.86	7.143
811.17	4.000
811.47	-8.163
811.77	-15.789
812.08	9.091
812.38	0.000
812.69	-10.000
812.99	-18.182
813.29	2.632
813.59	-14.286
813.90	2.273
814.20	-23.077
814.50	11.538
814.81	-7.547
815.11	-6.383
815.41	18.644
815.72	-9.524
816.02	3.922
816.32	12.500
816.62	2.439
816.93	-10.811
817.23	-5.714
817.53	20.833
817.84	-6.522
818.14	0.000
818.44	-42.105
818.74	10.870
819.04	-12.500
819.35	0.000
819.65	2.941
819.95	-8.333
820.25	0.000
820.56	12.500
820.86	-51.724
821.16	42.500
821.46	-4.255
821.76	20.000
822.07	-13.953
822.37	-13.514
822.67	-28.125
822.97	11.905
823.27	-28.571
823.57	-24.000
823.88	-3.704
824.18	7.143
824.48	20.588
824.78	-25.806
825.08	-34.783
825.38	-30.303
825.69	-45.833
825.99	7.895
826.29	-19.444
826.59	-80.000
826.89	-52.381
827.19	0.000
827.49	2.500
827.79	-11.429
828.09	17.857
828.39	6.061
828.70	8.108
829.00	-42.857
829.30	4.762
829.60	16.667
829.90	-3.125
830.20	0.000
830.50	-59.259
830.80	-34.783
831.10	9.091
831.40	18.182
831.70	3.226
832.00	-4.762
832.30	-33.333
832.60	8.333
832.90	13.793
833.20	-70.000
833.50	-24.242
833.80	-11.111
834.10	-30.769
834.40	9.375
834.70	-66.667
835.00	-10.526
835.30	34.615
835.60	13.333
835.90	22.581
836.20	-18.182
836.50	0.000
836.80	-23.077
837.10	3.571
837.40	-333.333
837.70	4.545
838.00	-72.727
838.30	0.000
838.60	0.000
838.90	4.545
839.19	25.000
839.49	20.000
839.79	-53.846
840.09	-83.333
840.39	39.286
840.69	-28.571
840.99	-42.308
841.29	-57.895
841.59	-130.000
841.88	-54.545
842.18	70.000
842.48	-50.000
842.78	-13.333
843.08	-22.222
843.38	-90.000
843.68	17.391
843.97	26.667
844.27	-53.333
844.57	40.000
844.87	-55.556
845.17	14.286
845.47	6.667
845.76	4.762
846.06	11.765
846.36	-10.000
846.66	-42.857
846.96	6.667
847.25	-100.000
847.55	35.714
847.85	-125.000
848.15	-31.818
848.44	-266.667
848.74	50.000
849.04	25.926
849.34	-36.364
849.63	-200.000
849.93	-180.000
850.23	-77.778
850.53	100.000
850.82	0.000
851.12	-100.000
851.42	6.667
851.71	-38.462
852.01	78.571
852.31	-25.000
852.61	-18.182
852.90	-10.000
853.20	5.263
853.50	-50.000
853.79	-8.696
854.09	20.833
854.39	-5.263
854.68	16.667
854.98	25.806
855.28	15.385
855.57	-45.000
855.87	-22.222
856.17	11.111
856.46	-28.571
856.76	-66.667
857.05	-33.333
857.35	-40.000
857.65	-44.444
857.94	-76.923
858.24	48.276
858.53	55.556
858.83	11.111
859.13	9.091
859.42	-47.826
859.72	-150.000
860.01	-533.333
860.31	0.000
860.60	-14.286
860.90	-300.000
861.20	-46.667
861.49	-400.000
861.79	-40.000
862.08	10.000
862.38	66.667
862.67	-60.000
862.97	-83.333
863.26	8.333
863.56	11.111
863.85	-366.667
864.15	22.222
864.44	-30.000
864.74	85.714
865.03	325.000
865.33	-240.000
865.62	16.667
865.92	-8.333
866.21	-400.000
866.51	31.250
866.80	-54.545
867.10	0.000
867.39	50.000
867.69	0.000
867.98	-46.154
868.27	-233.333
868.57	-40.000
868.86	-5.556
869.16	-53.846
869.45	40.000
869.75	-1300.000
870.04	0.000
870.33	-42.857
870.63	-4.762
870.92	266.667
871.22	-280.000
871.51	-800.000
871.80	0.000
872.10	500.000
>>>>>End Processed Spectral Data<<<<<
