SpectraSuite Data File
++++++++++++++++++++++++++++++++++++
Date: Fri May 15 20:40:59 PDT 2015
User: schluterlab
Dark Spectrum Present: Yes
Reference Spectrum Present: Yes
Number of Sampled Component Spectra: 1
Spectrometers: USB2E3373
Integration Time (usec): 3000 (USB2E3373)
Spectra Averaged: 3 (USB2E3373)
Boxcar Smoothing: 0 (USB2E3373)
Correct for Electrical Dark: No (USB2E3373)
Strobe/Lamp Enabled: No (USB2E3373)
Correct for Detector Non-linearity: No (USB2E3373)
Correct for Stray Light: No (USB2E3373)
Number of Pixels in Processed Spectrum: 2048
>>>>>Begin Processed Spectral Data<<<<<
178.53	0.000
178.91	0.000
179.29	125.000
179.67	-850.000
180.04	-114.286
180.42	350.000
180.80	-500.000
181.18	100.000
181.56	650.000
181.94	-600.000
182.31	1200.000
182.69	-80.000
183.07	-166.667
183.45	-20.000
183.83	150.000
184.20	0.000
184.58	211.111
184.96	-0.000
185.34	-100.000
185.72	-350.000
186.09	100.000
186.47	-300.000
186.85	233.333
187.23	177.778
187.61	300.000
187.98	-233.333
188.36	-11.111
188.74	-166.667
189.12	64.706
189.49	16.667
189.87	0.000
190.25	71.429
190.63	250.000
191.00	-266.667
191.38	21.053
191.76	150.000
192.14	-25.000
192.51	150.000
192.89	-33.333
193.27	-142.857
193.65	250.000
194.02	200.000
194.40	30.000
194.78	-200.000
195.15	-25.000
195.53	-162.500
195.91	250.000
196.29	0.000
196.66	69.231
197.04	-14.286
197.42	-100.000
197.79	-133.333
198.17	-161.538
198.55	1300.000
198.92	-300.000
199.30	0.000
199.68	-180.000
200.05	-300.000
200.43	0.000
200.81	-200.000
201.18	-366.667
201.56	700.000
201.94	-150.000
202.31	-133.333
202.69	-240.000
203.07	325.000
203.44	0.000
203.82	0.000
204.19	28.571
204.57	-366.667
204.95	50.000
205.32	40.000
205.70	-28.571
206.08	-200.000
206.45	88.889
206.83	35.714
207.20	-85.714
207.58	700.000
207.96	-366.667
208.33	-110.000
208.71	-50.000
209.08	-183.333
209.46	-300.000
209.84	-100.000
210.21	-700.000
210.59	-42.857
210.96	-116.667
211.34	-25.000
211.71	66.667
212.09	-200.000
212.46	-1200.000
212.84	0.000
213.22	70.000
213.59	800.000
213.97	7.692
214.34	-27.273
214.72	-100.000
215.09	300.000
215.47	53.846
215.84	36.364
216.22	0.000
216.59	87.500
216.97	-100.000
217.34	-25.000
217.72	-260.000
218.09	-12.500
218.47	237.500
218.84	-600.000
219.22	-11.111
219.59	20.000
219.97	600.000
220.34	250.000
220.72	0.000
221.09	-150.000
221.47	-550.000
221.84	-300.000
222.22	-350.000
222.59	-45.455
222.97	83.333
223.34	166.667
223.72	-14.286
224.09	19.048
224.46	10.714
224.84	133.333
225.21	-50.000
225.59	-6.667
225.96	-300.000
226.34	325.000
226.71	-71.429
227.08	-83.333
227.46	-12.500
227.83	-450.000
228.21	-55.556
228.58	72.727
228.95	150.000
229.33	110.000
229.70	25.000
230.08	12.500
230.45	-28.571
230.82	28.571
231.20	-20.000
231.57	14.286
231.95	157.143
232.32	-70.000
232.69	42.857
233.07	0.000
233.44	-60.000
233.81	-120.000
234.19	-55.556
234.56	-5.882
234.93	450.000
235.31	-150.000
235.68	-40.000
236.05	53.846
236.43	-30.000
236.80	0.000
237.17	28.125
237.55	35.000
237.92	0.000
238.29	47.222
238.67	40.000
239.04	29.412
239.41	-2.439
239.79	56.667
240.16	34.146
240.53	26.316
240.91	10.870
241.28	11.111
241.65	39.286
242.02	35.616
242.40	31.667
242.77	33.898
243.14	24.242
243.51	23.750
243.89	37.931
244.26	14.943
244.63	27.381
245.00	26.804
245.38	40.206
245.75	23.596
246.12	18.966
246.49	28.926
246.87	28.846
247.24	24.370
247.61	30.702
247.98	29.268
248.36	25.625
248.73	25.000
249.10	29.221
249.47	29.114
249.84	33.987
250.22	31.176
250.59	32.680
250.96	35.211
251.33	34.302
251.70	34.706
252.08	32.995
252.45	33.168
252.82	34.171
253.19	34.562
253.56	29.439
253.94	36.937
254.31	33.478
254.68	33.772
255.05	32.677
255.42	33.188
255.79	30.888
256.16	28.794
256.54	35.821
256.91	34.601
257.28	29.368
257.65	32.959
258.02	33.688
258.39	30.976
258.76	35.531
259.14	31.561
259.51	31.392
259.88	31.615
260.25	32.353
260.62	32.292
260.99	31.864
261.36	29.452
261.73	34.810
262.10	33.131
262.47	32.515
262.85	29.154
263.22	31.077
263.59	34.268
263.96	34.161
264.33	33.939
264.70	31.845
265.07	33.036
265.44	35.977
265.81	32.203
266.18	34.426
266.55	34.447
266.92	33.679
267.29	33.943
267.66	33.504
268.03	30.628
268.40	32.115
268.77	35.294
269.14	34.053
269.51	35.733
269.88	32.918
270.25	33.418
270.62	30.732
270.99	32.481
271.36	29.584
271.73	31.455
272.10	32.603
272.47	31.206
272.84	32.921
273.21	34.571
273.58	33.253
273.95	30.892
274.32	31.640
274.69	31.222
275.06	33.705
275.43	32.880
275.80	32.892
276.17	33.793
276.54	32.120
276.91	31.798
277.28	34.498
277.65	32.645
278.02	30.851
278.39	29.978
278.76	30.398
279.13	30.913
279.50	33.403
279.87	31.317
280.23	30.108
280.60	31.384
280.97	33.939
281.34	29.423
281.71	33.060
282.08	29.857
282.45	30.528
282.82	29.344
283.19	33.462
283.56	32.563
283.92	31.120
284.29	31.731
284.66	33.140
285.03	31.827
285.40	29.868
285.77	29.701
286.14	29.603
286.51	33.210
286.87	29.250
287.24	30.571
287.61	32.275
287.98	30.702
288.35	29.983
288.72	28.371
289.08	29.340
289.45	30.404
289.82	29.021
290.19	27.474
290.56	28.473
290.93	28.788
291.29	26.040
291.66	27.087
292.03	27.911
292.40	28.710
292.77	26.475
293.13	27.110
293.50	25.797
293.87	26.260
294.24	24.730
294.60	27.720
294.97	26.786
295.34	24.693
295.71	26.677
296.08	25.411
296.44	22.617
296.81	24.028
297.18	25.942
297.55	25.474
297.91	22.877
298.28	23.747
298.65	23.609
299.02	24.798
299.38	23.393
299.75	22.207
300.12	24.346
300.48	23.452
300.85	24.081
301.22	22.727
301.59	22.895
301.95	24.430
302.32	24.903
302.69	21.891
303.05	22.277
303.42	24.035
303.79	22.079
304.15	22.820
304.52	20.690
304.89	21.053
305.25	20.702
305.62	20.420
305.99	21.871
306.35	21.734
306.72	21.035
307.09	21.893
307.45	23.307
307.82	23.032
308.19	21.370
308.55	22.137
308.92	22.658
309.29	20.894
309.65	20.452
310.02	21.562
310.38	21.405
310.75	22.623
311.12	20.883
311.48	21.527
311.85	21.152
312.22	19.198
312.58	21.975
312.95	20.491
313.31	19.358
313.68	20.314
314.05	20.408
314.41	21.134
314.78	20.722
315.14	21.788
315.51	22.464
315.87	19.980
316.24	21.031
316.61	21.555
316.97	19.841
317.34	21.484
317.70	20.459
318.07	19.615
318.43	20.686
318.80	19.129
319.16	20.996
319.53	21.273
319.89	20.374
320.26	21.559
320.62	20.762
320.99	20.042
321.35	21.480
321.72	20.872
322.08	20.040
322.45	21.726
322.81	19.352
323.18	19.823
323.54	19.305
323.91	20.740
324.27	21.875
324.64	20.974
325.00	20.620
325.37	21.763
325.73	20.308
326.10	20.618
326.46	20.807
326.83	21.522
327.19	20.488
327.56	19.722
327.92	21.303
328.29	20.982
328.65	21.038
329.01	20.772
329.38	20.922
329.74	20.113
330.11	19.741
330.47	19.109
330.84	19.423
331.20	21.578
331.56	20.463
331.93	20.365
332.29	21.448
332.66	19.729
333.02	19.703
333.38	21.265
333.75	21.062
334.11	18.442
334.48	20.308
334.84	20.604
335.20	21.500
335.57	19.583
335.93	21.319
336.29	21.363
336.66	20.073
337.02	19.238
337.38	18.981
337.75	20.727
338.11	19.657
338.47	20.347
338.84	20.795
339.20	20.475
339.56	21.101
339.93	20.680
340.29	19.817
340.65	19.534
341.02	19.681
341.38	19.027
341.74	19.435
342.11	18.544
342.47	19.128
342.83	20.934
343.20	18.902
343.56	19.043
343.92	19.575
344.28	20.154
344.65	18.912
345.01	19.447
345.37	18.755
345.73	20.335
346.10	20.708
346.46	19.680
346.82	19.804
347.19	17.789
347.55	19.549
347.91	20.550
348.27	19.644
348.63	18.654
349.00	18.704
349.36	18.703
349.72	19.071
350.08	19.754
350.45	19.792
350.81	19.269
351.17	18.893
351.53	19.265
351.89	18.993
352.26	19.280
352.62	18.790
352.98	18.394
353.34	18.841
353.70	18.932
354.07	19.194
354.43	18.975
354.79	19.075
355.15	18.889
355.51	20.016
355.87	19.256
356.24	18.026
356.60	19.321
356.96	18.730
357.32	18.371
357.68	18.843
358.04	19.144
358.40	18.971
358.77	19.936
359.13	18.735
359.49	18.259
359.85	17.161
360.21	18.262
360.57	18.057
360.93	18.608
361.29	16.767
361.66	18.182
362.02	18.939
362.38	17.974
362.74	18.017
363.10	19.263
363.46	18.681
363.82	19.159
364.18	18.229
364.54	17.721
364.90	18.853
365.26	17.977
365.62	19.489
365.98	18.402
366.35	17.990
366.71	18.182
367.07	17.562
367.43	17.829
367.79	18.516
368.15	17.732
368.51	18.645
368.87	18.162
369.23	17.834
369.59	18.367
369.95	18.182
370.31	18.064
370.67	17.687
371.03	17.177
371.39	17.870
371.75	18.462
372.11	17.332
372.47	17.751
372.83	18.098
373.19	18.474
373.55	17.906
373.91	18.071
374.27	17.860
374.63	18.090
374.99	17.801
375.35	17.061
375.71	17.692
376.07	16.994
376.42	18.095
376.78	18.188
377.14	17.197
377.50	17.065
377.86	17.537
378.22	16.784
378.58	18.205
378.94	17.517
379.30	17.779
379.66	18.182
380.02	16.616
380.38	17.590
380.74	18.073
381.09	18.282
381.45	17.003
381.81	18.322
382.17	18.718
382.53	17.739
382.89	18.267
383.25	17.673
383.61	18.415
383.97	16.825
384.32	16.573
384.68	17.276
385.04	17.770
385.40	17.175
385.76	18.176
386.12	17.853
386.48	18.199
386.83	17.248
387.19	17.521
387.55	17.817
387.91	17.176
388.27	16.667
388.62	17.810
388.98	16.882
389.34	17.676
389.70	18.148
390.06	17.432
390.42	17.163
390.77	17.593
391.13	16.835
391.49	16.559
391.85	17.609
392.20	17.389
392.56	16.211
392.92	17.733
393.28	16.981
393.64	16.336
393.99	18.182
394.35	16.256
394.71	17.241
395.07	17.725
395.42	16.272
395.78	16.352
396.14	15.952
396.50	16.741
396.85	16.935
397.21	16.792
397.57	16.113
397.92	17.076
398.28	17.069
398.64	15.783
399.00	16.930
399.35	16.535
399.71	17.002
400.07	16.626
400.42	16.646
400.78	17.024
401.14	16.939
401.49	17.094
401.85	16.088
402.21	16.446
402.57	16.562
402.92	16.186
403.28	17.105
403.63	17.402
403.99	16.964
404.35	16.677
404.70	17.024
405.06	16.216
405.42	16.843
405.77	17.025
406.13	16.473
406.49	15.749
406.84	16.504
407.20	17.339
407.55	15.068
407.91	16.912
408.27	17.081
408.62	17.354
408.98	16.821
409.34	16.605
409.69	15.956
410.05	16.564
410.40	16.296
410.76	17.008
411.11	17.250
411.47	17.028
411.83	16.321
412.18	15.701
412.54	16.792
412.89	16.810
413.25	16.787
413.60	16.149
413.96	16.564
414.31	17.073
414.67	15.715
415.03	17.577
415.38	15.992
415.74	16.743
416.09	16.460
416.45	16.880
416.80	16.920
417.16	16.644
417.51	16.922
417.87	15.841
418.22	17.358
418.58	16.187
418.93	17.492
419.29	16.133
419.64	17.045
420.00	17.254
420.35	17.134
420.71	17.193
421.06	17.434
421.42	17.007
421.77	17.168
422.12	16.402
422.48	16.838
422.83	16.125
423.19	16.140
423.54	15.814
423.90	16.372
424.25	17.164
424.61	17.381
424.96	17.073
425.31	16.638
425.67	16.608
426.02	17.314
426.38	16.218
426.73	17.252
427.09	17.722
427.44	17.647
427.79	16.971
428.15	17.597
428.50	16.657
428.85	16.462
429.21	16.525
429.56	17.035
429.92	17.155
430.27	16.591
430.62	15.734
430.98	16.561
431.33	17.245
431.68	15.908
432.04	17.440
432.39	16.486
432.74	16.717
433.10	17.471
433.45	16.189
433.80	16.889
434.16	15.956
434.51	17.581
434.86	17.422
435.22	17.723
435.57	17.031
435.92	17.246
436.28	17.233
436.63	16.999
436.98	16.338
437.34	16.878
437.69	18.128
438.04	16.923
438.39	17.471
438.75	17.365
439.10	17.374
439.45	17.833
439.81	16.330
440.16	17.399
440.51	17.970
440.86	17.885
441.22	16.403
441.57	16.943
441.92	17.838
442.27	17.406
442.63	18.415
442.98	17.806
443.33	17.919
443.68	17.401
444.03	17.536
444.39	17.806
444.74	17.781
445.09	17.929
445.44	17.778
445.79	19.340
446.15	18.172
446.50	17.138
446.85	17.800
447.20	17.727
447.55	18.806
447.91	17.428
448.26	17.871
448.61	18.768
448.96	18.130
449.31	18.035
449.66	18.351
450.02	18.083
450.37	18.494
450.72	18.156
451.07	18.418
451.42	18.102
451.77	18.867
452.12	17.225
452.47	17.901
452.83	18.198
453.18	19.292
453.53	18.963
453.88	19.429
454.23	19.730
454.58	18.577
454.93	18.299
455.28	17.714
455.63	17.917
455.98	19.302
456.34	18.966
456.69	18.869
457.04	19.345
457.39	18.651
457.74	19.045
458.09	18.187
458.44	18.724
458.79	18.655
459.14	19.050
459.49	18.866
459.84	18.725
460.19	19.175
460.54	18.399
460.89	19.659
461.24	18.820
461.59	19.537
461.94	18.679
462.29	18.516
462.64	19.535
462.99	18.009
463.34	18.011
463.69	18.790
464.04	19.007
464.39	19.102
464.74	18.466
465.09	19.276
465.44	19.850
465.79	18.367
466.14	19.156
466.49	18.976
466.84	20.048
467.19	19.212
467.54	19.604
467.89	18.509
468.24	19.404
468.59	19.556
468.94	18.222
469.29	19.016
469.64	19.754
469.99	18.991
470.34	18.567
470.68	19.985
471.03	19.816
471.38	18.973
471.73	19.818
472.08	18.996
472.43	19.060
472.78	18.986
473.13	19.660
473.48	19.739
473.83	19.303
474.17	19.624
474.52	19.655
474.87	19.212
475.22	19.341
475.57	19.311
475.92	20.187
476.27	19.965
476.61	19.965
476.96	19.074
477.31	19.254
477.66	19.944
478.01	19.147
478.36	19.281
478.70	19.956
479.05	19.835
479.40	19.979
479.75	19.447
480.10	19.508
480.45	19.500
480.79	20.544
481.14	19.570
481.49	19.458
481.84	19.450
482.19	19.504
482.53	19.376
482.88	19.570
483.23	19.194
483.58	19.670
483.92	19.361
484.27	19.690
484.62	19.767
484.97	19.196
485.31	19.400
485.66	19.130
486.01	19.191
486.36	19.062
486.70	19.748
487.05	20.058
487.40	19.571
487.75	19.127
488.09	18.789
488.44	18.569
488.79	19.163
489.13	19.631
489.48	19.324
489.83	19.507
490.17	19.775
490.52	19.492
490.87	19.621
491.22	20.583
491.56	19.545
491.91	19.407
492.26	19.446
492.60	19.578
492.95	19.823
493.30	19.345
493.64	19.990
493.99	18.937
494.34	19.126
494.68	19.810
495.03	19.562
495.37	20.069
495.72	20.596
496.07	19.707
496.41	19.528
496.76	19.346
497.11	19.329
497.45	20.095
497.80	20.131
498.14	19.871
498.49	20.315
498.84	20.110
499.18	20.432
499.53	19.891
499.87	19.455
500.22	19.634
500.56	20.121
500.91	19.930
501.26	19.328
501.60	19.675
501.95	19.796
502.29	19.613
502.64	20.270
502.98	20.326
503.33	18.828
503.67	19.277
504.02	19.892
504.36	20.188
504.71	20.202
505.06	19.376
505.40	20.305
505.75	19.794
506.09	18.956
506.44	20.329
506.78	20.204
507.13	19.545
507.47	19.739
507.82	18.964
508.16	19.493
508.51	20.252
508.85	19.728
509.19	19.532
509.54	20.858
509.88	18.878
510.23	19.580
510.57	20.257
510.92	19.510
511.26	19.913
511.61	19.912
511.95	19.726
512.30	20.233
512.64	20.367
512.98	19.315
513.33	20.985
513.67	19.557
514.02	20.824
514.36	21.143
514.70	20.979
515.05	21.328
515.39	19.894
515.74	20.958
516.08	20.263
516.42	21.378
516.77	20.772
517.11	20.475
517.46	20.886
517.80	20.441
518.14	20.453
518.49	20.012
518.83	20.231
519.17	19.830
519.52	19.953
519.86	19.748
520.20	19.988
520.55	19.262
520.89	20.828
521.23	20.329
521.58	20.757
521.92	20.064
522.26	20.625
522.61	21.234
522.95	21.457
523.29	21.792
523.64	21.410
523.98	21.841
524.32	20.554
524.66	20.551
525.01	21.688
525.35	21.322
525.69	20.673
526.04	20.370
526.38	21.920
526.72	20.667
527.06	20.169
527.41	20.053
527.75	21.247
528.09	20.465
528.43	21.540
528.78	20.330
529.12	21.226
529.46	20.078
529.80	21.406
530.15	20.726
530.49	20.000
530.83	20.588
531.17	21.357
531.51	21.204
531.86	20.870
532.20	21.016
532.54	20.830
532.88	20.055
533.22	20.228
533.57	21.035
533.91	20.170
534.25	22.266
534.59	20.783
534.93	20.013
535.27	20.241
535.62	21.322
535.96	20.352
536.30	21.108
536.64	21.296
536.98	19.930
537.32	20.839
537.66	21.809
538.01	20.280
538.35	21.012
538.69	20.506
539.03	19.344
539.37	21.131
539.71	20.518
540.05	20.299
540.39	21.330
540.73	21.130
541.07	20.994
541.42	21.976
541.76	21.404
542.10	19.683
542.44	20.639
542.78	20.647
543.12	20.055
543.46	21.905
543.80	20.819
544.14	20.427
544.48	21.519
544.82	20.711
545.16	21.380
545.50	21.028
545.84	20.538
546.18	21.773
546.52	20.836
546.86	20.920
547.20	21.674
547.54	20.424
547.88	20.924
548.22	21.368
548.56	20.449
548.90	21.698
549.24	20.868
549.58	21.721
549.92	20.443
550.26	21.538
550.60	21.190
550.94	21.509
551.28	19.629
551.62	21.462
551.96	21.880
552.30	21.053
552.64	21.086
552.98	20.886
553.32	20.970
553.66	20.972
554.00	21.752
554.34	21.713
554.68	19.985
555.02	21.205
555.36	20.120
555.69	20.733
556.03	20.700
556.37	20.498
556.71	21.227
557.05	22.297
557.39	21.041
557.73	21.364
558.07	21.644
558.41	21.440
558.75	21.434
559.08	21.119
559.42	20.952
559.76	21.457
560.10	21.177
560.44	21.296
560.78	22.098
561.12	22.779
561.45	20.450
561.79	23.039
562.13	20.724
562.47	21.223
562.81	21.326
563.15	20.451
563.48	21.924
563.82	21.620
564.16	21.797
564.50	21.622
564.84	21.553
565.17	21.663
565.51	21.790
565.85	21.331
566.19	21.220
566.52	21.180
566.86	22.558
567.20	20.610
567.54	21.594
567.88	21.090
568.21	21.889
568.55	20.815
568.89	21.458
569.23	20.944
569.56	20.884
569.90	21.803
570.24	21.362
570.57	21.164
570.91	21.610
571.25	20.355
571.59	21.053
571.92	20.711
572.26	19.928
572.60	20.279
572.93	20.238
573.27	19.624
573.61	20.376
573.95	20.863
574.28	20.445
574.62	20.214
574.96	20.843
575.29	19.838
575.63	19.668
575.97	20.114
576.30	20.017
576.64	19.841
576.98	20.489
577.31	20.619
577.65	20.550
577.98	20.245
578.32	19.979
578.66	20.331
578.99	20.122
579.33	19.710
579.67	20.061
580.00	19.823
580.34	20.199
580.67	20.030
581.01	20.509
581.35	20.370
581.68	20.311
582.02	20.371
582.35	20.409
582.69	20.374
583.02	20.637
583.36	20.251
583.70	20.768
584.03	20.406
584.37	20.695
584.70	21.099
585.04	20.337
585.37	20.958
585.71	20.464
586.04	20.701
586.38	20.379
586.72	20.976
587.05	20.971
587.39	20.855
587.72	21.350
588.06	21.063
588.39	20.906
588.73	20.757
589.06	21.657
589.40	20.878
589.73	21.358
590.07	21.526
590.40	21.478
590.73	21.705
591.07	21.501
591.40	21.327
591.74	21.674
592.07	22.449
592.41	21.820
592.74	20.988
593.08	20.992
593.41	21.186
593.75	21.295
594.08	21.044
594.41	21.434
594.75	21.107
595.08	21.756
595.42	21.678
595.75	21.329
596.09	21.306
596.42	21.869
596.75	22.114
597.09	21.595
597.42	21.951
597.75	21.805
598.09	21.865
598.42	20.984
598.76	21.193
599.09	21.875
599.42	21.182
599.76	21.068
600.09	21.493
600.42	21.759
600.76	21.025
601.09	21.145
601.42	21.269
601.76	21.358
602.09	21.535
602.42	22.704
602.76	21.986
603.09	21.927
603.42	22.199
603.76	21.452
604.09	21.466
604.42	21.616
604.76	22.830
605.09	22.258
605.42	21.986
605.75	21.891
606.09	21.911
606.42	21.393
606.75	21.126
607.09	21.670
607.42	22.331
607.75	21.092
608.08	20.889
608.42	22.019
608.75	22.602
609.08	21.574
609.41	21.929
609.75	22.883
610.08	22.516
610.41	21.836
610.74	21.648
611.07	22.326
611.41	22.730
611.74	22.708
612.07	22.216
612.40	21.827
612.73	22.373
613.07	23.003
613.40	22.593
613.73	21.824
614.06	22.482
614.39	22.109
614.72	21.401
615.06	22.346
615.39	22.380
615.72	22.121
616.05	23.184
616.38	21.937
616.71	22.385
617.05	21.804
617.38	21.119
617.71	22.390
618.04	22.413
618.37	22.446
618.70	23.234
619.03	23.750
619.36	22.214
619.69	22.365
620.03	23.521
620.36	22.818
620.69	23.198
621.02	21.789
621.35	24.315
621.68	23.810
622.01	23.000
622.34	23.384
622.67	23.028
623.00	22.435
623.33	23.476
623.66	22.962
623.99	21.785
624.32	23.422
624.65	22.180
624.99	22.423
625.32	22.365
625.65	24.038
625.98	24.416
626.31	22.195
626.64	23.657
626.97	25.044
627.30	23.030
627.63	24.870
627.96	24.349
628.29	24.792
628.62	25.270
628.95	23.647
629.28	24.395
629.61	24.826
629.94	24.047
630.26	23.617
630.59	24.142
630.92	24.718
631.25	23.692
631.58	23.018
631.91	23.355
632.24	24.656
632.57	24.205
632.90	23.369
633.23	25.294
633.56	25.063
633.89	22.318
634.22	24.198
634.55	25.413
634.88	23.244
635.20	22.949
635.53	25.867
635.86	22.367
636.19	26.261
636.52	25.128
636.85	23.201
637.18	23.522
637.51	23.774
637.83	22.865
638.16	25.784
638.49	22.480
638.82	25.263
639.15	24.152
639.48	24.209
639.81	24.128
640.13	23.665
640.46	24.198
640.79	23.564
641.12	24.668
641.45	25.225
641.77	25.630
642.10	25.592
642.43	25.723
642.76	25.248
643.09	26.010
643.41	25.566
643.74	24.053
644.07	26.929
644.40	26.182
644.73	25.394
645.05	22.987
645.38	29.101
645.71	24.113
646.04	25.135
646.36	24.823
646.69	26.439
647.02	27.599
647.35	26.866
647.67	25.046
648.00	28.731
648.33	27.133
648.66	25.424
648.98	22.948
649.31	23.306
649.64	26.688
649.96	22.690
650.29	25.894
650.62	23.248
650.94	23.889
651.27	24.022
651.60	27.207
651.92	24.476
652.25	22.913
652.58	22.167
652.90	25.557
653.23	24.874
653.56	25.550
653.88	23.883
654.21	21.891
654.54	24.448
654.86	25.127
655.19	23.977
655.52	25.232
655.84	22.109
656.17	24.432
656.49	32.836
656.82	33.322
657.15	25.509
657.47	18.866
657.80	13.914
658.13	13.456
658.45	20.370
658.78	20.204
659.10	20.146
659.43	20.470
659.75	21.066
660.08	20.552
660.41	22.574
660.73	22.099
661.06	25.997
661.38	20.939
661.71	24.230
662.03	25.322
662.36	27.692
662.68	24.558
663.01	26.856
663.33	26.218
663.66	24.651
663.98	23.721
664.31	26.439
664.63	22.811
664.96	22.826
665.28	24.283
665.61	24.892
665.93	23.913
666.26	25.380
666.58	23.266
666.91	24.000
667.23	25.943
667.56	24.882
667.88	25.899
668.21	25.776
668.53	24.586
668.86	22.877
669.18	25.472
669.50	22.760
669.83	24.651
670.15	23.310
670.48	25.598
670.80	28.341
671.13	23.490
671.45	20.548
671.77	28.970
672.10	21.980
672.42	23.034
672.75	26.288
673.07	25.045
673.39	25.872
673.72	23.274
674.04	21.458
674.37	25.636
674.69	25.054
675.01	26.000
675.34	26.126
675.66	27.083
675.98	25.721
676.31	24.541
676.63	25.416
676.95	24.545
677.28	26.824
677.60	28.675
677.92	26.147
678.25	24.726
678.57	25.758
678.89	24.580
679.22	26.398
679.54	26.104
679.86	25.447
680.18	23.107
680.51	22.159
680.83	23.062
681.15	24.400
681.48	26.230
681.80	23.347
682.12	25.806
682.44	22.803
682.77	24.945
683.09	24.485
683.41	26.136
683.73	25.346
684.06	24.336
684.38	22.151
684.70	25.490
685.02	22.407
685.34	22.727
685.67	21.388
685.99	24.593
686.31	23.717
686.63	22.263
686.96	21.293
687.28	21.818
687.60	24.335
687.92	27.273
688.24	25.202
688.56	24.891
688.89	23.437
689.21	26.889
689.53	24.362
689.85	22.558
690.17	24.554
690.49	24.586
690.82	22.087
691.14	22.619
691.46	22.430
691.78	23.649
692.10	24.086
692.42	23.160
692.74	25.214
693.06	23.874
693.39	22.851
693.71	22.398
694.03	21.016
694.35	26.636
694.67	23.990
694.99	20.888
695.31	25.326
695.63	26.750
695.95	22.727
696.27	24.352
696.59	25.278
696.91	27.171
697.23	24.165
697.56	24.752
697.88	26.022
698.20	24.146
698.52	23.529
698.84	23.206
699.16	21.250
699.48	22.556
699.80	24.566
700.12	28.841
700.44	25.210
700.76	24.709
701.08	23.030
701.40	26.205
701.72	28.395
702.04	25.413
702.36	28.094
702.68	26.126
703.00	24.242
703.32	26.393
703.64	22.316
703.96	25.797
704.28	24.233
704.60	24.762
704.91	24.290
705.23	19.269
705.55	30.035
705.87	26.354
706.19	25.185
706.51	23.024
706.83	27.331
707.15	22.741
707.47	24.930
707.79	21.615
708.11	25.750
708.43	24.000
708.74	24.548
709.06	25.915
709.38	27.217
709.70	26.923
710.02	23.567
710.34	25.697
710.66	21.154
710.98	23.510
711.29	25.574
711.61	25.763
711.93	27.036
712.25	29.210
712.57	23.810
712.89	27.239
713.20	24.567
713.52	24.042
713.84	22.526
714.16	21.993
714.48	23.548
714.80	25.000
715.11	24.012
715.43	24.138
715.75	24.333
716.07	20.598
716.39	23.154
716.70	24.354
717.02	22.137
717.34	30.769
717.66	23.009
717.97	28.261
718.29	23.849
718.61	22.835
718.93	27.519
719.24	23.194
719.56	24.498
719.88	23.711
720.20	23.106
720.51	18.774
720.83	22.394
721.15	24.790
721.46	25.403
721.78	21.739
722.10	25.651
722.42	15.768
722.73	27.347
723.05	25.306
723.37	29.237
723.68	26.577
724.00	27.778
724.32	15.556
724.63	28.182
724.95	21.834
725.27	21.659
725.58	20.763
725.90	24.206
726.22	27.799
726.53	26.780
726.85	29.588
727.16	25.283
727.48	24.696
727.80	23.482
728.11	22.034
728.43	20.392
728.74	16.935
729.06	28.800
729.38	28.195
729.69	19.124
730.01	19.615
730.32	24.254
730.64	23.675
730.96	24.906
731.27	22.333
731.59	23.051
731.90	21.975
732.22	26.814
732.53	25.914
732.85	22.695
733.16	25.926
733.48	24.460
733.80	23.913
734.11	23.729
734.43	22.337
734.74	25.455
735.06	20.521
735.37	22.659
735.69	23.569
736.00	18.815
736.32	24.161
736.63	25.000
736.95	21.160
737.26	24.555
737.58	24.832
737.89	23.810
738.21	19.549
738.52	28.807
738.83	24.454
739.15	24.017
739.46	26.772
739.78	23.077
740.09	26.144
740.41	22.464
740.72	19.685
741.04	23.887
741.35	23.830
741.66	27.014
741.98	21.939
742.29	24.257
742.61	27.749
742.92	16.114
743.23	21.759
743.55	30.317
743.86	19.139
744.18	18.660
744.49	21.277
744.80	23.913
745.12	25.668
745.43	13.659
745.74	25.000
746.06	28.293
746.37	28.272
746.68	22.275
747.00	22.872
747.31	26.866
747.62	19.903
747.94	24.880
748.25	20.297
748.56	34.973
748.88	15.707
749.19	30.319
749.50	24.138
749.82	19.340
750.13	23.853
750.44	27.068
750.75	23.134
751.07	28.832
751.38	22.989
751.69	21.961
752.01	26.744
752.32	23.506
752.63	24.506
752.94	19.397
753.26	26.778
753.57	22.624
753.88	21.681
754.19	20.417
754.51	21.488
754.82	18.623
755.13	31.667
755.44	20.161
755.75	23.047
756.07	23.735
756.38	20.755
756.69	19.540
757.00	25.000
757.31	23.856
757.63	19.817
757.94	21.944
758.25	20.000
758.56	19.947
758.87	21.813
759.18	23.053
759.50	19.273
759.81	26.756
760.12	25.484
760.43	22.727
760.74	20.988
761.05	25.538
761.36	20.739
761.67	24.242
761.99	28.571
762.30	22.545
762.61	23.715
762.92	21.267
763.23	16.216
763.54	21.495
763.85	15.678
764.16	23.651
764.47	21.371
764.78	21.978
765.10	23.232
765.41	22.397
765.72	24.762
766.03	24.060
766.34	21.533
766.65	23.506
766.96	23.232
767.27	25.532
767.58	12.644
767.89	13.475
768.20	28.977
768.51	20.879
768.82	21.182
769.13	18.894
769.44	20.172
769.75	20.548
770.06	26.293
770.37	24.038
770.68	22.335
770.99	20.814
771.30	26.961
771.61	20.814
771.92	25.431
772.23	25.123
772.54	24.731
772.85	25.309
773.16	28.090
773.47	31.373
773.78	30.719
774.09	23.952
774.39	20.000
774.70	24.204
775.01	32.414
775.32	22.857
775.63	22.314
775.94	24.427
776.25	22.835
776.56	14.167
776.87	25.000
777.18	14.530
777.48	12.069
777.79	16.522
778.10	20.000
778.41	23.423
778.72	19.841
779.03	27.068
779.34	19.149
779.65	19.863
779.95	24.658
780.26	21.379
780.57	16.260
780.88	14.961
781.19	26.724
781.50	25.581
781.80	21.893
782.11	27.673
782.42	23.846
782.73	18.705
783.04	23.704
783.34	16.667
783.65	11.111
783.96	24.590
784.27	35.172
784.57	17.886
784.88	17.969
785.19	27.000
785.50	27.000
785.81	18.103
786.11	28.448
786.42	18.447
786.73	29.091
787.04	14.286
787.34	15.179
787.65	28.571
787.96	19.469
788.26	19.091
788.57	22.222
788.88	21.875
789.19	17.460
789.49	17.391
789.80	22.449
790.11	15.152
790.41	9.091
790.72	16.304
791.03	15.909
791.33	26.250
791.64	20.000
791.95	33.721
792.25	13.830
792.56	26.966
792.87	-1.370
793.17	17.391
793.48	2.667
793.79	40.000
794.09	28.750
794.40	14.151
794.70	18.447
795.01	16.260
795.32	13.675
795.62	19.048
795.93	16.667
796.23	21.698
796.54	27.083
796.85	20.588
797.15	16.901
797.46	27.778
797.76	33.333
798.07	10.465
798.37	23.684
798.68	19.697
798.99	32.099
799.29	8.571
799.60	13.043
799.90	28.000
800.21	29.508
800.51	38.462
800.82	15.254
801.12	17.391
801.43	29.508
801.73	15.873
802.04	38.000
802.34	17.910
802.65	38.462
802.95	23.214
803.26	19.231
803.56	25.490
803.87	0.000
804.17	21.333
804.48	26.984
804.78	0.000
805.09	6.522
805.39	20.000
805.70	24.074
806.00	3.509
806.30	29.577
806.61	15.714
806.91	1.389
807.22	23.684
807.52	34.667
807.83	16.364
808.13	12.500
808.43	20.588
808.74	16.418
809.04	6.780
809.35	13.462
809.65	10.938
809.95	8.108
810.26	2.273
810.56	30.137
810.86	16.667
811.17	18.000
811.47	28.571
811.77	18.421
812.08	13.636
812.38	11.321
812.69	15.000
812.99	12.121
813.29	36.842
813.59	-5.714
813.90	15.909
814.20	-12.821
814.50	5.769
814.81	22.642
815.11	14.894
815.41	23.729
815.72	23.810
816.02	13.725
816.32	22.917
816.62	0.000
816.93	-10.811
817.23	-5.714
817.53	2.083
817.84	26.087
818.14	13.462
818.44	-2.632
818.74	10.870
819.04	5.000
819.35	2.703
819.65	-2.941
819.95	11.111
820.25	28.571
820.56	32.500
820.86	-6.897
821.16	60.000
821.46	23.404
821.76	37.500
822.07	6.977
822.37	13.514
822.67	-9.375
822.97	23.810
823.27	39.286
823.57	8.000
823.88	-22.222
824.18	-14.286
824.48	11.765
824.78	0.000
825.08	8.696
825.38	33.333
825.69	-12.500
825.99	15.789
826.29	25.000
826.59	-6.667
826.89	-38.095
827.19	19.565
827.49	17.500
827.79	20.000
828.09	-3.571
828.39	18.182
828.70	29.730
829.00	10.714
829.30	-33.333
829.60	-10.000
829.90	15.625
830.20	7.895
830.50	22.222
830.80	21.739
831.10	-9.091
831.40	51.515
831.70	29.032
832.00	0.000
832.30	-19.048
832.60	-91.667
832.90	31.034
833.20	-40.000
833.50	12.121
833.80	-18.519
834.10	-7.692
834.40	21.875
834.70	22.222
835.00	-10.526
835.30	46.154
835.60	40.000
835.90	9.677
836.20	27.273
836.50	10.714
836.80	-23.077
837.10	7.143
837.40	-400.000
837.70	-9.091
838.00	-118.182
838.30	-26.087
838.60	-30.769
838.90	27.273
839.19	7.143
839.49	10.000
839.79	-23.077
840.09	33.333
840.39	10.714
840.69	-14.286
840.99	-11.538
841.29	-5.263
841.59	-150.000
841.88	45.455
842.18	10.000
842.48	-12.500
842.78	13.333
843.08	-11.111
843.38	-110.000
843.68	21.739
843.97	66.667
844.27	-53.333
844.57	30.000
844.87	27.778
845.17	-57.143
845.47	6.667
845.76	-19.048
846.06	5.882
846.36	0.000
846.66	-50.000
846.96	-40.000
847.25	-175.000
847.55	64.286
847.85	-37.500
848.15	-31.818
848.44	-33.333
848.74	20.000
849.04	-7.407
849.34	18.182
849.63	-150.000
849.93	-220.000
850.23	-50.000
850.53	90.000
850.82	23.077
851.12	44.444
851.42	-6.667
851.71	-26.923
852.01	-28.571
852.31	-75.000
852.61	-45.455
852.90	0.000
853.20	5.263
853.50	-16.667
853.79	34.783
854.09	58.333
854.39	-15.789
854.68	-33.333
854.98	0.000
855.28	50.000
855.57	15.000
855.87	-16.667
856.17	22.222
856.46	14.286
856.76	13.333
857.05	0.000
857.35	36.000
857.65	0.000
857.94	23.077
858.24	24.138
858.53	-11.111
858.83	40.741
859.13	59.091
859.42	34.783
859.72	-100.000
860.01	-100.000
860.31	12.000
860.60	14.286
860.90	-66.667
861.20	-86.667
861.49	-300.000
861.79	40.000
862.08	35.000
862.38	120.000
862.67	-100.000
862.97	-33.333
863.26	-41.667
863.56	0.000
863.85	-333.333
864.15	50.000
864.44	-180.000
864.74	100.000
865.03	100.000
865.33	-40.000
865.62	33.333
865.92	-41.667
866.21	-150.000
866.51	18.750
866.80	-136.364
867.10	-600.000
867.39	-8.333
867.69	0.000
867.98	-30.769
868.27	-133.333
868.57	20.000
868.86	-11.111
869.16	-61.538
869.45	-20.000
869.75	-2000.000
870.04	0.000
870.33	-42.857
870.63	19.048
870.92	600.000
871.22	-260.000
871.51	-300.000
871.80	-55.556
872.10	66.667
>>>>>End Processed Spectral Data<<<<<
