SpectraSuite Data File
++++++++++++++++++++++++++++++++++++
Date: Fri May 15 20:41:32 PDT 2015
User: schluterlab
Dark Spectrum Present: Yes
Reference Spectrum Present: Yes
Number of Sampled Component Spectra: 1
Spectrometers: USB2E3373
Integration Time (usec): 3000 (USB2E3373)
Spectra Averaged: 3 (USB2E3373)
Boxcar Smoothing: 0 (USB2E3373)
Correct for Electrical Dark: No (USB2E3373)
Strobe/Lamp Enabled: No (USB2E3373)
Correct for Detector Non-linearity: No (USB2E3373)
Correct for Stray Light: No (USB2E3373)
Number of Pixels in Processed Spectrum: 2048
>>>>>Begin Processed Spectral Data<<<<<
178.53	0.000
178.91	0.000
179.29	37.500
179.67	-50.000
180.04	-157.143
180.42	-125.000
180.80	-600.000
181.18	200.000
181.56	450.000
181.94	100.000
182.31	400.000
182.69	-40.000
183.07	-200.000
183.45	0.000
183.83	116.667
184.20	72.727
184.58	144.444
184.96	-25.000
185.34	33.333
185.72	-350.000
186.09	61.538
186.47	-1200.000
186.85	33.333
187.23	44.444
187.61	800.000
187.98	-300.000
188.36	0.000
188.74	-100.000
189.12	29.412
189.49	16.667
189.87	0.000
190.25	42.857
190.63	100.000
191.00	-300.000
191.38	26.316
191.76	600.000
192.14	-75.000
192.51	-400.000
192.89	-22.222
193.27	-128.571
193.65	16.667
194.02	154.545
194.40	60.000
194.78	-62.500
195.15	-25.000
195.53	-87.500
195.91	25.000
196.29	-25.000
196.66	84.615
197.04	157.143
197.42	-88.889
197.79	-433.333
198.17	-23.077
198.55	1200.000
198.92	-333.333
199.30	-900.000
199.68	-140.000
200.05	-33.333
200.43	0.000
200.81	-100.000
201.18	-100.000
201.56	700.000
201.94	-450.000
202.31	-66.667
202.69	-100.000
203.07	75.000
203.44	800.000
203.82	0.000
204.19	14.286
204.57	-666.667
204.95	150.000
205.32	-30.000
205.70	-85.714
206.08	-75.000
206.45	233.333
206.83	14.286
207.20	-114.286
207.58	200.000
207.96	-133.333
208.33	-80.000
208.71	-275.000
209.08	-300.000
209.46	-500.000
209.84	-80.000
210.21	-800.000
210.59	-57.143
210.96	-50.000
211.34	-200.000
211.71	46.667
212.09	-14.286
212.46	-700.000
212.84	0.000
213.22	50.000
213.59	400.000
213.97	38.462
214.34	81.818
214.72	33.333
215.09	-75.000
215.47	-23.077
215.84	0.000
216.22	-166.667
216.59	-50.000
216.97	-250.000
217.34	200.000
217.72	-320.000
218.09	62.500
218.47	75.000
218.84	-500.000
219.22	-33.333
219.59	0.000
219.97	466.667
220.34	150.000
220.72	-71.429
221.09	-25.000
221.47	0.000
221.84	-700.000
222.22	-50.000
222.59	-9.091
222.97	33.333
223.34	-100.000
223.72	-78.571
224.09	23.810
224.46	10.714
224.84	666.667
225.21	-20.000
225.59	20.000
225.96	-50.000
226.34	300.000
226.71	28.571
227.08	-16.667
227.46	-150.000
227.83	-550.000
228.21	-33.333
228.58	27.273
228.95	37.500
229.33	50.000
229.70	-6.250
230.08	-12.500
230.45	-85.714
230.82	128.571
231.20	46.667
231.57	21.429
231.95	28.571
232.32	-100.000
232.69	21.429
233.07	-133.333
233.44	40.000
233.81	40.000
234.19	33.333
234.56	-29.412
234.93	650.000
235.31	125.000
235.68	-260.000
236.05	-46.154
236.43	-55.000
236.80	-11.765
237.17	-3.125
237.55	-20.000
237.92	-40.741
238.29	16.667
238.67	-26.667
239.04	-8.824
239.41	-24.390
239.79	-13.333
240.16	9.756
240.53	-13.158
240.91	-4.348
241.28	15.873
241.65	3.571
242.02	5.479
242.40	11.667
242.77	5.085
243.14	-12.121
243.51	5.000
243.89	12.644
244.26	-11.494
244.63	-14.286
245.00	9.278
245.38	10.309
245.75	-11.236
246.12	-1.724
246.49	-0.826
246.87	2.885
247.24	-5.882
247.61	-12.281
247.98	1.626
248.36	4.375
248.73	4.605
249.10	-0.649
249.47	2.532
249.84	3.268
250.22	6.471
250.59	3.922
250.96	9.390
251.33	-0.581
251.70	2.353
252.08	5.076
252.45	2.970
252.82	4.020
253.19	3.687
253.56	0.000
253.94	4.505
254.31	6.522
254.68	6.140
255.05	2.362
255.42	0.437
255.79	4.633
256.16	5.837
256.54	4.478
256.91	1.521
257.28	2.602
257.65	-0.749
258.02	3.901
258.39	5.051
258.76	3.663
259.14	4.319
259.51	4.207
259.88	7.560
260.25	2.288
260.62	4.514
260.99	1.017
261.36	1.027
261.73	1.582
262.10	3.647
262.47	1.840
262.85	0.940
263.22	5.846
263.59	3.115
263.96	2.484
264.33	5.152
264.70	3.869
265.07	1.786
265.44	5.949
265.81	2.825
266.18	4.098
266.55	7.198
266.92	4.145
267.29	4.700
267.66	3.836
268.03	1.832
268.40	1.567
268.77	5.080
269.14	5.755
269.51	4.113
269.88	3.491
270.25	-1.786
270.62	2.927
270.99	2.302
271.36	4.645
271.73	3.756
272.10	6.083
272.47	2.837
272.84	4.208
273.21	3.944
273.58	2.410
273.95	5.034
274.32	3.926
274.69	3.167
275.06	4.464
275.43	2.268
275.80	3.974
276.17	2.989
276.54	3.426
276.91	3.509
277.28	2.620
277.65	4.545
278.02	2.766
278.39	4.595
278.76	2.306
279.13	0.207
279.50	4.622
279.87	3.024
280.23	1.935
280.60	3.899
280.97	2.828
281.34	2.885
281.71	5.133
282.08	1.840
282.45	4.892
282.82	2.317
283.19	3.095
283.56	3.854
283.92	3.416
284.29	2.500
284.66	3.682
285.03	3.143
285.40	5.104
285.77	2.988
286.14	3.069
286.51	3.875
286.87	5.667
287.24	6.446
287.61	4.056
287.98	5.088
288.35	2.773
288.72	4.378
289.08	2.778
289.45	3.691
289.82	3.497
290.19	3.072
290.56	3.259
290.93	1.347
291.29	1.387
291.66	3.780
292.03	3.987
292.40	2.742
292.77	2.233
293.13	0.974
293.50	1.821
293.87	2.290
294.24	2.318
294.60	3.875
294.97	3.720
295.34	3.528
295.71	3.428
296.08	2.242
296.44	1.280
296.81	2.222
297.18	3.043
297.55	3.794
297.91	3.014
298.28	4.090
298.65	2.578
299.02	3.100
299.38	0.274
299.75	3.034
300.12	3.272
300.48	1.845
300.85	2.915
301.22	3.506
301.59	2.632
301.95	3.924
302.32	4.280
302.69	3.607
303.05	4.332
303.42	3.861
303.79	3.621
304.15	3.345
304.52	1.784
304.89	2.807
305.25	3.874
305.62	2.800
305.99	2.456
306.35	3.006
306.72	2.700
307.09	5.359
307.45	3.789
307.82	2.431
308.19	4.994
308.55	3.272
308.92	4.248
309.29	2.905
309.65	3.767
310.02	3.960
310.38	3.732
310.75	4.481
311.12	4.952
311.48	4.348
311.85	5.550
312.22	5.274
312.58	5.096
312.95	4.269
313.31	5.383
313.68	4.398
314.05	5.000
314.41	5.464
314.78	6.289
315.14	7.708
315.51	7.350
315.87	6.557
316.24	9.100
316.61	8.268
316.97	7.341
317.34	8.203
317.70	8.795
318.07	9.808
318.43	9.020
318.80	10.038
319.16	10.840
319.53	11.966
319.89	12.697
320.26	13.360
320.62	13.942
320.99	13.152
321.35	14.080
321.72	15.680
322.08	15.106
322.45	17.360
322.81	18.369
323.18	17.566
323.54	18.243
323.91	19.766
324.27	20.605
324.64	22.191
325.00	23.084
325.37	24.793
325.73	24.207
326.10	25.704
326.46	26.188
326.83	27.647
327.19	29.032
327.56	29.540
327.92	30.018
328.29	29.643
328.65	31.132
329.01	31.985
329.38	32.627
329.74	34.278
330.11	34.198
330.47	34.694
330.84	33.942
331.20	38.023
331.56	35.463
331.93	36.347
332.29	37.122
332.66	37.466
333.02	37.732
333.38	37.397
333.75	40.018
334.11	37.243
334.48	39.801
334.84	40.385
335.20	39.707
335.57	39.075
335.93	40.108
336.29	40.976
336.66	40.236
337.02	40.799
337.38	39.722
337.75	42.818
338.11	41.298
338.47	41.515
338.84	42.144
339.20	41.042
339.56	41.284
339.93	42.793
340.29	44.128
340.65	42.832
341.02	42.021
341.38	42.920
341.74	41.608
342.11	42.808
342.47	44.395
342.83	43.426
343.20	42.683
343.56	43.826
343.92	44.730
344.28	43.894
344.65	44.214
345.01	43.647
345.37	42.977
345.73	44.351
346.10	44.866
346.46	45.416
346.82	43.617
347.19	41.729
347.55	45.698
347.91	44.903
348.27	44.624
348.63	44.974
349.00	43.970
349.36	44.805
349.72	44.610
350.08	44.836
350.45	45.012
350.81	45.681
351.17	44.137
351.53	45.878
351.89	44.591
352.26	44.560
352.62	45.645
352.98	44.498
353.34	44.042
353.70	46.036
354.07	46.371
354.43	44.516
354.79	44.756
355.15	44.921
355.51	45.253
355.87	45.146
356.24	45.922
356.60	45.513
356.96	45.556
357.32	45.527
357.68	45.973
358.04	44.992
358.40	46.704
358.77	46.093
359.13	46.998
359.49	44.838
359.85	46.256
360.21	46.252
360.57	44.836
360.93	45.159
361.29	44.637
361.66	46.630
362.02	46.515
362.38	46.915
362.74	47.313
363.10	46.351
363.46	47.443
363.82	46.431
364.18	46.494
364.54	46.103
364.90	45.878
365.26	46.361
365.62	47.518
365.98	46.188
366.35	48.070
366.71	47.524
367.07	46.880
367.43	45.866
367.79	46.572
368.15	45.944
368.51	46.686
368.87	46.375
369.23	45.199
369.59	49.052
369.95	47.141
370.31	46.749
370.67	47.015
371.03	45.258
371.39	46.171
371.75	47.399
372.11	46.933
372.47	47.633
372.83	47.197
373.19	46.933
373.55	46.570
373.91	46.940
374.27	46.988
374.63	46.447
374.99	47.092
375.35	45.961
375.71	46.853
376.07	46.489
376.42	47.619
376.78	46.644
377.14	46.784
377.50	46.149
377.86	46.720
378.22	46.969
378.58	46.795
378.94	45.936
379.30	47.037
379.66	46.520
380.02	47.210
380.38	46.987
380.74	46.200
381.09	46.258
381.45	46.116
381.81	45.959
382.17	45.876
382.53	46.346
382.89	47.018
383.25	46.484
383.61	46.463
383.97	46.667
384.32	46.216
384.68	46.563
385.04	46.078
385.40	45.302
385.76	47.296
386.12	46.442
386.48	46.807
386.83	45.847
387.19	46.459
387.55	46.361
387.91	46.822
388.27	44.689
388.62	46.948
388.98	45.795
389.34	45.909
389.70	46.240
390.06	43.801
390.42	45.013
390.77	46.632
391.13	46.091
391.49	44.890
391.85	46.264
392.20	46.139
392.56	45.518
392.92	45.449
393.28	45.401
393.64	45.045
393.99	44.828
394.35	45.478
394.71	46.169
395.07	43.495
395.42	44.869
395.78	44.886
396.14	44.641
396.50	44.705
396.85	44.495
397.21	43.797
397.57	43.824
397.92	43.919
398.28	44.828
398.64	43.855
399.00	44.695
399.35	43.059
399.71	43.538
400.07	43.894
400.42	43.941
400.78	43.968
401.14	43.739
401.49	44.133
401.85	43.266
402.21	43.554
402.57	43.437
402.92	42.409
403.28	44.424
403.63	43.758
403.99	42.666
404.35	42.973
404.70	41.786
405.06	42.068
405.42	42.573
405.77	40.906
406.13	42.375
406.49	42.333
406.84	42.176
407.20	42.745
407.55	41.468
407.91	42.647
408.27	41.683
408.62	41.600
408.98	42.206
409.34	42.379
409.69	39.987
410.05	41.071
410.40	42.778
410.76	41.978
411.11	41.188
411.47	41.026
411.83	40.615
412.18	42.085
412.54	40.262
412.89	40.825
413.25	41.095
413.60	40.807
413.96	39.939
414.31	39.329
414.67	40.154
415.03	39.814
415.38	39.426
415.74	40.717
416.09	41.019
416.45	40.986
416.80	39.921
417.16	41.298
417.51	40.506
417.87	39.831
418.22	39.767
418.58	39.933
418.93	40.815
419.29	38.668
419.64	40.117
420.00	40.365
420.35	39.403
420.71	39.733
421.06	40.147
421.42	39.964
421.77	38.671
422.12	38.820
422.48	39.036
422.83	38.167
423.19	37.980
423.54	38.213
423.90	38.339
424.25	38.921
424.61	39.535
424.96	38.502
425.31	38.417
425.67	38.204
426.02	38.928
426.38	38.760
426.73	39.649
427.09	40.443
427.44	38.706
427.79	38.951
428.15	38.410
428.50	39.673
428.85	37.285
429.21	39.106
429.56	38.598
429.92	36.518
430.27	37.544
430.62	36.958
430.98	36.253
431.33	37.434
431.68	36.421
432.04	37.898
432.39	36.509
432.74	37.643
433.10	38.161
433.45	37.933
433.80	36.912
434.16	36.731
434.51	36.935
434.86	37.050
435.22	36.960
435.57	37.118
435.92	37.425
436.28	37.209
436.63	38.106
436.98	37.138
437.34	36.842
437.69	37.209
438.04	37.379
438.39	35.614
438.75	36.126
439.10	37.012
439.45	36.701
439.81	35.046
440.16	37.589
440.51	37.015
440.86	37.583
441.22	36.086
441.57	35.872
441.92	36.149
442.27	36.031
442.63	36.670
442.98	35.497
443.33	35.559
443.68	35.438
444.03	36.612
444.39	35.760
444.74	36.288
445.09	36.359
445.44	35.954
445.79	37.236
446.15	35.242
446.50	35.885
446.85	36.769
447.20	35.923
447.55	35.547
447.91	36.210
448.26	34.718
448.61	34.888
448.96	35.112
449.31	35.665
449.66	34.030
450.02	34.797
450.37	35.922
450.72	34.422
451.07	35.316
451.42	34.270
451.77	34.479
452.12	34.211
452.47	34.192
452.83	34.865
453.18	34.156
453.53	34.008
453.88	34.183
454.23	34.604
454.58	35.013
454.93	34.729
455.28	32.317
455.63	34.594
455.98	34.516
456.34	34.483
456.69	35.006
457.04	34.342
457.39	33.232
457.74	34.160
458.09	32.313
458.44	33.704
458.79	32.717
459.14	34.325
459.49	34.030
459.84	33.390
460.19	32.282
460.54	33.680
460.89	33.466
461.24	33.540
461.59	33.432
461.94	32.956
462.29	33.474
462.64	34.020
462.99	33.717
463.34	31.433
463.69	31.596
464.04	32.627
464.39	32.747
464.74	32.270
465.09	33.063
465.44	31.968
465.79	31.349
466.14	31.414
466.49	31.397
466.84	30.934
467.19	31.915
467.54	31.545
467.89	31.712
468.24	31.144
468.59	32.571
468.94	30.794
469.29	31.541
469.64	32.194
469.99	32.165
470.34	30.648
470.68	33.557
471.03	31.706
471.38	30.813
471.73	32.213
472.08	30.597
472.43	31.208
472.78	30.021
473.13	30.408
473.48	30.163
473.83	30.075
474.17	31.671
474.52	30.185
474.87	29.758
475.22	30.567
475.57	30.040
475.92	30.664
476.27	30.384
476.61	30.382
476.96	30.229
477.31	29.259
477.66	30.225
478.01	29.759
478.36	29.902
478.70	30.451
479.05	30.220
479.40	29.253
479.75	29.771
480.10	28.725
480.45	30.000
480.79	29.305
481.14	29.662
481.49	28.719
481.84	28.089
482.19	28.625
482.53	29.065
482.88	28.449
483.23	28.791
483.58	28.868
483.92	28.993
484.27	27.438
484.62	28.507
484.97	27.861
485.31	26.987
485.66	26.706
486.01	26.262
486.36	26.022
486.70	26.595
487.05	26.804
487.40	26.603
487.75	26.732
488.09	26.761
488.44	26.685
488.79	27.083
489.13	27.444
489.48	27.448
489.83	27.130
490.17	27.101
490.52	27.483
490.87	27.441
491.22	27.364
491.56	26.992
491.91	27.151
492.26	27.321
492.60	26.775
492.95	27.742
493.30	27.015
493.64	27.358
493.99	26.135
494.34	26.699
494.68	27.000
495.03	26.423
495.37	26.938
495.72	27.511
496.07	26.780
496.41	26.179
496.76	26.117
497.11	25.431
497.45	26.730
497.80	26.589
498.14	26.329
498.49	26.460
498.84	25.898
499.18	25.853
499.53	25.645
499.87	25.389
500.22	25.865
500.56	25.517
500.91	26.054
501.26	25.161
501.60	24.988
501.95	25.473
502.29	25.908
502.64	25.145
502.98	25.752
503.33	24.304
503.67	25.590
504.02	25.660
504.36	25.482
504.71	24.747
505.06	24.560
505.40	25.127
505.75	25.258
506.09	24.785
506.44	25.359
506.78	24.694
507.13	25.181
507.47	24.073
507.82	24.038
508.16	24.564
508.51	24.711
508.85	24.594
509.19	23.523
509.54	24.826
509.88	24.703
510.23	24.583
510.57	25.120
510.92	23.081
511.26	24.059
511.61	24.037
511.95	23.945
512.30	24.390
512.64	23.984
512.98	24.200
513.33	24.287
513.67	23.138
514.02	23.970
514.36	25.200
514.70	24.184
515.05	24.148
515.39	24.262
515.74	24.611
516.08	24.328
516.42	24.971
516.77	23.640
517.11	24.570
517.46	23.639
517.80	23.421
518.14	24.127
518.49	24.279
518.83	24.848
519.17	23.226
519.52	23.387
519.86	23.109
520.20	23.694
520.55	23.139
520.89	24.216
521.23	23.369
521.58	24.669
521.92	23.782
522.26	24.138
522.61	23.766
522.95	24.702
523.29	22.872
523.64	23.443
523.98	23.914
524.32	22.294
524.66	23.367
525.01	22.792
525.35	23.007
525.69	23.232
526.04	23.016
526.38	24.189
526.72	22.302
527.06	23.930
527.41	22.559
527.75	22.855
528.09	22.525
528.43	24.173
528.78	22.772
529.12	22.581
529.46	22.677
529.80	23.369
530.15	22.442
530.49	23.098
530.83	22.025
531.17	23.237
531.51	22.709
531.86	21.754
532.20	21.642
532.54	22.941
532.88	22.724
533.22	22.513
533.57	22.018
533.91	21.018
534.25	23.112
534.59	21.937
534.93	21.397
535.27	20.939
535.62	20.674
535.96	21.526
536.30	22.493
536.64	20.675
536.98	21.463
537.32	21.408
537.66	23.072
538.01	22.448
538.35	20.180
538.69	21.172
539.03	20.506
539.37	21.198
539.71	20.927
540.05	21.181
540.39	20.983
540.73	20.084
541.07	21.478
541.42	20.430
541.76	20.853
542.10	21.060
542.44	20.639
542.78	19.408
543.12	20.124
543.46	21.280
543.80	20.194
544.14	19.559
544.48	20.786
544.82	20.574
545.16	20.492
545.50	20.027
545.84	20.751
546.18	20.496
546.52	19.899
546.86	19.914
547.20	21.030
547.54	19.576
547.88	20.380
548.22	19.001
548.56	19.789
548.90	20.081
549.24	19.904
549.58	19.605
549.92	19.728
550.26	19.780
550.60	20.297
550.94	20.986
551.28	20.402
551.62	20.385
551.96	20.150
552.30	18.933
552.64	19.394
552.98	19.620
553.32	18.331
553.66	18.940
554.00	18.905
554.34	20.015
554.68	20.354
555.02	19.643
555.36	19.297
555.69	18.608
556.03	19.129
556.37	19.217
556.71	19.278
557.05	18.568
557.39	18.439
557.73	19.715
558.07	18.326
558.41	19.066
558.75	19.330
559.08	18.676
559.42	19.048
559.76	19.536
560.10	18.731
560.44	18.466
560.78	19.580
561.12	18.054
561.45	18.412
561.79	18.908
562.13	18.950
562.47	17.554
562.81	18.012
563.15	18.124
563.48	17.893
563.82	18.600
564.16	17.827
564.50	18.243
564.84	18.407
565.17	17.773
565.51	18.511
565.85	18.381
566.19	18.568
566.52	17.828
566.86	18.123
567.20	16.687
567.54	17.153
567.88	16.930
568.21	17.760
568.55	18.152
568.89	17.351
569.23	16.948
569.56	15.806
569.90	16.768
570.24	15.966
570.57	15.855
570.91	16.626
571.25	15.061
571.59	15.852
571.92	15.052
572.26	15.338
572.60	15.504
572.93	15.344
573.27	14.420
573.61	15.871
573.95	15.483
574.28	14.857
574.62	14.925
574.96	15.233
575.29	14.791
575.63	14.512
575.97	14.421
576.30	14.563
576.64	14.331
576.98	15.135
577.31	15.114
577.65	14.817
577.98	14.391
578.32	14.265
578.66	14.335
578.99	14.389
579.33	14.239
579.67	14.913
580.00	14.506
580.34	14.726
580.67	14.219
581.01	14.553
581.35	13.975
581.68	14.111
582.02	14.058
582.35	14.132
582.69	14.199
583.02	14.206
583.36	14.265
583.70	14.772
584.03	14.623
584.37	14.766
584.70	13.901
585.04	14.093
585.37	14.005
585.71	13.602
586.04	13.868
586.38	13.577
586.72	14.232
587.05	13.980
587.39	14.202
587.72	14.762
588.06	14.392
588.39	14.554
588.73	14.805
589.06	14.514
589.40	14.310
589.73	14.640
590.07	14.199
590.40	14.396
590.73	15.074
591.07	13.868
591.40	14.693
591.74	14.344
592.07	14.750
592.41	14.708
592.74	14.098
593.08	14.041
593.41	13.542
593.75	13.641
594.08	13.560
594.41	14.374
594.75	13.664
595.08	14.302
595.42	13.802
595.75	13.819
596.09	14.034
596.42	14.262
596.75	14.165
597.09	13.895
597.42	14.002
597.75	14.613
598.09	13.762
598.42	13.718
598.76	13.556
599.09	13.702
599.42	12.770
599.76	13.093
600.09	13.575
600.42	13.723
600.76	13.484
601.09	12.977
601.42	13.396
601.76	13.497
602.09	13.614
602.42	14.238
602.76	13.497
603.09	13.663
603.42	13.963
603.76	13.347
604.09	13.487
604.42	13.663
604.76	13.796
605.09	13.757
605.42	13.860
605.75	13.835
606.09	13.588
606.42	13.636
606.75	13.636
607.09	14.418
607.42	13.425
607.75	13.277
608.08	13.208
608.42	13.476
608.75	13.639
609.08	13.453
609.41	13.959
609.75	13.206
610.08	14.029
610.41	13.237
610.74	13.311
611.07	13.437
611.41	12.870
611.74	14.286
612.07	13.704
612.40	13.293
612.73	13.503
613.07	13.048
613.40	14.442
613.73	13.374
614.06	14.469
614.39	13.931
614.72	13.165
615.06	13.520
615.39	12.937
615.72	12.648
616.05	13.743
616.38	13.162
616.71	13.639
617.05	13.280
617.38	14.268
617.71	12.956
618.04	13.968
618.37	14.313
618.70	14.059
619.03	13.958
619.36	13.025
619.69	14.102
620.03	14.755
620.36	14.378
620.69	14.133
621.02	14.067
621.35	14.689
621.68	14.201
622.01	14.917
622.34	14.126
622.67	14.748
623.00	14.701
623.33	14.634
623.66	14.435
623.99	13.540
624.32	14.601
624.65	13.008
624.99	14.447
625.32	13.192
625.65	14.454
625.98	14.102
626.31	13.383
626.64	14.211
626.97	14.049
627.30	14.273
627.63	14.731
627.96	14.016
628.29	14.986
628.62	15.241
628.95	14.729
629.28	14.113
629.61	13.559
629.94	14.956
630.26	15.316
630.59	15.401
630.92	14.564
631.25	14.051
631.58	14.097
631.91	13.268
632.24	15.023
632.57	15.909
632.90	14.235
633.23	15.176
633.56	13.350
633.89	15.290
634.22	16.667
634.55	15.502
634.88	14.559
635.20	15.513
635.53	14.800
635.86	13.264
636.19	15.395
636.52	14.286
636.85	14.516
637.18	12.704
637.51	14.088
637.83	15.900
638.16	15.689
638.49	13.215
638.82	15.263
639.15	13.840
639.48	14.993
639.81	16.597
640.13	15.007
640.46	15.306
640.79	13.697
641.12	14.180
641.45	16.066
641.77	16.889
642.10	18.325
642.43	14.469
642.76	16.172
643.09	18.255
643.41	15.372
643.74	14.003
644.07	16.092
644.40	15.372
644.73	16.287
645.05	16.779
645.38	15.873
645.71	15.071
646.04	17.415
646.36	14.716
646.69	15.108
647.02	17.013
647.35	16.045
647.67	18.099
648.00	14.552
648.33	16.894
648.66	13.729
648.98	13.568
649.31	13.554
649.64	13.972
649.96	13.290
650.29	16.525
650.62	14.530
650.94	15.000
651.27	16.387
651.60	16.216
651.92	15.909
652.25	14.565
652.58	15.667
652.90	16.123
653.23	13.782
653.56	15.228
653.88	15.464
654.21	12.960
654.54	14.261
654.86	14.771
655.19	12.719
655.52	12.616
655.84	10.531
656.17	11.096
656.49	15.229
656.82	15.681
657.15	11.868
657.47	9.156
657.80	6.791
658.13	6.834
658.45	9.926
658.78	10.520
659.10	10.999
659.43	10.958
659.75	11.741
660.08	11.448
660.41	13.687
660.73	14.641
661.06	15.425
661.38	15.068
661.71	12.526
662.03	16.309
662.36	13.846
662.68	12.832
663.01	16.594
663.33	12.761
663.66	12.791
663.98	14.186
664.31	15.991
664.63	16.129
664.96	13.696
665.28	11.038
665.61	13.636
665.93	14.348
666.26	16.269
666.58	11.857
666.91	15.294
667.23	17.925
667.56	14.692
667.88	11.511
668.21	13.126
668.53	13.948
668.86	15.330
669.18	12.972
669.50	13.075
669.83	14.884
670.15	15.385
670.48	12.919
670.80	14.747
671.13	12.528
671.45	11.416
671.77	16.094
672.10	15.446
672.42	14.981
672.75	13.499
673.07	14.669
673.39	14.862
673.72	12.032
674.04	10.833
674.37	15.254
674.69	12.420
675.01	16.444
675.34	13.063
675.66	15.046
675.98	14.412
676.31	15.826
676.63	11.401
676.95	13.409
677.28	15.059
677.60	16.386
677.92	15.138
678.25	14.004
678.57	12.771
678.89	14.916
679.22	16.331
679.54	12.851
679.86	10.934
680.18	11.068
680.51	13.258
680.83	12.127
681.15	12.000
681.48	15.164
681.80	14.256
682.12	12.097
682.44	12.762
682.77	12.804
683.09	13.272
683.41	14.545
683.73	11.751
684.06	13.496
684.38	14.409
684.70	13.943
685.02	14.523
685.34	13.636
685.67	12.008
685.99	10.850
686.31	12.743
686.63	12.616
686.96	10.837
687.28	7.879
687.60	10.646
687.92	12.727
688.24	14.919
688.56	12.882
688.89	15.402
689.21	15.333
689.53	11.137
689.85	11.628
690.17	12.277
690.49	11.348
690.82	13.835
691.14	13.095
691.46	14.486
691.78	12.387
692.10	16.129
692.42	11.905
692.74	13.462
693.06	12.387
693.39	12.896
693.71	11.991
694.03	11.085
694.35	13.551
694.67	12.879
694.99	13.577
695.31	16.449
695.63	12.250
695.95	11.869
696.27	15.285
696.59	14.722
696.91	14.286
697.23	13.111
697.56	12.129
697.88	13.548
698.20	12.528
698.52	11.529
698.84	8.852
699.16	11.500
699.48	11.278
699.80	10.670
700.12	11.590
700.44	15.966
700.76	9.302
701.08	11.212
701.40	8.133
701.72	12.346
702.04	14.851
702.36	13.378
702.68	8.408
703.00	10.303
703.32	11.437
703.64	11.017
703.96	12.754
704.28	13.804
704.60	14.286
704.91	10.095
705.23	12.957
705.55	14.488
705.87	11.552
706.19	12.963
706.51	12.715
706.83	11.897
707.15	8.723
707.47	12.885
707.79	12.240
708.11	14.750
708.43	13.000
708.74	11.886
709.06	15.211
709.38	12.844
709.70	15.976
710.02	13.376
710.34	13.313
710.66	8.974
710.98	10.596
711.29	16.393
711.61	10.508
711.93	12.052
712.25	13.058
712.57	12.821
712.89	10.448
713.20	14.533
713.52	10.801
713.84	13.652
714.16	8.591
714.48	11.935
714.80	13.141
715.11	10.942
715.43	10.345
715.75	9.667
716.07	8.638
716.39	11.745
716.70	12.177
717.02	7.252
717.34	12.551
717.66	6.195
717.97	6.522
718.29	17.155
718.61	11.024
718.93	11.240
719.24	10.646
719.56	10.442
719.88	13.058
720.20	14.773
720.51	8.046
720.83	10.811
721.15	12.605
721.46	11.694
721.78	5.929
722.10	9.294
722.42	13.693
722.73	9.388
723.05	14.286
723.37	14.407
723.68	14.414
724.00	11.111
724.32	8.889
724.63	15.000
724.95	14.410
725.27	7.373
725.58	13.136
725.90	6.746
726.22	8.880
726.53	12.203
726.85	10.861
727.16	15.849
727.48	9.312
727.80	16.599
728.11	5.508
728.43	10.980
728.74	7.258
729.06	12.000
729.38	14.662
729.69	13.147
730.01	3.846
730.32	11.940
730.64	14.488
730.96	9.811
731.27	13.000
731.59	12.203
731.90	7.643
732.22	13.249
732.53	13.289
732.85	11.348
733.16	12.795
733.48	8.633
733.80	8.696
734.11	13.220
734.43	8.935
734.74	10.606
735.06	5.863
735.37	10.876
735.69	12.458
736.00	5.923
736.32	9.396
736.63	11.972
736.95	8.874
737.26	10.320
737.58	8.389
737.89	9.890
738.21	13.910
738.52	10.288
738.83	12.227
739.15	4.803
739.46	11.417
739.78	8.059
740.09	8.497
740.41	11.594
740.72	6.299
741.04	12.551
741.35	9.787
741.66	7.583
741.98	9.694
742.29	9.406
742.61	16.754
742.92	8.531
743.23	9.259
743.55	9.502
743.86	9.569
744.18	6.699
744.49	9.043
744.80	13.587
745.12	17.112
745.43	10.732
745.74	15.625
746.06	14.146
746.37	5.759
746.68	16.588
747.00	2.660
747.31	13.930
747.62	11.650
747.94	8.612
748.25	6.931
748.56	10.929
748.88	8.901
749.19	14.894
749.50	9.360
749.82	4.717
750.13	4.587
750.44	16.165
750.75	13.806
751.07	12.774
751.38	9.579
751.69	7.843
752.01	9.302
752.32	10.757
752.63	8.300
752.94	10.345
753.26	17.992
753.57	9.955
753.88	7.965
754.19	10.417
754.51	9.917
754.82	6.883
755.13	15.000
755.44	11.290
755.75	10.156
756.07	9.728
756.38	7.547
756.69	8.429
757.00	11.667
757.31	12.092
757.63	10.366
757.94	6.944
758.25	5.753
758.56	8.777
758.87	9.065
759.18	7.477
759.50	5.455
759.81	9.365
760.12	9.355
760.43	6.364
760.74	8.025
761.05	8.308
761.36	7.955
761.67	10.000
761.99	8.163
762.30	5.818
762.61	10.277
762.92	11.765
763.23	12.162
763.54	8.879
763.85	9.746
764.16	15.353
764.47	6.452
764.78	6.227
765.10	12.458
765.41	8.202
765.72	9.206
766.03	6.767
766.34	10.949
766.65	10.757
766.96	13.636
767.27	12.234
767.58	8.621
767.89	7.801
768.20	6.818
768.51	12.637
768.82	13.793
769.13	11.982
769.44	6.438
769.75	7.763
770.06	12.500
770.37	9.135
770.68	10.660
770.99	6.787
771.30	11.275
771.61	11.312
771.92	14.224
772.23	7.389
772.54	12.366
772.85	7.407
773.16	8.989
773.47	13.072
773.78	9.150
774.09	10.180
774.39	11.333
774.70	12.102
775.01	12.414
775.32	7.143
775.63	4.132
775.94	10.687
776.25	7.087
776.56	5.000
776.87	6.731
777.18	0.000
777.48	12.069
777.79	2.609
778.10	-4.762
778.41	-3.604
778.72	14.286
779.03	8.271
779.34	6.383
779.65	11.644
779.95	4.110
780.26	13.793
780.57	2.439
780.88	3.937
781.19	13.793
781.50	17.054
781.80	7.101
782.11	11.950
782.42	8.462
782.73	-0.719
783.04	9.630
783.34	7.639
783.65	-5.128
783.96	12.295
784.27	8.966
784.57	13.008
784.88	11.719
785.19	7.000
785.50	13.000
785.81	16.379
786.11	11.207
786.42	-1.942
786.73	8.182
787.04	9.184
787.34	4.464
787.65	2.857
787.96	-2.655
788.26	0.000
788.57	5.128
788.88	11.719
789.19	8.730
789.49	9.565
789.80	4.082
790.11	2.020
790.41	8.182
790.72	10.870
791.03	11.364
791.33	2.500
791.64	6.250
791.95	5.814
792.25	7.447
792.56	12.360
792.87	6.849
793.17	-8.696
793.48	-2.667
793.79	11.250
794.09	20.000
794.40	11.321
794.70	-0.971
795.01	9.756
795.32	6.838
795.62	14.286
795.93	9.804
796.23	16.038
796.54	8.333
796.85	10.294
797.15	11.268
797.46	9.722
797.76	0.000
798.07	3.488
798.37	-6.579
798.68	-7.576
798.99	8.642
799.29	14.286
799.60	5.797
799.90	20.000
800.21	22.951
800.51	7.692
800.82	-1.695
801.12	1.449
801.43	-3.279
801.73	7.937
802.04	20.000
802.34	8.955
802.65	9.615
802.95	-17.857
803.26	9.615
803.56	-1.961
803.87	-13.043
804.17	14.667
804.48	7.937
804.78	5.556
805.09	0.000
805.39	2.222
805.70	24.074
806.00	-19.298
806.30	9.859
806.61	4.286
806.91	-9.722
807.22	1.316
807.52	26.667
807.83	-1.818
808.13	13.889
808.43	13.235
808.74	-8.955
809.04	-8.475
809.35	-1.923
809.65	14.062
809.95	-24.324
810.26	-20.455
810.56	10.959
810.86	-4.762
811.17	10.000
811.47	4.082
811.77	-21.053
812.08	-2.273
812.38	7.547
812.69	2.500
812.99	15.152
813.29	5.263
813.59	-37.143
813.90	-13.636
814.20	-15.385
814.50	11.538
814.81	5.660
815.11	-8.511
815.41	23.729
815.72	4.762
816.02	9.804
816.32	10.417
816.62	9.756
816.93	5.405
817.23	20.000
817.53	10.417
817.84	-21.739
818.14	19.231
818.44	0.000
818.74	10.870
819.04	-37.500
819.35	8.108
819.65	35.294
819.95	19.444
820.25	-2.381
820.56	5.000
820.86	-13.793
821.16	2.500
821.46	0.000
821.76	12.500
822.07	13.953
822.37	-35.135
822.67	-28.125
822.97	21.429
823.27	-28.571
823.57	-24.000
823.88	-48.148
824.18	25.000
824.48	-17.647
824.78	-35.484
825.08	-34.783
825.38	21.212
825.69	-33.333
825.99	-21.053
826.29	-5.556
826.59	-6.667
826.89	-57.143
827.19	-8.696
827.49	-5.000
827.79	8.571
828.09	7.143
828.39	30.303
828.70	16.216
829.00	-21.429
829.30	-66.667
829.60	-36.667
829.90	-6.250
830.20	-7.895
830.50	-7.407
830.80	-21.739
831.10	-13.636
831.40	12.121
831.70	6.452
832.00	4.762
832.30	14.286
832.60	-25.000
832.90	-10.345
833.20	-15.000
833.50	6.061
833.80	3.704
834.10	-15.385
834.40	21.875
834.70	-66.667
835.00	-21.053
835.30	46.154
835.60	-33.333
835.90	19.355
836.20	9.091
836.50	-21.429
836.80	-19.231
837.10	-10.714
837.40	-333.333
837.70	4.545
838.00	0.000
838.30	-21.739
838.60	69.231
838.90	-18.182
839.19	-17.857
839.49	16.667
839.79	0.000
840.09	-133.333
840.39	46.429
840.69	10.714
840.99	3.846
841.29	-36.842
841.59	-40.000
841.88	-27.273
842.18	-70.000
842.48	0.000
842.78	-26.667
843.08	0.000
843.38	-90.000
843.68	-17.391
843.97	13.333
844.27	-66.667
844.57	-15.000
844.87	-50.000
845.17	-38.095
845.47	-80.000
845.76	-4.762
846.06	-23.529
846.36	-20.000
846.66	-64.286
846.96	-33.333
847.25	-150.000
847.55	-21.429
847.85	12.500
848.15	-9.091
848.44	-633.333
848.74	30.000
849.04	14.815
849.34	9.091
849.63	-183.333
849.93	-340.000
850.23	27.778
850.53	10.000
850.82	-30.769
851.12	-111.111
851.42	-33.333
851.71	7.692
852.01	-21.429
852.31	-75.000
852.61	-45.455
852.90	-40.000
853.20	21.053
853.50	25.000
853.79	39.130
854.09	8.333
854.39	-15.789
854.68	-4.167
854.98	-19.355
855.28	19.231
855.57	5.000
855.87	55.556
856.17	-11.111
856.46	64.286
856.76	-60.000
857.05	-11.111
857.35	4.000
857.65	5.556
857.94	7.692
858.24	31.034
858.53	66.667
858.83	25.926
859.13	18.182
859.42	-39.130
859.72	50.000
860.01	100.000
860.31	0.000
860.60	-33.333
860.90	-133.333
861.20	-60.000
861.49	-600.000
861.79	-80.000
862.08	30.000
862.38	106.667
862.67	-180.000
862.97	-250.000
863.26	8.333
863.56	-11.111
863.85	-333.333
864.15	66.667
864.44	-90.000
864.74	35.714
865.03	150.000
865.33	-160.000
865.62	-16.667
865.92	8.333
866.21	-166.667
866.51	-12.500
866.80	-18.182
867.10	-400.000
867.39	25.000
867.69	0.000
867.98	-7.692
868.27	-33.333
868.57	6.667
868.86	5.556
869.16	-61.538
869.45	53.333
869.75	-1100.000
870.04	0.000
870.33	-100.000
870.63	23.810
870.92	733.333
871.22	-260.000
871.51	-700.000
871.80	55.556
872.10	300.000
>>>>>End Processed Spectral Data<<<<<
