SpectraSuite Data File
++++++++++++++++++++++++++++++++++++
Date: Fri May 15 20:31:39 PDT 2015
User: schluterlab
Dark Spectrum Present: Yes
Reference Spectrum Present: Yes
Number of Sampled Component Spectra: 1
Spectrometers: USB2E3373
Integration Time (usec): 3000 (USB2E3373)
Spectra Averaged: 3 (USB2E3373)
Boxcar Smoothing: 0 (USB2E3373)
Correct for Electrical Dark: No (USB2E3373)
Strobe/Lamp Enabled: No (USB2E3373)
Correct for Detector Non-linearity: No (USB2E3373)
Correct for Stray Light: No (USB2E3373)
Number of Pixels in Processed Spectrum: 2048
>>>>>Begin Processed Spectral Data<<<<<
178.53	0.000
178.91	0.000
179.29	87.500
179.67	-400.000
180.04	71.429
180.42	275.000
180.80	-100.000
181.18	400.000
181.56	600.000
181.94	150.000
182.31	600.000
182.69	-160.000
183.07	66.667
183.45	200.000
183.83	133.333
184.20	-18.182
184.58	77.778
184.96	-25.000
185.34	-0.000
185.72	-350.000
186.09	123.077
186.47	-700.000
186.85	116.667
187.23	133.333
187.61	600.000
187.98	-300.000
188.36	-66.667
188.74	-200.000
189.12	-11.765
189.49	11.111
189.87	0.000
190.25	50.000
190.63	100.000
191.00	-366.667
191.38	-42.105
191.76	-150.000
192.14	225.000
192.51	-450.000
192.89	-66.667
193.27	-14.286
193.65	200.000
194.02	72.727
194.40	20.000
194.78	-187.500
195.15	8.333
195.53	-150.000
195.91	325.000
196.29	-50.000
196.66	107.692
197.04	171.429
197.42	-22.222
197.79	-400.000
198.17	-92.308
198.55	300.000
198.92	-466.667
199.30	-500.000
199.68	-280.000
200.05	-333.333
200.43	0.000
200.81	133.333
201.18	-233.333
201.56	900.000
201.94	-600.000
202.31	33.333
202.69	-200.000
203.07	150.000
203.44	-100.000
203.82	0.000
204.19	57.143
204.57	-333.333
204.95	75.000
205.32	50.000
205.70	28.571
206.08	-250.000
206.45	200.000
206.83	28.571
207.20	-28.571
207.58	600.000
207.96	-400.000
208.33	-130.000
208.71	-100.000
209.08	-250.000
209.46	-500.000
209.84	-100.000
210.21	-1000.000
210.59	28.571
210.96	0.000
211.34	25.000
211.71	46.667
212.09	-42.857
212.46	-1100.000
212.84	0.000
213.22	60.000
213.59	250.000
213.97	46.154
214.34	36.364
214.72	0.000
215.09	350.000
215.47	-7.692
215.84	9.091
216.22	-266.667
216.59	-62.500
216.97	450.000
217.34	-25.000
217.72	-340.000
218.09	25.000
218.47	175.000
218.84	-300.000
219.22	-88.889
219.59	20.000
219.97	600.000
220.34	50.000
220.72	-42.857
221.09	-175.000
221.47	-150.000
221.84	-550.000
222.22	-950.000
222.59	63.636
222.97	-25.000
223.34	-466.667
223.72	-14.286
224.09	14.286
224.46	-14.286
224.84	533.333
225.21	-50.000
225.59	20.000
225.96	-150.000
226.34	275.000
226.71	-85.714
227.08	100.000
227.46	-37.500
227.83	-550.000
228.21	55.556
228.58	-18.182
228.95	-37.500
229.33	120.000
229.70	-18.750
230.08	-112.500
230.45	-142.857
230.82	0.000
231.20	-66.667
231.57	-7.143
231.95	-85.714
232.32	-80.000
232.69	21.429
233.07	0.000
233.44	60.000
233.81	-20.000
234.19	11.111
234.56	11.765
234.93	200.000
235.31	-25.000
235.68	-120.000
236.05	-130.769
236.43	-10.000
236.80	-23.529
237.17	21.875
237.55	0.000
237.92	14.815
238.29	8.333
238.67	33.333
239.04	52.941
239.41	2.439
239.79	-6.667
240.16	43.902
240.53	21.053
240.91	21.739
241.28	14.286
241.65	44.643
242.02	38.356
242.40	23.333
242.77	18.644
243.14	21.212
243.51	38.750
243.89	40.230
244.26	25.287
244.63	34.524
245.00	29.897
245.38	41.237
245.75	24.719
246.12	25.862
246.49	28.099
246.87	33.654
247.24	31.092
247.61	33.333
247.98	30.081
248.36	27.500
248.73	30.921
249.10	35.714
249.47	34.810
249.84	33.333
250.22	37.059
250.59	34.641
250.96	37.089
251.33	29.651
251.70	37.647
252.08	32.487
252.45	35.644
252.82	34.171
253.19	35.023
253.56	30.841
253.94	35.135
254.31	35.652
254.68	36.842
255.05	30.709
255.42	31.878
255.79	31.274
256.16	35.409
256.54	36.940
256.91	32.319
257.28	33.086
257.65	35.955
258.02	29.078
258.39	34.343
258.76	37.729
259.14	36.877
259.51	30.744
259.88	35.052
260.25	34.314
260.62	35.764
260.99	34.237
261.36	33.904
261.73	33.228
262.10	34.347
262.47	34.049
262.85	32.288
263.22	33.846
263.59	37.072
263.96	38.820
264.33	37.273
264.70	33.631
265.07	37.798
265.44	37.110
265.81	35.311
266.18	35.246
266.55	34.190
266.92	35.233
267.29	33.681
267.66	35.294
268.03	37.173
268.40	32.898
268.77	39.840
269.14	34.772
269.51	36.504
269.88	38.404
270.25	36.480
270.62	34.390
270.99	33.504
271.36	33.252
271.73	34.742
272.10	38.200
272.47	34.279
272.84	34.901
273.21	37.123
273.58	35.663
273.95	33.867
274.32	34.642
274.69	32.127
275.06	35.938
275.43	33.333
275.80	35.541
276.17	32.414
276.54	33.191
276.91	35.088
277.28	34.061
277.65	34.504
278.02	32.340
278.39	34.354
278.76	33.962
279.13	31.535
279.50	35.084
279.87	33.693
280.23	32.903
280.60	36.842
280.97	34.545
281.34	31.346
281.71	36.756
282.08	34.356
282.45	30.920
282.82	31.660
283.19	31.721
283.56	33.526
283.92	35.104
284.29	31.538
284.66	33.333
285.03	33.006
285.40	32.136
285.77	32.513
286.14	30.866
286.51	34.317
286.87	31.627
287.24	32.965
287.61	30.688
287.98	31.754
288.35	33.102
288.72	32.925
289.08	31.944
289.45	31.810
289.82	29.196
290.19	28.840
290.56	29.674
290.93	30.471
291.29	29.584
291.66	29.291
292.03	29.665
292.40	28.710
292.77	28.708
293.13	26.623
293.50	27.011
293.87	27.786
294.24	27.048
294.60	26.975
294.97	29.762
295.34	24.847
295.71	26.677
296.08	27.504
296.44	24.467
296.81	27.083
297.18	25.362
297.55	26.965
297.91	27.123
298.28	26.781
298.65	25.509
299.02	25.202
299.38	22.435
299.75	24.690
300.12	24.084
300.48	23.715
300.85	25.095
301.22	24.675
301.59	22.763
301.95	25.443
302.32	26.329
302.69	24.254
303.05	23.267
303.42	23.910
303.79	24.766
304.15	24.970
304.52	23.068
304.89	23.041
305.25	24.818
305.62	22.870
305.99	23.041
306.35	23.237
306.72	23.510
307.09	22.919
307.45	23.766
307.82	22.569
308.19	24.158
308.55	23.119
308.92	22.767
309.29	22.905
309.65	22.390
310.02	23.432
310.38	23.161
310.75	24.153
311.12	23.897
311.48	22.694
311.85	23.979
312.22	22.890
312.58	23.248
312.95	22.092
313.31	23.395
313.68	23.037
314.05	22.347
314.41	23.608
314.78	24.742
315.14	24.872
315.51	24.224
315.87	23.361
316.24	24.772
316.61	24.311
316.97	24.901
317.34	24.609
317.70	23.614
318.07	24.808
318.43	24.608
318.80	23.674
319.16	25.195
319.53	26.306
319.89	24.311
320.26	26.518
320.62	26.981
320.99	24.948
321.35	26.002
321.72	27.726
322.08	27.090
322.45	27.919
322.81	26.621
323.18	28.754
323.54	28.475
323.91	29.309
324.27	29.004
324.64	30.337
325.00	30.839
325.37	31.772
325.73	29.012
326.10	31.789
326.46	32.825
326.83	32.283
327.19	32.694
327.56	31.364
327.92	33.187
328.29	31.875
328.65	34.340
329.01	34.099
329.38	33.272
329.74	32.861
330.11	34.662
330.47	33.117
330.84	35.000
331.20	36.502
331.56	34.352
331.93	35.890
332.29	35.930
332.66	35.113
333.02	35.316
333.38	34.739
333.75	36.630
334.11	35.363
334.48	36.265
334.84	36.722
335.20	35.865
335.57	36.537
335.93	36.043
336.29	36.004
336.66	35.967
337.02	36.431
337.38	35.741
337.75	36.909
338.11	36.790
338.47	35.766
338.84	37.153
339.20	36.015
339.56	37.339
339.93	36.616
340.29	36.514
340.65	38.351
341.02	37.500
341.38	35.310
341.74	36.219
342.11	35.962
342.47	37.722
342.83	35.813
343.20	36.411
343.56	37.478
343.92	37.555
344.28	37.404
344.65	37.651
345.01	36.128
345.37	36.922
345.73	37.071
346.10	36.411
346.46	36.585
346.82	36.989
347.19	36.991
347.55	37.260
347.91	37.702
348.27	36.378
348.63	38.075
349.00	37.900
349.36	35.827
349.72	38.806
350.08	38.033
350.45	37.430
350.81	36.877
351.17	37.541
351.53	37.224
351.89	37.737
352.26	38.000
352.62	37.903
352.98	37.831
353.34	36.876
353.70	38.835
354.07	37.419
354.43	35.869
354.79	36.499
355.15	36.429
355.51	38.291
355.87	37.136
356.24	36.786
356.60	36.459
356.96	37.857
357.32	37.220
357.68	39.093
358.04	38.368
358.40	38.023
358.77	38.278
359.13	37.870
359.49	36.287
359.85	37.676
360.21	38.596
360.57	36.572
360.93	38.502
361.29	37.538
361.66	38.009
362.02	38.788
362.38	38.233
362.74	38.456
363.10	38.676
363.46	37.880
363.82	39.820
364.18	38.598
364.54	39.412
364.90	38.638
365.26	39.156
365.62	39.635
365.98	38.563
366.35	40.714
366.71	39.246
367.07	39.695
367.43	39.612
367.79	39.717
368.15	39.627
368.51	40.568
368.87	39.986
369.23	38.700
369.59	40.962
369.95	41.422
370.31	40.173
370.67	41.194
371.03	40.254
371.39	39.898
371.75	40.000
372.11	39.658
372.47	40.902
372.83	41.022
373.19	39.586
373.55	40.722
373.91	41.109
374.27	41.885
374.63	41.924
374.99	40.993
375.35	41.643
375.71	41.538
376.07	41.994
376.42	43.061
376.78	44.228
377.14	42.045
377.50	41.965
377.86	42.704
378.22	42.310
378.58	42.115
378.94	42.659
379.30	42.670
379.66	43.448
380.02	42.735
380.38	42.970
380.74	43.268
381.09	43.865
381.45	43.609
381.81	44.294
382.17	44.353
382.53	44.035
382.89	45.386
383.25	45.302
383.61	44.268
383.97	45.524
384.32	43.902
384.68	46.254
385.04	44.914
385.40	44.928
385.76	47.044
386.12	46.636
386.48	45.785
386.83	46.354
387.19	45.482
387.55	48.432
387.91	47.738
388.27	46.215
388.62	47.325
388.98	47.023
389.34	47.096
389.70	49.161
390.06	46.696
390.42	48.575
390.77	49.182
391.13	47.604
391.49	48.254
391.85	48.928
392.20	48.023
392.56	49.078
392.92	49.501
393.28	49.351
393.64	49.790
393.99	51.473
394.35	51.107
394.71	49.872
395.07	49.717
395.42	49.545
395.78	51.531
396.14	50.378
396.50	51.237
396.85	51.256
397.21	50.251
397.57	51.661
397.92	51.768
398.28	52.644
398.64	51.205
399.00	51.749
399.35	51.411
399.71	51.637
400.07	52.781
400.42	53.060
400.78	52.970
401.14	54.144
401.49	53.008
401.85	53.565
402.21	53.494
402.57	53.625
402.92	52.572
403.28	54.135
403.63	55.549
403.99	53.635
404.35	53.779
404.70	52.857
405.06	52.938
405.42	55.190
405.77	54.794
406.13	55.297
406.49	55.299
406.84	55.929
407.20	57.074
407.55	55.570
407.91	55.949
408.27	56.214
408.62	56.738
408.98	55.946
409.34	57.249
409.69	57.623
410.05	55.788
410.40	56.914
410.76	57.177
411.11	57.375
411.47	58.843
411.83	56.748
412.18	59.395
412.54	57.553
412.89	57.328
413.25	57.822
413.60	59.255
413.96	57.178
414.31	57.073
414.67	57.216
415.03	58.522
415.38	58.943
415.74	59.479
416.09	58.916
416.45	60.162
416.80	59.881
417.16	60.773
417.51	60.426
417.87	59.126
418.22	60.622
418.58	61.739
418.93	59.624
419.29	57.682
419.64	59.689
420.00	61.209
420.35	58.806
420.71	60.267
421.06	60.835
421.42	60.036
421.77	60.231
422.12	60.216
422.48	60.531
422.83	59.861
423.19	60.102
423.54	60.729
423.90	59.953
424.25	61.079
424.61	61.628
424.96	60.801
425.31	63.663
425.67	61.854
426.02	62.780
426.38	63.431
426.73	63.015
427.09	62.658
427.44	62.529
427.79	62.994
428.15	62.015
428.50	62.508
428.85	61.855
429.21	63.045
429.56	62.749
429.92	62.096
430.27	60.100
430.62	61.004
430.98	61.890
431.33	61.935
431.68	61.277
432.04	62.940
432.39	62.122
432.74	62.177
433.10	63.506
433.45	62.545
433.80	63.610
434.16	62.271
434.51	62.903
434.86	64.692
435.22	62.703
435.57	65.502
435.92	63.653
436.28	63.208
436.63	64.119
436.98	62.862
437.34	64.307
437.69	65.832
438.04	63.476
438.39	63.653
438.75	64.177
439.10	63.384
439.45	65.551
439.81	65.627
440.16	65.677
440.51	64.119
440.86	65.015
441.22	64.593
441.57	65.232
441.92	64.848
442.27	66.796
442.63	64.668
442.98	64.905
443.33	63.996
443.68	65.093
444.03	65.226
444.39	64.289
444.74	67.001
445.09	65.924
445.44	65.356
445.79	66.529
446.15	64.482
446.50	64.836
446.85	64.984
447.20	64.964
447.55	64.955
447.91	64.862
448.26	64.428
448.61	65.918
448.96	65.519
449.31	65.491
449.66	65.738
450.02	66.343
450.37	66.509
450.72	65.120
451.07	67.848
451.42	65.231
451.77	65.943
452.12	65.371
452.47	66.259
452.83	66.902
453.18	66.477
453.53	67.573
453.88	66.120
454.23	66.503
454.58	67.569
454.93	67.332
455.28	65.143
455.63	66.770
455.98	66.566
456.34	68.072
456.69	67.662
457.04	68.620
457.39	67.254
457.74	66.385
458.09	64.979
458.44	65.535
458.79	65.434
459.14	67.391
459.49	65.552
459.84	67.118
460.19	66.687
460.54	67.237
460.89	66.875
461.24	66.398
461.59	67.340
461.94	65.031
462.29	66.767
462.64	68.106
462.99	68.517
463.34	67.177
463.69	66.345
464.04	67.797
464.39	66.586
464.74	66.135
465.09	66.687
465.44	66.705
465.79	65.533
466.14	66.135
466.49	65.957
466.84	67.757
467.19	67.084
467.54	66.347
467.89	67.340
468.24	68.248
468.59	69.651
468.94	67.429
469.29	67.541
469.64	67.396
469.99	70.287
470.34	67.577
470.68	70.022
471.03	69.356
471.38	70.613
471.73	70.168
472.08	68.657
472.43	69.664
472.78	69.431
473.13	69.864
473.48	67.948
473.83	67.684
474.17	69.236
474.52	68.985
474.87	69.818
475.22	68.517
475.57	68.210
475.92	69.117
476.27	68.685
476.61	69.213
476.96	67.540
477.31	69.876
477.66	68.034
478.01	69.006
478.36	68.845
478.70	70.092
479.05	69.341
479.40	70.694
479.75	67.362
480.10	68.100
480.45	69.200
480.79	69.587
481.14	70.543
481.49	68.522
481.84	70.222
482.19	67.774
482.53	69.305
482.88	68.258
483.23	69.434
483.58	68.113
483.92	67.619
484.27	67.366
484.62	69.834
484.97	67.703
485.31	67.197
485.66	63.407
486.01	63.170
486.36	64.013
486.70	63.856
487.05	65.423
487.40	65.305
487.75	66.056
488.09	66.193
488.44	67.503
488.79	67.352
489.13	67.788
489.48	68.961
489.83	68.117
490.17	68.360
490.52	68.129
490.87	68.533
491.22	70.583
491.56	69.592
491.91	68.499
492.26	69.810
492.60	70.010
492.95	70.979
493.30	69.956
493.64	71.071
493.99	69.952
494.34	70.437
494.68	69.524
495.03	68.954
495.37	70.265
495.72	70.924
496.07	70.098
496.41	70.189
496.76	69.876
497.11	70.005
497.45	69.785
497.80	71.897
498.14	69.896
498.49	71.356
498.84	70.160
499.18	70.833
499.53	70.139
499.87	70.039
500.22	70.574
500.56	72.516
500.91	71.285
501.26	69.946
501.60	72.012
501.95	70.500
502.29	70.460
502.64	70.463
502.98	72.028
503.33	70.173
503.67	70.265
504.02	71.163
504.36	72.340
504.71	71.667
505.06	70.408
505.40	71.371
505.75	72.474
506.09	71.110
506.44	73.152
506.78	71.633
507.13	72.441
507.47	70.705
507.82	72.489
508.16	72.055
508.51	73.400
508.85	73.417
509.19	72.379
509.54	72.332
509.88	72.492
510.23	73.480
510.57	73.597
510.92	71.002
511.26	74.195
511.61	74.037
511.95	73.973
512.30	74.390
512.64	74.068
512.98	75.407
513.33	74.147
513.67	73.962
514.02	76.888
514.36	75.829
514.70	76.107
515.05	76.616
515.39	76.269
515.74	77.844
516.08	77.047
516.42	76.678
516.77	76.185
517.11	77.151
517.46	78.755
517.80	76.996
518.14	77.220
518.49	77.404
518.83	76.185
519.17	76.349
519.52	75.725
519.86	76.831
520.20	78.007
520.55	78.111
520.89	78.231
521.23	78.974
521.58	78.927
521.92	78.910
522.26	78.465
522.61	79.286
522.95	80.596
523.29	78.463
523.64	78.653
523.98	79.456
524.32	79.510
524.66	78.617
525.01	80.000
525.35	79.844
525.69	78.653
526.04	79.431
526.38	81.518
526.72	78.352
527.06	78.534
527.41	79.024
527.75	79.424
528.09	78.538
528.43	81.364
528.78	80.594
529.12	78.968
529.46	79.402
529.80	78.277
530.15	79.736
530.49	80.741
530.83	81.122
531.17	79.113
531.51	79.959
531.86	79.878
532.20	79.541
532.54	78.012
532.88	78.850
533.22	78.293
533.57	79.161
533.91	78.394
534.25	78.971
534.59	78.063
534.93	76.715
535.27	76.713
535.62	76.993
535.96	78.017
536.30	78.232
536.64	78.429
536.98	77.282
537.32	78.805
537.66	77.910
538.01	79.231
538.35	78.086
538.69	75.632
539.03	76.965
539.37	77.187
539.71	78.664
540.05	76.918
540.39	77.839
540.73	78.940
541.07	77.762
541.42	77.285
541.76	78.252
542.10	77.495
542.44	78.249
542.78	74.880
543.12	77.679
543.46	77.051
543.80	76.613
544.14	75.501
544.48	76.149
544.82	78.947
545.16	76.571
545.50	76.502
545.84	77.408
546.18	78.369
546.52	78.010
546.86	77.283
547.20	76.538
547.54	76.608
547.88	76.427
548.22	74.293
548.56	74.802
548.90	77.022
549.24	76.171
549.58	76.869
549.92	76.269
550.26	76.044
550.60	77.621
550.94	76.923
551.28	79.985
551.62	79.231
551.96	76.842
552.30	75.219
552.64	74.683
552.98	74.965
553.32	75.678
553.66	74.964
554.00	77.007
554.34	77.548
554.68	75.885
555.02	77.530
555.36	77.786
555.69	75.018
556.03	74.304
556.37	74.662
556.71	75.957
557.05	77.181
557.39	76.134
557.73	76.912
558.07	77.677
558.41	76.034
558.75	77.163
559.08	77.935
559.42	77.857
559.76	78.703
560.10	76.070
560.44	75.577
560.78	74.126
561.12	76.728
561.45	75.193
561.79	75.910
562.13	75.869
562.47	75.899
562.81	74.352
563.15	74.189
563.48	74.257
563.82	73.782
564.16	73.607
564.50	71.419
564.84	74.163
565.17	72.300
565.51	73.566
565.85	74.829
566.19	73.873
566.52	73.861
566.86	74.422
567.20	71.233
567.54	72.628
567.88	71.763
568.21	71.550
568.55	70.435
568.89	70.072
569.23	69.764
569.56	68.082
569.90	68.778
570.24	65.538
570.57	67.418
570.91	66.399
571.25	63.959
571.59	63.438
571.92	63.407
572.26	63.768
572.60	63.318
572.93	63.477
573.27	63.762
573.61	62.828
573.95	63.135
574.28	62.315
574.62	62.065
574.96	61.531
575.29	61.358
575.63	59.990
575.97	61.182
576.30	62.187
576.64	61.139
576.98	61.776
577.31	61.858
577.65	61.055
577.98	60.968
578.32	59.541
578.66	59.424
578.99	60.459
579.33	60.829
579.67	59.677
580.00	61.013
580.34	60.672
580.67	60.856
581.01	60.086
581.35	59.690
581.68	58.571
582.02	58.488
582.35	58.867
582.69	59.427
583.02	59.389
583.36	59.546
583.70	60.877
584.03	61.746
584.37	61.999
584.70	60.797
585.04	58.756
585.37	58.894
585.71	58.948
586.04	59.506
586.38	59.776
586.72	60.057
587.05	60.456
587.39	59.994
587.72	60.525
588.06	59.729
588.39	59.157
588.73	60.775
589.06	61.970
589.40	60.353
589.73	61.738
590.07	61.782
590.40	61.803
590.73	63.921
591.07	62.044
591.40	63.045
591.74	63.213
592.07	63.544
592.41	60.866
592.74	61.171
593.08	58.226
593.41	59.473
593.75	59.045
594.08	58.737
594.41	59.753
594.75	60.076
595.08	60.310
595.42	59.183
595.75	61.021
596.09	60.360
596.42	60.810
596.75	61.279
597.09	60.456
597.42	60.885
597.75	61.429
598.09	59.801
598.42	59.792
598.76	59.116
599.09	59.215
599.42	57.787
599.76	57.825
600.09	57.994
600.42	58.832
600.76	57.355
601.09	58.168
601.42	57.658
601.76	58.912
602.09	59.282
602.42	60.194
602.76	60.017
603.09	59.551
603.42	60.953
603.76	58.065
604.09	58.566
604.42	58.968
604.76	60.881
605.09	60.283
605.42	58.646
605.75	58.713
606.09	58.344
606.42	57.465
606.75	58.139
607.09	57.890
607.42	57.820
607.75	57.638
608.08	57.727
608.42	58.017
608.75	59.470
609.08	59.990
609.41	60.761
609.75	59.123
610.08	59.111
610.41	57.536
610.74	58.996
611.07	61.292
611.41	60.301
611.74	59.861
612.07	59.904
612.40	59.354
612.73	60.565
613.07	59.899
613.40	59.245
613.73	59.373
614.06	58.264
614.39	60.632
614.72	58.487
615.06	59.609
615.39	57.533
615.72	58.019
616.05	60.000
616.38	57.721
616.71	59.266
617.05	61.211
617.38	59.459
617.71	60.566
618.04	60.317
618.37	60.971
618.70	61.056
619.03	62.083
619.36	61.795
619.69	63.306
620.03	63.769
620.36	61.731
620.69	60.885
621.02	62.385
621.35	62.905
621.68	64.031
622.01	62.750
622.34	62.490
622.67	62.382
623.00	61.332
623.33	62.271
623.66	59.611
623.99	61.346
624.32	60.913
624.65	60.977
624.99	62.227
625.32	59.515
625.65	61.980
625.98	61.402
626.31	60.765
626.64	62.738
626.97	64.311
627.30	63.660
627.63	63.172
627.96	63.432
628.29	63.922
628.62	64.995
628.95	64.830
629.28	66.230
629.61	64.207
629.94	65.103
630.26	64.822
630.59	66.597
630.92	66.051
631.25	62.359
631.58	66.960
631.91	65.789
632.24	67.431
632.57	67.727
632.90	68.565
633.23	66.471
633.56	68.262
633.89	69.544
634.22	67.531
634.55	68.996
634.88	67.944
635.20	68.462
635.53	69.467
635.86	66.840
636.19	67.141
636.52	68.622
636.85	67.122
637.18	65.660
637.51	67.421
637.83	68.200
638.16	69.031
638.49	65.531
638.82	68.158
639.15	64.722
639.48	68.363
639.81	65.411
640.13	68.687
640.46	66.910
640.79	67.010
641.12	67.651
641.45	67.868
641.77	67.556
642.10	71.090
642.43	69.293
642.76	69.802
643.09	68.174
643.41	68.123
643.74	70.840
644.07	69.622
644.40	69.932
644.73	70.228
645.05	67.114
645.38	68.430
645.71	69.149
646.04	70.377
646.36	68.617
646.69	69.065
647.02	71.267
647.35	67.724
647.67	68.007
648.00	67.910
648.33	66.212
648.66	65.932
648.98	65.997
649.31	66.281
649.64	64.364
649.96	65.316
650.29	65.928
650.62	68.718
650.94	65.556
651.27	67.598
651.60	67.027
651.92	65.559
652.25	65.187
652.58	63.000
652.90	68.954
653.23	65.210
653.56	61.929
653.88	64.433
654.21	62.172
654.54	61.460
654.86	63.667
655.19	62.427
655.52	57.198
655.84	46.728
656.17	49.945
656.49	67.036
656.82	69.276
657.15	53.344
657.47	40.312
657.80	30.121
658.13	29.816
658.45	46.628
658.78	46.935
659.10	46.857
659.43	47.812
659.75	48.989
660.08	51.034
660.41	54.137
660.73	57.735
661.06	61.352
661.38	62.818
661.71	62.423
662.03	70.172
662.36	64.835
662.68	65.044
663.01	67.467
663.33	67.981
663.66	67.674
663.98	66.512
664.31	66.951
664.63	65.438
664.96	63.478
665.28	67.550
665.61	62.771
665.93	63.043
666.26	68.764
666.58	64.877
666.91	65.882
667.23	69.811
667.56	66.825
667.88	67.146
668.21	65.394
668.53	68.085
668.86	65.094
669.18	66.509
669.50	65.133
669.83	63.721
670.15	62.471
670.48	67.703
670.80	64.977
671.13	59.955
671.45	62.785
671.77	64.163
672.10	62.376
672.42	58.614
672.75	59.325
673.07	60.823
673.39	61.284
673.72	58.777
674.04	59.167
674.37	62.500
674.69	61.242
675.01	63.778
675.34	60.811
675.66	62.500
675.98	65.854
676.31	60.092
676.63	66.746
676.95	60.455
677.28	65.176
677.60	65.542
677.92	61.697
678.25	59.737
678.57	59.524
678.89	60.294
679.22	63.087
679.54	58.032
679.86	58.449
680.18	59.029
680.51	56.818
680.83	57.256
681.15	56.600
681.48	59.426
681.80	57.851
682.12	57.661
682.44	57.322
682.77	60.265
683.09	55.835
683.41	57.273
683.73	62.903
684.06	59.071
684.38	57.634
684.70	60.349
685.02	58.921
685.34	55.138
685.67	53.283
685.99	54.792
686.31	55.752
686.63	53.989
686.96	53.232
687.28	55.556
687.60	54.753
687.92	57.576
688.24	55.242
688.56	57.642
688.89	57.366
689.21	58.222
689.53	58.933
689.85	57.442
690.17	55.357
690.49	58.865
690.82	54.854
691.14	57.381
691.46	55.607
691.78	56.982
692.10	56.989
692.42	53.463
692.74	55.342
693.06	58.559
693.39	56.787
693.71	52.489
694.03	53.580
694.35	54.206
694.67	60.101
694.99	55.091
695.31	58.225
695.63	56.000
695.95	54.293
696.27	54.404
696.59	60.278
696.91	58.824
697.23	57.326
697.56	53.713
697.88	55.484
698.20	51.025
698.52	56.235
698.84	53.828
699.16	52.750
699.48	56.892
699.80	53.102
700.12	55.256
700.44	55.182
700.76	55.523
701.08	54.848
701.40	58.434
701.72	65.123
702.04	65.017
702.36	63.545
702.68	55.556
703.00	58.182
703.32	53.666
703.64	50.282
703.96	55.072
704.28	57.055
704.60	58.730
704.91	52.050
705.23	59.468
705.55	64.664
705.87	65.704
706.19	53.704
706.51	56.357
706.83	58.199
707.15	51.713
707.47	55.182
707.79	48.958
708.11	49.000
708.43	52.000
708.74	51.680
709.06	53.239
709.38	57.187
709.70	53.846
710.02	57.006
710.34	54.799
710.66	50.321
710.98	53.642
711.29	54.098
711.61	52.881
711.93	53.420
712.25	58.419
712.57	51.648
712.89	52.612
713.20	54.671
713.52	53.310
713.84	52.218
714.16	57.045
714.48	52.581
714.80	54.808
715.11	54.407
715.43	49.530
715.75	49.000
716.07	53.488
716.39	48.993
716.70	53.506
717.02	54.198
717.34	56.275
717.66	56.195
717.97	53.478
718.29	53.556
718.61	55.906
718.93	50.775
719.24	51.711
719.56	55.422
719.88	49.828
720.20	52.273
720.51	50.192
720.83	53.668
721.15	56.303
721.46	52.419
721.78	48.617
722.10	47.584
722.42	51.867
722.73	50.612
723.05	52.653
723.37	56.780
723.68	58.559
724.00	50.427
724.32	56.000
724.63	49.091
724.95	54.148
725.27	55.760
725.58	52.966
725.90	48.810
726.22	50.579
726.53	47.797
726.85	51.685
727.16	51.321
727.48	47.368
727.80	48.583
728.11	51.695
728.43	47.059
728.74	42.339
729.06	43.600
729.38	53.383
729.69	48.606
730.01	44.615
730.32	48.507
730.64	51.590
730.96	46.038
731.27	42.667
731.59	45.085
731.90	49.682
732.22	46.688
732.53	49.834
732.85	48.227
733.16	44.444
733.48	46.403
733.80	43.841
734.11	43.051
734.43	49.141
734.74	45.152
735.06	44.951
735.37	44.109
735.69	45.791
736.00	42.857
736.32	48.322
736.63	45.423
736.95	44.369
737.26	44.840
737.58	40.940
737.89	41.392
738.21	44.737
738.52	50.617
738.83	49.782
739.15	52.402
739.46	48.819
739.78	41.758
740.09	40.850
740.41	48.913
740.72	40.551
741.04	48.988
741.35	44.681
741.66	52.133
741.98	47.959
742.29	47.030
742.61	49.215
742.92	42.180
743.23	43.981
743.55	48.416
743.86	50.239
744.18	44.976
744.49	49.468
744.80	46.739
745.12	56.684
745.43	47.805
745.74	50.000
746.06	52.195
746.37	50.262
746.68	48.341
747.00	50.000
747.31	49.751
747.62	47.573
747.94	47.847
748.25	48.515
748.56	55.738
748.88	42.408
749.19	56.383
749.50	48.276
749.82	44.811
750.13	41.743
750.44	43.233
750.75	46.269
751.07	46.350
751.38	40.996
751.69	43.922
752.01	41.085
752.32	43.426
752.63	40.711
752.94	42.241
753.26	45.188
753.57	43.891
753.88	47.788
754.19	46.667
754.51	42.562
754.82	37.247
755.13	46.250
755.44	43.952
755.75	44.531
756.07	41.634
756.38	36.226
756.69	44.061
757.00	40.667
757.31	39.869
757.63	39.939
757.94	39.444
758.25	35.890
758.56	36.702
758.87	36.827
759.18	39.875
759.50	37.818
759.81	43.144
760.12	37.097
760.43	40.000
760.74	43.210
761.05	38.769
761.36	40.057
761.67	39.091
761.99	43.878
762.30	37.455
762.61	41.107
762.92	44.796
763.23	40.541
763.54	44.393
763.85	39.407
764.16	42.739
764.47	42.742
764.78	38.462
765.10	44.444
765.41	35.647
765.72	37.143
766.03	34.586
766.34	41.241
766.65	43.426
766.96	47.980
767.27	42.553
767.58	38.506
767.89	41.844
768.20	36.932
768.51	36.813
768.82	38.916
769.13	38.249
769.44	36.910
769.75	36.986
770.06	37.931
770.37	40.865
770.68	40.609
770.99	33.032
771.30	42.157
771.61	38.914
771.92	45.690
772.23	38.424
772.54	43.548
772.85	38.272
773.16	42.135
773.47	50.980
773.78	38.562
774.09	38.922
774.39	46.667
774.70	46.497
775.01	44.138
775.32	34.286
775.63	35.537
775.94	42.748
776.25	40.157
776.56	46.667
776.87	50.000
777.18	44.444
777.48	34.483
777.79	41.739
778.10	37.143
778.41	34.234
778.72	40.476
779.03	39.850
779.34	47.518
779.65	43.151
779.95	39.041
780.26	41.379
780.57	32.520
780.88	35.433
781.19	48.276
781.50	45.736
781.80	36.686
782.11	29.560
782.42	40.769
782.73	35.252
783.04	36.296
783.34	29.861
783.65	27.350
783.96	36.066
784.27	40.690
784.57	43.089
784.88	32.031
785.19	50.000
785.50	51.000
785.81	43.103
786.11	36.207
786.42	39.806
786.73	37.273
787.04	44.898
787.34	40.179
787.65	37.143
787.96	30.973
788.26	45.455
788.57	41.026
788.88	39.062
789.19	32.540
789.49	34.783
789.80	26.531
790.11	39.394
790.41	31.818
790.72	41.304
791.03	42.045
791.33	50.000
791.64	36.250
791.95	30.233
792.25	36.170
792.56	41.573
792.87	34.247
793.17	31.884
793.48	37.333
793.79	30.000
794.09	42.500
794.40	35.849
794.70	33.981
795.01	30.894
795.32	31.624
795.62	25.714
795.93	31.373
796.23	33.962
796.54	22.917
796.85	42.647
797.15	33.803
797.46	41.667
797.76	36.364
798.07	33.721
798.37	14.474
798.68	33.333
798.99	17.284
799.29	34.286
799.60	23.188
799.90	36.000
800.21	29.508
800.51	49.231
800.82	42.373
801.12	39.130
801.43	39.344
801.73	44.444
802.04	52.000
802.34	32.836
802.65	44.231
802.95	39.286
803.26	34.615
803.56	23.529
803.87	13.043
804.17	24.000
804.48	47.619
804.78	40.741
805.09	39.130
805.39	60.000
805.70	33.333
806.00	15.789
806.30	39.437
806.61	38.571
806.91	27.778
807.22	48.684
807.52	46.667
807.83	14.545
808.13	29.167
808.43	29.412
808.74	32.836
809.04	28.814
809.35	21.154
809.65	26.563
809.95	-8.108
810.26	-4.545
810.56	21.918
810.86	23.810
811.17	50.000
811.47	40.816
811.77	10.526
812.08	43.182
812.38	35.849
812.69	15.000
812.99	9.091
813.29	47.368
813.59	-11.429
813.90	31.818
814.20	23.077
814.50	25.000
814.81	35.849
815.11	25.532
815.41	37.288
815.72	42.857
816.02	45.098
816.32	29.167
816.62	43.902
816.93	35.135
817.23	22.857
817.53	27.083
817.84	36.957
818.14	48.077
818.44	28.947
818.74	47.826
819.04	15.000
819.35	59.459
819.65	50.000
819.95	5.556
820.25	16.667
820.56	27.500
820.86	24.138
821.16	65.000
821.46	10.638
821.76	25.000
822.07	4.651
822.37	10.811
822.67	9.375
822.97	40.476
823.27	21.429
823.57	24.000
823.88	-3.704
824.18	7.143
824.48	14.706
824.78	3.226
825.08	0.000
825.38	39.394
825.69	-25.000
825.99	23.684
826.29	2.778
826.59	33.333
826.89	-9.524
827.19	19.565
827.49	45.000
827.79	54.286
828.09	-3.571
828.39	39.394
828.70	56.757
829.00	3.571
829.30	9.524
829.60	13.333
829.90	15.625
830.20	42.105
830.50	18.519
830.80	-4.348
831.10	9.091
831.40	42.424
831.70	41.935
832.00	19.048
832.30	-52.381
832.60	66.667
832.90	48.276
833.20	-20.000
833.50	3.030
833.80	33.333
834.10	-19.231
834.40	34.375
834.70	-55.556
835.00	31.579
835.30	88.462
835.60	60.000
835.90	70.968
836.20	-18.182
836.50	10.714
836.80	26.923
837.10	10.714
837.40	-366.667
837.70	18.182
838.00	-63.636
838.30	-4.348
838.60	0.000
838.90	31.818
839.19	25.000
839.49	26.667
839.79	-7.692
840.09	-50.000
840.39	46.429
840.69	28.571
840.99	-3.846
841.29	-57.895
841.59	-80.000
841.88	18.182
842.18	70.000
842.48	12.500
842.78	-46.667
843.08	18.519
843.38	-110.000
843.68	21.739
843.97	80.000
844.27	-20.000
844.57	55.000
844.87	33.333
845.17	28.571
845.47	20.000
845.76	23.810
846.06	70.588
846.36	70.000
846.66	107.143
846.96	13.333
847.25	12.500
847.55	64.286
847.85	-62.500
848.15	-22.727
848.44	-233.333
848.74	55.000
849.04	40.741
849.34	-63.636
849.63	-133.333
849.93	-120.000
850.23	-22.222
850.53	-70.000
850.82	-30.769
851.12	-88.889
851.42	13.333
851.71	3.846
852.01	-7.143
852.31	-300.000
852.61	-109.091
852.90	-10.000
853.20	63.158
853.50	0.000
853.79	21.739
854.09	50.000
854.39	-15.789
854.68	-4.167
854.98	29.032
855.28	38.462
855.57	0.000
855.87	-11.111
856.17	74.074
856.46	-50.000
856.76	-6.667
857.05	22.222
857.35	60.000
857.65	-27.778
857.94	-30.769
858.24	31.034
858.53	61.111
858.83	22.222
859.13	31.818
859.42	21.739
859.72	25.000
860.01	-200.000
860.31	0.000
860.60	9.524
860.90	-333.333
861.20	6.667
861.49	-800.000
861.79	-53.333
862.08	-10.000
862.38	126.667
862.67	-220.000
862.97	-50.000
863.26	-50.000
863.56	27.778
863.85	-633.333
864.15	16.667
864.44	-60.000
864.74	114.286
865.03	150.000
865.33	-140.000
865.62	66.667
865.92	-66.667
866.21	-83.333
866.51	-6.250
866.80	-118.182
867.10	-200.000
867.39	-41.667
867.69	0.000
867.98	-53.846
868.27	-100.000
868.57	93.333
868.86	27.778
869.16	-38.462
869.45	40.000
869.75	-600.000
870.04	0.000
870.33	-171.429
870.63	-4.762
870.92	233.333
871.22	-80.000
871.51	-400.000
871.80	0.000
872.10	333.333
>>>>>End Processed Spectral Data<<<<<
