SpectraSuite Data File
++++++++++++++++++++++++++++++++++++
Date: Fri May 15 20:59:19 PDT 2015
User: schluterlab
Dark Spectrum Present: Yes
Reference Spectrum Present: Yes
Number of Sampled Component Spectra: 1
Spectrometers: USB2E3373
Integration Time (usec): 3000 (USB2E3373)
Spectra Averaged: 3 (USB2E3373)
Boxcar Smoothing: 0 (USB2E3373)
Correct for Electrical Dark: No (USB2E3373)
Strobe/Lamp Enabled: No (USB2E3373)
Correct for Detector Non-linearity: No (USB2E3373)
Correct for Stray Light: No (USB2E3373)
Number of Pixels in Processed Spectrum: 2048
>>>>>Begin Processed Spectral Data<<<<<
178.53	0.000
178.91	0.000
179.29	-25.000
179.67	-150.000
180.04	128.571
180.42	-100.000
180.80	200.000
181.18	133.333
181.56	500.000
181.94	-150.000
182.31	1000.000
182.69	-180.000
183.07	-433.333
183.45	-180.000
183.83	166.667
184.20	-18.182
184.58	122.222
184.96	150.000
185.34	33.333
185.72	0.000
186.09	123.077
186.47	-700.000
186.85	133.333
187.23	144.444
187.61	-100.000
187.98	-100.000
188.36	55.556
188.74	-333.333
189.12	-5.882
189.49	-22.222
189.87	0.000
190.25	7.143
190.63	-450.000
191.00	-266.667
191.38	-26.316
191.76	600.000
192.14	50.000
192.51	-200.000
192.89	-44.444
193.27	-42.857
193.65	383.333
194.02	136.364
194.40	20.000
194.78	-162.500
195.15	-16.667
195.53	-87.500
195.91	50.000
196.29	-200.000
196.66	107.692
197.04	128.571
197.42	-33.333
197.79	-400.000
198.17	-61.538
198.55	1800.000
198.92	-233.333
199.30	-900.000
199.68	-80.000
200.05	-400.000
200.43	0.000
200.81	-100.000
201.18	-33.333
201.56	700.000
201.94	0.000
202.31	200.000
202.69	-240.000
203.07	275.000
203.44	-400.000
203.82	0.000
204.19	-7.143
204.57	-633.333
204.95	137.500
205.32	-70.000
205.70	-14.286
206.08	-75.000
206.45	66.667
206.83	57.143
207.20	-100.000
207.58	-100.000
207.96	-133.333
208.33	-20.000
208.71	-225.000
209.08	-133.333
209.46	-1200.000
209.84	-200.000
210.21	-900.000
210.59	-85.714
210.96	-66.667
211.34	-150.000
211.71	13.333
212.09	-242.857
212.46	-700.000
212.84	0.000
213.22	-100.000
213.59	100.000
213.97	53.846
214.34	-36.364
214.72	-100.000
215.09	125.000
215.47	-46.154
215.84	-36.364
216.22	33.333
216.59	-137.500
216.97	-200.000
217.34	-200.000
217.72	-100.000
218.09	100.000
218.47	112.500
218.84	-1500.000
219.22	-11.111
219.59	20.000
219.97	100.000
220.34	125.000
220.72	-42.857
221.09	-200.000
221.47	-300.000
221.84	-800.000
222.22	-800.000
222.59	-18.182
222.97	8.333
223.34	-166.667
223.72	-64.286
224.09	-4.762
224.46	3.571
224.84	766.667
225.21	-20.000
225.59	-6.667
225.96	-300.000
226.34	200.000
226.71	-157.143
227.08	-183.333
227.46	-87.500
227.83	-350.000
228.21	-66.667
228.58	-72.727
228.95	-87.500
229.33	130.000
229.70	43.750
230.08	-175.000
230.45	-42.857
230.82	-71.429
231.20	-33.333
231.57	71.429
231.95	-28.571
232.32	-70.000
232.69	21.429
233.07	-233.333
233.44	-220.000
233.81	-220.000
234.19	-33.333
234.56	29.412
234.93	200.000
235.31	-100.000
235.68	-80.000
236.05	-30.769
236.43	-25.000
236.80	29.412
237.17	3.125
237.55	0.000
237.92	0.000
238.29	30.556
238.67	16.667
239.04	5.882
239.41	0.000
239.79	26.667
240.16	36.585
240.53	0.000
240.91	8.696
241.28	17.460
241.65	55.357
242.02	36.986
242.40	35.000
242.77	40.678
243.14	34.848
243.51	47.500
243.89	32.184
244.26	25.287
244.63	25.000
245.00	40.206
245.38	52.577
245.75	28.090
246.12	30.172
246.49	34.711
246.87	42.308
247.24	41.176
247.61	39.474
247.98	38.211
248.36	38.125
248.73	34.211
249.10	39.610
249.47	45.570
249.84	40.523
250.22	40.588
250.59	43.137
250.96	40.845
251.33	38.372
251.70	47.059
252.08	40.609
252.45	41.584
252.82	39.196
253.19	41.475
253.56	42.991
253.94	45.045
254.31	43.478
254.68	45.175
255.05	34.646
255.42	46.725
255.79	38.610
256.16	43.191
256.54	47.388
256.91	41.825
257.28	37.175
257.65	40.449
258.02	38.298
258.39	45.455
258.76	41.758
259.14	44.518
259.51	44.660
259.88	46.048
260.25	47.059
260.62	48.958
260.99	41.356
261.36	42.123
261.73	38.924
262.10	45.289
262.47	38.650
262.85	41.379
263.22	42.769
263.59	41.433
263.96	43.478
264.33	43.636
264.70	40.774
265.07	42.857
265.44	44.759
265.81	43.220
266.18	43.169
266.55	41.902
266.92	43.523
267.29	40.992
267.66	40.409
268.03	46.859
268.40	38.903
268.77	48.930
269.14	42.446
269.51	41.131
269.88	41.895
270.25	41.837
270.62	38.537
270.99	41.944
271.36	41.809
271.73	43.662
272.10	41.849
272.47	43.972
272.84	41.089
273.21	41.531
273.58	43.855
273.95	40.046
274.32	38.568
274.69	41.176
275.06	44.643
275.43	40.136
275.80	43.929
276.17	41.609
276.54	37.687
276.91	40.351
277.28	42.795
277.65	42.562
278.02	38.298
278.39	40.481
278.76	43.187
279.13	39.004
279.50	39.076
279.87	39.525
280.23	41.720
280.60	39.376
280.97	40.202
281.34	37.500
281.71	42.916
282.08	38.446
282.45	41.096
282.82	38.996
283.19	40.232
283.56	38.728
283.92	41.366
284.29	38.654
284.66	38.566
285.03	37.721
285.40	38.941
285.77	36.204
286.14	37.184
286.51	39.114
286.87	36.929
287.24	41.252
287.61	38.272
287.98	38.947
288.35	36.222
288.72	35.902
289.08	36.458
289.45	37.083
289.82	34.615
290.19	35.666
290.56	35.506
290.93	35.017
291.29	35.131
291.66	34.961
292.03	33.493
292.40	37.097
292.77	31.419
293.13	31.331
293.50	31.866
293.87	32.366
294.24	32.148
294.60	31.744
294.97	31.845
295.34	32.055
295.71	31.595
296.08	30.493
296.44	31.863
296.81	29.583
297.18	31.594
297.55	31.707
297.91	30.959
298.28	29.683
298.65	28.494
299.02	27.493
299.38	28.591
299.75	30.069
300.12	28.796
300.48	29.117
300.85	29.278
301.22	27.532
301.59	29.605
301.95	28.861
302.32	29.572
302.69	27.239
303.05	27.228
303.42	29.265
303.79	26.519
304.15	27.957
304.52	27.705
304.89	27.135
305.25	28.087
305.62	25.904
305.99	26.082
306.35	27.052
306.72	28.121
307.09	27.366
307.45	25.603
307.82	27.431
308.19	27.526
308.55	26.390
308.92	27.996
309.29	26.927
309.65	26.157
310.02	26.733
310.38	25.906
310.75	26.230
311.12	27.018
311.48	25.663
311.85	26.597
312.22	24.367
312.58	26.645
312.95	24.226
313.31	25.362
313.68	25.445
314.05	27.041
314.41	27.010
314.78	26.082
315.14	26.927
315.51	26.087
315.87	25.820
316.24	26.289
316.61	25.492
316.97	26.687
317.34	25.977
317.70	27.151
318.07	26.250
318.43	25.882
318.80	24.905
319.16	27.148
319.53	25.831
319.89	25.886
320.26	25.405
320.62	26.279
320.99	23.695
321.35	24.666
321.72	27.207
322.08	26.788
322.45	25.584
322.81	25.540
323.18	25.025
323.54	25.676
323.91	25.024
324.27	25.781
324.64	26.311
325.00	26.095
325.37	27.181
325.73	23.391
326.10	25.976
326.46	26.547
326.83	25.984
327.19	25.806
327.56	27.194
327.92	26.320
328.29	26.161
328.65	27.075
329.01	26.287
329.38	24.793
329.74	25.212
330.11	26.043
330.47	24.768
330.84	26.058
331.20	26.141
331.56	24.352
331.93	26.119
332.29	25.940
332.66	25.611
333.02	24.071
333.38	24.931
333.75	25.549
334.11	23.545
334.48	25.657
334.84	25.366
335.20	25.526
335.57	25.113
335.93	24.390
336.29	26.059
336.66	24.886
337.02	25.465
337.38	25.185
337.75	25.182
338.11	25.338
338.47	24.453
338.84	24.677
339.20	24.406
339.56	24.587
339.93	25.604
340.29	25.688
340.65	25.269
341.02	24.468
341.38	24.071
341.74	22.703
342.11	23.917
342.47	24.110
342.83	24.913
343.20	25.087
343.56	25.652
343.92	25.598
344.28	26.046
344.65	24.957
345.01	22.990
345.37	24.138
345.73	24.100
346.10	24.590
346.46	22.540
346.82	23.895
347.19	23.358
347.55	23.308
347.91	25.000
348.27	22.474
348.63	23.765
349.00	23.544
349.36	24.356
349.72	25.041
350.08	24.016
350.45	24.741
350.81	23.505
351.17	23.697
351.53	23.755
351.89	24.443
352.26	22.880
352.62	23.952
352.98	23.373
353.34	23.269
353.70	24.838
354.07	22.823
354.43	23.058
354.79	22.709
355.15	23.492
355.51	24.367
355.87	23.786
356.24	22.757
356.60	22.797
356.96	23.571
357.32	22.923
357.68	23.378
358.04	21.971
358.40	23.633
358.77	22.648
359.13	22.338
359.49	22.419
359.85	22.855
360.21	23.365
360.57	22.724
360.93	22.390
361.29	20.770
361.66	22.806
362.02	23.939
362.38	23.915
362.74	22.483
363.10	22.874
363.46	22.609
363.82	23.140
364.18	22.509
364.54	22.206
364.90	22.294
365.26	21.980
365.62	23.066
365.98	22.361
366.35	23.088
366.71	22.469
367.07	21.988
367.43	22.502
367.79	22.403
368.15	22.900
368.51	22.360
368.87	21.680
369.23	22.094
369.59	22.595
369.95	22.727
370.31	22.038
370.67	22.761
371.03	22.255
371.39	21.371
371.75	21.245
372.11	22.040
372.47	22.707
372.83	23.208
373.19	21.541
373.55	21.155
373.91	22.246
374.27	21.828
374.63	22.254
374.99	21.135
375.35	21.309
375.71	22.867
376.07	21.559
376.42	21.224
376.78	22.349
377.14	22.410
377.50	21.315
377.86	21.687
378.22	20.932
378.58	20.256
378.94	20.416
379.30	21.834
379.66	22.006
380.02	21.459
380.38	21.850
380.74	21.065
381.09	22.270
381.45	21.957
381.81	21.098
382.17	21.383
382.53	21.986
382.89	21.908
383.25	21.717
383.61	21.402
383.97	20.952
384.32	21.326
384.68	21.238
385.04	20.833
385.40	22.029
385.76	21.824
386.12	22.057
386.48	21.967
386.83	21.433
387.19	21.245
387.55	21.644
387.91	21.760
388.27	20.879
388.62	20.768
388.98	20.381
389.34	21.736
389.70	20.820
390.06	21.020
390.42	21.179
390.77	20.798
391.13	20.366
391.49	21.151
391.85	21.313
392.20	21.343
392.56	20.788
392.92	20.728
393.28	21.934
393.64	20.601
393.99	22.571
394.35	20.620
394.71	21.264
395.07	20.302
395.42	20.522
395.78	20.065
396.14	21.248
396.50	20.862
396.85	20.348
397.21	21.241
397.57	20.188
397.92	21.929
398.28	21.724
398.64	20.301
399.00	20.767
399.35	20.203
399.71	21.482
400.07	21.221
400.42	20.869
400.78	22.045
401.14	22.202
401.49	21.084
401.85	21.572
402.21	22.108
402.57	21.062
402.92	20.263
403.28	21.115
403.63	21.375
403.99	20.663
404.35	21.299
404.70	20.000
405.06	19.565
405.42	21.007
405.77	19.814
406.13	20.955
406.49	20.426
406.84	21.027
407.20	21.132
407.55	20.734
407.91	20.722
408.27	20.714
408.62	21.600
408.98	20.518
409.34	21.623
409.69	20.672
410.05	20.874
410.40	20.741
410.76	21.411
411.11	21.062
411.47	21.105
411.83	19.962
412.18	20.849
412.54	20.787
412.89	20.998
413.25	20.638
413.60	20.373
413.96	20.675
414.31	21.220
414.67	20.141
415.03	20.706
415.38	20.039
415.74	21.889
416.09	21.685
416.45	21.269
416.80	21.018
417.16	21.409
417.51	20.720
417.87	20.795
418.22	21.179
418.58	21.003
418.93	22.132
419.29	20.935
419.64	21.452
420.00	20.844
420.35	20.776
420.71	22.114
421.06	20.994
421.42	22.416
421.77	21.214
422.12	21.453
422.48	21.061
422.83	20.766
423.19	20.485
423.54	20.106
423.90	21.143
424.25	21.699
424.61	22.093
424.96	20.848
425.31	21.837
425.67	21.714
426.02	22.144
426.38	22.167
426.73	21.429
427.09	22.785
427.44	21.353
427.79	21.332
428.15	21.481
428.50	21.684
428.85	20.639
429.21	22.184
429.56	21.941
429.92	21.572
430.27	21.704
430.62	20.857
430.98	20.966
431.33	21.451
431.68	20.879
432.04	21.912
432.39	21.392
432.74	20.565
433.10	22.529
433.45	21.505
433.80	21.358
434.16	20.554
434.51	21.828
434.86	21.429
435.22	21.817
435.57	21.460
435.92	21.617
436.28	20.692
436.63	21.506
436.98	20.857
437.34	20.871
437.69	22.123
438.04	22.450
438.39	21.136
438.75	22.222
439.10	21.675
439.45	21.789
439.81	22.141
440.16	21.496
440.51	22.328
440.86	22.659
441.22	21.663
441.57	22.461
441.92	21.773
442.27	21.563
442.63	22.645
442.98	22.056
443.33	20.757
443.68	21.326
444.03	22.901
444.39	21.790
444.74	23.133
445.09	22.829
445.44	21.880
445.79	22.950
446.15	22.907
446.50	22.074
446.85	23.433
447.20	22.106
447.55	22.321
447.91	22.335
448.26	22.425
448.61	22.050
448.96	22.719
449.31	21.965
449.66	22.532
450.02	22.133
450.37	22.229
450.72	22.509
451.07	22.595
451.42	22.472
451.77	21.881
452.12	21.411
452.47	22.215
452.83	23.027
453.18	22.581
453.53	22.946
453.88	22.526
454.23	22.864
454.58	23.489
454.93	22.938
455.28	22.603
455.63	23.187
455.98	22.550
456.34	22.478
456.69	22.173
457.04	23.945
457.39	22.965
457.74	22.551
458.09	22.366
458.44	22.586
458.79	22.241
459.14	23.913
459.49	23.403
459.84	22.504
460.19	22.573
460.54	23.778
460.89	23.068
461.24	22.422
461.59	22.922
461.94	22.704
462.29	22.919
462.64	24.120
462.99	23.290
463.34	23.505
463.69	23.102
464.04	23.608
464.39	23.226
464.74	22.945
465.09	23.331
465.44	23.139
465.79	23.243
466.14	23.261
466.49	22.139
466.84	23.676
467.19	23.842
467.54	23.116
467.89	23.879
468.24	23.540
468.59	24.889
468.94	23.048
469.29	24.000
469.64	24.949
469.99	25.228
470.34	23.208
470.68	24.981
471.03	24.345
471.38	24.679
471.73	23.529
472.08	22.999
472.43	23.893
472.78	23.372
473.13	23.810
473.48	24.495
473.83	22.665
474.17	24.288
474.52	23.612
474.87	24.303
475.22	23.917
475.57	23.715
475.92	24.465
476.27	24.156
476.61	24.711
476.96	23.369
477.31	24.824
477.66	23.876
478.01	24.144
478.36	24.237
478.70	24.959
479.05	24.670
479.40	24.377
479.75	23.149
480.10	23.502
480.45	23.650
480.79	24.572
481.14	24.436
481.49	23.596
481.84	24.083
482.19	24.088
482.53	24.365
482.88	24.010
483.23	24.424
483.58	24.906
483.92	24.831
484.27	24.020
484.62	24.249
484.97	23.673
485.31	23.121
485.66	22.085
486.01	21.901
486.36	21.983
486.70	22.793
487.05	23.140
487.40	22.983
487.75	24.000
488.09	23.331
488.44	24.759
488.79	24.654
489.13	24.279
489.48	24.327
489.83	24.081
490.17	24.404
490.52	24.619
490.87	24.479
491.22	25.645
491.56	24.905
491.91	24.283
492.26	24.648
492.60	24.808
492.95	25.726
493.30	24.621
493.64	25.049
493.99	25.411
494.34	24.612
494.68	24.857
495.03	25.499
495.37	25.417
495.72	25.492
496.07	25.902
496.41	25.660
496.76	25.012
497.11	24.918
497.45	24.916
497.80	26.034
498.14	25.087
498.49	25.546
498.84	25.050
499.18	25.402
499.53	25.099
499.87	25.000
500.22	25.272
500.56	25.265
500.91	26.104
501.26	25.556
501.60	25.234
501.95	25.328
502.29	24.939
502.64	25.483
502.98	25.210
503.33	24.880
503.67	25.639
504.02	26.051
504.36	25.532
504.71	25.303
505.06	25.315
505.40	26.244
505.75	25.825
506.09	24.835
506.44	26.027
506.78	25.969
507.13	26.163
507.47	26.632
507.82	25.588
508.16	24.828
508.51	26.023
508.85	25.955
509.19	25.812
509.54	26.542
509.88	25.890
510.23	26.950
510.57	26.991
510.92	25.693
511.26	26.568
511.61	26.403
511.95	26.795
512.30	25.998
512.64	26.433
512.98	26.895
513.33	26.749
513.67	25.924
514.02	27.403
514.36	27.086
514.70	27.564
515.05	28.026
515.39	27.627
515.74	28.204
516.08	27.735
516.42	28.151
516.77	27.911
517.11	28.190
517.46	27.409
517.80	27.771
518.14	27.006
518.49	27.764
518.83	27.461
519.17	26.804
519.52	26.465
519.86	27.671
520.20	28.554
520.55	27.392
520.89	28.105
521.23	28.752
521.58	28.959
521.92	28.526
522.26	27.456
522.61	27.208
522.95	29.801
523.29	27.382
523.64	27.827
523.98	28.516
524.32	27.964
524.66	28.233
525.01	28.117
525.35	29.034
525.69	27.609
526.04	27.844
526.38	29.377
526.72	28.515
527.06	27.691
527.41	28.298
527.75	27.748
528.09	27.973
528.43	28.967
528.78	28.317
529.12	28.581
529.46	28.395
529.80	28.246
530.15	28.845
530.49	28.081
530.83	28.044
531.17	29.214
531.51	29.617
531.86	27.872
532.20	28.184
532.54	28.182
532.88	29.432
533.22	27.621
533.57	28.637
533.91	27.611
534.25	28.776
534.59	28.223
534.93	27.879
535.27	26.967
535.62	27.414
535.96	28.702
536.30	27.968
536.64	29.566
536.98	28.780
537.32	29.161
537.66	30.505
538.01	28.951
538.35	28.363
538.69	28.162
539.03	27.751
539.37	27.995
539.71	29.584
540.05	27.699
540.39	28.324
540.73	28.033
541.07	29.282
541.42	28.696
541.76	29.663
542.10	28.630
542.44	29.465
542.78	27.392
543.12	29.052
543.46	29.068
543.80	27.828
544.14	27.103
544.48	28.448
544.82	28.503
545.16	28.210
545.50	28.438
545.84	29.320
546.18	29.787
546.52	29.704
546.86	27.965
547.20	28.469
547.54	27.633
547.88	29.076
548.22	28.534
548.56	27.507
548.90	28.302
549.24	28.994
549.58	28.702
549.92	29.378
550.26	29.744
550.60	30.409
550.94	30.246
551.28	29.444
551.62	30.000
551.96	29.850
552.30	28.874
552.64	28.420
552.98	29.044
553.32	29.101
553.66	28.520
554.00	28.467
554.34	29.616
554.68	29.056
555.02	29.688
555.36	29.918
555.69	28.938
556.03	28.979
556.37	28.754
556.71	29.242
557.05	28.934
557.39	28.401
557.73	29.085
558.07	30.694
558.41	30.398
558.75	29.384
559.08	30.496
559.42	30.000
559.76	30.905
560.10	28.517
560.44	29.635
560.78	29.091
561.12	28.984
561.45	28.883
561.79	28.361
562.13	28.318
562.47	28.633
562.81	28.963
563.15	29.126
563.48	29.774
563.82	30.405
564.16	28.830
564.50	27.838
564.84	28.916
565.17	28.370
565.51	29.235
565.85	29.287
566.19	29.244
566.52	29.826
566.86	29.113
567.20	28.331
567.54	28.406
567.88	27.944
568.21	28.281
568.55	28.315
568.89	27.926
569.23	26.625
569.56	26.489
569.90	26.634
570.24	25.828
570.57	25.564
570.91	26.316
571.25	24.992
571.59	25.101
571.92	24.415
572.26	24.457
572.60	25.023
572.93	25.604
573.27	25.141
573.61	25.298
573.95	24.304
574.28	24.073
574.62	24.231
574.96	24.159
575.29	23.902
575.63	23.555
575.97	24.072
576.30	23.953
576.64	24.556
576.98	24.299
577.31	24.183
577.65	24.060
577.98	23.964
578.32	23.274
578.66	23.555
578.99	23.935
579.33	23.757
579.67	23.316
580.00	23.949
580.34	24.204
580.67	24.011
581.01	24.256
581.35	23.665
581.68	23.007
582.02	23.105
582.35	23.101
582.69	23.120
583.02	23.563
583.36	24.225
583.70	24.948
584.03	24.993
584.37	25.268
584.70	24.643
585.04	23.523
585.37	23.759
585.71	23.673
586.04	23.676
586.38	23.900
586.72	24.505
587.05	24.292
587.39	24.658
587.72	24.904
588.06	24.827
588.39	24.523
588.73	24.573
589.06	25.049
589.40	24.957
589.73	25.849
590.07	25.755
590.40	26.432
590.73	26.359
591.07	25.954
591.40	25.824
591.74	25.611
592.07	26.067
592.41	26.369
592.74	25.727
593.08	24.659
593.41	24.712
593.75	24.338
594.08	24.305
594.41	24.527
594.75	25.344
595.08	25.539
595.42	25.580
595.75	25.122
596.09	25.606
596.42	26.002
596.75	26.243
597.09	25.923
597.42	26.287
597.75	26.706
598.09	25.713
598.42	25.632
598.76	24.882
599.09	25.601
599.42	24.327
599.76	24.379
600.09	24.661
600.42	25.019
600.76	25.149
601.09	24.542
601.42	24.638
601.76	24.891
602.09	25.330
602.42	26.285
602.76	25.849
603.09	24.958
603.42	26.087
603.76	25.323
604.09	25.395
604.42	26.227
604.76	26.569
605.09	26.005
605.42	26.637
605.75	25.131
606.09	25.180
606.42	25.229
606.75	25.671
607.09	25.802
607.42	24.856
607.75	25.311
608.08	25.427
608.42	25.171
608.75	26.024
609.08	25.660
609.41	26.345
609.75	25.605
610.08	26.760
610.41	25.797
610.74	25.110
611.07	26.202
611.41	25.480
611.74	26.013
612.07	25.803
612.40	26.969
612.73	26.610
613.07	26.547
613.40	26.422
613.73	26.357
614.06	27.657
614.39	26.847
614.72	26.275
615.06	25.922
615.39	25.328
615.72	26.534
616.05	27.318
616.38	25.983
616.71	27.034
617.05	27.795
617.38	27.027
617.71	26.667
618.04	27.111
618.37	27.932
618.70	29.373
619.03	27.986
619.36	28.075
619.69	28.734
620.03	29.657
620.36	28.684
620.69	27.480
621.02	28.440
621.35	29.544
621.68	29.762
622.01	28.917
622.34	28.571
622.67	28.470
623.00	28.484
623.33	28.506
623.66	29.170
623.99	29.274
624.32	29.506
624.65	27.594
624.99	28.969
625.32	28.279
625.65	28.751
625.98	29.009
626.31	29.094
626.64	30.156
626.97	31.152
627.30	31.349
627.63	30.763
627.96	30.638
628.29	30.990
628.62	31.072
628.95	30.561
629.28	31.048
629.61	32.004
629.94	32.356
630.26	29.941
630.59	31.738
630.92	31.795
631.25	31.077
631.58	31.938
631.91	29.825
632.24	31.307
632.57	33.864
632.90	31.079
633.23	31.294
633.56	33.375
633.89	32.059
634.22	32.716
634.55	32.274
634.88	30.396
635.20	32.949
635.53	33.600
635.86	32.770
636.19	33.635
636.52	33.036
636.85	31.141
637.18	34.214
637.51	32.201
637.83	34.034
638.16	35.607
638.49	32.153
638.82	34.211
639.15	31.750
639.48	33.150
639.81	33.752
640.13	34.199
640.46	34.548
640.79	33.432
641.12	34.121
641.45	34.084
641.77	33.630
642.10	36.019
642.43	36.174
642.76	35.974
643.09	34.895
643.41	34.142
643.74	33.278
644.07	35.632
644.40	34.628
644.73	35.902
645.05	34.060
645.38	35.273
645.71	35.638
646.04	35.368
646.36	34.929
646.69	35.971
647.02	35.728
647.35	39.366
647.67	36.563
648.00	35.821
648.33	34.642
648.66	33.898
648.98	31.156
649.31	33.388
649.64	33.595
649.96	33.874
650.29	35.945
650.62	34.872
650.94	32.593
651.27	31.844
651.60	34.955
651.92	34.615
652.25	34.103
652.58	33.500
652.90	34.477
653.23	31.597
653.56	34.010
653.88	33.849
654.21	30.998
654.54	33.786
654.86	35.314
655.19	30.409
655.52	28.096
655.84	21.401
656.17	23.401
656.49	31.634
656.82	33.390
657.15	26.472
657.47	20.271
657.80	15.235
658.13	15.019
658.45	23.752
658.78	24.779
659.10	25.561
659.43	25.533
659.75	26.492
660.08	26.966
660.41	29.724
660.73	30.939
661.06	33.622
661.38	33.464
661.71	31.211
662.03	36.910
662.36	36.264
662.68	34.513
663.01	36.681
663.33	34.339
663.66	35.814
663.98	38.372
664.31	34.115
664.63	32.488
664.96	33.478
665.28	36.424
665.61	35.931
665.93	36.304
666.26	36.009
666.58	33.557
666.91	32.706
667.23	35.613
667.56	36.730
667.88	36.451
668.21	41.527
668.53	36.170
668.86	37.028
669.18	34.670
669.50	35.109
669.83	37.209
670.15	35.664
670.48	32.775
670.80	33.410
671.13	32.886
671.45	34.703
671.77	35.837
672.10	34.455
672.42	32.210
672.75	33.925
673.07	33.989
673.39	34.312
673.72	28.994
674.04	34.167
674.37	32.839
674.69	31.692
675.01	36.000
675.34	31.532
675.66	34.028
675.98	35.698
676.31	35.321
676.63	35.392
676.95	34.545
677.28	35.059
677.60	35.422
677.92	34.633
678.25	33.698
678.57	33.766
678.89	34.454
679.22	32.662
679.54	30.723
679.86	30.616
680.18	32.427
680.51	30.114
680.83	33.400
681.15	32.200
681.48	33.607
681.80	34.917
682.12	34.879
682.44	33.054
682.77	32.892
683.09	33.867
683.41	34.318
683.73	33.410
684.06	30.310
684.38	30.538
684.70	33.333
685.02	29.046
685.34	30.632
685.67	29.268
685.99	31.284
686.31	29.027
686.63	29.128
686.96	29.848
687.28	28.485
687.60	31.179
687.92	30.909
688.24	30.847
688.56	34.061
688.89	34.152
689.21	35.111
689.53	34.571
689.85	32.558
690.17	33.929
690.49	33.806
690.82	32.767
691.14	34.286
691.46	32.710
691.78	31.757
692.10	32.688
692.42	32.900
692.74	33.974
693.06	33.108
693.39	30.090
693.71	29.638
694.03	29.330
694.35	31.776
694.67	31.818
694.99	33.159
695.31	31.332
695.63	34.750
695.95	32.576
696.27	29.793
696.59	33.611
696.91	29.132
697.23	29.306
697.56	33.663
697.88	30.753
698.20	31.891
698.52	31.294
698.84	30.144
699.16	28.750
699.48	35.088
699.80	29.777
700.12	32.075
700.44	35.854
700.76	29.651
701.08	34.242
701.40	31.325
701.72	37.346
702.04	38.284
702.36	34.783
702.68	33.033
703.00	31.818
703.32	29.032
703.64	28.814
703.96	31.014
704.28	33.436
704.60	31.746
704.91	29.653
705.23	32.890
705.55	38.869
705.87	34.296
706.19	35.926
706.51	31.959
706.83	38.907
707.15	30.218
707.47	33.053
707.79	28.646
708.11	31.000
708.43	28.000
708.74	31.525
709.06	31.268
709.38	32.722
709.70	34.024
710.02	29.299
710.34	29.102
710.66	28.846
710.98	33.775
711.29	33.115
711.61	29.153
711.93	36.156
712.25	36.082
712.57	40.293
712.89	34.701
713.20	31.834
713.52	28.920
713.84	33.106
714.16	30.928
714.48	31.935
714.80	31.410
715.11	31.307
715.43	25.392
715.75	30.667
716.07	26.910
716.39	28.188
716.70	30.258
717.02	33.588
717.34	34.008
717.66	37.168
717.97	32.174
718.29	35.146
718.61	31.496
718.93	32.171
719.24	29.658
719.56	28.916
719.88	31.271
720.20	34.848
720.51	30.651
720.83	34.363
721.15	32.353
721.46	35.484
721.78	28.854
722.10	28.996
722.42	30.705
722.73	35.918
723.05	35.510
723.37	33.051
723.68	40.090
724.00	32.479
724.32	32.444
724.63	32.727
724.95	34.061
725.27	35.023
725.58	30.932
725.90	28.571
726.22	30.888
726.53	29.831
726.85	29.963
727.16	34.717
727.48	28.745
727.80	32.389
728.11	29.661
728.43	27.451
728.74	22.984
729.06	30.000
729.38	35.714
729.69	25.896
730.01	28.846
730.32	32.090
730.64	31.449
730.96	32.075
731.27	26.333
731.59	28.475
731.90	26.752
732.22	35.331
732.53	28.571
732.85	30.851
733.16	34.007
733.48	25.180
733.80	27.174
734.11	27.119
734.43	28.179
734.74	29.697
735.06	26.384
735.37	30.211
735.69	26.263
736.00	30.314
736.32	25.503
736.63	28.873
736.95	29.010
737.26	24.199
737.58	30.201
737.89	30.403
738.21	26.316
738.52	34.568
738.83	27.074
739.15	23.144
739.46	26.772
739.78	26.007
740.09	28.105
740.41	27.174
740.72	24.409
741.04	30.769
741.35	28.085
741.66	32.227
741.98	27.041
742.29	34.653
742.61	32.984
742.92	24.171
743.23	27.315
743.55	30.317
743.86	33.971
744.18	26.794
744.49	28.191
744.80	26.630
745.12	36.898
745.43	24.390
745.74	33.854
746.06	29.756
746.37	29.843
746.68	27.962
747.00	27.128
747.31	33.333
747.62	25.728
747.94	35.885
748.25	28.218
748.56	29.508
748.88	28.272
749.19	36.702
749.50	31.034
749.82	22.642
750.13	27.523
750.44	31.955
750.75	30.597
751.07	28.102
751.38	30.651
751.69	20.392
752.01	33.333
752.32	30.677
752.63	27.668
752.94	25.000
753.26	35.983
753.57	32.579
753.88	26.106
754.19	25.833
754.51	26.033
754.82	29.555
755.13	35.000
755.44	32.258
755.75	28.906
756.07	29.183
756.38	27.170
756.69	24.521
757.00	29.667
757.31	27.124
757.63	25.305
757.94	25.556
758.25	21.370
758.56	22.872
758.87	26.062
759.18	24.922
759.50	25.455
759.81	28.763
760.12	24.839
760.43	22.424
760.74	27.160
761.05	25.231
761.36	24.432
761.67	23.333
761.99	27.551
762.30	26.545
762.61	26.482
762.92	26.697
763.23	28.378
763.54	25.234
763.85	30.085
764.16	26.556
764.47	27.419
764.78	25.275
765.10	30.976
765.41	24.606
765.72	25.079
766.03	21.805
766.34	26.642
766.65	33.466
766.96	32.323
767.27	30.851
767.58	27.011
767.89	21.986
768.20	23.295
768.51	29.121
768.82	23.153
769.13	25.806
769.44	23.605
769.75	26.027
770.06	25.862
770.37	25.962
770.68	30.457
770.99	22.624
771.30	30.392
771.61	22.624
771.92	27.586
772.23	29.557
772.54	26.344
772.85	32.716
773.16	34.831
773.47	31.373
773.78	26.797
774.09	25.749
774.39	27.333
774.70	25.478
775.01	38.621
775.32	39.286
775.63	27.273
775.94	9.924
776.25	25.984
776.56	20.833
776.87	28.846
777.18	26.496
777.48	31.897
777.79	27.826
778.10	18.095
778.41	18.018
778.72	34.127
779.03	25.564
779.34	31.915
779.65	29.452
779.95	23.288
780.26	26.207
780.57	17.073
780.88	33.071
781.19	20.690
781.50	21.705
781.80	24.260
782.11	20.126
782.42	24.615
782.73	20.863
783.04	11.111
783.34	24.306
783.65	11.111
783.96	21.311
784.27	26.207
784.57	30.081
784.88	18.750
785.19	27.000
785.50	35.000
785.81	27.586
786.11	26.724
786.42	28.155
786.73	32.727
787.04	26.531
787.34	25.000
787.65	17.143
787.96	13.274
788.26	27.273
788.57	17.949
788.88	34.375
789.19	26.984
789.49	25.217
789.80	28.571
790.11	19.192
790.41	19.091
790.72	31.522
791.03	18.182
791.33	26.250
791.64	26.250
791.95	26.744
792.25	22.340
792.56	49.438
792.87	32.877
793.17	11.594
793.48	22.667
793.79	16.250
794.09	32.500
794.40	23.585
794.70	24.272
795.01	15.447
795.32	15.385
795.62	13.333
795.93	8.824
796.23	26.415
796.54	36.458
796.85	27.941
797.15	25.352
797.46	29.167
797.76	33.333
798.07	20.930
798.37	19.737
798.68	21.212
798.99	12.346
799.29	12.857
799.60	27.536
799.90	29.333
800.21	21.311
800.51	20.000
800.82	22.034
801.12	44.928
801.43	19.672
801.73	23.810
802.04	24.000
802.34	22.388
802.65	26.923
802.95	17.857
803.26	15.385
803.56	5.882
803.87	6.522
804.17	34.667
804.48	31.746
804.78	27.778
805.09	17.391
805.39	26.667
805.70	20.370
806.00	-14.035
806.30	15.493
806.61	24.286
806.91	9.722
807.22	28.947
807.52	40.000
807.83	1.818
808.13	40.278
808.43	30.882
808.74	14.925
809.04	35.593
809.35	26.923
809.65	9.375
809.95	40.541
810.26	0.000
810.56	21.918
810.86	16.667
811.17	18.000
811.47	34.694
811.77	0.000
812.08	-2.273
812.38	13.208
812.69	22.500
812.99	0.000
813.29	23.684
813.59	0.000
813.90	36.364
814.20	20.513
814.50	3.846
814.81	22.642
815.11	23.404
815.41	32.203
815.72	28.571
816.02	31.373
816.32	41.667
816.62	12.195
816.93	21.622
817.23	31.429
817.53	20.833
817.84	17.391
818.14	44.231
818.44	5.263
818.74	6.522
819.04	-2.500
819.35	18.919
819.65	23.529
819.95	-2.778
820.25	16.667
820.56	42.500
820.86	-41.379
821.16	35.000
821.46	42.553
821.76	-5.000
822.07	13.953
822.37	-13.514
822.67	3.125
822.97	45.238
823.27	32.143
823.57	24.000
823.88	0.000
824.18	21.429
824.48	20.588
824.78	12.903
825.08	8.696
825.38	6.061
825.69	-16.667
825.99	21.053
826.29	5.556
826.59	6.667
826.89	-52.381
827.19	10.870
827.49	5.000
827.79	20.000
828.09	-3.571
828.39	24.242
828.70	35.135
829.00	7.143
829.30	-14.286
829.60	16.667
829.90	31.250
830.20	-2.632
830.50	-29.630
830.80	26.087
831.10	36.364
831.40	-3.030
831.70	22.581
832.00	61.905
832.30	-9.524
832.60	-25.000
832.90	-3.448
833.20	-45.000
833.50	3.030
833.80	-3.704
834.10	15.385
834.40	34.375
834.70	-55.556
835.00	-5.263
835.30	69.231
835.60	0.000
835.90	25.806
836.20	13.636
836.50	42.857
836.80	-15.385
837.10	21.429
837.40	-200.000
837.70	0.000
838.00	-36.364
838.30	30.435
838.60	38.462
838.90	54.545
839.19	0.000
839.49	-13.333
839.79	30.769
840.09	50.000
840.39	28.571
840.69	0.000
840.99	-15.385
841.29	-36.842
841.59	-50.000
841.88	0.000
842.18	40.000
842.48	0.000
842.78	6.667
843.08	7.407
843.38	-100.000
843.68	39.130
843.97	73.333
844.27	-26.667
844.57	20.000
844.87	61.111
845.17	-4.762
845.47	60.000
845.76	9.524
846.06	64.706
846.36	-20.000
846.66	57.143
846.96	13.333
847.25	-125.000
847.55	-14.286
847.85	0.000
848.15	-27.273
848.44	-100.000
848.74	35.000
849.04	14.815
849.34	27.273
849.63	-83.333
849.93	-180.000
850.23	-66.667
850.53	60.000
850.82	0.000
851.12	-66.667
851.42	-26.667
851.71	-26.923
852.01	-7.143
852.31	-200.000
852.61	-9.091
852.90	-15.000
853.20	0.000
853.50	0.000
853.79	17.391
854.09	41.667
854.39	-26.316
854.68	50.000
854.98	19.355
855.28	23.077
855.57	-30.000
855.87	22.222
856.17	55.556
856.46	35.714
856.76	-20.000
857.05	-22.222
857.35	8.000
857.65	5.556
857.94	-53.846
858.24	17.241
858.53	-16.667
858.83	48.148
859.13	-13.636
859.42	-17.391
859.72	75.000
860.01	-666.667
860.31	16.000
860.60	4.762
860.90	-33.333
861.20	-20.000
861.49	-650.000
861.79	-20.000
862.08	15.000
862.38	26.667
862.67	-200.000
862.97	-116.667
863.26	33.333
863.56	33.333
863.85	-333.333
864.15	-11.111
864.44	-40.000
864.74	-7.143
865.03	300.000
865.33	-240.000
865.62	16.667
865.92	-50.000
866.21	-116.667
866.51	0.000
866.80	-100.000
867.10	-100.000
867.39	-16.667
867.69	0.000
867.98	-15.385
868.27	-66.667
868.57	-26.667
868.86	0.000
869.16	-61.538
869.45	40.000
869.75	-1200.000
870.04	0.000
870.33	-14.286
870.63	-14.286
870.92	500.000
871.22	-220.000
871.51	-800.000
871.80	77.778
872.10	500.000
>>>>>End Processed Spectral Data<<<<<
