SpectraSuite Data File
++++++++++++++++++++++++++++++++++++
Date: Fri May 15 21:09:47 PDT 2015
User: schluterlab
Dark Spectrum Present: Yes
Reference Spectrum Present: Yes
Number of Sampled Component Spectra: 1
Spectrometers: USB2E3373
Integration Time (usec): 3000 (USB2E3373)
Spectra Averaged: 3 (USB2E3373)
Boxcar Smoothing: 0 (USB2E3373)
Correct for Electrical Dark: No (USB2E3373)
Strobe/Lamp Enabled: No (USB2E3373)
Correct for Detector Non-linearity: No (USB2E3373)
Correct for Stray Light: No (USB2E3373)
Number of Pixels in Processed Spectrum: 2048
>>>>>Begin Processed Spectral Data<<<<<
178.53	0.000
178.91	0.000
179.29	112.500
179.67	-200.000
180.04	157.143
180.42	75.000
180.80	-200.000
181.18	100.000
181.56	650.000
181.94	-150.000
182.31	600.000
182.69	0.000
183.07	-166.667
183.45	-100.000
183.83	116.667
184.20	-63.636
184.58	55.556
184.96	75.000
185.34	133.333
185.72	-250.000
186.09	23.077
186.47	0.000
186.85	283.333
187.23	133.333
187.61	800.000
187.98	-300.000
188.36	77.778
188.74	66.667
189.12	64.706
189.49	11.111
189.87	0.000
190.25	71.429
190.63	350.000
191.00	-433.333
191.38	-68.421
191.76	-100.000
192.14	150.000
192.51	50.000
192.89	-33.333
193.27	-200.000
193.65	233.333
194.02	145.455
194.40	10.000
194.78	-125.000
195.15	8.333
195.53	-112.500
195.91	350.000
196.29	-100.000
196.66	130.769
197.04	142.857
197.42	-77.778
197.79	-233.333
198.17	-115.385
198.55	1600.000
198.92	-500.000
199.30	-1200.000
199.68	-80.000
200.05	-466.667
200.43	0.000
200.81	-300.000
201.18	-100.000
201.56	700.000
201.94	-800.000
202.31	266.667
202.69	-220.000
203.07	150.000
203.44	900.000
203.82	0.000
204.19	-35.714
204.57	-300.000
204.95	25.000
205.32	10.000
205.70	14.286
206.08	0.000
206.45	88.889
206.83	71.429
207.20	-185.714
207.58	200.000
207.96	-366.667
208.33	-80.000
208.71	125.000
209.08	-83.333
209.46	-1200.000
209.84	-220.000
210.21	-200.000
210.59	71.429
210.96	-50.000
211.34	50.000
211.71	-20.000
212.09	-242.857
212.46	-2000.000
212.84	0.000
213.22	30.000
213.59	200.000
213.97	-7.692
214.34	9.091
214.72	-133.333
215.09	525.000
215.47	-30.769
215.84	-90.909
216.22	-466.667
216.59	-100.000
216.97	-50.000
217.34	-175.000
217.72	-200.000
218.09	75.000
218.47	312.500
218.84	-900.000
219.22	-33.333
219.59	-220.000
219.97	466.667
220.34	200.000
220.72	100.000
221.09	-100.000
221.47	-450.000
221.84	-750.000
222.22	-700.000
222.59	27.273
222.97	8.333
223.34	-266.667
223.72	-57.143
224.09	14.286
224.46	32.143
224.84	300.000
225.21	40.000
225.59	-26.667
225.96	-200.000
226.34	350.000
226.71	-71.429
227.08	-183.333
227.46	0.000
227.83	-500.000
228.21	-44.444
228.58	-18.182
228.95	12.500
229.33	70.000
229.70	37.500
230.08	-62.500
230.45	-71.429
230.82	-157.143
231.20	-46.667
231.57	14.286
231.95	-142.857
232.32	-160.000
232.69	14.286
233.07	-133.333
233.44	-160.000
233.81	-70.000
234.19	22.222
234.56	-23.529
234.93	450.000
235.31	-50.000
235.68	-160.000
236.05	-38.462
236.43	-50.000
236.80	-58.824
237.17	9.375
237.55	-50.000
237.92	-14.815
238.29	8.333
238.67	16.667
239.04	11.765
239.41	-7.317
239.79	-40.000
240.16	4.878
240.53	-5.263
240.91	-8.696
241.28	20.635
241.65	8.929
242.02	15.068
242.40	-3.333
242.77	23.729
243.14	-12.121
243.51	-2.500
243.89	9.195
244.26	11.494
244.63	-3.571
245.00	12.371
245.38	3.093
245.75	6.742
246.12	8.621
246.49	10.744
246.87	14.423
247.24	7.563
247.61	6.140
247.98	4.065
248.36	11.875
248.73	3.289
249.10	0.649
249.47	4.430
249.84	9.804
250.22	7.059
250.59	6.536
250.96	15.023
251.33	11.628
251.70	15.294
252.08	11.675
252.45	12.871
252.82	9.045
253.19	11.060
253.56	10.280
253.94	14.865
254.31	13.913
254.68	10.526
255.05	8.661
255.42	10.917
255.79	11.969
256.16	14.008
256.54	10.075
256.91	11.407
257.28	7.807
257.65	5.618
258.02	8.511
258.39	9.428
258.76	13.919
259.14	14.950
259.51	10.032
259.88	7.904
260.25	10.784
260.62	12.153
260.99	7.797
261.36	6.507
261.73	8.544
262.10	12.462
262.47	9.816
262.85	10.658
263.22	9.231
263.59	14.642
263.96	11.180
264.33	10.303
264.70	9.524
265.07	10.714
265.44	13.598
265.81	12.429
266.18	12.295
266.55	12.339
266.92	13.731
267.29	13.577
267.66	13.043
268.03	10.995
268.40	9.661
268.77	13.102
269.14	12.950
269.51	13.368
269.88	11.222
270.25	9.184
270.62	11.220
270.99	9.974
271.36	9.535
271.73	12.676
272.10	13.382
272.47	10.875
272.84	9.158
273.21	14.153
273.58	13.012
273.95	9.153
274.32	8.545
274.69	11.538
275.06	13.170
275.43	9.297
275.80	12.583
276.17	9.195
276.54	9.422
276.91	11.842
277.28	10.917
277.65	11.777
278.02	12.128
278.39	12.035
278.76	11.530
279.13	6.432
279.50	11.134
279.87	13.823
280.23	7.097
280.60	13.840
280.97	11.313
281.34	8.846
281.71	13.552
282.08	10.225
282.45	9.980
282.82	11.197
283.19	10.058
283.56	9.441
283.92	8.349
284.29	7.692
284.66	11.240
285.03	11.198
285.40	11.720
285.77	7.557
286.14	9.567
286.51	9.963
286.87	10.786
287.24	11.786
287.61	10.053
287.98	11.228
288.35	8.839
288.72	11.033
289.08	9.549
289.45	11.248
289.82	11.364
290.19	11.263
290.56	10.463
290.93	8.418
291.29	6.934
291.66	9.291
292.03	9.091
292.40	10.323
292.77	9.410
293.13	9.416
293.50	9.712
293.87	11.756
294.24	9.119
294.60	8.644
294.97	10.417
295.34	8.589
295.71	8.048
296.08	8.819
296.44	6.970
296.81	8.194
297.18	9.130
297.55	9.756
297.91	7.534
298.28	10.158
298.65	8.548
299.02	7.412
299.38	4.925
299.75	9.103
300.12	7.853
300.48	8.300
300.85	9.252
301.22	7.922
301.59	8.158
301.95	8.354
302.32	9.987
302.69	7.090
303.05	6.931
303.42	8.593
303.79	7.243
304.15	8.005
304.52	7.491
304.89	8.070
305.25	7.869
305.62	6.418
305.99	6.433
306.35	7.630
306.72	7.199
307.09	7.754
307.45	7.807
307.82	5.787
308.19	9.524
308.55	7.743
308.92	8.497
309.29	6.592
309.65	7.966
310.02	6.931
310.38	7.464
310.75	6.995
311.12	7.427
311.48	6.999
311.85	8.796
312.22	8.228
312.58	8.705
312.95	8.111
313.31	8.696
313.68	7.539
314.05	8.776
314.41	9.278
314.78	8.969
315.14	10.072
315.51	7.971
315.87	8.811
316.24	10.920
316.61	10.236
316.97	10.119
317.34	11.426
317.70	10.707
318.07	10.288
318.43	10.980
318.80	10.701
319.16	12.109
319.53	14.055
319.89	12.598
320.26	12.955
320.62	14.744
320.99	14.718
321.35	14.286
321.72	16.407
322.08	15.509
322.45	17.563
322.81	17.092
323.18	17.076
323.54	19.595
323.91	19.085
324.27	20.801
324.64	21.348
325.00	20.803
325.37	23.049
325.73	21.759
326.10	23.706
326.46	24.664
326.83	24.409
327.19	26.155
327.56	26.325
327.92	26.496
328.29	25.982
328.65	28.208
329.01	27.390
329.38	28.018
329.74	28.706
330.11	29.657
330.47	28.942
330.84	29.615
331.20	32.224
331.56	30.648
331.93	31.781
332.29	32.356
332.66	31.674
333.02	32.714
333.38	31.897
333.75	33.700
334.11	32.319
334.48	33.454
334.84	33.425
335.20	34.767
335.57	33.001
335.93	35.050
336.29	34.438
336.66	33.969
337.02	34.294
337.38	33.889
337.75	33.182
338.11	35.347
338.47	35.219
338.84	35.397
339.20	35.283
339.56	35.321
339.93	36.347
340.29	37.798
340.65	36.290
341.02	36.702
341.38	36.726
341.74	35.954
342.11	34.922
342.47	36.388
342.83	37.457
343.20	36.934
343.56	37.739
343.92	37.201
344.28	36.379
344.65	37.133
345.01	36.733
345.37	35.997
345.73	37.992
346.10	37.791
346.46	36.754
346.82	37.316
347.19	37.240
347.55	37.176
347.91	38.511
348.27	36.702
348.63	39.353
349.00	37.654
349.36	37.656
349.72	38.972
350.08	37.213
350.45	37.749
350.81	37.209
351.17	38.436
351.53	37.551
351.89	37.077
352.26	38.640
352.62	37.984
352.98	38.233
353.34	37.359
353.70	38.350
354.07	38.710
354.43	37.790
354.79	38.811
355.15	38.810
355.51	39.320
355.87	38.754
356.24	38.662
356.60	37.510
356.96	39.762
357.32	38.738
357.68	39.719
358.04	40.145
358.40	39.550
358.77	39.713
359.13	37.950
359.49	38.598
359.85	40.562
360.21	38.836
360.57	39.786
360.93	39.486
361.29	39.653
361.66	40.596
362.02	40.606
362.38	40.213
362.74	39.516
363.10	41.159
363.46	40.326
363.82	41.247
364.18	40.295
364.54	41.250
364.90	41.505
365.26	40.175
365.62	41.752
365.98	40.543
366.35	41.224
366.71	41.537
367.07	41.727
367.43	40.618
367.79	41.131
368.15	41.350
368.51	41.588
368.87	41.565
369.23	41.516
369.59	41.545
369.95	42.742
370.31	41.329
370.67	43.209
371.03	40.851
371.39	41.357
371.75	42.051
372.11	41.298
372.47	43.121
372.83	41.945
373.19	42.725
373.55	42.455
373.91	43.053
374.27	42.381
374.63	40.991
374.99	42.340
375.35	41.295
375.71	43.077
376.07	42.135
376.42	43.265
376.78	42.282
377.14	42.383
377.50	43.227
377.86	43.307
378.22	41.863
378.58	43.526
378.94	42.533
379.30	42.857
379.66	42.947
380.02	42.918
380.38	41.570
380.74	43.507
381.09	43.988
381.45	42.569
381.81	43.122
382.17	42.957
382.53	42.598
382.89	44.256
383.25	43.497
383.61	43.902
383.97	43.302
384.32	42.527
384.68	44.025
385.04	42.096
385.40	43.124
385.76	45.094
386.12	45.213
386.48	44.253
386.83	44.388
387.19	43.956
387.55	44.793
387.91	44.071
388.27	43.162
388.62	45.249
388.98	43.339
389.34	42.786
389.70	44.438
390.06	44.368
390.42	43.523
390.77	43.296
391.13	43.506
391.49	44.567
391.85	44.704
392.20	44.068
392.56	43.229
392.92	43.453
393.28	44.222
393.64	43.243
393.99	45.893
394.35	43.770
394.71	44.253
395.07	43.180
395.42	41.591
395.78	44.104
396.14	43.758
396.50	43.310
396.85	43.593
397.21	43.421
397.57	42.696
397.92	43.080
398.28	43.333
398.64	41.386
399.00	43.284
399.35	42.889
399.71	41.700
400.07	43.168
400.42	42.840
400.78	42.988
401.14	41.379
401.49	42.228
401.85	42.535
402.21	42.711
402.57	42.625
402.92	41.154
403.28	43.546
403.63	42.749
403.99	42.028
404.35	42.473
404.70	41.190
405.06	41.951
405.42	42.014
405.77	41.139
406.13	42.026
406.49	41.445
406.84	42.176
407.20	41.421
407.55	41.339
407.91	42.246
408.27	41.173
408.62	41.477
408.98	40.665
409.34	40.582
409.69	41.021
410.05	40.456
410.40	40.556
410.76	41.435
411.11	40.250
411.47	40.828
411.83	40.615
412.18	40.798
412.54	41.323
412.89	39.532
413.25	40.193
413.60	40.807
413.96	39.448
414.31	39.573
414.67	40.603
415.03	39.414
415.38	39.687
415.74	40.651
416.09	40.039
416.45	40.581
416.80	39.128
417.16	41.091
417.51	39.440
417.87	38.657
418.22	38.536
418.58	40.401
418.93	40.000
419.29	38.284
419.64	39.080
420.00	40.239
420.35	39.940
420.71	39.550
421.06	39.595
421.42	40.204
421.77	39.075
422.12	39.274
422.48	38.441
422.83	39.037
423.19	38.939
423.54	38.036
423.90	37.809
424.25	39.036
424.61	39.780
424.96	38.792
425.31	39.573
425.67	39.143
426.02	39.458
426.38	39.699
426.73	38.075
427.09	39.620
427.44	38.882
427.79	38.480
428.15	39.502
428.50	38.280
428.85	39.496
429.21	38.823
429.56	39.137
429.92	38.983
430.27	37.744
430.62	37.480
430.98	38.217
431.33	39.222
431.68	38.514
432.04	39.128
432.39	38.391
432.74	37.643
433.10	39.080
433.45	38.889
433.80	38.189
434.16	37.784
434.51	38.656
434.86	38.037
435.22	38.306
435.57	38.553
435.92	37.305
436.28	37.627
436.63	37.935
436.98	36.964
437.34	38.234
437.69	39.058
438.04	37.892
438.39	36.836
438.75	38.919
439.10	37.917
439.45	38.284
439.81	37.064
440.16	39.014
440.51	38.866
440.86	39.033
441.22	37.896
441.57	37.969
441.92	38.090
442.27	38.027
442.63	38.223
442.98	37.967
443.33	37.952
443.68	36.870
444.03	37.953
444.39	37.678
444.74	38.517
445.09	37.751
445.44	37.094
445.79	37.390
446.15	36.619
446.50	37.216
446.85	37.726
447.20	37.278
447.55	37.779
447.91	36.830
448.26	36.995
448.61	37.881
448.96	37.980
449.31	37.861
449.66	37.224
450.02	36.737
450.37	36.811
450.72	37.171
451.07	37.152
451.42	36.267
451.77	36.347
452.12	35.227
452.47	37.347
452.83	36.101
453.18	35.737
453.53	36.346
453.88	37.098
454.23	36.632
454.58	37.972
454.93	36.662
455.28	35.683
455.63	36.082
455.98	36.981
456.34	35.888
456.69	36.213
457.04	37.429
457.39	35.541
457.74	36.397
458.09	34.079
458.44	35.284
458.79	35.126
459.14	35.355
459.49	35.701
459.84	35.533
460.19	35.619
460.54	35.941
460.89	35.455
461.24	36.087
461.59	35.392
461.94	36.226
462.29	35.344
462.64	36.013
462.99	35.613
463.34	35.049
463.69	34.556
464.04	35.291
464.39	35.294
464.74	34.540
465.09	35.371
465.44	35.488
465.79	34.524
466.14	34.721
466.49	34.330
466.84	35.574
467.19	35.044
467.54	33.653
467.89	35.123
468.24	34.367
468.59	34.984
468.94	33.841
469.29	34.820
469.64	34.450
469.99	34.898
470.34	32.901
470.68	34.899
471.03	34.749
471.38	34.879
471.73	33.543
472.08	33.514
472.43	33.826
472.78	34.544
473.13	33.946
473.48	33.420
473.83	33.935
474.17	33.549
474.52	33.312
474.87	33.030
475.22	34.045
475.57	33.371
475.92	34.174
476.27	33.353
476.61	33.449
476.96	32.348
477.31	33.856
477.66	32.697
478.01	33.015
478.36	33.170
478.70	33.279
479.05	33.462
479.40	32.750
479.75	32.690
480.10	32.821
480.45	32.700
480.79	34.240
481.14	33.145
481.49	32.857
481.84	32.819
482.19	31.525
482.53	32.854
482.88	31.408
483.23	31.766
483.58	32.075
483.92	32.091
484.27	31.039
484.62	31.197
484.97	31.177
485.31	30.997
485.66	29.876
486.01	29.621
486.36	30.195
486.70	30.523
487.05	30.780
487.40	30.662
487.75	31.014
488.09	30.686
488.44	30.571
488.79	31.341
489.13	31.691
489.48	30.996
489.83	30.583
490.17	30.292
490.52	31.132
490.87	30.449
491.22	31.901
491.56	30.171
491.91	30.019
492.26	30.287
492.60	30.470
492.95	31.185
493.30	30.386
493.64	30.992
493.99	30.870
494.34	30.194
494.68	30.524
495.03	29.830
495.37	30.471
495.72	30.793
496.07	30.829
496.41	29.528
496.76	30.309
497.11	29.623
497.45	30.453
497.80	30.222
498.14	29.260
498.49	30.422
498.84	30.289
499.18	29.618
499.53	29.365
499.87	29.475
500.22	29.525
500.56	29.652
500.91	29.669
501.26	29.659
501.60	28.726
501.95	29.597
502.29	29.492
502.64	29.633
502.98	29.255
503.33	28.818
503.67	28.964
504.02	28.886
504.36	28.600
504.71	27.929
505.06	29.139
505.40	28.782
505.75	28.814
506.09	29.448
506.44	29.415
506.78	29.082
507.13	29.266
507.47	28.407
507.82	28.152
508.16	28.051
508.51	28.699
508.85	28.310
509.19	28.632
509.54	27.936
509.88	28.857
510.23	27.918
510.57	28.113
510.92	27.186
511.26	28.478
511.61	28.493
511.95	28.329
512.30	28.437
512.64	28.715
512.98	28.355
513.33	29.155
513.67	27.970
514.02	29.119
514.36	28.571
514.70	29.079
515.05	28.085
515.39	27.804
515.74	28.862
516.08	28.273
516.42	29.093
516.77	28.672
517.11	28.071
517.46	28.366
517.80	27.950
518.14	27.618
518.49	27.644
518.83	27.582
519.17	26.925
519.52	27.590
519.86	27.851
520.20	27.886
520.55	27.580
520.89	28.231
521.23	27.359
521.58	28.265
521.92	27.692
522.26	27.196
522.61	29.026
522.95	28.742
523.29	27.255
523.64	27.382
523.98	28.645
524.32	26.997
524.66	27.657
525.01	28.701
525.35	27.544
525.69	26.128
526.04	26.587
526.38	27.951
526.72	26.553
527.06	27.173
527.41	27.309
527.75	27.413
528.09	26.445
528.43	27.346
528.78	26.403
529.12	26.968
529.46	26.511
529.80	26.346
530.15	27.921
530.49	26.061
530.83	27.497
531.17	26.394
531.51	26.607
531.86	25.901
532.20	26.305
532.54	27.434
532.88	27.447
533.22	26.882
533.57	26.081
533.91	26.371
534.25	26.758
534.59	24.824
534.93	25.739
535.27	24.365
535.62	25.664
535.96	26.223
536.30	25.660
536.64	26.533
536.98	26.272
537.32	26.600
537.66	27.139
538.01	25.594
538.35	24.688
538.69	25.233
539.03	25.017
539.37	26.649
539.71	26.244
540.05	25.594
540.39	25.900
540.73	25.802
541.07	25.967
541.42	25.806
541.76	26.222
542.10	25.258
542.44	25.504
542.78	24.157
543.12	25.000
543.46	25.243
543.80	24.011
544.14	23.899
544.48	24.850
544.82	24.812
545.16	25.546
545.50	25.300
545.84	25.496
546.18	25.319
546.52	25.379
546.86	24.227
547.20	25.107
547.54	24.099
547.88	23.981
548.22	25.049
548.56	25.264
548.90	24.191
549.24	24.036
549.58	24.401
549.92	23.731
550.26	23.663
550.60	24.907
550.94	25.019
551.28	25.348
551.62	24.462
551.96	24.135
552.30	24.488
552.64	24.612
552.98	25.105
553.32	24.465
553.66	23.657
554.00	24.380
554.34	25.111
554.68	24.263
555.02	24.628
555.36	23.186
555.69	23.443
556.03	23.483
556.37	22.847
556.71	24.477
557.05	24.981
557.39	23.866
557.73	23.988
558.07	23.228
558.41	24.119
558.75	23.928
559.08	24.665
559.42	24.048
559.76	24.019
560.10	23.547
560.44	22.934
560.78	24.266
561.12	24.048
561.45	24.666
561.79	23.950
562.13	24.060
562.47	22.878
562.81	24.280
563.15	23.625
563.48	23.197
563.82	23.404
564.16	23.538
564.50	22.770
564.84	24.699
565.17	23.139
565.51	24.249
565.85	23.594
566.19	23.077
566.52	23.123
566.86	23.458
567.20	21.856
567.54	22.506
567.88	22.086
568.21	23.416
568.55	22.174
568.89	22.279
569.23	22.340
569.56	21.410
569.90	22.330
570.24	21.102
570.57	21.600
570.91	22.029
571.25	20.947
571.59	20.866
571.92	20.770
572.26	20.290
572.60	21.271
572.93	21.148
573.27	20.721
573.61	20.316
573.95	20.781
574.28	20.524
574.62	20.392
574.96	20.244
575.29	20.217
575.63	19.772
575.97	20.358
576.30	20.242
576.64	19.894
576.98	20.592
577.31	20.521
577.65	20.459
577.98	19.949
578.32	20.083
578.66	19.600
578.99	19.958
579.33	19.510
579.67	20.086
580.00	20.203
580.34	19.876
580.67	19.436
581.01	19.500
581.35	19.401
581.68	19.819
582.02	19.471
582.35	19.703
582.69	19.517
583.02	19.269
583.36	19.754
583.70	20.223
584.03	19.683
584.37	20.327
584.70	20.110
585.04	19.352
585.37	19.926
585.71	19.329
586.04	19.465
586.38	19.392
586.72	19.971
587.05	19.786
587.39	19.849
587.72	19.738
588.06	19.485
588.39	19.937
588.73	19.841
589.06	20.059
589.40	19.876
589.73	20.336
590.07	19.977
590.40	19.698
590.73	20.717
591.07	20.483
591.40	19.991
591.74	20.090
592.07	20.547
592.41	20.583
592.74	19.275
593.08	19.560
593.41	18.715
593.75	19.169
594.08	18.572
594.41	19.833
594.75	19.198
595.08	19.485
595.42	19.507
595.75	19.715
596.09	20.055
596.42	19.678
596.75	20.204
597.09	20.729
597.42	19.919
597.75	20.568
598.09	19.375
598.42	19.224
598.76	19.434
599.09	18.990
599.42	18.833
599.76	19.074
600.09	18.703
600.42	19.674
600.76	18.796
601.09	19.008
601.42	18.762
601.76	19.015
602.09	19.637
602.42	19.587
602.76	19.100
603.09	19.103
603.42	19.147
603.76	19.435
604.09	19.360
604.42	19.374
604.76	19.226
605.09	19.059
605.42	19.278
605.75	18.870
606.09	19.193
606.42	18.557
606.75	18.874
607.09	19.736
607.42	18.432
607.75	18.295
608.08	18.733
608.42	18.593
608.75	18.892
609.08	19.283
609.41	18.832
609.75	19.204
610.08	19.021
610.41	18.744
610.74	18.284
611.07	18.191
611.41	19.305
611.74	19.723
612.07	19.111
612.40	18.873
612.73	19.379
613.07	19.854
613.40	19.420
613.73	19.138
614.06	18.753
614.39	19.628
614.72	18.263
615.06	18.939
615.39	18.614
615.72	18.407
616.05	19.218
616.38	18.575
616.71	18.777
617.05	19.704
617.38	19.233
617.71	18.994
618.04	19.111
618.37	19.672
618.70	20.066
619.03	20.625
619.36	19.609
619.69	20.167
620.03	21.110
620.36	18.813
620.69	19.415
621.02	19.495
621.35	20.581
621.68	20.153
622.01	19.750
622.34	20.032
622.67	20.032
623.00	19.832
623.33	19.512
623.66	20.045
623.99	18.684
624.32	20.913
624.65	18.496
624.99	19.639
625.32	17.817
625.65	20.424
625.98	19.500
626.31	18.121
626.64	20.971
626.97	20.506
627.30	20.053
627.63	19.237
627.96	19.227
628.29	19.519
628.62	20.157
628.95	19.739
629.28	21.169
629.61	20.439
629.94	21.896
630.26	19.763
630.59	20.916
630.92	19.897
631.25	20.513
631.58	19.714
631.91	20.066
632.24	20.986
632.57	21.364
632.90	20.047
633.23	20.471
633.56	18.892
633.89	20.592
634.22	21.111
634.55	19.822
634.88	20.307
635.20	19.744
635.53	20.267
635.86	18.856
636.19	20.828
636.52	20.408
636.85	20.347
637.18	19.748
637.51	20.252
637.83	20.368
638.16	22.374
638.49	20.845
638.82	21.184
639.15	19.810
639.48	20.495
639.81	21.060
640.13	20.346
640.46	20.117
640.79	21.502
641.12	19.498
641.45	20.571
641.77	21.481
642.10	22.749
642.43	18.650
642.76	21.122
643.09	22.132
643.41	20.550
643.74	21.417
644.07	20.854
644.40	22.635
644.73	22.592
645.05	22.315
645.38	21.693
645.71	21.454
646.04	21.005
646.36	21.631
646.69	22.302
647.02	24.953
647.35	22.388
647.67	18.647
648.00	22.201
648.33	22.867
648.66	20.169
648.98	20.436
649.31	19.008
649.64	20.722
649.96	20.421
650.29	18.399
650.62	20.171
650.94	21.481
651.27	18.622
651.60	20.721
651.92	22.203
652.25	18.472
652.58	20.333
652.90	21.269
653.23	21.681
653.56	18.105
653.88	20.103
654.21	16.287
654.54	18.676
654.86	20.374
655.19	19.883
655.52	18.421
655.84	15.319
656.17	16.989
656.49	22.902
656.82	23.952
657.15	18.642
657.47	14.207
657.80	10.489
658.13	10.467
658.45	15.974
658.78	16.024
659.10	16.134
659.43	16.492
659.75	16.626
660.08	15.655
660.41	18.693
660.73	19.613
661.06	21.837
661.38	17.025
661.71	17.864
662.03	21.888
662.36	21.758
662.68	20.575
663.01	22.271
663.33	21.346
663.66	19.535
663.98	17.907
664.31	18.763
664.63	18.203
664.96	18.913
665.28	17.881
665.61	20.346
665.93	20.652
666.26	19.089
666.58	15.884
666.91	19.765
667.23	23.821
667.56	21.801
667.88	18.465
668.21	20.764
668.53	20.331
668.86	21.934
669.18	19.340
669.50	18.402
669.83	20.698
670.15	18.648
670.48	18.182
670.80	23.502
671.13	18.568
671.45	17.352
671.77	21.674
672.10	21.980
672.42	18.727
672.75	20.071
673.07	21.288
673.39	21.101
673.72	14.398
674.04	20.833
674.37	19.915
674.69	17.987
675.01	21.556
675.34	19.595
675.66	21.991
675.98	22.173
676.31	18.119
676.63	16.865
676.95	16.818
677.28	24.706
677.60	18.313
677.92	19.725
678.25	20.350
678.57	17.100
678.89	17.857
679.22	20.358
679.54	18.675
679.86	17.097
680.18	19.612
680.51	19.129
680.83	18.489
681.15	20.800
681.48	20.902
681.80	19.835
682.12	19.960
682.44	17.992
682.77	19.205
683.09	16.934
683.41	16.136
683.73	20.737
684.06	19.690
684.38	17.419
684.70	19.826
685.02	18.672
685.34	17.391
685.67	20.075
685.99	18.445
686.31	18.053
686.63	19.109
686.96	19.582
687.28	13.939
687.60	17.681
687.92	19.596
688.24	19.153
688.56	18.341
688.89	19.420
689.21	20.444
689.53	14.617
689.85	17.907
690.17	21.652
690.49	17.021
690.82	19.903
691.14	18.095
691.46	20.093
691.78	19.144
692.10	18.925
692.42	17.100
692.74	17.308
693.06	19.144
693.39	18.326
693.71	16.968
694.03	17.321
694.35	17.056
694.67	20.202
694.99	17.493
695.31	20.366
695.63	18.750
695.95	15.404
696.27	18.394
696.59	19.722
696.91	17.087
697.23	17.738
697.56	19.554
697.88	20.000
698.20	16.856
698.52	19.529
698.84	17.225
699.16	18.750
699.48	17.544
699.80	19.603
700.12	16.981
700.44	19.328
700.76	18.895
701.08	16.970
701.40	20.482
701.72	22.531
702.04	19.142
702.36	20.067
702.68	15.015
703.00	20.909
703.32	16.422
703.64	13.559
703.96	16.522
704.28	14.417
704.60	20.317
704.91	14.826
705.23	20.598
705.55	21.908
705.87	19.495
706.19	18.889
706.51	16.151
706.83	22.186
707.15	12.773
707.47	19.048
707.79	16.146
708.11	17.250
708.43	18.000
708.74	20.413
709.06	19.155
709.38	20.183
709.70	15.680
710.02	20.382
710.34	18.266
710.66	14.103
710.98	17.219
711.29	18.033
711.61	18.644
711.93	19.218
712.25	21.993
712.57	22.344
712.89	19.030
713.20	18.339
713.52	19.512
713.84	15.358
714.16	15.120
714.48	17.419
714.80	16.987
715.11	17.325
715.43	14.107
715.75	17.667
716.07	18.605
716.39	17.114
716.70	15.867
717.02	12.977
717.34	20.243
717.66	22.124
717.97	16.957
718.29	22.176
718.61	17.717
718.93	19.767
719.24	16.730
719.56	18.072
719.88	19.244
720.20	17.424
720.51	15.326
720.83	15.830
721.15	13.025
721.46	12.903
721.78	16.206
722.10	15.985
722.42	10.373
722.73	11.020
723.05	22.857
723.37	19.915
723.68	21.171
724.00	13.248
724.32	12.889
724.63	16.364
724.95	20.087
725.27	18.433
725.58	16.525
725.90	11.508
726.22	16.216
726.53	18.983
726.85	16.105
727.16	15.472
727.48	19.433
727.80	19.028
728.11	15.254
728.43	16.863
728.74	14.919
729.06	20.000
729.38	18.421
729.69	15.139
730.01	9.615
730.32	16.791
730.64	17.668
730.96	15.849
731.27	14.000
731.59	15.932
731.90	19.108
732.22	20.505
732.53	20.266
732.85	14.894
733.16	18.855
733.48	9.712
733.80	14.855
734.11	17.627
734.43	14.089
734.74	17.576
735.06	9.446
735.37	15.710
735.69	18.855
736.00	14.286
736.32	13.087
736.63	18.310
736.95	19.795
737.26	10.676
737.58	14.430
737.89	16.850
738.21	16.917
738.52	21.399
738.83	16.157
739.15	19.651
739.46	17.323
739.78	12.454
740.09	16.667
740.41	14.493
740.72	7.480
741.04	16.599
741.35	14.468
741.66	16.114
741.98	14.286
742.29	16.337
742.61	13.089
742.92	5.213
743.23	9.722
743.55	16.742
743.86	14.833
744.18	14.354
744.49	11.170
744.80	10.870
745.12	20.856
745.43	10.732
745.74	22.917
746.06	17.073
746.37	14.660
746.68	17.062
747.00	16.489
747.31	16.915
747.62	11.650
747.94	20.574
748.25	13.861
748.56	15.847
748.88	8.377
749.19	20.745
749.50	17.734
749.82	13.679
750.13	11.927
750.44	17.669
750.75	22.015
751.07	20.073
751.38	13.793
751.69	18.824
752.01	18.605
752.32	16.733
752.63	17.787
752.94	16.810
753.26	20.084
753.57	15.837
753.88	15.044
754.19	15.000
754.51	15.702
754.82	17.004
755.13	18.750
755.44	16.532
755.75	19.531
756.07	15.953
756.38	10.189
756.69	11.111
757.00	14.000
757.31	17.647
757.63	14.939
757.94	15.000
758.25	13.973
758.56	12.500
758.87	12.748
759.18	12.461
759.50	14.545
759.81	18.060
760.12	15.161
760.43	13.030
760.74	12.654
761.05	10.154
761.36	12.216
761.67	14.848
761.99	12.585
762.30	13.091
762.61	14.625
762.92	13.575
763.23	14.414
763.54	15.888
763.85	15.678
764.16	12.863
764.47	14.516
764.78	12.821
765.10	17.845
765.41	13.249
765.72	15.238
766.03	12.406
766.34	17.153
766.65	16.733
766.96	18.182
767.27	12.234
767.58	14.943
767.89	6.383
768.20	12.500
768.51	13.736
768.82	12.808
769.13	14.747
769.44	16.738
769.75	10.959
770.06	14.224
770.37	12.500
770.68	10.660
770.99	16.742
771.30	17.647
771.61	12.670
771.92	14.655
772.23	16.256
772.54	15.054
772.85	24.074
773.16	10.674
773.47	18.301
773.78	19.608
774.09	14.371
774.39	11.333
774.70	6.369
775.01	21.379
775.32	15.714
775.63	13.223
775.94	15.267
776.25	17.323
776.56	20.000
776.87	9.615
777.18	13.675
777.48	14.655
777.79	8.696
778.10	1.905
778.41	9.009
778.72	11.905
779.03	10.526
779.34	14.894
779.65	15.753
779.95	8.904
780.26	20.690
780.57	8.130
780.88	14.961
781.19	10.345
781.50	10.853
781.80	8.876
782.11	11.321
782.42	13.846
782.73	13.669
783.04	13.333
783.34	6.250
783.65	0.855
783.96	10.656
784.27	15.172
784.57	10.569
784.88	17.188
785.19	18.000
785.50	14.000
785.81	18.966
786.11	12.069
786.42	8.738
786.73	14.545
787.04	16.327
787.34	14.286
787.65	8.571
787.96	8.850
788.26	20.909
788.57	8.547
788.88	18.750
789.19	7.937
789.49	10.435
789.80	-1.020
790.11	12.121
790.41	6.364
790.72	17.391
791.03	4.545
791.33	15.000
791.64	7.500
791.95	8.140
792.25	10.638
792.56	14.607
792.87	0.000
793.17	7.246
793.48	10.667
793.79	3.750
794.09	26.250
794.40	15.094
794.70	12.621
795.01	8.943
795.32	10.256
795.62	5.714
795.93	13.725
796.23	16.038
796.54	17.708
796.85	11.765
797.15	8.451
797.46	6.944
797.76	25.758
798.07	10.465
798.37	2.632
798.68	-3.030
798.99	7.407
799.29	18.571
799.60	0.000
799.90	9.333
800.21	3.279
800.51	4.615
800.82	5.085
801.12	11.594
801.43	14.754
801.73	12.698
802.04	28.000
802.34	8.955
802.65	19.231
802.95	-5.357
803.26	-3.846
803.56	3.922
803.87	-6.522
804.17	6.667
804.48	34.921
804.78	25.926
805.09	-10.870
805.39	0.000
805.70	3.704
806.00	3.509
806.30	11.268
806.61	10.000
806.91	2.778
807.22	17.105
807.52	25.333
807.83	-14.545
808.13	18.056
808.43	13.235
808.74	4.478
809.04	3.390
809.35	3.846
809.65	10.938
809.95	-35.135
810.26	2.273
810.56	4.110
810.86	11.905
811.17	10.000
811.47	12.245
811.77	-21.053
812.08	11.364
812.38	16.981
812.69	5.000
812.99	-6.061
813.29	31.579
813.59	-34.286
813.90	-4.545
814.20	-23.077
814.50	15.385
814.81	24.528
815.11	2.128
815.41	16.949
815.72	28.571
816.02	35.294
816.32	16.667
816.62	12.195
816.93	10.811
817.23	-2.857
817.53	20.833
817.84	0.000
818.14	1.923
818.44	-5.263
818.74	13.043
819.04	-20.000
819.35	0.000
819.65	2.941
819.95	13.889
820.25	14.286
820.56	22.500
820.86	-31.034
821.16	22.500
821.46	17.021
821.76	20.000
822.07	4.651
822.37	-29.730
822.67	3.125
822.97	11.905
823.27	-42.857
823.57	-4.000
823.88	-29.630
824.18	-25.000
824.48	17.647
824.78	19.355
825.08	-26.087
825.38	21.212
825.69	-12.500
825.99	0.000
826.29	25.000
826.59	-53.333
826.89	-66.667
827.19	15.217
827.49	12.500
827.79	22.857
828.09	39.286
828.39	12.121
828.70	29.730
829.00	-32.143
829.30	-38.095
829.60	3.333
829.90	-3.125
830.20	5.263
830.50	-22.222
830.80	-4.348
831.10	-4.545
831.40	27.273
831.70	16.129
832.00	23.810
832.30	-19.048
832.60	-58.333
832.90	13.793
833.20	-30.000
833.50	12.121
833.80	-22.222
834.10	-11.538
834.40	34.375
834.70	-33.333
835.00	-21.053
835.30	42.308
835.60	46.667
835.90	3.226
836.20	4.545
836.50	-14.286
836.80	-57.692
837.10	17.857
837.40	-266.667
837.70	-9.091
838.00	-72.727
838.30	21.739
838.60	30.769
838.90	31.818
839.19	3.571
839.49	13.333
839.79	7.692
840.09	-83.333
840.39	7.143
840.69	17.857
840.99	-26.923
841.29	-100.000
841.59	-90.000
841.88	36.364
842.18	0.000
842.48	0.000
842.78	-6.667
843.08	3.704
843.38	-170.000
843.68	30.435
843.97	-13.333
844.27	-86.667
844.57	40.000
844.87	11.111
845.17	-42.857
845.47	-13.333
845.76	-38.095
846.06	-11.765
846.36	-30.000
846.66	21.429
846.96	33.333
847.25	-212.500
847.55	0.000
847.85	-62.500
848.15	-4.545
848.44	-366.667
848.74	30.000
849.04	29.630
849.34	-72.727
849.63	-266.667
849.93	-260.000
850.23	-38.889
850.53	-40.000
850.82	-61.538
851.12	-111.111
851.42	0.000
851.71	-11.538
852.01	-92.857
852.31	-375.000
852.61	-45.455
852.90	10.000
853.20	-36.842
853.50	-83.333
853.79	13.043
854.09	25.000
854.39	31.579
854.68	4.167
854.98	-6.452
855.28	3.846
855.57	-15.000
855.87	0.000
856.17	11.111
856.46	0.000
856.76	-33.333
857.05	-11.111
857.35	48.000
857.65	-11.111
857.94	-15.385
858.24	3.448
858.53	-27.778
858.83	3.704
859.13	-9.091
859.42	0.000
859.72	-450.000
860.01	-300.000
860.31	20.000
860.60	0.000
860.90	-133.333
861.20	-60.000
861.49	-400.000
861.79	-73.333
862.08	-30.000
862.38	-13.333
862.67	-280.000
862.97	-216.667
863.26	-91.667
863.56	5.556
863.85	-233.333
864.15	88.889
864.44	-70.000
864.74	42.857
865.03	350.000
865.33	-140.000
865.62	16.667
865.92	-83.333
866.21	-266.667
866.51	62.500
866.80	-63.636
867.10	-200.000
867.39	66.667
867.69	0.000
867.98	-30.769
868.27	-466.667
868.57	-26.667
868.86	22.222
869.16	-30.769
869.45	60.000
869.75	-800.000
870.04	0.000
870.33	-100.000
870.63	0.000
870.92	533.333
871.22	-260.000
871.51	-300.000
871.80	33.333
872.10	533.333
>>>>>End Processed Spectral Data<<<<<
