SpectraSuite Data File
++++++++++++++++++++++++++++++++++++
Date: Fri May 15 20:53:36 PDT 2015
User: schluterlab
Dark Spectrum Present: Yes
Reference Spectrum Present: Yes
Number of Sampled Component Spectra: 1
Spectrometers: USB2E3373
Integration Time (usec): 3000 (USB2E3373)
Spectra Averaged: 3 (USB2E3373)
Boxcar Smoothing: 0 (USB2E3373)
Correct for Electrical Dark: No (USB2E3373)
Strobe/Lamp Enabled: No (USB2E3373)
Correct for Detector Non-linearity: No (USB2E3373)
Correct for Stray Light: No (USB2E3373)
Number of Pixels in Processed Spectrum: 2048
>>>>>Begin Processed Spectral Data<<<<<
178.53	0.000
178.91	0.000
179.29	37.500
179.67	-750.000
180.04	-57.143
180.42	150.000
180.80	-100.000
181.18	200.000
181.56	550.000
181.94	0.000
182.31	400.000
182.69	-20.000
183.07	-200.000
183.45	-140.000
183.83	233.333
184.20	18.182
184.58	111.111
184.96	-50.000
185.34	-0.000
185.72	-300.000
186.09	30.769
186.47	-200.000
186.85	216.667
187.23	122.222
187.61	200.000
187.98	-266.667
188.36	55.556
188.74	-200.000
189.12	17.647
189.49	-27.778
189.87	0.000
190.25	-21.429
190.63	400.000
191.00	-433.333
191.38	63.158
191.76	-100.000
192.14	-100.000
192.51	250.000
192.89	-55.556
193.27	-85.714
193.65	116.667
194.02	145.455
194.40	30.000
194.78	-87.500
195.15	16.667
195.53	-112.500
195.91	175.000
196.29	-25.000
196.66	107.692
197.04	128.571
197.42	-100.000
197.79	-133.333
198.17	-92.308
198.55	500.000
198.92	-333.333
199.30	-800.000
199.68	-20.000
200.05	-200.000
200.43	0.000
200.81	-333.333
201.18	166.667
201.56	400.000
201.94	150.000
202.31	166.667
202.69	-100.000
203.07	150.000
203.44	-300.000
203.82	0.000
204.19	0.000
204.57	-633.333
204.95	112.500
205.32	10.000
205.70	-100.000
206.08	75.000
206.45	188.889
206.83	57.143
207.20	-142.857
207.58	700.000
207.96	0.000
208.33	-80.000
208.71	-150.000
209.08	50.000
209.46	-500.000
209.84	-160.000
210.21	-800.000
210.59	-28.571
210.96	83.333
211.34	-25.000
211.71	-6.667
212.09	-114.286
212.46	-400.000
212.84	0.000
213.22	30.000
213.59	300.000
213.97	69.231
214.34	63.636
214.72	16.667
215.09	-25.000
215.47	-15.385
215.84	36.364
216.22	-500.000
216.59	-12.500
216.97	-150.000
217.34	-150.000
217.72	-200.000
218.09	0.000
218.47	125.000
218.84	-1100.000
219.22	-44.444
219.59	60.000
219.97	233.333
220.34	375.000
220.72	-85.714
221.09	-150.000
221.47	150.000
221.84	150.000
222.22	-200.000
222.59	54.545
222.97	33.333
223.34	-233.333
223.72	-42.857
224.09	19.048
224.46	3.571
224.84	100.000
225.21	0.000
225.59	80.000
225.96	350.000
226.34	325.000
226.71	0.000
227.08	-16.667
227.46	0.000
227.83	-100.000
228.21	22.222
228.58	63.636
228.95	-75.000
229.33	230.000
229.70	12.500
230.08	-112.500
230.45	-71.429
230.82	128.571
231.20	-33.333
231.57	42.857
231.95	85.714
232.32	-100.000
232.69	92.857
233.07	33.333
233.44	120.000
233.81	-20.000
234.19	-22.222
234.56	17.647
234.93	250.000
235.31	100.000
235.68	-240.000
236.05	-23.077
236.43	20.000
236.80	58.824
237.17	34.375
237.55	20.000
237.92	0.000
238.29	33.333
238.67	70.000
239.04	17.647
239.41	14.634
239.79	-3.333
240.16	41.463
240.53	15.789
240.91	6.522
241.28	26.984
241.65	32.143
242.02	28.767
242.40	25.000
242.77	27.119
243.14	19.697
243.51	30.000
243.89	36.782
244.26	25.287
244.63	30.952
245.00	24.742
245.38	31.959
245.75	29.213
246.12	28.448
246.49	29.752
246.87	40.385
247.24	22.689
247.61	23.684
247.98	36.585
248.36	29.375
248.73	35.526
249.10	28.571
249.47	32.911
249.84	31.373
250.22	27.059
250.59	38.562
250.96	33.333
251.33	24.419
251.70	34.118
252.08	29.442
252.45	32.673
252.82	29.648
253.19	35.023
253.56	30.841
253.94	30.631
254.31	33.043
254.68	38.158
255.05	31.102
255.42	33.624
255.79	31.274
256.16	30.739
256.54	32.836
256.91	30.038
257.28	29.740
257.65	33.333
258.02	33.688
258.39	32.997
258.76	34.066
259.14	32.558
259.51	32.686
259.88	32.646
260.25	33.333
260.62	34.375
260.99	31.525
261.36	32.534
261.73	29.114
262.10	36.474
262.47	30.061
262.85	32.602
263.22	32.615
263.59	29.283
263.96	32.298
264.33	30.909
264.70	31.250
265.07	33.631
265.44	34.844
265.81	31.356
266.18	32.514
266.55	34.190
266.92	33.161
267.29	33.943
267.66	29.412
268.03	32.199
268.40	32.376
268.77	36.096
269.14	33.333
269.51	33.676
269.88	31.920
270.25	33.163
270.62	32.683
270.99	34.271
271.36	31.540
271.73	32.160
272.10	32.847
272.47	33.570
272.84	32.178
273.21	32.483
273.58	32.530
273.95	33.638
274.32	29.561
274.69	32.579
275.06	30.804
275.43	30.612
275.80	32.009
276.17	33.333
276.54	31.692
276.91	28.947
277.28	30.568
277.65	31.405
278.02	31.702
278.39	30.416
278.76	31.237
279.13	28.008
279.50	30.042
279.87	32.181
280.23	29.677
280.60	33.138
280.97	33.535
281.34	31.923
281.71	34.086
282.08	31.697
282.45	30.528
282.82	30.502
283.19	31.335
283.56	32.563
283.92	32.068
284.29	32.115
284.66	31.008
285.03	33.792
285.40	29.679
285.77	29.350
286.14	29.603
286.51	31.365
286.87	30.347
287.24	30.755
287.61	27.513
287.98	31.404
288.35	29.983
288.72	32.925
289.08	28.993
289.45	31.283
289.82	30.594
290.19	31.229
290.56	28.130
290.93	30.135
291.29	28.968
291.66	28.504
292.03	29.665
292.40	29.677
292.77	28.868
293.13	25.649
293.50	28.225
293.87	26.718
294.24	29.057
294.60	28.912
294.97	28.125
295.34	27.454
295.71	28.167
296.08	26.756
296.44	24.467
296.81	28.611
297.18	28.406
297.55	27.642
297.91	28.630
298.28	28.628
298.65	26.323
299.02	27.089
299.38	26.539
299.75	26.483
300.12	27.225
300.48	26.746
300.85	25.729
301.22	26.623
301.59	26.447
301.95	26.709
302.32	29.572
302.69	27.736
303.05	27.475
303.42	28.643
303.79	28.388
304.15	28.554
304.52	25.446
304.89	26.784
305.25	29.298
305.62	26.721
305.99	26.199
306.35	27.399
306.72	26.097
307.09	28.278
307.45	28.358
307.82	28.009
308.19	28.571
308.55	29.226
308.92	30.174
309.29	27.598
309.65	28.956
310.02	29.373
310.38	30.955
310.75	29.508
311.12	29.709
311.48	30.011
311.85	27.225
312.22	28.165
312.58	29.936
312.95	30.203
313.31	29.296
313.68	30.576
314.05	30.714
314.41	31.134
314.78	32.165
315.14	33.299
315.51	31.573
315.87	30.738
316.24	32.053
316.61	31.299
316.97	31.845
317.34	32.812
317.70	33.270
318.07	31.058
318.43	32.157
318.80	32.102
319.16	34.180
319.53	34.378
319.89	34.350
320.26	34.717
320.62	35.406
320.99	33.820
321.35	35.766
321.72	35.929
322.08	36.657
322.45	37.462
322.81	36.837
323.18	36.703
323.54	37.548
323.91	37.683
324.27	38.867
324.64	39.419
325.00	40.146
325.37	41.322
325.73	40.617
326.10	40.418
326.46	42.422
326.83	43.307
327.19	43.679
327.56	43.701
327.92	45.951
328.29	44.554
328.65	46.226
329.01	44.761
329.38	47.373
329.74	47.686
330.11	47.451
330.47	46.475
330.84	46.731
331.20	49.144
331.56	46.574
331.93	47.945
332.29	47.663
332.66	46.425
333.02	48.141
333.38	48.763
333.75	50.000
334.11	47.628
334.48	48.957
334.84	49.359
335.20	48.216
335.57	47.416
335.93	49.774
336.29	48.435
336.66	49.410
337.02	49.257
337.38	48.611
337.75	49.000
338.11	48.873
338.47	51.186
338.84	49.076
339.20	49.452
339.56	49.174
339.93	48.612
340.29	50.000
340.65	50.000
341.02	51.064
341.38	49.115
341.74	49.117
342.11	48.094
342.47	50.801
342.83	50.087
343.20	49.652
343.56	49.739
343.92	50.133
344.28	49.445
344.65	50.259
345.01	48.747
345.37	50.210
345.73	49.707
346.10	49.525
346.46	48.360
346.82	50.245
347.19	50.208
347.55	49.791
347.91	52.023
348.27	49.232
348.63	51.618
349.00	49.221
349.36	50.707
349.72	50.166
350.08	50.164
350.45	49.960
350.81	50.415
351.17	50.326
351.53	50.367
351.89	50.537
352.26	49.120
352.62	50.000
352.98	48.835
353.34	49.517
353.70	51.780
354.07	51.694
354.43	49.319
354.79	48.968
355.15	50.079
355.51	48.972
355.87	49.919
356.24	49.266
356.60	49.394
356.96	51.429
357.32	49.760
357.68	48.475
358.04	49.838
358.40	50.563
358.77	51.116
359.13	51.641
359.49	49.923
359.85	50.546
360.21	51.356
360.57	49.656
360.93	50.681
361.29	48.792
361.66	52.116
362.02	50.303
362.38	50.952
362.74	50.871
363.10	51.768
363.46	50.852
363.82	52.216
364.18	50.406
364.54	50.588
364.90	50.824
365.26	50.437
365.62	51.825
365.98	52.273
366.35	51.202
366.71	52.919
367.07	50.508
367.43	50.971
367.79	50.459
368.15	51.256
368.51	51.493
368.87	50.754
369.23	50.614
369.59	50.948
369.95	50.367
370.31	50.434
370.67	51.940
371.03	50.560
371.39	51.787
371.75	52.234
372.11	51.141
372.47	51.701
372.83	51.455
373.19	50.428
373.55	50.614
373.91	50.468
374.27	50.461
374.63	51.543
374.99	51.135
375.35	50.905
375.71	51.748
376.07	51.826
376.42	50.884
376.78	50.403
377.14	50.102
377.50	51.195
377.86	51.807
378.22	50.351
378.58	51.667
378.94	51.103
379.30	49.844
379.66	52.915
380.02	51.012
380.38	51.369
380.74	50.748
381.09	52.822
381.45	51.254
381.81	51.388
382.17	50.825
382.53	50.094
382.89	52.417
383.25	52.458
383.61	51.524
383.97	51.937
384.32	52.470
384.68	51.269
385.04	50.245
385.40	50.093
385.76	52.075
386.12	52.264
386.48	52.171
386.83	51.997
387.19	50.916
387.55	51.882
387.91	52.689
388.27	50.611
388.62	51.227
388.98	49.847
389.34	50.156
389.70	52.517
390.06	50.346
390.42	51.619
390.77	51.472
391.13	51.009
391.49	51.035
391.85	51.592
392.20	50.910
392.56	51.303
392.92	51.380
393.28	50.649
393.64	50.390
393.99	51.536
394.35	51.297
394.71	52.299
395.07	50.346
395.42	50.759
395.78	52.052
396.14	51.009
396.50	49.905
396.85	51.771
397.21	50.439
397.57	49.655
397.92	50.929
398.28	51.034
398.64	48.795
399.00	50.395
399.35	49.831
399.71	49.569
400.07	51.572
400.42	50.551
400.78	51.378
401.14	49.304
401.49	50.030
401.85	49.787
402.21	49.819
402.57	50.250
402.92	50.188
403.28	50.000
403.63	50.504
403.99	49.809
404.35	49.844
404.70	49.345
405.06	48.649
405.42	49.658
405.77	48.170
406.13	49.942
406.49	49.556
406.84	50.244
407.20	49.910
407.55	49.066
407.91	49.933
408.27	49.203
408.62	49.231
408.98	48.860
409.34	49.504
409.69	49.031
410.05	47.906
410.40	50.062
410.76	49.276
411.11	48.000
411.47	48.784
411.83	49.090
412.18	50.257
412.54	48.502
412.89	49.138
413.25	49.338
413.60	48.820
413.96	48.221
414.31	48.841
414.67	48.172
415.03	48.336
415.38	48.629
415.74	49.316
416.09	49.445
416.45	48.616
416.80	48.645
417.16	49.931
417.51	49.700
417.87	47.523
418.22	50.972
418.58	48.763
418.93	49.655
419.29	47.311
419.64	47.310
420.00	49.370
420.35	48.358
420.71	48.177
421.06	48.987
421.42	48.918
421.77	48.555
422.12	47.560
422.48	49.107
422.83	49.188
423.19	48.758
423.54	48.325
423.90	48.292
424.25	49.369
424.61	49.204
424.96	46.806
425.31	48.758
425.67	48.357
426.02	49.176
426.38	50.157
426.73	48.668
427.09	50.000
427.44	49.294
427.79	48.085
428.15	48.483
428.50	47.850
428.85	48.464
429.21	48.274
429.56	49.272
429.92	48.074
430.27	47.870
430.62	47.569
430.98	48.620
431.33	47.844
431.68	47.200
432.04	48.295
432.39	47.633
432.74	47.505
433.10	49.023
433.45	47.670
433.80	48.172
434.16	48.255
434.51	48.118
434.86	49.710
435.22	48.065
435.57	48.721
435.92	48.802
436.28	48.181
436.63	47.290
436.98	48.030
437.34	48.336
437.69	49.195
438.04	48.661
438.39	47.526
438.75	48.755
439.10	47.765
439.45	47.961
439.81	48.257
440.16	48.931
440.51	48.537
440.86	49.245
441.22	47.794
441.57	49.172
441.92	49.056
442.27	49.058
442.63	49.304
442.98	48.823
443.33	48.414
443.68	48.382
444.03	48.684
444.39	47.664
444.74	49.721
445.09	48.163
445.44	48.376
445.79	48.994
446.15	47.467
446.50	47.865
446.85	48.990
447.20	47.550
447.55	49.498
447.91	49.295
448.26	48.833
448.61	48.590
448.96	49.340
449.31	48.208
449.66	48.664
450.02	47.804
450.37	49.970
450.72	48.454
451.07	48.544
451.42	48.127
451.77	48.342
452.12	47.727
452.47	48.680
452.83	48.292
453.18	49.209
453.53	48.420
453.88	48.695
454.23	48.617
454.58	49.874
454.93	48.454
455.28	46.921
455.63	48.729
455.98	48.286
456.34	49.106
456.69	50.318
457.04	47.952
457.39	48.056
457.74	48.307
458.09	48.323
458.44	49.210
458.79	47.955
459.14	48.513
459.49	48.179
459.84	48.167
460.19	48.301
460.54	48.472
460.89	48.920
461.24	47.950
461.59	48.397
461.94	47.296
462.29	48.613
462.64	49.635
462.99	47.867
463.34	48.053
463.69	49.099
464.04	48.184
464.39	47.908
464.74	46.012
465.09	49.033
465.44	47.259
465.79	46.599
466.14	47.092
466.49	46.636
466.84	47.888
467.19	49.374
467.54	48.276
467.89	49.084
468.24	47.567
468.59	48.254
468.94	47.873
469.29	48.525
469.64	48.325
469.99	48.844
470.34	48.328
470.68	48.620
471.03	49.045
471.38	48.217
471.73	49.020
472.08	47.490
472.43	48.792
472.78	47.430
473.13	49.524
473.48	48.990
473.83	47.385
474.17	48.122
474.52	48.692
474.87	48.667
475.22	48.139
475.57	48.334
475.92	48.985
476.27	48.196
476.61	49.016
476.96	48.187
477.31	49.216
477.66	48.876
478.01	48.231
478.36	47.658
478.70	48.668
479.05	48.516
479.40	48.278
479.75	47.393
480.10	48.285
480.45	47.950
480.79	49.094
481.14	48.924
481.49	47.734
481.84	48.986
482.19	48.597
482.53	48.585
482.88	47.780
483.23	48.177
483.58	48.443
483.92	48.548
484.27	48.314
484.62	47.736
484.97	47.015
485.31	46.387
485.66	45.056
486.01	45.767
486.36	45.535
486.70	46.649
487.05	47.465
487.40	47.079
487.75	47.042
488.09	47.775
488.44	48.865
488.79	48.338
489.13	49.279
489.48	48.354
489.83	48.027
490.17	47.775
490.52	48.360
490.87	47.385
491.22	47.947
491.56	47.438
491.91	46.511
492.26	48.080
492.60	47.505
492.95	48.106
493.30	47.484
493.64	48.625
493.99	48.019
494.34	48.544
494.68	48.000
495.03	48.029
495.37	48.479
495.72	49.520
496.07	48.829
496.41	46.981
496.76	47.674
497.11	46.716
497.45	47.924
497.80	48.285
498.14	48.137
498.49	48.045
498.84	47.754
499.18	49.096
499.53	48.065
499.87	47.228
500.22	48.220
500.56	49.319
500.91	47.791
501.26	47.603
501.60	47.172
501.95	48.132
502.29	48.717
502.64	48.118
502.98	47.854
503.33	48.127
503.67	48.193
504.02	48.583
504.36	48.639
504.71	47.626
505.06	48.213
505.40	48.832
505.75	49.124
506.09	48.251
506.44	50.000
506.78	48.929
507.13	48.914
507.47	47.885
507.82	48.237
508.16	48.283
508.51	48.793
508.85	48.823
509.19	48.749
509.54	49.544
509.88	48.867
510.23	48.198
510.57	49.385
510.92	48.561
511.26	49.045
511.61	48.625
511.95	49.918
512.30	49.667
512.64	49.137
512.98	49.860
513.33	50.588
513.67	49.858
514.02	51.773
514.36	51.371
514.70	51.224
515.05	52.115
515.39	50.531
515.74	51.617
516.08	52.361
516.42	51.885
516.77	51.492
517.11	52.522
517.46	51.287
517.80	52.324
518.14	52.786
518.49	50.841
518.83	51.701
519.17	51.789
519.52	52.516
519.86	52.581
520.20	52.916
520.55	51.282
520.89	52.886
521.23	52.185
521.58	54.196
521.92	53.333
522.26	52.049
522.61	54.351
522.95	53.576
523.29	53.177
523.64	53.812
523.98	52.430
524.32	52.835
524.66	54.353
525.01	54.740
525.35	53.402
525.69	52.660
526.04	54.167
526.38	53.956
526.72	53.041
527.06	52.918
527.41	54.683
527.75	53.351
528.09	53.555
528.43	55.773
528.78	53.927
529.12	53.290
529.46	53.151
529.80	53.768
530.15	54.455
530.49	54.276
530.83	54.720
531.17	54.197
531.51	55.609
531.86	53.841
532.20	53.166
532.54	53.506
532.88	53.799
533.22	54.570
533.57	53.801
533.91	53.264
534.25	55.078
534.59	53.368
534.93	53.115
535.27	53.046
535.62	53.208
535.96	54.273
536.30	53.628
536.64	53.756
536.98	52.822
537.32	55.192
537.66	55.680
538.01	54.685
538.35	54.230
538.69	52.663
539.03	53.315
539.37	53.769
539.71	53.851
540.05	53.836
540.39	53.324
540.73	54.324
541.07	54.627
541.42	53.293
541.76	54.783
542.10	53.751
542.44	54.204
542.78	51.411
543.12	53.777
543.46	53.338
543.80	54.615
544.14	51.268
544.48	52.765
544.82	52.973
545.16	55.123
545.50	54.139
545.84	55.028
546.18	54.752
546.52	55.155
546.86	54.277
547.20	53.720
547.54	53.216
547.88	53.601
548.22	52.334
548.56	53.298
548.90	53.167
549.24	53.168
549.58	53.879
549.92	53.538
550.26	54.066
550.60	53.383
550.94	53.846
551.28	54.096
551.62	55.462
551.96	54.812
552.30	54.532
552.64	52.539
552.98	53.305
553.32	53.566
553.66	52.685
554.00	53.723
554.34	55.022
554.68	52.876
555.02	55.060
555.36	52.880
555.69	52.308
556.03	52.748
556.37	52.811
556.71	53.646
557.05	53.468
557.39	53.160
557.73	53.448
558.07	53.544
558.41	53.752
558.75	53.936
559.08	52.403
559.42	54.365
559.76	54.844
560.10	52.676
560.44	52.941
560.78	53.776
561.12	53.385
561.45	53.127
561.79	53.922
562.13	53.726
562.47	53.453
562.81	53.314
563.15	53.315
563.48	53.960
563.82	53.603
564.16	53.552
564.50	52.162
564.84	52.276
565.17	52.180
565.51	54.986
565.85	54.321
566.19	52.454
566.52	52.949
566.86	53.470
567.20	52.179
567.54	52.433
567.88	53.779
568.21	51.584
568.55	50.924
568.89	52.464
569.23	51.950
569.56	49.299
569.90	49.777
570.24	48.344
570.57	49.673
570.91	49.285
571.25	47.912
571.59	48.614
571.92	48.385
572.26	48.339
572.60	48.527
572.93	48.666
573.27	47.994
573.61	47.613
573.95	48.689
574.28	47.564
574.62	47.902
574.96	47.445
575.29	47.299
575.63	46.929
575.97	47.330
576.30	48.355
576.64	47.232
576.98	47.902
577.31	47.211
577.65	47.798
577.98	47.232
578.32	46.903
578.66	46.637
578.99	47.473
579.33	46.890
579.67	47.060
580.00	46.937
580.34	47.189
580.67	47.206
581.01	47.887
581.35	46.813
581.68	46.113
582.02	45.972
582.35	46.370
582.69	46.377
583.02	47.298
583.36	47.410
583.70	48.261
584.03	48.874
584.37	49.181
584.70	47.555
585.04	46.788
585.37	47.052
585.71	47.001
586.04	47.352
586.38	47.159
586.72	48.293
587.05	47.516
587.39	47.498
587.72	48.059
588.06	47.634
588.39	48.248
588.73	47.985
589.06	48.891
589.40	47.667
589.73	49.252
590.07	48.867
590.40	49.226
590.73	49.135
591.07	49.915
591.40	49.065
591.74	49.683
592.07	50.186
592.41	49.558
592.74	48.387
593.08	46.979
593.41	48.105
593.75	47.105
594.08	46.687
594.41	48.144
594.75	48.130
595.08	48.278
595.42	47.884
595.75	48.442
596.09	47.889
596.42	48.905
596.75	48.712
597.09	48.292
597.42	48.193
597.75	48.969
598.09	47.759
598.42	48.601
598.76	47.962
599.09	46.595
599.42	46.343
599.76	47.065
600.09	47.549
600.42	47.271
600.76	46.731
601.09	46.603
601.42	46.729
601.76	47.360
602.09	48.391
602.42	49.158
602.76	48.684
603.09	48.713
603.42	48.579
603.76	47.097
604.09	46.740
604.42	47.970
604.76	48.198
605.09	48.446
605.42	48.758
605.75	48.117
606.09	47.091
606.42	46.872
606.75	47.013
607.09	47.560
607.42	47.630
607.75	47.513
608.08	46.855
608.42	47.419
608.75	49.060
609.08	48.979
609.41	48.731
609.75	47.984
610.08	49.426
610.41	46.715
610.74	47.392
611.07	49.199
611.41	48.677
611.74	50.160
612.07	48.073
612.40	50.109
612.73	49.718
613.07	48.425
613.40	49.179
613.73	48.461
614.06	48.804
614.39	48.505
614.72	47.563
615.06	48.101
615.39	48.090
615.72	47.363
616.05	48.827
616.38	47.977
616.71	49.480
617.05	48.487
617.38	49.026
617.71	49.119
618.04	50.095
618.37	50.757
618.70	50.495
619.03	51.319
619.36	50.362
619.69	51.251
620.03	51.059
620.36	50.715
620.69	48.680
621.02	50.382
621.35	50.954
621.68	50.850
622.01	53.250
622.34	50.200
622.67	50.552
623.00	49.081
623.33	50.305
623.66	47.868
623.99	50.378
624.32	51.407
624.65	49.624
624.99	51.543
625.32	48.901
625.65	51.060
625.98	50.524
626.31	50.873
626.64	51.993
626.97	51.047
627.30	51.751
627.63	50.693
627.96	51.752
628.29	50.509
628.62	53.294
628.95	52.405
629.28	53.327
629.61	52.044
629.94	52.199
630.26	51.186
630.59	54.006
630.92	52.821
631.25	51.590
631.58	52.753
631.91	52.412
632.24	53.440
632.57	53.977
632.90	52.550
633.23	53.529
633.56	54.660
633.89	53.391
634.22	53.580
634.55	54.765
634.88	55.939
635.20	53.205
635.53	56.133
635.86	53.836
636.19	56.792
636.52	52.679
636.85	53.226
637.18	53.082
637.51	53.836
637.83	53.876
638.16	55.389
638.49	53.406
638.82	54.605
639.15	54.681
639.48	54.058
639.81	53.696
640.13	54.257
640.46	55.102
640.79	54.345
641.12	54.505
641.45	54.655
641.77	53.778
642.10	56.398
642.43	53.859
642.76	57.756
643.09	54.604
643.41	55.502
643.74	53.542
644.07	55.993
644.40	56.926
644.73	58.144
645.05	55.369
645.38	58.201
645.71	55.142
646.04	56.912
646.36	56.915
646.69	57.194
647.02	58.034
647.35	57.090
647.67	58.318
648.00	57.090
648.33	55.973
648.66	56.102
648.98	52.596
649.31	55.702
649.64	52.433
649.96	54.133
650.29	55.707
650.62	54.188
650.94	55.185
651.27	55.493
651.60	58.198
651.92	55.769
652.25	53.464
652.58	53.000
652.90	54.889
653.23	54.454
653.56	53.299
653.88	53.093
654.21	54.816
654.54	53.480
654.86	56.197
655.19	51.754
655.52	50.310
655.84	43.572
656.17	46.496
656.49	62.884
656.82	66.235
657.15	52.143
657.47	39.571
657.80	29.712
658.13	29.383
658.45	46.529
658.78	47.422
659.10	47.334
659.43	49.548
659.75	50.173
660.08	51.310
660.41	52.809
660.73	53.039
661.06	52.340
661.38	56.360
661.71	55.647
662.03	59.013
662.36	58.681
662.68	58.186
663.01	59.607
663.33	57.309
663.66	56.744
663.98	55.116
664.31	57.356
664.63	55.069
664.96	53.261
665.28	54.746
665.61	56.926
665.93	57.609
666.26	55.315
666.58	55.481
666.91	57.412
667.23	56.604
667.56	57.346
667.88	57.314
668.21	58.473
668.53	60.047
668.86	54.717
669.18	55.660
669.50	53.511
669.83	57.209
670.15	56.876
670.48	53.349
670.80	59.217
671.13	53.915
671.45	54.338
671.77	53.219
672.10	53.267
672.42	50.936
672.75	54.352
673.07	53.131
673.39	55.413
673.72	51.677
674.04	53.958
674.37	54.237
674.69	56.531
675.01	55.778
675.34	52.252
675.66	56.713
675.98	55.876
676.31	56.422
676.63	54.632
676.95	52.273
677.28	55.765
677.60	55.663
677.92	55.046
678.25	55.361
678.57	54.329
678.89	52.101
679.22	56.600
679.54	52.410
679.86	50.298
680.18	53.204
680.51	52.652
680.83	51.491
681.15	55.200
681.48	54.713
681.80	53.926
682.12	51.411
682.44	55.230
682.77	53.642
683.09	52.632
683.41	53.864
683.73	54.147
684.06	53.097
684.38	53.333
684.70	52.070
685.02	53.112
685.34	49.012
685.67	51.220
685.99	50.090
686.31	51.858
686.63	49.351
686.96	53.612
687.28	51.717
687.60	49.240
687.92	53.939
688.24	52.218
688.56	54.585
688.89	51.786
689.21	53.333
689.53	54.060
689.85	50.698
690.17	54.241
690.49	54.137
690.82	51.699
691.14	54.762
691.46	53.972
691.78	52.477
692.10	53.333
692.42	51.732
692.74	51.282
693.06	50.225
693.39	48.416
693.71	51.357
694.03	53.580
694.35	51.402
694.67	53.030
694.99	53.786
695.31	56.397
695.63	55.250
695.95	49.242
696.27	51.813
696.59	56.389
696.91	53.782
697.23	47.301
697.56	53.218
697.88	48.817
698.20	53.531
698.52	49.647
698.84	54.067
699.16	50.000
699.48	51.880
699.80	50.620
700.12	53.908
700.44	58.543
700.76	50.872
701.08	53.333
701.40	54.518
701.72	59.259
702.04	57.096
702.36	58.194
702.68	52.553
703.00	51.515
703.32	50.733
703.64	48.588
703.96	51.304
704.28	53.067
704.60	53.016
704.91	52.366
705.23	54.153
705.55	56.890
705.87	59.928
706.19	54.444
706.51	52.234
706.83	52.733
707.15	48.287
707.47	50.700
707.79	50.521
708.11	51.750
708.43	51.000
708.74	51.421
709.06	58.310
709.38	51.988
709.70	54.734
710.02	52.548
710.34	54.799
710.66	48.397
710.98	52.318
711.29	55.082
711.61	49.153
711.93	52.769
712.25	57.045
712.57	56.044
712.89	53.358
713.20	50.865
713.52	51.568
713.84	55.290
714.16	48.454
714.48	52.581
714.80	54.167
715.11	51.368
715.43	44.828
715.75	49.667
716.07	49.169
716.39	52.685
716.70	50.554
717.02	50.763
717.34	53.846
717.66	50.442
717.97	55.652
718.29	57.322
718.61	61.811
718.93	51.163
719.24	53.612
719.56	51.406
719.88	48.797
720.20	52.652
720.51	48.276
720.83	50.579
721.15	55.042
721.46	52.823
721.78	47.431
722.10	49.442
722.42	47.303
722.73	54.286
723.05	53.469
723.37	55.508
723.68	54.955
724.00	55.556
724.32	56.444
724.63	49.545
724.95	50.655
725.27	53.917
725.58	55.508
725.90	46.429
726.22	52.510
726.53	48.814
726.85	49.064
727.16	54.340
727.48	49.393
727.80	51.822
728.11	50.000
728.43	50.980
728.74	52.016
729.06	48.400
729.38	53.759
729.69	50.199
730.01	48.077
730.32	54.104
730.64	50.530
730.96	52.453
731.27	49.000
731.59	49.153
731.90	49.045
732.22	49.842
732.53	50.498
732.85	52.482
733.16	51.515
733.48	50.360
733.80	49.638
734.11	45.085
734.43	51.546
734.74	48.182
735.06	50.814
735.37	44.713
735.69	46.801
736.00	46.341
736.32	46.644
736.63	49.296
736.95	48.805
737.26	46.975
737.58	44.966
737.89	49.084
738.21	50.752
738.52	49.794
738.83	53.712
739.15	53.275
739.46	48.819
739.78	44.689
740.09	47.386
740.41	46.739
740.72	46.850
741.04	53.846
741.35	45.532
741.66	46.445
741.98	51.531
742.29	52.475
742.61	54.450
742.92	46.445
743.23	46.759
743.55	53.394
743.86	49.282
744.18	48.804
744.49	55.851
744.80	52.174
745.12	56.150
745.43	46.829
745.74	49.479
746.06	52.195
746.37	48.691
746.68	56.398
747.00	54.787
747.31	54.229
747.62	52.913
747.94	52.632
748.25	49.010
748.56	49.727
748.88	49.215
749.19	62.766
749.50	55.172
749.82	53.302
750.13	47.706
750.44	52.256
750.75	48.507
751.07	55.109
751.38	46.360
751.69	45.490
752.01	51.938
752.32	49.004
752.63	48.221
752.94	45.259
753.26	54.393
753.57	48.869
753.88	51.327
754.19	47.500
754.51	52.479
754.82	46.964
755.13	51.250
755.44	52.016
755.75	53.125
756.07	51.751
756.38	42.642
756.69	46.743
757.00	44.333
757.31	46.405
757.63	46.341
757.94	46.944
758.25	43.562
758.56	44.681
758.87	41.926
759.18	44.548
759.50	48.727
759.81	45.819
760.12	45.161
760.43	43.636
760.74	49.383
761.05	45.231
761.36	43.750
761.67	50.606
761.99	48.980
762.30	42.182
762.61	49.802
762.92	47.511
763.23	43.243
763.54	50.935
763.85	47.034
764.16	41.079
764.47	47.581
764.78	46.886
765.10	45.791
765.41	46.057
765.72	45.397
766.03	43.985
766.34	44.526
766.65	47.809
766.96	52.525
767.27	53.191
767.58	48.276
767.89	50.355
768.20	48.864
768.51	47.253
768.82	46.305
769.13	47.465
769.44	45.923
769.75	44.292
770.06	44.828
770.37	48.077
770.68	49.239
770.99	44.796
771.30	49.510
771.61	41.176
771.92	46.121
772.23	46.798
772.54	48.387
772.85	47.531
773.16	45.506
773.47	45.752
773.78	48.366
774.09	49.102
774.39	48.667
774.70	53.503
775.01	48.966
775.32	40.714
775.63	54.545
775.94	46.565
776.25	55.118
776.56	55.833
776.87	53.846
777.18	52.991
777.48	49.138
777.79	40.870
778.10	40.952
778.41	47.748
778.72	53.968
779.03	50.376
779.34	49.645
779.65	52.055
779.95	39.726
780.26	48.966
780.57	42.276
780.88	50.394
781.19	50.000
781.50	53.488
781.80	38.462
782.11	43.396
782.42	50.769
782.73	58.993
783.04	42.963
783.34	46.528
783.65	49.573
783.96	38.525
784.27	48.966
784.57	39.837
784.88	46.875
785.19	56.000
785.50	57.000
785.81	44.828
786.11	55.172
786.42	46.602
786.73	50.909
787.04	57.143
787.34	44.643
787.65	43.810
787.96	46.903
788.26	54.545
788.57	42.735
788.88	46.094
789.19	41.270
789.49	43.478
789.80	59.184
790.11	37.374
790.41	37.273
790.72	46.739
791.03	54.545
791.33	42.500
791.64	42.500
791.95	51.163
792.25	54.255
792.56	32.584
792.87	45.205
793.17	37.681
793.48	52.000
793.79	28.750
794.09	60.000
794.40	34.906
794.70	42.718
795.01	45.528
795.32	39.316
795.62	36.190
795.93	48.039
796.23	50.000
796.54	54.167
796.85	58.824
797.15	53.521
797.46	48.611
797.76	65.152
798.07	41.860
798.37	32.895
798.68	40.909
798.99	41.975
799.29	45.714
799.60	39.130
799.90	41.333
800.21	47.541
800.51	46.154
800.82	35.593
801.12	57.971
801.43	47.541
801.73	55.556
802.04	38.000
802.34	35.821
802.65	57.692
802.95	37.500
803.26	46.154
803.56	47.059
803.87	32.609
804.17	40.000
804.48	46.032
804.78	55.556
805.09	45.652
805.39	24.444
805.70	57.407
806.00	26.316
806.30	36.620
806.61	41.429
806.91	37.500
807.22	63.158
807.52	58.667
807.83	61.818
808.13	48.611
808.43	45.588
808.74	40.299
809.04	50.847
809.35	30.769
809.65	37.500
809.95	16.216
810.26	52.273
810.56	28.767
810.86	33.333
811.17	52.000
811.47	57.143
811.77	52.632
812.08	36.364
812.38	43.396
812.69	60.000
812.99	48.485
813.29	42.105
813.59	28.571
813.90	47.727
814.20	25.641
814.50	38.462
814.81	50.943
815.11	21.277
815.41	47.458
815.72	42.857
816.02	39.216
816.32	39.583
816.62	60.976
816.93	32.432
817.23	54.286
817.53	52.083
817.84	19.565
818.14	36.538
818.44	44.737
818.74	60.870
819.04	15.000
819.35	45.946
819.65	67.647
819.95	41.667
820.25	11.905
820.56	57.500
820.86	24.138
821.16	67.500
821.46	38.298
821.76	52.500
822.07	48.837
822.37	8.108
822.67	12.500
822.97	66.667
823.27	39.286
823.57	16.000
823.88	18.519
824.18	32.143
824.48	32.353
824.78	61.290
825.08	34.783
825.38	24.242
825.69	50.000
825.99	44.737
826.29	47.222
826.59	26.667
826.89	-28.571
827.19	32.609
827.49	27.500
827.79	51.429
828.09	39.286
828.39	57.576
828.70	62.162
829.00	53.571
829.30	76.190
829.60	73.333
829.90	59.375
830.20	13.158
830.50	14.815
830.80	34.783
831.10	-22.727
831.40	66.667
831.70	64.516
832.00	14.286
832.30	-14.286
832.60	100.000
832.90	37.931
833.20	-10.000
833.50	30.303
833.80	7.407
834.10	11.538
834.40	43.750
834.70	55.556
835.00	47.368
835.30	115.385
835.60	66.667
835.90	41.935
836.20	63.636
836.50	53.571
836.80	30.769
837.10	3.571
837.40	-66.667
837.70	77.273
838.00	18.182
838.30	30.435
838.60	-7.692
838.90	81.818
839.19	7.143
839.49	36.667
839.79	-15.385
840.09	-83.333
840.39	50.000
840.69	17.857
840.99	-3.846
841.29	-10.526
841.59	-30.000
841.88	36.364
842.18	30.000
842.48	18.750
842.78	13.333
843.08	37.037
843.38	-60.000
843.68	8.696
843.97	53.333
844.27	6.667
844.57	30.000
844.87	27.778
845.17	-19.048
845.47	46.667
845.76	0.000
846.06	82.353
846.36	-70.000
846.66	7.143
846.96	40.000
847.25	12.500
847.55	57.143
847.85	-25.000
848.15	-4.545
848.44	-566.667
848.74	45.000
849.04	62.963
849.34	54.545
849.63	-200.000
849.93	-120.000
850.23	16.667
850.53	110.000
850.82	69.231
851.12	0.000
851.42	26.667
851.71	26.923
852.01	7.143
852.31	250.000
852.61	0.000
852.90	15.000
853.20	26.316
853.50	-58.333
853.79	65.217
854.09	79.167
854.39	31.579
854.68	66.667
854.98	45.161
855.28	50.000
855.57	70.000
855.87	50.000
856.17	22.222
856.46	92.857
856.76	60.000
857.05	144.444
857.35	52.000
857.65	38.889
857.94	23.077
858.24	31.034
858.53	55.556
858.83	44.444
859.13	0.000
859.42	-17.391
859.72	-200.000
860.01	100.000
860.31	4.000
860.60	19.048
860.90	-166.667
861.20	-26.667
861.49	-100.000
861.79	-6.667
862.08	15.000
862.38	126.667
862.67	-100.000
862.97	-100.000
863.26	-75.000
863.56	55.556
863.85	-366.667
864.15	72.222
864.44	150.000
864.74	42.857
865.03	-0.000
865.33	-60.000
865.62	83.333
865.92	25.000
866.21	-116.667
866.51	-18.750
866.80	-81.818
867.10	100.000
867.39	116.667
867.69	0.000
867.98	30.769
868.27	-66.667
868.57	-6.667
868.86	11.111
869.16	-30.769
869.45	-26.667
869.75	-600.000
870.04	0.000
870.33	-57.143
870.63	9.524
870.92	-33.333
871.22	-40.000
871.51	-600.000
871.80	55.556
872.10	233.333
>>>>>End Processed Spectral Data<<<<<
