SpectraSuite Data File
++++++++++++++++++++++++++++++++++++
Date: Fri May 15 20:52:51 PDT 2015
User: schluterlab
Dark Spectrum Present: Yes
Reference Spectrum Present: Yes
Number of Sampled Component Spectra: 1
Spectrometers: USB2E3373
Integration Time (usec): 3000 (USB2E3373)
Spectra Averaged: 3 (USB2E3373)
Boxcar Smoothing: 0 (USB2E3373)
Correct for Electrical Dark: No (USB2E3373)
Strobe/Lamp Enabled: No (USB2E3373)
Correct for Detector Non-linearity: No (USB2E3373)
Correct for Stray Light: No (USB2E3373)
Number of Pixels in Processed Spectrum: 2048
>>>>>Begin Processed Spectral Data<<<<<
178.53	0.000
178.91	0.000
179.29	25.000
179.67	-450.000
180.04	57.143
180.42	0.000
180.80	400.000
181.18	-133.333
181.56	500.000
181.94	200.000
182.31	-200.000
182.69	-160.000
183.07	33.333
183.45	-60.000
183.83	133.333
184.20	-45.455
184.58	188.889
184.96	-0.000
185.34	300.000
185.72	-500.000
186.09	84.615
186.47	-700.000
186.85	166.667
187.23	122.222
187.61	100.000
187.98	-466.667
188.36	22.222
188.74	-100.000
189.12	17.647
189.49	55.556
189.87	0.000
190.25	14.286
190.63	-300.000
191.00	-733.333
191.38	-36.842
191.76	350.000
192.14	225.000
192.51	300.000
192.89	-33.333
193.27	-42.857
193.65	400.000
194.02	100.000
194.40	60.000
194.78	-100.000
195.15	-125.000
195.53	-25.000
195.91	250.000
196.29	-150.000
196.66	30.769
197.04	42.857
197.42	-44.444
197.79	-400.000
198.17	-84.615
198.55	1000.000
198.92	-633.333
199.30	300.000
199.68	0.000
200.05	-566.667
200.43	0.000
200.81	-533.333
201.18	-300.000
201.56	1100.000
201.94	-50.000
202.31	-66.667
202.69	-60.000
203.07	275.000
203.44	-100.000
203.82	0.000
204.19	92.857
204.57	-366.667
204.95	175.000
205.32	30.000
205.70	-71.429
206.08	-75.000
206.45	133.333
206.83	57.143
207.20	-157.143
207.58	-500.000
207.96	-466.667
208.33	-160.000
208.71	-125.000
209.08	-116.667
209.46	-200.000
209.84	20.000
210.21	-800.000
210.59	-57.143
210.96	-133.333
211.34	-250.000
211.71	-6.667
212.09	-114.286
212.46	-1500.000
212.84	0.000
213.22	80.000
213.59	250.000
213.97	30.769
214.34	36.364
214.72	-66.667
215.09	350.000
215.47	0.000
215.84	-100.000
216.22	-333.333
216.59	-112.500
216.97	-350.000
217.34	75.000
217.72	-240.000
218.09	50.000
218.47	237.500
218.84	-1300.000
219.22	-22.222
219.59	20.000
219.97	600.000
220.34	300.000
220.72	14.286
221.09	-325.000
221.47	-300.000
221.84	-700.000
222.22	-800.000
222.59	36.364
222.97	8.333
223.34	-200.000
223.72	-50.000
224.09	19.048
224.46	-25.000
224.84	500.000
225.21	30.000
225.59	40.000
225.96	0.000
226.34	225.000
226.71	-85.714
227.08	66.667
227.46	-112.500
227.83	150.000
228.21	22.222
228.58	-18.182
228.95	100.000
229.33	90.000
229.70	-18.750
230.08	-75.000
230.45	-14.286
230.82	142.857
231.20	-40.000
231.57	-7.143
231.95	-85.714
232.32	-90.000
232.69	28.571
233.07	-66.667
233.44	-40.000
233.81	-80.000
234.19	-66.667
234.56	-11.765
234.93	-0.000
235.31	125.000
235.68	-240.000
236.05	-7.692
236.43	-25.000
236.80	17.647
237.17	9.375
237.55	15.000
237.92	14.815
238.29	19.444
238.67	16.667
239.04	8.824
239.41	-12.195
239.79	-3.333
240.16	31.707
240.53	2.632
240.91	8.696
241.28	23.810
241.65	33.929
242.02	28.767
242.40	23.333
242.77	23.729
243.14	19.697
243.51	20.000
243.89	27.586
244.26	14.943
244.63	13.095
245.00	25.773
245.38	23.711
245.75	4.494
246.12	15.517
246.49	24.793
246.87	32.692
247.24	27.731
247.61	21.053
247.98	22.764
248.36	20.625
248.73	30.921
249.10	25.325
249.47	22.785
249.84	23.529
250.22	25.882
250.59	22.222
250.96	25.822
251.33	25.581
251.70	28.824
252.08	23.858
252.45	20.792
252.82	24.121
253.19	28.571
253.56	26.168
253.94	26.126
254.31	26.957
254.68	24.123
255.05	21.260
255.42	24.454
255.79	21.622
256.16	25.292
256.54	29.104
256.91	23.574
257.28	25.279
257.65	24.345
258.02	21.986
258.39	26.936
258.76	29.304
259.14	24.252
259.51	23.625
259.88	24.055
260.25	24.510
260.62	28.819
260.99	20.678
261.36	22.945
261.73	24.051
262.10	25.836
262.47	26.380
262.85	25.705
263.22	25.538
263.59	24.922
263.96	26.708
264.33	23.939
264.70	24.702
265.07	25.000
265.44	26.346
265.81	25.989
266.18	26.776
266.55	25.964
266.92	25.130
267.29	26.110
267.66	26.087
268.03	25.131
268.40	26.371
268.77	26.471
269.14	25.420
269.51	24.679
269.88	22.943
270.25	26.531
270.62	22.439
270.99	24.297
271.36	22.738
271.73	26.761
272.10	23.114
272.47	25.296
272.84	23.267
273.21	28.074
273.58	24.578
273.95	27.231
274.32	24.018
274.69	23.982
275.06	28.348
275.43	22.449
275.80	22.296
276.17	21.379
276.54	25.054
276.91	23.904
277.28	22.707
277.65	26.653
278.02	21.915
278.39	24.289
278.76	24.528
279.13	18.672
279.50	26.891
279.87	24.406
280.23	21.720
280.60	24.366
280.97	24.848
281.34	24.231
281.71	25.051
282.08	25.767
282.45	22.896
282.82	23.745
283.19	25.145
283.56	24.470
283.92	23.150
284.29	24.231
284.66	24.419
285.03	23.772
285.40	24.953
285.77	21.265
286.14	23.466
286.51	22.325
286.87	22.121
287.24	25.783
287.61	21.693
287.98	22.982
288.35	20.451
288.72	22.942
289.08	20.660
289.45	23.550
289.82	20.629
290.19	23.038
290.56	21.612
290.93	20.875
291.29	21.418
291.66	21.575
292.03	20.255
292.40	22.258
292.77	20.734
293.13	20.130
293.50	21.548
293.87	19.847
294.24	21.793
294.60	19.374
294.97	18.155
295.34	20.552
295.71	20.268
296.08	20.179
296.44	18.065
296.81	19.167
297.18	17.826
297.55	21.816
297.91	16.438
298.28	19.789
298.65	18.182
299.02	19.003
299.38	17.373
299.75	19.724
300.12	17.016
300.48	18.050
300.85	19.011
301.22	18.312
301.59	17.895
301.95	18.861
302.32	19.196
302.69	18.781
303.05	16.955
303.42	18.306
303.79	18.692
304.15	18.399
304.52	17.241
304.89	18.480
305.25	17.676
305.62	17.153
305.99	16.491
306.35	17.225
306.72	17.548
307.09	17.902
307.45	18.255
307.82	17.940
308.19	18.931
308.55	17.666
308.92	17.429
309.29	17.654
309.65	16.792
310.02	17.822
310.38	17.673
310.75	18.689
311.12	17.438
311.48	18.240
311.85	17.277
312.22	18.354
312.58	18.896
312.95	18.677
313.31	18.634
313.68	18.115
314.05	19.898
314.41	18.969
314.78	19.072
315.14	19.527
315.51	20.497
315.87	19.570
316.24	20.324
316.61	20.571
316.97	20.139
317.34	19.434
317.70	19.790
318.07	20.000
318.43	21.569
318.80	21.496
319.16	21.289
319.53	21.462
319.89	21.555
320.26	21.660
320.62	23.470
320.99	22.443
321.35	23.022
321.72	24.714
322.08	25.076
322.45	23.655
322.81	23.576
323.18	23.749
323.54	24.903
323.91	23.564
324.27	25.293
324.64	25.749
325.00	25.547
325.37	27.732
325.73	24.207
326.10	26.612
326.46	26.278
326.83	27.647
327.19	27.027
327.56	27.194
327.92	27.201
328.29	26.875
328.65	27.453
329.01	28.125
329.38	28.295
329.74	28.329
330.11	29.008
330.47	27.551
330.84	28.654
331.20	30.418
331.56	29.630
331.93	29.224
332.29	30.247
332.66	30.407
333.02	29.182
333.38	29.148
333.75	30.037
334.11	29.275
334.48	29.556
334.84	30.403
335.20	30.009
335.57	28.468
335.93	31.165
336.29	29.558
336.66	30.518
337.02	28.903
337.38	29.722
337.75	31.545
338.11	30.027
338.47	31.296
338.84	30.869
339.20	32.267
339.56	30.550
339.93	30.349
340.29	30.183
340.65	31.900
341.02	31.560
341.38	30.354
341.74	30.830
342.11	31.976
342.47	30.516
342.83	31.401
343.20	31.272
343.56	31.652
343.92	31.532
344.28	31.170
344.65	31.174
345.01	30.164
345.37	31.119
345.73	32.134
346.10	31.406
346.46	32.044
346.82	30.196
347.19	30.258
347.55	30.827
347.91	32.120
348.27	31.447
348.63	31.687
349.00	30.435
349.36	31.505
349.72	33.167
350.08	32.131
350.45	30.726
350.81	31.977
351.17	31.515
351.53	32.408
351.89	30.966
352.26	31.520
352.62	31.935
352.98	30.602
353.34	31.723
353.70	31.553
354.07	31.210
354.43	31.465
354.79	31.296
355.15	32.937
355.51	31.408
355.87	31.715
356.24	31.158
356.60	31.609
356.96	31.905
357.32	31.310
357.68	32.056
358.04	32.149
358.40	32.878
358.77	32.297
359.13	31.145
359.49	30.663
359.85	31.591
360.21	32.536
360.57	31.293
360.93	32.375
361.29	30.967
361.66	32.445
362.02	32.727
362.38	32.749
362.74	32.778
363.10	32.506
363.46	32.468
363.82	33.133
364.18	32.915
364.54	33.603
364.90	32.473
365.26	33.261
365.62	34.380
365.98	34.091
366.35	33.649
366.71	34.885
367.07	33.962
367.43	33.645
367.79	33.074
368.15	33.668
368.51	33.066
368.87	33.094
369.23	33.574
369.59	33.017
369.95	34.897
370.31	34.610
370.67	34.030
371.03	33.234
371.39	33.917
371.75	34.505
372.11	34.023
372.47	34.320
372.83	35.131
373.19	34.165
373.55	34.368
373.91	35.925
374.27	35.152
374.63	35.248
374.99	34.823
375.35	34.262
375.71	35.874
376.07	36.096
376.42	36.190
376.78	35.570
377.14	35.274
377.50	36.786
377.86	35.743
378.22	36.503
378.58	36.667
378.94	36.169
379.30	36.619
379.66	37.555
380.02	35.806
380.38	35.788
380.74	36.086
381.09	37.178
381.45	37.309
381.81	37.878
382.17	36.992
382.53	37.289
382.89	37.414
383.25	39.017
383.61	38.537
383.97	38.159
384.32	37.586
384.68	37.523
385.04	37.929
385.40	37.834
385.76	39.182
386.12	37.840
386.48	39.080
386.83	38.110
387.19	38.889
387.55	39.586
387.91	39.364
388.27	39.133
388.62	39.207
388.98	39.656
389.34	39.538
389.70	40.211
390.06	39.333
390.42	38.731
390.77	40.615
391.13	38.840
391.49	40.815
391.85	40.351
392.20	38.858
392.56	40.242
392.92	39.577
393.28	40.861
393.64	40.060
393.99	40.627
394.35	40.417
394.71	41.635
395.07	40.163
395.42	41.469
395.78	40.847
396.14	40.353
396.50	40.964
396.85	40.695
397.21	39.912
397.57	41.066
397.92	39.305
398.28	41.609
398.64	39.458
399.00	40.914
399.35	40.011
399.71	40.264
400.07	41.052
400.42	40.514
400.78	40.600
401.14	40.895
401.49	41.989
401.85	40.341
402.21	41.386
402.57	41.250
402.92	39.774
403.28	39.912
403.63	40.794
403.99	40.497
404.35	41.224
404.70	40.417
405.06	39.659
405.42	40.336
405.77	40.151
406.13	40.978
406.49	40.142
406.84	41.443
407.20	40.157
407.55	40.695
407.91	39.706
408.27	40.089
408.62	40.185
408.98	39.864
409.34	40.149
409.69	39.535
410.05	38.978
410.40	40.062
410.76	39.988
411.11	40.062
411.47	40.828
411.83	40.301
412.18	40.090
412.54	40.886
412.89	37.931
413.25	40.072
413.60	39.814
413.96	39.141
414.31	39.329
414.67	39.256
415.03	39.614
415.38	39.360
415.74	39.544
416.09	40.039
416.45	39.838
416.80	39.458
417.16	40.470
417.51	40.240
417.87	40.091
418.22	40.155
418.58	40.401
418.93	41.567
419.29	38.668
419.64	40.506
420.00	40.932
420.35	39.940
420.71	40.583
421.06	40.270
421.42	40.445
421.77	39.595
422.12	39.614
422.48	40.390
422.83	40.429
423.19	41.084
423.54	39.741
423.90	40.459
424.25	41.160
424.61	41.860
424.96	41.231
425.31	42.865
425.67	42.371
426.02	41.519
426.38	41.578
426.73	43.099
427.09	41.962
427.44	42.235
427.79	41.014
428.15	42.536
428.50	41.732
428.85	41.093
429.21	42.501
429.56	43.827
429.92	42.219
430.27	42.206
430.62	42.133
430.98	42.304
431.33	42.534
431.68	41.235
432.04	42.873
432.39	41.586
432.74	41.251
433.10	42.356
433.45	42.951
433.80	42.426
434.16	41.884
434.51	42.742
434.86	43.031
435.22	43.466
435.57	43.044
435.92	42.335
436.28	41.920
436.63	42.384
436.98	42.468
437.34	42.771
437.69	43.053
438.04	42.792
438.39	42.456
438.75	43.352
439.10	42.841
439.45	43.457
439.81	43.303
440.16	43.765
440.51	43.642
440.86	44.290
441.22	42.760
441.57	43.377
441.92	44.439
442.27	44.235
442.63	43.469
442.98	43.596
443.33	42.515
443.68	42.175
444.03	44.163
444.39	42.941
444.74	44.705
445.09	44.488
445.44	44.330
445.79	44.920
446.15	43.117
446.50	43.649
446.85	44.687
447.20	43.222
447.55	44.420
447.91	44.275
448.26	44.565
448.61	44.560
448.96	45.267
449.31	44.277
449.66	44.715
450.02	44.552
450.37	44.517
450.72	44.158
451.07	45.000
451.42	44.132
451.77	43.400
452.12	43.361
452.47	44.108
452.83	44.346
453.18	44.339
453.53	44.880
453.88	45.416
454.23	44.007
454.58	44.899
454.93	45.103
455.28	43.365
455.63	44.947
455.98	44.919
456.34	45.402
456.69	45.743
457.04	46.125
457.39	44.471
457.74	44.196
458.09	43.673
458.44	44.470
458.79	43.473
459.14	44.908
459.49	45.493
459.84	44.219
460.19	43.811
460.54	45.416
460.89	43.920
461.24	43.292
461.59	43.409
461.94	44.025
462.29	45.416
462.64	44.252
462.99	43.737
463.34	43.463
463.69	43.822
464.04	43.947
464.39	44.512
464.74	44.847
465.09	44.167
465.44	43.739
465.79	42.971
466.14	42.702
466.49	43.186
466.84	44.497
467.19	44.243
467.54	43.359
467.89	43.714
468.24	44.100
468.59	42.857
468.94	44.127
469.29	44.590
469.64	43.541
469.99	44.149
470.34	43.823
470.68	44.370
471.03	44.374
471.38	43.723
471.73	43.277
472.08	42.537
472.43	43.356
472.78	43.112
473.13	44.490
473.48	43.518
473.83	41.781
474.17	43.653
474.52	43.586
474.87	43.636
475.22	42.465
475.57	42.292
475.92	43.555
476.27	44.412
476.61	44.155
476.96	41.941
477.31	42.888
477.66	42.135
478.01	42.729
478.36	43.083
478.70	43.013
479.05	42.967
479.40	41.282
479.75	40.824
480.10	42.499
480.45	42.900
480.79	43.051
481.14	41.957
481.49	42.365
481.84	42.809
482.19	42.844
482.53	42.302
482.88	42.339
483.23	41.123
483.58	42.594
483.92	41.239
484.27	41.203
484.62	41.730
484.97	41.501
485.31	40.896
485.66	39.119
486.01	40.581
486.36	40.077
486.70	40.414
487.05	40.451
487.40	40.228
487.75	40.394
488.09	40.667
488.44	40.475
488.79	40.306
489.13	41.947
489.48	41.642
489.83	40.224
490.17	40.539
490.52	41.663
490.87	40.676
491.22	40.258
491.56	40.370
491.91	39.962
492.26	41.225
492.60	39.539
492.95	41.417
493.30	40.205
493.64	41.405
493.99	41.014
494.34	41.117
494.68	40.762
495.03	40.000
495.37	40.628
495.72	40.434
496.07	41.024
496.41	40.425
496.76	39.982
497.11	39.450
497.45	40.716
497.80	40.868
498.14	38.997
498.49	40.274
498.84	40.020
499.18	40.361
499.53	39.980
499.87	39.737
500.22	40.059
500.56	39.889
500.91	39.307
501.26	39.298
501.60	39.006
501.95	39.398
502.29	39.952
502.64	40.010
502.98	39.763
503.33	38.569
503.67	38.988
504.02	39.150
504.36	38.793
504.71	38.232
505.06	38.903
505.40	38.680
505.75	39.124
506.09	38.520
506.44	40.144
506.78	38.776
507.13	38.935
507.47	38.225
507.82	38.889
508.16	39.144
508.51	38.195
508.85	39.246
509.19	38.371
509.54	39.571
509.88	38.565
510.23	38.300
510.57	38.268
510.92	37.100
511.26	38.025
511.61	39.054
511.95	38.356
512.30	38.470
512.64	38.397
512.98	38.125
513.33	38.612
513.67	37.806
514.02	38.902
514.36	38.971
514.70	39.744
515.05	38.660
515.39	38.607
515.74	38.743
516.08	39.629
516.42	38.869
516.77	38.209
517.11	38.635
517.46	38.181
517.80	37.783
518.14	38.885
518.49	37.380
518.83	37.667
519.17	37.599
519.52	36.353
519.86	37.035
520.20	36.877
520.55	36.148
520.89	37.453
521.23	36.669
521.58	37.161
521.92	37.500
522.26	36.044
522.61	37.597
522.95	37.086
523.29	38.119
523.64	37.611
523.98	38.043
524.32	36.727
524.66	37.132
525.01	37.857
525.35	37.006
525.69	36.229
526.04	35.251
526.38	37.549
526.72	35.644
527.06	36.446
527.41	36.544
527.75	35.255
528.09	35.415
528.43	36.259
528.78	34.323
529.12	36.194
529.46	36.712
529.80	35.275
530.15	36.370
530.49	35.825
530.83	36.047
531.17	35.460
531.51	34.473
531.86	35.350
532.20	35.560
532.54	35.534
532.88	35.455
533.22	35.282
533.57	35.059
533.91	34.922
534.25	34.831
534.59	34.509
534.93	33.480
535.27	33.312
535.62	35.126
535.96	34.703
536.30	34.763
536.64	35.562
536.98	34.216
537.32	35.846
537.66	34.783
538.01	35.315
538.35	33.634
538.69	34.154
539.03	33.014
539.37	34.320
539.71	34.697
540.05	33.130
540.39	34.211
540.73	34.031
541.07	34.530
541.42	35.417
541.76	33.723
542.10	33.655
542.44	33.079
542.78	32.691
543.12	32.967
543.46	34.214
543.80	33.380
544.14	32.644
544.48	32.778
544.82	33.630
545.16	33.060
545.50	33.645
545.84	33.357
546.18	33.121
546.52	32.300
546.86	32.782
547.20	33.119
547.54	32.014
547.88	32.812
548.22	31.164
548.56	31.201
548.90	32.682
549.24	32.025
549.58	32.793
549.92	32.380
550.26	32.015
550.60	32.119
550.94	32.412
551.28	31.530
551.62	31.692
551.96	31.955
552.30	32.529
552.64	31.171
552.98	31.364
553.32	31.455
553.66	31.205
554.00	31.971
554.34	31.462
554.68	31.121
555.02	31.622
555.36	31.488
555.69	30.330
556.03	31.478
556.37	30.747
556.71	31.986
557.05	31.693
557.39	30.260
557.73	31.184
558.07	31.523
558.41	30.551
558.75	31.489
559.08	30.496
559.42	31.508
559.76	31.385
560.10	29.817
560.44	31.199
560.78	30.070
561.12	30.606
561.45	31.413
561.79	31.513
562.13	30.234
562.47	30.288
562.81	30.908
563.15	30.536
563.48	30.339
563.82	31.091
564.16	30.014
564.50	29.122
564.84	30.857
565.17	29.779
565.51	31.352
565.85	29.630
566.19	30.106
566.52	30.563
566.86	29.756
567.20	29.763
567.54	29.988
567.88	31.107
568.21	30.204
568.55	29.728
568.89	29.055
569.23	29.803
569.56	29.028
569.90	30.045
570.24	28.843
570.57	28.800
570.91	29.000
571.25	28.116
571.59	28.122
571.92	27.437
572.26	28.231
572.60	27.969
572.93	28.302
573.27	27.743
573.61	27.267
573.95	27.772
574.28	27.172
574.62	27.257
574.96	27.873
575.29	27.234
575.63	26.769
575.97	27.433
576.30	27.130
576.64	26.887
576.98	27.130
577.31	27.255
577.65	27.592
577.98	27.303
578.32	26.569
578.66	26.306
578.99	27.071
579.33	26.630
579.67	26.091
580.00	26.886
580.34	26.443
580.67	26.434
581.01	26.849
581.35	26.098
581.68	26.097
582.02	26.078
582.35	26.518
582.69	26.665
583.02	26.298
583.36	26.402
583.70	26.610
584.03	27.217
584.37	27.640
584.70	26.429
585.04	25.803
585.37	25.774
585.71	26.685
586.04	25.769
586.38	25.794
586.72	26.714
587.05	26.863
587.39	26.559
587.72	27.091
588.06	26.737
588.39	26.118
588.73	26.282
589.06	27.365
589.40	26.754
589.73	26.908
590.07	26.926
590.40	26.587
590.73	27.348
591.07	26.845
591.40	26.581
591.74	26.244
592.07	26.252
592.41	26.767
592.74	25.767
593.08	25.917
593.41	26.392
593.75	25.744
594.08	25.403
594.41	25.546
594.75	25.763
595.08	26.145
595.42	25.727
595.75	26.436
596.09	25.880
596.42	25.424
596.75	26.021
597.09	25.467
597.42	26.197
597.75	25.561
598.09	25.034
598.42	25.722
598.76	25.225
599.09	24.760
599.42	25.313
599.76	24.831
600.09	23.982
600.42	25.246
600.76	25.186
601.09	24.924
601.42	24.951
601.76	24.931
602.09	24.711
602.42	25.906
602.76	25.806
603.09	26.287
603.42	25.711
603.76	25.161
604.09	24.828
604.42	25.085
604.76	25.412
605.09	25.274
605.42	25.824
605.75	25.350
606.09	24.671
606.42	24.479
606.75	25.411
607.09	24.835
607.42	24.324
607.75	24.600
608.08	24.124
608.42	23.344
608.75	25.108
609.08	24.813
609.41	24.822
609.75	24.748
610.08	25.062
610.41	23.913
610.74	23.988
611.07	25.375
611.41	24.805
611.74	24.893
612.07	24.786
612.40	25.383
612.73	24.915
613.07	24.353
613.40	24.781
613.73	23.951
614.06	23.762
614.39	24.478
614.72	24.426
615.06	24.246
615.39	24.782
615.72	23.466
616.05	24.469
616.38	22.906
616.71	23.976
617.05	24.583
617.38	24.324
617.71	24.088
618.04	24.508
618.37	24.275
618.70	24.356
619.03	25.000
619.36	23.951
619.69	24.033
620.03	25.931
620.36	24.320
620.69	24.268
621.02	24.465
621.35	24.730
621.68	25.170
622.01	23.917
622.34	24.661
622.67	25.079
623.00	23.813
623.33	23.857
623.66	23.635
623.99	22.844
624.32	25.399
624.65	22.632
624.99	23.251
625.32	23.351
625.65	23.881
625.98	23.691
626.31	23.441
626.64	24.957
626.97	25.393
627.30	23.030
627.63	24.610
627.96	24.708
628.29	23.774
628.62	24.779
628.95	25.351
629.28	25.302
629.61	23.330
629.94	25.220
630.26	23.617
630.59	23.829
630.92	25.744
631.25	23.795
631.58	24.670
631.91	23.904
632.24	23.165
632.57	22.955
632.90	25.267
633.23	24.353
633.56	23.426
633.89	23.058
634.22	25.679
634.55	22.490
634.88	23.627
635.20	22.308
635.53	24.533
635.86	22.367
636.19	23.286
636.52	24.872
636.85	23.077
637.18	23.145
637.51	23.145
637.83	23.259
638.16	24.829
638.49	24.523
638.82	25.921
639.15	24.695
639.48	24.484
639.81	22.176
640.13	23.232
640.46	26.676
640.79	22.239
641.12	23.486
641.45	24.024
641.77	24.889
642.10	24.645
642.43	22.186
642.76	25.248
643.09	24.071
643.41	25.081
643.74	24.053
644.07	25.287
644.40	24.831
644.73	21.541
645.05	24.832
645.38	25.926
645.71	23.050
646.04	24.955
646.36	22.695
646.69	26.619
647.02	23.440
647.35	25.187
647.67	24.132
648.00	26.306
648.33	25.427
648.66	24.237
648.98	22.613
649.31	20.826
649.64	21.821
649.96	21.556
650.29	23.169
650.62	23.419
650.94	23.889
651.27	24.581
651.60	24.144
651.92	24.301
652.25	22.202
652.58	22.500
652.90	25.557
653.23	22.689
653.56	22.335
653.88	21.649
654.21	21.541
654.54	21.902
654.86	22.920
655.19	21.491
655.52	23.375
655.84	21.124
656.17	23.827
656.49	32.214
656.82	33.509
657.15	26.174
657.47	19.462
657.80	14.724
658.13	14.406
658.45	22.180
658.78	22.411
659.10	22.250
659.43	22.242
659.75	22.546
660.08	22.414
660.41	23.289
660.73	23.619
661.06	22.704
661.38	20.744
661.71	20.123
662.03	24.678
662.36	21.099
662.68	23.009
663.01	23.144
663.33	22.042
663.66	20.698
663.98	21.395
664.31	19.829
664.63	21.659
664.96	18.696
665.28	18.985
665.61	22.078
665.93	22.826
666.26	24.946
666.58	21.029
666.91	22.118
667.23	23.349
667.56	22.749
667.88	21.823
668.21	22.912
668.53	21.513
668.86	21.934
669.18	23.349
669.50	21.792
669.83	21.395
670.15	21.911
670.48	22.010
670.80	21.198
671.13	19.239
671.45	19.178
671.77	23.820
672.10	22.178
672.42	21.536
672.75	21.492
673.07	24.866
673.39	21.468
673.72	19.527
674.04	19.583
674.37	23.729
674.69	23.769
675.01	24.222
675.34	20.270
675.66	23.843
675.98	22.395
676.31	23.853
676.63	19.477
676.95	18.864
677.28	23.765
677.60	24.578
677.92	21.101
678.25	23.195
678.57	19.481
678.89	21.008
679.22	22.148
679.54	18.675
679.86	21.074
680.18	21.553
680.51	22.727
680.83	20.676
681.15	22.400
681.48	22.541
681.80	21.694
682.12	22.581
682.44	20.293
682.77	20.751
683.09	20.824
683.41	21.818
683.73	19.124
684.06	23.451
684.38	20.215
684.70	23.747
685.02	19.917
685.34	20.356
685.67	20.826
685.99	19.892
686.31	19.823
686.63	21.150
686.96	21.103
687.28	17.778
687.60	19.772
687.92	22.626
688.24	22.177
688.56	21.616
688.89	24.107
689.21	22.000
689.53	21.114
689.85	19.070
690.17	24.330
690.49	18.913
690.82	18.689
691.14	18.810
691.46	20.561
691.78	20.045
692.10	23.441
692.42	19.697
692.74	20.299
693.06	19.144
693.39	19.005
693.71	19.910
694.03	20.092
694.35	21.963
694.67	20.960
694.99	18.799
695.31	21.671
695.63	22.500
695.95	20.202
696.27	20.725
696.59	21.667
696.91	19.888
697.23	16.452
697.56	23.267
697.88	23.011
698.20	21.868
698.52	21.647
698.84	17.464
699.16	21.500
699.48	21.554
699.80	17.370
700.12	20.216
700.44	22.969
700.76	21.221
701.08	21.212
701.40	23.193
701.72	20.988
702.04	15.842
702.36	20.067
702.68	18.318
703.00	22.727
703.32	19.648
703.64	17.797
703.96	22.319
704.28	19.325
704.60	20.635
704.91	17.666
705.23	20.598
705.55	21.201
705.87	20.217
706.19	21.852
706.51	20.275
706.83	19.614
707.15	20.249
707.47	19.048
707.79	18.750
708.11	21.750
708.43	18.000
708.74	18.088
709.06	21.408
709.38	18.654
709.70	18.047
710.02	18.153
710.34	22.910
710.66	16.346
710.98	18.543
711.29	19.016
711.61	18.644
711.93	19.870
712.25	25.773
712.57	19.780
712.89	21.269
713.20	20.761
713.52	19.861
713.84	20.478
714.16	24.055
714.48	16.774
714.80	17.949
715.11	18.237
715.43	18.182
715.75	20.333
716.07	16.611
716.39	19.799
716.70	17.343
717.02	13.740
717.34	23.887
717.66	18.584
717.97	16.957
718.29	22.176
718.61	16.929
718.93	20.155
719.24	18.631
719.56	19.277
719.88	21.306
720.20	20.076
720.51	14.559
720.83	18.919
721.15	16.387
721.46	18.145
721.78	16.206
722.10	18.216
722.42	14.108
722.73	20.000
723.05	22.449
723.37	20.763
723.68	22.523
724.00	18.376
724.32	21.333
724.63	13.182
724.95	22.707
725.27	20.737
725.58	22.881
725.90	15.476
726.22	21.236
726.53	18.305
726.85	18.352
727.16	21.887
727.48	17.409
727.80	19.838
728.11	16.525
728.43	16.863
728.74	14.113
729.06	18.000
729.38	25.564
729.69	16.335
730.01	21.538
730.32	20.522
730.64	20.495
730.96	20.377
731.27	17.000
731.59	18.983
731.90	18.153
732.22	22.397
732.53	23.256
732.85	19.149
733.16	22.222
733.48	16.547
733.80	20.652
734.11	15.932
734.43	17.869
734.74	18.485
735.06	11.726
735.37	19.940
735.69	21.886
736.00	16.028
736.32	20.805
736.63	18.662
736.95	22.526
737.26	18.149
737.58	17.114
737.89	17.949
738.21	18.421
738.52	14.403
738.83	17.904
739.15	12.664
739.46	20.472
739.78	13.187
740.09	20.261
740.41	18.478
740.72	21.260
741.04	21.457
741.35	20.426
741.66	15.166
741.98	15.816
742.29	15.842
742.61	22.513
742.92	15.640
743.23	12.500
743.55	20.814
743.86	19.139
744.18	13.397
744.49	17.553
744.80	18.478
745.12	18.717
745.43	17.561
745.74	15.104
746.06	16.098
746.37	16.230
746.68	18.957
747.00	17.553
747.31	18.408
747.62	16.990
747.94	19.139
748.25	15.347
748.56	16.940
748.88	14.660
749.19	20.213
749.50	17.241
749.82	12.264
750.13	15.596
750.44	23.308
750.75	20.149
751.07	20.073
751.38	18.391
751.69	13.725
752.01	21.318
752.32	15.139
752.63	18.182
752.94	18.534
753.26	21.757
753.57	15.837
753.88	18.142
754.19	12.917
754.51	12.397
754.82	16.599
755.13	16.667
755.44	22.177
755.75	22.266
756.07	19.844
756.38	16.604
756.69	17.241
757.00	17.000
757.31	16.013
757.63	15.854
757.94	16.389
758.25	13.699
758.56	17.819
758.87	20.113
759.18	14.019
759.50	12.727
759.81	16.722
760.12	22.903
760.43	17.273
760.74	16.667
761.05	18.769
761.36	17.330
761.67	19.394
761.99	20.748
762.30	13.091
762.61	15.810
762.92	14.932
763.23	18.018
763.54	14.019
763.85	17.797
764.16	13.278
764.47	13.306
764.78	13.187
765.10	17.845
765.41	16.404
765.72	19.365
766.03	16.541
766.34	20.803
766.65	18.327
766.96	12.121
767.27	19.681
767.58	10.920
767.89	12.766
768.20	15.909
768.51	19.780
768.82	18.227
769.13	12.903
769.44	19.742
769.75	13.699
770.06	17.241
770.37	14.423
770.68	16.751
770.99	18.100
771.30	13.725
771.61	15.837
771.92	18.534
772.23	17.734
772.54	18.280
772.85	12.346
773.16	16.854
773.47	18.301
773.78	16.340
774.09	12.575
774.39	15.333
774.70	17.834
775.01	17.241
775.32	19.286
775.63	14.876
775.94	8.397
776.25	21.260
776.56	10.000
776.87	7.692
777.18	17.094
777.48	21.552
777.79	20.870
778.10	7.619
778.41	17.117
778.72	11.111
779.03	17.293
779.34	24.823
779.65	14.384
779.95	12.329
780.26	15.862
780.57	14.634
780.88	11.811
781.19	2.586
781.50	19.380
781.80	11.243
782.11	10.063
782.42	19.231
782.73	19.424
783.04	18.519
783.34	11.111
783.65	3.419
783.96	23.770
784.27	25.517
784.57	11.382
784.88	5.469
785.19	23.000
785.50	23.000
785.81	15.517
786.11	1.724
786.42	6.796
786.73	24.545
787.04	14.286
787.34	16.071
787.65	18.095
787.96	7.080
788.26	18.182
788.57	5.128
788.88	24.219
789.19	9.524
789.49	14.783
789.80	13.265
790.11	16.162
790.41	2.727
790.72	27.174
791.03	15.909
791.33	16.250
791.64	7.500
791.95	15.116
792.25	19.149
792.56	20.225
792.87	4.110
793.17	7.246
793.48	-4.000
793.79	6.250
794.09	27.500
794.40	7.547
794.70	5.825
795.01	8.943
795.32	23.077
795.62	14.286
795.93	13.725
796.23	19.811
796.54	13.542
796.85	8.824
797.15	-8.451
797.46	22.222
797.76	16.667
798.07	12.791
798.37	-2.632
798.68	6.061
798.99	20.988
799.29	10.000
799.60	11.594
799.90	24.000
800.21	3.279
800.51	9.231
800.82	10.169
801.12	20.290
801.43	1.639
801.73	17.460
802.04	20.000
802.34	2.985
802.65	1.923
802.95	10.714
803.26	9.615
803.56	-7.843
803.87	-19.565
804.17	13.333
804.48	17.460
804.78	-5.556
805.09	2.174
805.39	8.889
805.70	18.519
806.00	-7.018
806.30	23.944
806.61	22.857
806.91	19.444
807.22	21.053
807.52	25.333
807.83	1.818
808.13	11.111
808.43	8.824
808.74	7.463
809.04	10.169
809.35	17.308
809.65	9.375
809.95	-21.622
810.26	-2.273
810.56	-4.110
810.86	-19.048
811.17	20.000
811.47	2.041
811.77	13.158
812.08	6.818
812.38	16.981
812.69	5.000
812.99	3.030
813.29	-2.632
813.59	-25.714
813.90	-6.818
814.20	-5.128
814.50	21.154
814.81	11.321
815.11	12.766
815.41	25.424
815.72	23.810
816.02	43.137
816.32	22.917
816.62	-12.195
816.93	-18.919
817.23	-5.714
817.53	18.750
817.84	-4.348
818.14	5.769
818.44	-31.579
818.74	28.261
819.04	5.000
819.35	-8.108
819.65	-11.765
819.95	-2.778
820.25	7.143
820.56	32.500
820.86	-58.621
821.16	12.500
821.46	12.766
821.76	15.000
822.07	-13.953
822.37	-5.405
822.67	-43.750
822.97	21.429
823.27	-17.857
823.57	0.000
823.88	-14.815
824.18	14.286
824.48	17.647
824.78	9.677
825.08	-4.348
825.38	24.242
825.69	-58.333
825.99	21.053
826.29	-33.333
826.59	-33.333
826.89	-57.143
827.19	17.391
827.49	-5.000
827.79	28.571
828.09	-14.286
828.39	0.000
828.70	48.649
829.00	-7.143
829.30	9.524
829.60	6.667
829.90	18.750
830.20	-21.053
830.50	-37.037
830.80	-21.739
831.10	-36.364
831.40	6.061
831.70	-3.226
832.00	4.762
832.30	-19.048
832.60	-83.333
832.90	3.448
833.20	-40.000
833.50	6.061
833.80	22.222
834.10	-15.385
834.40	3.125
834.70	-88.889
835.00	26.316
835.30	42.308
835.60	13.333
835.90	16.129
836.20	-59.091
836.50	-7.143
836.80	-15.385
837.10	7.143
837.40	-433.333
837.70	-31.818
838.00	-27.273
838.30	-4.348
838.60	-69.231
838.90	22.727
839.19	3.571
839.49	13.333
839.79	-107.692
840.09	-91.667
840.39	17.857
840.69	-10.714
840.99	-34.615
841.29	0.000
841.59	-180.000
841.88	-18.182
842.18	-130.000
842.48	25.000
842.78	-33.333
843.08	3.704
843.38	-130.000
843.68	34.783
843.97	-13.333
844.27	-6.667
844.57	10.000
844.87	11.111
845.17	-66.667
845.47	26.667
845.76	-19.048
846.06	23.529
846.36	80.000
846.66	-78.571
846.96	-53.333
847.25	-25.000
847.55	42.857
847.85	-212.500
848.15	0.000
848.44	-200.000
848.74	30.000
849.04	7.407
849.34	18.182
849.63	-283.333
849.93	-160.000
850.23	-27.778
850.53	40.000
850.82	23.077
851.12	-66.667
851.42	-80.000
851.71	11.538
852.01	92.857
852.31	-125.000
852.61	-36.364
852.90	-20.000
853.20	-15.789
853.50	0.000
853.79	13.043
854.09	8.333
854.39	-10.526
854.68	-33.333
854.98	-9.677
855.28	0.000
855.57	40.000
855.87	27.778
856.17	-11.111
856.46	-50.000
856.76	-80.000
857.05	0.000
857.35	20.000
857.65	-22.222
857.94	38.462
858.24	24.138
858.53	16.667
858.83	-7.407
859.13	13.636
859.42	4.348
859.72	-225.000
860.01	-166.667
860.31	20.000
860.60	-4.762
860.90	-266.667
861.20	-33.333
861.49	-250.000
861.79	-60.000
862.08	-20.000
862.38	40.000
862.67	-240.000
862.97	16.667
863.26	41.667
863.56	0.000
863.85	-500.000
864.15	66.667
864.44	0.000
864.74	50.000
865.03	50.000
865.33	-120.000
865.62	33.333
865.92	-16.667
866.21	-50.000
866.51	25.000
866.80	-90.909
867.10	-350.000
867.39	83.333
867.69	0.000
867.98	-30.769
868.27	-300.000
868.57	-6.667
868.86	22.222
869.16	-7.692
869.45	-13.333
869.75	-400.000
870.04	0.000
870.33	-14.286
870.63	-38.095
870.92	133.333
871.22	-120.000
871.51	-1100.000
871.80	88.889
872.10	433.333
>>>>>End Processed Spectral Data<<<<<
