SpectraSuite Data File
++++++++++++++++++++++++++++++++++++
Date: Fri May 15 20:29:13 PDT 2015
User: schluterlab
Dark Spectrum Present: Yes
Reference Spectrum Present: Yes
Number of Sampled Component Spectra: 1
Spectrometers: USB2E3373
Integration Time (usec): 3000 (USB2E3373)
Spectra Averaged: 3 (USB2E3373)
Boxcar Smoothing: 0 (USB2E3373)
Correct for Electrical Dark: No (USB2E3373)
Strobe/Lamp Enabled: No (USB2E3373)
Correct for Detector Non-linearity: No (USB2E3373)
Correct for Stray Light: No (USB2E3373)
Number of Pixels in Processed Spectrum: 2048
>>>>>Begin Processed Spectral Data<<<<<
178.53	0.000
178.91	0.000
179.29	12.500
179.67	-150.000
180.04	28.571
180.42	-25.000
180.80	-700.000
181.18	333.333
181.56	450.000
181.94	150.000
182.31	-200.000
182.69	-200.000
183.07	-233.333
183.45	-20.000
183.83	183.333
184.20	-54.545
184.58	144.444
184.96	75.000
185.34	233.333
185.72	-350.000
186.09	153.846
186.47	-1100.000
186.85	116.667
187.23	166.667
187.61	-0.000
187.98	-266.667
188.36	-11.111
188.74	-133.333
189.12	-5.882
189.49	61.111
189.87	0.000
190.25	7.143
190.63	-50.000
191.00	-233.333
191.38	26.316
191.76	-150.000
192.14	100.000
192.51	-300.000
192.89	-66.667
193.27	-100.000
193.65	250.000
194.02	200.000
194.40	-60.000
194.78	-237.500
195.15	-25.000
195.53	-100.000
195.91	325.000
196.29	-175.000
196.66	115.385
197.04	142.857
197.42	-77.778
197.79	-266.667
198.17	-100.000
198.55	1800.000
198.92	-333.333
199.30	-600.000
199.68	-200.000
200.05	-300.000
200.43	0.000
200.81	133.333
201.18	-33.333
201.56	600.000
201.94	-400.000
202.31	-33.333
202.69	-60.000
203.07	250.000
203.44	900.000
203.82	0.000
204.19	14.286
204.57	-766.667
204.95	37.500
205.32	20.000
205.70	-28.571
206.08	-100.000
206.45	155.556
206.83	50.000
207.20	-85.714
207.58	400.000
207.96	33.333
208.33	-90.000
208.71	-225.000
209.08	-116.667
209.46	-1100.000
209.84	-200.000
210.21	-1300.000
210.59	-28.571
210.96	-100.000
211.34	100.000
211.71	26.667
212.09	-157.143
212.46	-1000.000
212.84	0.000
213.22	10.000
213.59	500.000
213.97	15.385
214.34	36.364
214.72	-50.000
215.09	300.000
215.47	-46.154
215.84	-109.091
216.22	-300.000
216.59	-37.500
216.97	-100.000
217.34	-275.000
217.72	-160.000
218.09	112.500
218.47	50.000
218.84	-1100.000
219.22	-77.778
219.59	-120.000
219.97	233.333
220.34	450.000
220.72	42.857
221.09	-350.000
221.47	200.000
221.84	-350.000
222.22	-650.000
222.59	-36.364
222.97	8.333
223.34	-66.667
223.72	-78.571
224.09	4.762
224.46	10.714
224.84	233.333
225.21	-110.000
225.59	13.333
225.96	-550.000
226.34	150.000
226.71	-57.143
227.08	-133.333
227.46	50.000
227.83	-450.000
228.21	22.222
228.58	-45.455
228.95	-62.500
229.33	140.000
229.70	-12.500
230.08	-37.500
230.45	-157.143
230.82	128.571
231.20	-6.667
231.57	-28.571
231.95	-85.714
232.32	-120.000
232.69	-28.571
233.07	200.000
233.44	-260.000
233.81	-90.000
234.19	-22.222
234.56	-47.059
234.93	900.000
235.31	25.000
235.68	-440.000
236.05	-61.538
236.43	-10.000
236.80	-35.294
237.17	37.500
237.55	-15.000
237.92	-7.407
238.29	-5.556
238.67	20.000
239.04	8.824
239.41	-2.439
239.79	10.000
240.16	4.878
240.53	-5.263
240.91	-10.870
241.28	1.587
241.65	26.786
242.02	23.288
242.40	26.667
242.77	13.559
243.14	16.667
243.51	7.500
243.89	22.989
244.26	3.448
244.63	9.524
245.00	-4.124
245.38	10.309
245.75	2.247
246.12	3.448
246.49	11.570
246.87	15.385
247.24	9.244
247.61	-5.263
247.98	8.943
248.36	12.500
248.73	8.553
249.10	12.338
249.47	8.861
249.84	7.843
250.22	15.882
250.59	10.458
250.96	15.493
251.33	8.140
251.70	13.529
252.08	14.721
252.45	11.386
252.82	6.030
253.19	11.521
253.56	9.813
253.94	14.414
254.31	7.826
254.68	14.035
255.05	8.661
255.42	11.354
255.79	8.880
256.16	14.008
256.54	11.567
256.91	10.646
257.28	11.896
257.65	11.236
258.02	12.766
258.39	11.111
258.76	8.059
259.14	9.967
259.51	9.385
259.88	15.464
260.25	14.052
260.62	14.931
260.99	10.169
261.36	10.959
261.73	12.025
262.10	12.158
262.47	11.963
262.85	12.853
263.22	14.769
263.59	14.642
263.96	12.422
264.33	12.121
264.70	12.798
265.07	10.714
265.44	17.564
265.81	12.994
266.18	10.383
266.55	14.139
266.92	12.694
267.29	12.010
267.66	11.765
268.03	13.874
268.40	14.621
268.77	12.567
269.14	13.189
269.51	11.568
269.88	10.973
270.25	12.500
270.62	11.220
270.99	13.299
271.36	10.758
271.73	12.911
272.10	11.436
272.47	11.820
272.84	11.386
273.21	12.529
273.58	15.422
273.95	12.357
274.32	11.316
274.69	10.181
275.06	15.179
275.43	11.565
275.80	12.583
276.17	11.494
276.54	13.276
276.91	13.816
277.28	11.790
277.65	15.289
278.02	14.043
278.39	12.035
278.76	14.885
279.13	8.921
279.50	16.387
279.87	12.959
280.23	11.398
280.60	12.865
280.97	10.101
281.34	11.731
281.71	14.374
282.08	12.679
282.45	12.133
282.82	11.583
283.19	14.120
283.56	12.909
283.92	9.108
284.29	10.962
284.66	11.047
285.03	12.770
285.40	10.397
285.77	11.599
286.14	11.372
286.51	13.653
286.87	10.420
287.24	11.050
287.61	10.935
287.98	11.930
288.35	11.958
288.72	14.711
289.08	10.417
289.45	10.018
289.82	12.413
290.19	12.799
290.56	10.120
290.93	9.091
291.29	11.094
291.66	11.654
292.03	10.367
292.40	10.806
292.77	10.845
293.13	9.416
293.50	10.319
293.87	11.756
294.24	10.819
294.60	11.326
294.97	11.458
295.34	9.969
295.71	9.538
296.08	10.164
296.44	8.962
296.81	9.861
297.18	7.826
297.55	10.705
297.91	9.863
298.28	10.422
298.65	6.513
299.02	9.569
299.38	7.798
299.75	9.241
300.12	8.508
300.48	8.696
300.85	9.379
301.22	10.260
301.59	7.763
301.95	10.127
302.32	9.857
302.69	9.204
303.05	8.911
303.42	9.340
303.79	8.294
304.15	9.319
304.52	7.610
304.89	9.123
305.25	8.596
305.62	8.285
305.99	7.719
306.35	7.514
306.72	7.649
307.09	9.008
307.45	9.300
307.82	8.796
308.19	8.246
308.55	8.833
308.92	10.458
309.29	8.268
309.65	7.104
310.02	9.791
310.38	8.013
310.75	8.415
311.12	7.858
311.48	8.908
311.85	7.435
312.22	8.544
312.58	8.599
312.95	8.218
313.31	6.832
313.68	6.597
314.05	8.061
314.41	8.969
314.78	9.072
315.14	8.633
315.51	9.213
315.87	7.889
316.24	7.988
316.61	7.972
316.97	8.730
317.34	8.984
317.70	9.273
318.07	8.269
318.43	8.137
318.80	8.333
319.16	8.594
319.53	9.307
319.89	8.957
320.26	7.591
320.62	9.228
320.99	7.620
321.35	8.222
321.72	8.515
322.08	8.560
322.45	8.426
322.81	9.136
323.18	8.145
323.54	8.784
323.91	7.303
324.27	8.496
324.64	9.270
325.00	8.942
325.37	8.907
325.73	8.341
326.10	7.902
326.46	8.610
326.83	8.749
327.19	8.282
327.56	8.862
327.92	8.979
328.29	8.214
328.65	7.547
329.01	7.996
329.38	8.387
329.74	8.026
330.11	8.248
330.47	7.050
330.84	6.058
331.20	8.555
331.56	7.778
331.93	7.489
332.29	9.349
332.66	7.602
333.02	7.621
333.38	7.608
333.75	8.791
334.11	6.714
334.48	7.797
334.84	7.601
335.20	8.051
335.57	7.978
335.93	8.311
336.29	8.195
336.66	8.174
337.02	7.993
337.38	7.407
337.75	8.273
338.11	8.206
338.47	8.120
338.84	8.318
339.20	7.952
339.56	7.890
339.93	8.505
340.29	9.083
340.65	8.513
341.02	6.915
341.38	8.496
341.74	7.420
342.11	8.319
342.47	7.918
342.83	8.997
343.20	7.753
343.56	7.913
343.92	8.592
344.28	8.796
344.65	8.290
345.01	8.038
345.37	8.410
345.73	8.117
346.10	9.318
346.46	7.990
346.82	8.265
347.19	6.816
347.55	7.769
347.91	8.091
348.27	8.650
348.63	8.433
349.00	7.055
349.36	7.398
349.72	7.463
350.08	8.361
350.45	8.380
350.81	7.807
351.17	6.922
351.53	9.469
351.89	7.597
352.26	7.840
352.62	7.903
352.98	7.791
353.34	7.166
353.70	8.414
354.07	7.903
354.43	7.446
354.79	7.845
355.15	8.016
355.51	8.149
355.87	7.362
356.24	7.259
356.60	8.165
356.96	7.698
357.32	7.428
357.68	7.349
358.04	7.512
358.40	7.235
358.77	7.656
359.13	7.526
359.49	6.934
359.85	8.190
360.21	7.177
360.57	7.422
360.93	6.808
361.29	6.873
361.66	7.837
362.02	7.121
362.38	7.464
362.74	8.024
363.10	8.503
363.46	6.968
363.82	9.316
364.18	7.823
364.54	7.279
364.90	6.667
365.26	6.332
365.62	7.956
365.98	7.185
366.35	8.084
366.71	6.874
367.07	7.765
367.43	6.758
367.79	7.915
368.15	7.681
368.51	7.575
368.87	6.030
369.23	6.570
369.59	7.726
369.95	7.918
370.31	6.864
370.67	7.537
371.03	6.945
371.39	8.023
371.75	7.546
372.11	7.061
372.47	7.027
372.83	7.594
373.19	7.846
373.55	7.004
373.91	6.911
374.27	7.442
374.63	7.394
374.99	7.376
375.35	8.635
375.71	7.413
376.07	7.303
376.42	7.007
376.78	6.980
377.14	7.448
377.50	7.238
377.86	7.564
378.22	7.147
378.58	6.859
378.94	7.435
379.30	7.611
379.66	7.398
380.02	7.357
380.38	6.756
380.74	6.942
381.09	7.485
381.45	7.584
381.81	6.477
382.17	7.107
382.53	6.683
382.89	6.466
383.25	6.970
383.61	7.805
383.97	5.651
384.32	6.379
384.68	6.873
385.04	6.801
385.40	6.907
385.76	7.673
386.12	7.697
386.48	7.599
386.83	6.405
387.19	7.509
387.55	7.654
387.91	6.785
388.27	7.814
388.62	6.545
388.98	6.384
389.34	6.683
389.70	8.142
390.06	6.545
390.42	6.801
390.77	7.717
391.13	6.873
391.49	7.568
391.85	6.498
392.20	6.529
392.56	6.167
392.92	7.399
393.28	6.073
393.64	7.387
393.99	8.339
394.35	6.262
394.71	8.046
395.07	7.354
395.42	7.286
395.78	7.557
396.14	7.188
396.50	7.102
396.85	7.212
397.21	6.642
397.57	6.959
397.92	7.909
398.28	6.782
398.64	5.904
399.00	7.506
399.35	6.151
399.71	7.467
400.07	7.497
400.42	7.528
400.78	7.226
401.14	7.018
401.49	7.802
401.85	7.069
402.21	7.892
402.57	7.063
402.92	6.713
403.28	7.832
403.63	7.440
403.99	6.569
404.35	6.558
404.70	6.786
405.06	7.168
405.42	7.023
405.77	5.636
406.13	6.577
406.49	7.697
406.84	7.029
407.20	7.646
407.55	6.632
407.91	7.353
408.27	6.565
408.62	8.000
408.98	7.024
409.34	7.063
409.69	6.654
410.05	7.266
410.40	6.481
410.76	6.876
411.11	6.625
411.47	7.166
411.83	7.156
412.18	6.306
412.54	5.805
412.89	6.835
413.25	7.461
413.60	7.205
413.96	6.994
414.31	7.805
414.67	6.479
415.03	6.924
415.38	6.919
415.74	7.231
416.09	8.034
416.45	7.157
416.80	7.667
417.16	7.113
417.51	7.262
417.87	6.649
418.22	6.412
418.58	6.689
418.93	7.837
419.29	6.338
419.64	6.546
420.00	7.179
420.35	6.687
420.71	7.716
421.06	6.998
421.42	6.190
421.77	6.647
422.12	6.924
422.48	7.255
422.83	6.439
423.19	7.223
423.54	5.879
423.90	6.655
424.25	7.463
424.61	6.487
424.96	6.678
425.31	7.163
425.67	6.690
426.02	7.067
426.38	7.639
426.73	6.901
427.09	7.468
427.44	7.235
427.79	7.720
428.15	7.646
428.50	7.147
428.85	6.695
429.21	7.583
429.56	7.278
429.92	7.756
430.27	7.820
430.62	6.639
430.98	6.582
431.33	7.518
431.68	6.593
432.04	7.378
432.39	6.617
432.74	7.276
433.10	6.782
433.45	6.989
433.80	6.326
434.16	6.094
434.51	7.419
434.86	6.214
435.22	7.235
435.57	6.862
435.92	6.826
436.28	7.394
436.63	7.758
436.98	6.721
437.34	6.836
437.69	7.633
438.04	6.781
438.39	6.781
438.75	6.922
439.10	7.187
439.45	7.425
439.81	6.483
440.16	7.007
440.51	7.642
440.86	7.734
441.22	6.391
441.57	7.119
441.92	7.608
442.27	7.262
442.63	7.227
442.98	7.467
443.33	6.845
443.68	6.525
444.03	7.849
444.39	7.575
444.74	7.637
445.09	7.127
445.44	7.749
445.79	8.613
446.15	7.159
446.50	5.990
446.85	7.492
447.20	6.778
447.55	7.701
447.91	6.825
448.26	7.171
448.61	7.599
448.96	6.713
449.31	6.647
449.66	6.911
450.02	6.902
450.37	6.461
450.72	6.816
451.07	7.342
451.42	7.116
451.77	6.631
452.12	6.878
452.47	6.825
452.83	7.185
453.18	7.653
453.53	7.016
453.88	6.679
454.23	7.130
454.58	7.305
454.93	7.539
455.28	6.349
455.63	7.316
455.98	8.058
456.34	7.663
456.69	6.861
457.04	7.940
457.39	7.108
457.74	6.651
458.09	6.945
458.44	6.846
458.79	6.667
459.14	7.437
459.49	7.224
459.84	7.276
460.19	7.100
460.54	7.213
460.89	6.875
461.24	7.640
461.59	7.245
461.94	6.038
462.29	7.841
462.64	7.243
462.99	7.854
463.34	7.163
463.69	7.272
464.04	7.930
464.39	7.156
464.74	7.914
465.09	6.987
465.44	7.098
465.79	7.937
466.14	7.868
466.49	7.131
466.84	7.377
467.19	7.447
467.54	7.280
467.89	6.380
468.24	7.482
468.59	7.683
468.94	6.921
469.29	7.869
469.64	8.066
469.99	8.479
470.34	6.485
470.68	7.979
471.03	8.351
471.38	7.347
471.73	7.073
472.08	7.123
472.43	6.846
472.78	6.374
473.13	7.415
473.48	7.231
473.83	7.410
474.17	7.383
474.52	7.594
474.87	6.909
475.22	7.444
475.57	6.945
475.92	7.515
476.27	7.567
476.61	6.713
476.96	6.972
477.31	8.275
477.66	6.910
478.01	7.187
478.36	6.972
478.70	6.960
479.05	7.692
479.40	7.578
479.75	7.351
480.10	7.373
480.45	7.400
480.79	8.107
481.14	7.582
481.49	6.700
481.84	7.239
482.19	7.297
482.53	7.770
482.88	8.019
483.23	7.006
483.58	7.830
483.92	6.534
484.27	7.521
484.62	7.530
484.97	6.882
485.31	7.478
485.66	7.147
486.01	7.405
486.36	7.211
486.70	7.604
487.05	7.483
487.40	7.523
487.75	6.986
488.09	7.231
488.44	7.634
488.79	7.546
489.13	7.492
489.48	7.311
489.83	7.265
490.17	7.326
490.52	7.113
490.87	6.756
491.22	7.020
491.56	7.400
491.91	7.218
492.26	7.632
492.60	7.342
492.95	7.477
493.30	7.377
493.64	7.711
493.99	7.826
494.34	7.427
494.68	7.667
495.03	7.007
495.37	7.458
495.72	7.420
496.07	7.659
496.41	7.264
496.76	7.094
497.11	7.685
497.45	7.542
497.80	7.619
498.14	7.551
498.49	7.466
498.84	7.186
499.18	7.580
499.53	7.738
499.87	7.539
500.22	6.874
500.56	7.867
500.91	7.731
501.26	7.711
501.60	7.280
501.95	7.715
502.29	6.973
502.64	7.432
502.98	7.449
503.33	6.868
503.67	6.940
504.02	8.162
504.36	7.966
504.71	7.525
505.06	7.499
505.40	7.360
505.75	7.680
506.09	7.400
506.44	7.957
506.78	7.551
507.13	7.808
507.47	7.154
507.82	7.425
508.16	7.977
508.51	6.768
508.85	7.378
509.19	6.812
509.54	6.971
509.88	7.335
510.23	7.370
510.57	7.483
510.92	6.716
511.26	6.601
511.61	8.086
511.95	7.616
512.30	7.151
512.64	8.236
512.98	7.917
513.33	7.666
513.67	7.732
514.02	8.066
514.36	8.571
514.70	8.100
515.05	8.167
515.39	7.910
515.74	7.964
516.08	7.591
516.42	7.951
516.77	7.958
517.11	7.953
517.46	8.618
517.80	8.343
518.14	8.512
518.49	7.632
518.83	7.533
519.17	7.338
519.52	8.230
519.86	7.743
520.20	7.898
520.55	7.505
520.89	8.156
521.23	8.043
521.58	8.139
521.92	8.269
522.26	8.328
522.61	7.922
522.95	8.013
523.29	7.497
523.64	8.386
523.98	8.166
524.32	7.088
524.66	8.771
525.01	8.506
525.35	8.490
525.69	7.475
526.04	7.209
526.38	8.820
526.72	7.521
527.06	7.652
527.41	8.311
527.75	7.172
528.09	7.375
528.43	9.386
528.78	8.383
529.12	8.129
529.46	7.472
529.80	8.043
530.15	8.317
530.49	8.350
530.83	8.687
531.17	7.925
531.51	8.071
531.86	6.594
532.20	7.376
532.54	8.645
532.88	7.598
533.22	7.863
533.57	7.471
533.91	7.898
534.25	9.049
534.59	7.633
534.93	7.615
535.27	7.487
535.62	7.453
535.96	8.937
536.30	8.971
536.64	8.339
536.98	7.875
537.32	9.246
537.66	9.327
538.01	8.042
538.35	7.698
538.69	9.188
539.03	6.835
539.37	8.546
539.71	7.635
540.05	8.147
540.39	8.587
540.73	7.950
541.07	8.978
541.42	8.938
541.76	8.465
542.10	8.328
542.44	8.270
542.78	6.607
543.12	7.005
543.46	8.971
543.80	7.842
544.14	8.344
544.48	7.928
544.82	7.792
545.16	8.675
545.50	8.945
545.84	8.640
546.18	8.511
546.52	8.724
546.86	8.124
547.20	8.011
547.54	7.845
547.88	7.880
548.22	8.087
548.56	7.784
548.90	8.625
549.24	7.576
549.58	8.674
549.92	7.863
550.26	8.352
550.60	8.178
550.94	8.813
551.28	7.342
551.62	9.231
551.96	9.023
552.30	8.626
552.64	8.322
552.98	7.806
553.32	8.345
553.66	7.692
554.00	7.372
554.34	8.715
554.68	7.596
555.02	8.929
555.36	8.227
555.69	7.985
556.03	7.209
556.37	8.185
556.71	8.375
557.05	7.606
557.39	6.840
557.73	8.621
558.07	8.220
558.41	7.657
558.75	8.262
559.08	8.432
559.42	8.016
559.76	8.086
560.10	8.639
560.44	7.520
560.78	8.671
561.12	8.674
561.45	8.082
561.79	8.333
562.13	9.155
562.47	7.410
562.81	9.150
563.15	8.463
563.48	9.335
563.82	8.511
564.16	9.262
564.50	7.770
564.84	9.705
565.17	7.780
565.51	7.992
565.85	8.230
566.19	8.289
566.52	8.378
566.86	9.383
567.20	8.281
567.54	7.786
567.88	8.436
568.21	8.937
568.55	7.826
568.89	7.854
569.23	8.377
569.56	7.925
569.90	9.013
570.24	8.560
570.57	7.927
570.91	8.888
571.25	7.761
571.59	7.879
571.92	8.089
572.26	8.092
572.60	8.031
572.93	8.284
573.27	8.339
573.61	8.115
573.95	7.728
574.28	8.157
574.62	8.263
574.96	8.377
575.29	8.380
575.63	7.489
575.97	7.509
576.30	7.928
576.64	7.682
576.98	8.340
577.31	8.036
577.65	7.936
577.98	8.432
578.32	7.904
578.66	7.844
578.99	8.025
579.33	7.719
579.67	8.453
580.00	7.899
580.34	8.060
580.67	7.962
581.01	7.997
581.35	7.903
581.68	7.932
582.02	7.983
582.35	8.059
582.69	8.337
583.02	7.990
583.36	7.902
583.70	8.489
584.03	7.784
584.37	8.413
584.70	8.104
585.04	7.927
585.37	8.256
585.71	7.578
586.04	8.144
586.38	8.109
586.72	8.149
587.05	8.319
587.39	8.387
587.72	8.311
588.06	7.805
588.39	8.060
588.73	8.059
589.06	8.447
589.40	8.227
589.73	8.142
590.07	8.724
590.40	8.282
590.73	8.690
591.07	8.185
591.40	8.994
591.74	8.009
592.07	8.720
592.41	8.701
592.74	8.642
593.08	8.068
593.41	7.875
593.75	8.211
594.08	8.342
594.41	8.333
594.75	8.397
595.08	7.946
595.42	7.803
595.75	8.336
596.09	8.405
596.42	7.854
596.75	8.925
597.09	8.109
597.42	8.311
597.75	8.383
598.09	8.601
598.42	7.897
598.76	8.580
599.09	8.454
599.42	8.071
599.76	8.014
600.09	8.786
600.42	8.378
600.76	7.652
601.09	7.748
601.42	8.265
601.76	8.218
602.09	7.921
602.42	9.099
602.76	8.149
603.09	8.721
603.42	8.863
603.76	7.782
604.09	7.452
604.42	8.249
604.76	8.901
605.09	8.592
605.42	8.397
605.75	8.319
606.09	7.898
606.42	7.882
606.75	8.658
607.09	8.923
607.42	7.931
607.75	8.481
608.08	8.086
608.42	9.137
608.75	9.060
609.08	8.371
609.41	7.919
609.75	8.216
610.08	7.838
610.41	8.164
610.74	7.947
611.07	8.269
611.41	8.459
611.74	9.328
612.07	8.137
612.40	8.315
612.73	7.853
613.07	7.987
613.40	8.370
613.73	7.611
614.06	8.792
614.39	8.347
614.72	8.123
615.06	8.492
615.39	8.679
615.72	8.127
616.05	8.715
616.38	8.091
616.71	8.379
617.05	8.524
617.38	8.737
617.71	8.176
618.04	9.206
618.37	9.773
618.70	9.043
619.03	8.542
619.36	7.887
619.69	8.870
620.03	9.423
620.36	8.727
620.69	8.423
621.02	8.792
621.35	8.382
621.68	8.759
622.01	8.667
622.34	8.540
622.67	8.991
623.00	8.959
623.33	8.308
623.66	7.330
623.99	8.396
624.32	9.202
624.65	7.594
624.99	9.255
625.32	7.354
625.65	8.327
625.98	8.541
626.31	8.479
626.64	10.225
626.97	8.028
627.30	8.144
627.63	8.492
627.96	8.715
628.29	9.343
628.62	9.341
628.95	7.916
629.28	8.165
629.61	7.677
629.94	9.873
630.26	8.992
630.59	8.845
630.92	8.513
631.25	9.026
631.58	7.489
631.91	8.114
632.24	8.142
632.57	9.432
632.90	9.846
633.23	9.765
633.56	7.809
633.89	9.371
634.22	10.247
634.55	7.624
634.88	7.791
635.20	7.692
635.53	9.333
635.86	7.022
636.19	10.608
636.52	8.291
636.85	8.065
637.18	8.050
637.51	8.553
637.83	7.884
638.16	9.277
638.49	7.221
638.82	8.289
639.15	8.548
639.48	9.904
639.81	9.066
640.13	10.390
640.46	9.184
640.79	7.806
641.12	9.749
641.45	9.009
641.77	9.185
642.10	9.637
642.43	9.486
642.76	10.231
643.09	8.401
643.41	10.032
643.74	9.390
644.07	7.553
644.40	10.304
644.73	9.282
645.05	7.886
645.38	9.877
645.71	6.028
646.04	9.156
646.36	8.333
646.69	9.892
647.02	9.452
647.35	9.328
647.67	9.141
648.00	8.022
648.33	10.239
648.66	8.305
648.98	7.705
649.31	8.264
649.64	6.593
649.96	6.645
650.29	9.199
650.62	8.376
650.94	9.630
651.27	7.076
651.60	9.550
651.92	8.392
652.25	6.217
652.58	9.167
652.90	8.405
653.23	7.563
653.56	9.983
653.88	7.388
654.21	8.056
654.54	7.980
654.86	9.338
655.19	8.772
655.52	9.675
655.84	8.637
656.17	9.120
656.49	12.270
656.82	12.905
657.15	9.738
657.47	7.376
657.80	5.513
658.13	5.513
658.45	8.116
658.78	8.268
659.10	8.642
659.43	8.897
659.75	8.535
660.08	8.759
660.41	10.010
660.73	8.149
661.06	11.785
661.38	8.219
661.71	5.339
662.03	9.657
662.36	10.330
662.68	7.080
663.01	11.354
663.33	8.817
663.66	4.884
663.98	8.605
664.31	9.808
664.63	8.065
664.96	6.522
665.28	6.402
665.61	6.926
665.93	8.913
666.26	10.629
666.58	6.040
666.91	10.353
667.23	9.906
667.56	9.716
667.88	7.434
668.21	8.353
668.53	11.111
668.86	11.321
669.18	8.962
669.50	7.022
669.83	9.070
670.15	8.858
670.48	7.177
670.80	8.525
671.13	7.606
671.45	5.936
671.77	10.086
672.10	10.099
672.42	7.865
672.75	9.591
673.07	9.839
673.39	9.908
673.72	8.876
674.04	8.542
674.37	8.263
674.69	9.850
675.01	10.667
675.34	10.135
675.66	8.333
675.98	9.091
676.31	11.239
676.63	8.314
676.95	5.455
677.28	9.412
677.60	7.711
677.92	8.716
678.25	10.066
678.57	5.844
678.89	8.403
679.22	7.606
679.54	7.028
679.86	8.946
680.18	9.515
680.51	7.955
680.83	6.163
681.15	7.400
681.48	9.016
681.80	10.124
682.12	9.677
682.44	8.787
682.77	8.168
683.09	7.551
683.41	8.636
683.73	9.217
684.06	6.416
684.38	8.172
684.70	9.150
685.02	6.432
685.34	7.708
685.67	9.381
685.99	10.307
686.31	9.381
686.63	9.833
686.96	7.605
687.28	6.263
687.60	6.654
687.92	8.283
688.24	10.887
688.56	7.424
688.89	6.250
689.21	10.222
689.53	8.353
689.85	6.512
690.17	9.152
690.49	9.693
690.82	9.223
691.14	8.095
691.46	9.813
691.78	8.784
692.10	9.247
692.42	9.091
692.74	7.692
693.06	6.982
693.39	9.276
693.71	4.751
694.03	7.852
694.35	7.944
694.67	7.828
694.99	6.266
695.31	9.399
695.63	7.500
695.95	8.081
696.27	9.067
696.59	10.000
696.91	7.003
697.23	4.370
697.56	5.941
697.88	9.892
698.20	9.567
698.52	8.706
698.84	5.502
699.16	6.000
699.48	8.020
699.80	7.940
700.12	7.278
700.44	7.283
700.76	4.360
701.08	9.091
701.40	7.229
701.72	12.037
702.04	6.601
702.36	8.027
702.68	4.505
703.00	7.576
703.32	7.625
703.64	7.345
703.96	6.957
704.28	5.828
704.60	8.571
704.91	6.309
705.23	8.306
705.55	12.721
705.87	9.025
706.19	7.037
706.51	9.622
706.83	11.576
707.15	6.854
707.47	8.964
707.79	7.031
708.11	10.500
708.43	10.250
708.74	7.752
709.06	9.859
709.38	8.869
709.70	12.130
710.02	9.873
710.34	12.693
710.66	7.692
710.98	3.642
711.29	4.918
711.61	5.424
711.93	12.704
712.25	7.560
712.57	8.059
712.89	5.224
713.20	10.381
713.52	9.408
713.84	7.509
714.16	6.186
714.48	8.065
714.80	11.538
715.11	9.422
715.43	8.777
715.75	6.667
716.07	5.316
716.39	8.054
716.70	8.118
717.02	4.962
717.34	10.931
717.66	5.310
717.97	7.826
718.29	8.787
718.61	11.024
718.93	4.651
719.24	8.745
719.56	4.819
719.88	7.904
720.20	9.848
720.51	7.280
720.83	7.722
721.15	7.983
721.46	2.823
721.78	8.696
722.10	4.833
722.42	3.734
722.73	11.020
723.05	11.429
723.37	10.593
723.68	13.964
724.00	9.829
724.32	6.667
724.63	7.273
724.95	7.860
725.27	5.530
725.58	3.390
725.90	6.746
726.22	8.108
726.53	9.492
726.85	10.112
727.16	8.302
727.48	6.883
727.80	14.980
728.11	5.508
728.43	5.490
728.74	2.016
729.06	11.200
729.38	12.782
729.69	6.773
730.01	3.462
730.32	8.209
730.64	11.307
730.96	7.170
731.27	10.333
731.59	6.441
731.90	6.688
732.22	9.464
732.53	12.292
732.85	10.638
733.16	11.785
733.48	10.072
733.80	5.797
734.11	6.780
734.43	6.186
734.74	9.394
735.06	3.257
735.37	13.595
735.69	10.101
736.00	4.878
736.32	4.027
736.63	7.394
736.95	7.509
737.26	7.829
737.58	5.034
737.89	8.791
738.21	4.511
738.52	7.407
738.83	5.240
739.15	3.930
739.46	12.992
739.78	1.465
740.09	8.170
740.41	5.797
740.72	5.118
741.04	6.073
741.35	4.255
741.66	9.953
741.98	-0.510
742.29	6.436
742.61	6.806
742.92	3.318
743.23	5.556
743.55	10.407
743.86	5.263
744.18	6.220
744.49	3.191
744.80	6.522
745.12	9.626
745.43	4.390
745.74	11.458
746.06	8.293
746.37	7.330
746.68	11.374
747.00	3.191
747.31	5.970
747.62	3.883
747.94	5.742
748.25	6.931
748.56	4.372
748.88	4.188
749.19	10.638
749.50	4.433
749.82	0.000
750.13	4.128
750.44	13.534
750.75	11.194
751.07	12.409
751.38	7.280
751.69	6.667
752.01	11.240
752.32	5.578
752.63	4.348
752.94	3.879
753.26	11.715
753.57	6.787
753.88	7.965
754.19	7.500
754.51	0.000
754.82	7.692
755.13	12.917
755.44	9.677
755.75	8.203
756.07	8.171
756.38	4.528
756.69	6.513
757.00	8.333
757.31	5.229
757.63	6.707
757.94	5.833
758.25	8.767
758.56	9.309
758.87	4.816
759.18	7.788
759.50	4.364
759.81	6.355
760.12	11.613
760.43	7.879
760.74	8.025
761.05	7.692
761.36	7.955
761.67	9.394
761.99	7.823
762.30	1.818
762.61	9.486
762.92	6.787
763.23	6.306
763.54	0.000
763.85	9.322
764.16	4.149
764.47	7.258
764.78	5.128
765.10	13.805
765.41	7.571
765.72	7.937
766.03	3.383
766.34	7.299
766.65	9.960
766.96	4.040
767.27	10.638
767.58	4.598
767.89	1.418
768.20	8.523
768.51	9.890
768.82	2.463
769.13	7.834
769.44	8.155
769.75	2.283
770.06	11.638
770.37	6.250
770.68	5.076
770.99	4.977
771.30	9.314
771.61	6.787
771.92	10.345
772.23	10.345
772.54	7.527
772.85	4.938
773.16	13.483
773.47	5.229
773.78	4.575
774.09	8.982
774.39	10.000
774.70	10.191
775.01	11.724
775.32	10.000
775.63	3.306
775.94	11.450
776.25	9.449
776.56	4.167
776.87	3.846
777.18	4.274
777.48	2.586
777.79	0.870
778.10	-2.857
778.41	0.000
778.72	3.175
779.03	17.293
779.34	8.511
779.65	7.534
779.95	-4.795
780.26	10.345
780.57	0.813
780.88	6.299
781.19	0.862
781.50	11.628
781.80	6.509
782.11	1.887
782.42	-2.308
782.73	6.475
783.04	-2.222
783.34	6.250
783.65	3.419
783.96	1.639
784.27	14.483
784.57	4.878
784.88	8.594
785.19	4.000
785.50	9.000
785.81	6.897
786.11	12.931
786.42	0.971
786.73	6.364
787.04	4.082
787.34	2.679
787.65	-5.714
787.96	3.540
788.26	17.273
788.57	0.000
788.88	9.375
789.19	4.762
789.49	4.348
789.80	-1.020
790.11	8.081
790.41	15.455
790.72	16.304
791.03	2.273
791.33	5.000
791.64	1.250
791.95	1.163
792.25	0.000
792.56	6.742
792.87	-2.740
793.17	2.899
793.48	-2.667
793.79	-10.000
794.09	5.000
794.40	1.887
794.70	1.942
795.01	-0.813
795.32	3.419
795.62	1.905
795.93	17.647
796.23	6.604
796.54	-1.042
796.85	7.353
797.15	12.676
797.46	13.889
797.76	9.091
798.07	11.628
798.37	-1.316
798.68	-19.697
798.99	20.988
799.29	2.857
799.60	-2.899
799.90	14.667
800.21	-4.918
800.51	3.077
800.82	10.169
801.12	5.797
801.43	4.918
801.73	6.349
802.04	8.000
802.34	5.970
802.65	9.615
802.95	-1.786
803.26	-11.538
803.56	3.922
803.87	-21.739
804.17	2.667
804.48	20.635
804.78	0.000
805.09	8.696
805.39	4.444
805.70	12.963
806.00	-12.281
806.30	5.634
806.61	10.000
806.91	-13.889
807.22	6.579
807.52	25.333
807.83	-18.182
808.13	8.333
808.43	2.941
808.74	10.448
809.04	-1.695
809.35	-5.769
809.65	4.687
809.95	-40.541
810.26	-6.818
810.56	13.699
810.86	-2.381
811.17	2.000
811.47	-2.041
811.77	-15.789
812.08	-6.818
812.38	1.887
812.69	-20.000
812.99	-42.424
813.29	-2.632
813.59	-17.143
813.90	4.545
814.20	-5.128
814.50	-25.000
814.81	-3.774
815.11	-34.043
815.41	22.034
815.72	2.381
816.02	9.804
816.32	0.000
816.62	-9.756
816.93	-40.541
817.23	-8.571
817.53	14.583
817.84	-4.348
818.14	0.000
818.44	-10.526
818.74	4.348
819.04	-25.000
819.35	5.405
819.65	-23.529
819.95	2.778
820.25	-7.143
820.56	25.000
820.86	-31.034
821.16	25.000
821.46	10.638
821.76	-7.500
822.07	-16.279
822.37	-32.432
822.67	-18.750
822.97	16.667
823.27	-21.429
823.57	-8.000
823.88	-59.259
824.18	17.857
824.48	2.941
824.78	0.000
825.08	-8.696
825.38	-3.030
825.69	-45.833
825.99	-7.895
826.29	-2.778
826.59	-93.333
826.89	-66.667
827.19	8.696
827.49	-12.500
827.79	20.000
828.09	-21.429
828.39	-9.091
828.70	32.432
829.00	-3.571
829.30	-33.333
829.60	3.333
829.90	-6.250
830.20	-28.947
830.50	-37.037
830.80	-4.348
831.10	-36.364
831.40	27.273
831.70	22.581
832.00	-52.381
832.30	-19.048
832.60	-58.333
832.90	-20.690
833.20	-75.000
833.50	-18.182
833.80	0.000
834.10	-23.077
834.40	6.250
834.70	-44.444
835.00	5.263
835.30	19.231
835.60	0.000
835.90	29.032
836.20	-18.182
836.50	-7.143
836.80	-57.692
837.10	-21.429
837.40	-400.000
837.70	27.273
838.00	-109.091
838.30	8.696
838.60	-38.462
838.90	-13.636
839.19	10.714
839.49	23.333
839.79	15.385
840.09	-133.333
840.39	39.286
840.69	-39.286
840.99	-38.462
841.29	-47.368
841.59	-60.000
841.88	27.273
842.18	-60.000
842.48	-12.500
842.78	26.667
843.08	-7.407
843.38	-160.000
843.68	-30.435
843.97	40.000
844.27	-20.000
844.57	-25.000
844.87	33.333
845.17	-66.667
845.47	26.667
845.76	-19.048
846.06	-35.294
846.36	-40.000
846.66	-57.143
846.96	6.667
847.25	-100.000
847.55	21.429
847.85	25.000
848.15	-50.000
848.44	-366.667
848.74	5.000
849.04	37.037
849.34	0.000
849.63	-116.667
849.93	-160.000
850.23	-22.222
850.53	-20.000
850.82	-76.923
851.12	-88.889
851.42	-40.000
851.71	-42.308
852.01	-21.429
852.31	-175.000
852.61	-81.818
852.90	-40.000
853.20	-5.263
853.50	-100.000
853.79	13.043
854.09	25.000
854.39	0.000
854.68	-20.833
854.98	9.677
855.28	42.308
855.57	0.000
855.87	22.222
856.17	3.704
856.46	-21.429
856.76	-33.333
857.05	0.000
857.35	8.000
857.65	-55.556
857.94	7.692
858.24	10.345
858.53	-27.778
858.83	11.111
859.13	13.636
859.42	-13.043
859.72	-50.000
860.01	-300.000
860.31	8.000
860.60	-23.810
860.90	-500.000
861.20	-93.333
861.49	-650.000
861.79	6.667
862.08	5.000
862.38	-6.667
862.67	-320.000
862.97	-100.000
863.26	-50.000
863.56	0.000
863.85	-633.333
864.15	5.556
864.44	-30.000
864.74	71.429
865.03	250.000
865.33	-300.000
865.62	-33.333
865.92	-8.333
866.21	-150.000
866.51	50.000
866.80	-36.364
867.10	-1050.000
867.39	8.333
867.69	0.000
867.98	-84.615
868.27	-366.667
868.57	13.333
868.86	66.667
869.16	-38.462
869.45	-26.667
869.75	-1500.000
870.04	0.000
870.33	-114.286
870.63	0.000
870.92	333.333
871.22	-280.000
871.51	-1100.000
871.80	0.000
872.10	66.667
>>>>>End Processed Spectral Data<<<<<
