SpectraSuite Data File
++++++++++++++++++++++++++++++++++++
Date: Fri May 15 20:31:26 PDT 2015
User: schluterlab
Dark Spectrum Present: Yes
Reference Spectrum Present: Yes
Number of Sampled Component Spectra: 1
Spectrometers: USB2E3373
Integration Time (usec): 3000 (USB2E3373)
Spectra Averaged: 3 (USB2E3373)
Boxcar Smoothing: 0 (USB2E3373)
Correct for Electrical Dark: No (USB2E3373)
Strobe/Lamp Enabled: No (USB2E3373)
Correct for Detector Non-linearity: No (USB2E3373)
Correct for Stray Light: No (USB2E3373)
Number of Pixels in Processed Spectrum: 2048
>>>>>Begin Processed Spectral Data<<<<<
178.53	0.000
178.91	0.000
179.29	12.500
179.67	-700.000
180.04	-157.143
180.42	25.000
180.80	300.000
181.18	466.667
181.56	150.000
181.94	-150.000
182.31	300.000
182.69	-100.000
183.07	-400.000
183.45	-140.000
183.83	83.333
184.20	27.273
184.58	88.889
184.96	225.000
185.34	-166.667
185.72	-400.000
186.09	92.308
186.47	-1800.000
186.85	233.333
187.23	111.111
187.61	700.000
187.98	-100.000
188.36	77.778
188.74	-66.667
189.12	23.529
189.49	55.556
189.87	0.000
190.25	7.143
190.63	-350.000
191.00	-166.667
191.38	47.368
191.76	100.000
192.14	100.000
192.51	-300.000
192.89	-44.444
193.27	-42.857
193.65	166.667
194.02	181.818
194.40	-50.000
194.78	-112.500
195.15	-8.333
195.53	-125.000
195.91	250.000
196.29	-225.000
196.66	123.077
197.04	71.429
197.42	-144.444
197.79	-866.667
198.17	-46.154
198.55	1300.000
198.92	-633.333
199.30	100.000
199.68	-200.000
200.05	-200.000
200.43	0.000
200.81	-66.667
201.18	-100.000
201.56	400.000
201.94	-150.000
202.31	-33.333
202.69	-140.000
203.07	150.000
203.44	700.000
203.82	0.000
204.19	64.286
204.57	-200.000
204.95	162.500
205.32	-50.000
205.70	-71.429
206.08	-225.000
206.45	100.000
206.83	78.571
207.20	-142.857
207.58	-200.000
207.96	-266.667
208.33	-90.000
208.71	-200.000
209.08	-266.667
209.46	-400.000
209.84	-20.000
210.21	-1500.000
210.59	100.000
210.96	-66.667
211.34	-250.000
211.71	-6.667
212.09	-171.429
212.46	-1800.000
212.84	0.000
213.22	-10.000
213.59	150.000
213.97	53.846
214.34	-18.182
214.72	-100.000
215.09	500.000
215.47	-7.692
215.84	-63.636
216.22	-166.667
216.59	-37.500
216.97	-300.000
217.34	0.000
217.72	-160.000
218.09	37.500
218.47	175.000
218.84	100.000
219.22	-155.556
219.59	0.000
219.97	366.667
220.34	600.000
220.72	14.286
221.09	-175.000
221.47	-350.000
221.84	-550.000
222.22	-750.000
222.59	109.091
222.97	-50.000
223.34	33.333
223.72	0.000
224.09	47.619
224.46	-17.857
224.84	300.000
225.21	20.000
225.59	20.000
225.96	-100.000
226.34	325.000
226.71	-171.429
227.08	-250.000
227.46	12.500
227.83	-100.000
228.21	-66.667
228.58	18.182
228.95	-37.500
229.33	160.000
229.70	31.250
230.08	-62.500
230.45	-200.000
230.82	-28.571
231.20	-13.333
231.57	-28.571
231.95	0.000
232.32	-120.000
232.69	0.000
233.07	-33.333
233.44	-80.000
233.81	-20.000
234.19	-55.556
234.56	-35.294
234.93	250.000
235.31	25.000
235.68	-300.000
236.05	-23.077
236.43	-50.000
236.80	-5.882
237.17	6.250
237.55	-20.000
237.92	-40.741
238.29	-19.444
238.67	-6.667
239.04	8.824
239.41	-19.512
239.79	-23.333
240.16	-12.195
240.53	-5.263
240.91	-8.696
241.28	-3.175
241.65	8.929
242.02	21.918
242.40	13.333
242.77	-3.390
243.14	-6.061
243.51	5.000
243.89	19.540
244.26	3.448
244.63	3.571
245.00	18.557
245.38	8.247
245.75	0.000
246.12	3.448
246.49	5.785
246.87	15.385
247.24	9.244
247.61	0.000
247.98	2.439
248.36	9.375
248.73	11.184
249.10	5.195
249.47	3.165
249.84	4.575
250.22	8.824
250.59	7.843
250.96	15.493
251.33	8.140
251.70	4.118
252.08	6.599
252.45	3.960
252.82	6.533
253.19	5.069
253.56	4.673
253.94	10.360
254.31	12.609
254.68	13.158
255.05	6.693
255.42	10.917
255.79	8.880
256.16	14.786
256.54	13.806
256.91	6.084
257.28	10.037
257.65	6.367
258.02	6.383
258.39	9.428
258.76	10.256
259.14	9.967
259.51	11.650
259.88	7.560
260.25	10.131
260.62	11.111
260.99	5.763
261.36	6.164
261.73	11.076
262.10	10.030
262.47	9.509
262.85	6.897
263.22	10.154
263.59	10.903
263.96	12.112
264.33	10.000
264.70	6.250
265.07	8.929
265.44	10.765
265.81	10.169
266.18	12.568
266.55	12.339
266.92	11.917
267.29	12.533
267.66	7.161
268.03	11.257
268.40	9.399
268.77	11.497
269.14	10.552
269.51	11.311
269.88	9.476
270.25	6.122
270.62	9.268
270.99	10.230
271.36	9.046
271.73	10.798
272.10	9.489
272.47	11.820
272.84	11.386
273.21	11.833
273.58	9.880
273.95	11.670
274.32	8.545
274.69	7.240
275.06	10.714
275.43	6.576
275.80	10.375
276.17	5.747
276.54	10.493
276.91	11.842
277.28	9.170
277.65	9.711
278.02	9.787
278.39	8.753
278.76	7.757
279.13	7.676
279.50	9.874
279.87	11.447
280.23	6.667
280.60	9.942
280.97	12.525
281.34	8.462
281.71	10.472
282.08	8.589
282.45	8.219
282.82	6.371
283.19	10.832
283.56	9.827
283.92	6.831
284.29	9.808
284.66	6.977
285.03	7.859
285.40	8.507
285.77	8.612
286.14	8.484
286.51	10.517
286.87	11.517
287.24	7.366
287.61	9.877
287.98	12.105
288.35	9.012
288.72	9.282
289.08	9.375
289.45	8.260
289.82	9.266
290.19	7.509
290.56	7.547
290.93	10.101
291.29	7.396
291.66	8.031
292.03	9.729
292.40	7.581
292.77	7.815
293.13	6.006
293.50	7.891
293.87	7.023
294.24	8.810
294.60	11.326
294.97	8.482
295.34	7.055
295.71	8.793
296.08	8.371
296.44	7.397
296.81	8.333
297.18	7.391
297.55	8.943
297.91	5.479
298.28	9.499
298.65	6.649
299.02	6.604
299.38	6.293
299.75	6.483
300.12	6.021
300.48	5.797
300.85	7.605
301.22	6.234
301.59	6.579
301.95	8.481
302.32	8.301
302.69	7.960
303.05	5.569
303.42	7.347
303.79	8.178
304.15	7.288
304.52	5.113
304.89	7.251
305.25	6.053
305.62	6.884
305.99	6.433
306.35	5.780
306.72	6.524
307.09	7.070
307.45	7.348
307.82	6.944
308.19	6.620
308.55	7.306
308.92	7.407
309.29	5.922
309.65	6.136
310.02	7.591
310.38	6.367
310.75	7.541
311.12	5.920
311.48	7.211
311.85	5.654
312.22	5.169
312.58	6.794
312.95	5.229
313.31	6.211
313.68	6.597
314.05	4.796
314.41	6.289
314.78	6.186
315.14	7.708
315.51	6.418
315.87	7.172
316.24	6.775
316.61	7.382
316.97	6.349
317.34	6.152
317.70	5.354
318.07	5.865
318.43	7.157
318.80	6.818
319.16	6.250
319.53	7.597
319.89	5.512
320.26	6.579
320.62	5.617
320.99	4.489
321.35	6.989
321.72	7.684
322.08	6.344
322.45	5.381
322.81	6.876
323.18	6.379
323.54	5.888
323.91	5.940
324.27	5.859
324.64	6.180
325.00	7.755
325.37	7.163
325.73	6.346
326.10	6.540
326.46	7.175
326.83	7.087
327.19	6.626
327.56	7.124
327.92	7.218
328.29	5.893
328.65	6.604
329.01	6.985
329.38	7.189
329.74	6.232
330.11	6.395
330.47	6.122
330.84	6.058
331.20	8.365
331.56	6.852
331.93	7.854
332.29	7.241
332.66	7.330
333.02	6.784
333.38	5.775
333.75	8.150
334.11	7.252
334.48	7.162
334.84	7.234
335.20	7.411
335.57	6.437
335.93	6.504
336.29	7.459
336.66	6.358
337.02	6.877
337.38	6.019
337.75	8.091
338.11	6.132
338.47	6.934
338.84	7.394
339.20	6.399
339.56	7.523
339.93	7.431
340.29	6.697
340.65	7.796
341.02	6.826
341.38	6.283
341.74	6.449
342.11	6.759
342.47	6.495
342.83	7.526
343.20	5.749
343.56	6.609
343.92	7.440
344.28	8.027
344.65	6.304
345.01	6.223
345.37	7.401
345.73	8.033
346.10	7.334
346.46	7.906
346.82	5.892
347.19	4.655
347.55	7.686
347.91	7.767
348.27	7.599
348.63	6.559
349.00	6.399
349.36	5.902
349.72	6.716
350.08	6.803
350.45	6.864
350.81	6.146
351.17	6.678
351.53	7.510
351.89	6.441
352.26	6.160
352.62	6.371
352.98	6.345
353.34	6.441
353.70	7.362
354.07	6.613
354.43	6.966
354.79	5.863
355.15	7.063
355.51	7.199
355.87	6.715
356.24	4.894
356.60	6.386
356.96	7.778
357.32	6.949
357.68	6.333
358.04	6.300
358.40	6.109
358.77	6.858
359.13	6.005
359.49	6.317
359.85	6.474
360.21	6.300
360.57	5.585
360.93	6.051
361.29	6.042
361.66	7.132
362.02	6.439
362.38	7.540
362.74	5.980
363.10	6.546
363.46	6.301
363.82	6.912
364.18	5.756
364.54	5.515
364.90	5.950
365.26	6.041
365.62	7.226
365.98	5.425
366.35	7.065
366.71	6.061
367.07	6.967
367.43	6.183
367.79	6.290
368.15	6.748
368.51	6.336
368.87	4.882
369.23	5.993
369.59	6.633
369.95	6.818
370.31	6.864
370.67	6.940
371.03	5.377
371.39	4.814
371.75	5.641
372.11	6.633
372.47	5.991
372.83	5.394
373.19	6.847
373.55	5.343
373.91	6.623
374.27	6.095
374.63	6.604
374.99	5.461
375.35	6.128
375.71	5.315
376.07	5.618
376.42	6.190
376.78	6.242
377.14	6.364
377.50	6.308
377.86	6.091
378.22	6.190
378.58	5.641
378.94	5.293
379.30	5.926
379.66	6.270
380.02	6.193
380.38	5.721
380.74	5.745
381.09	6.564
381.45	5.443
381.81	5.799
382.17	5.964
382.53	6.059
382.89	5.838
383.25	6.098
383.61	5.976
383.97	5.206
384.32	6.567
384.68	6.316
385.04	5.699
385.40	5.414
385.76	5.975
386.12	6.145
386.48	6.066
386.83	6.278
387.19	5.983
387.55	6.148
387.91	6.174
388.27	5.678
388.62	6.419
388.98	5.955
389.34	6.121
389.70	6.712
390.06	5.727
390.42	5.894
390.77	5.821
391.13	4.981
391.49	5.951
391.85	6.563
392.20	5.587
392.56	5.976
392.92	6.400
393.28	5.896
393.64	6.006
393.99	6.395
394.35	5.566
394.71	5.747
395.07	5.845
395.42	5.039
395.78	5.993
396.14	5.801
396.50	5.834
396.85	5.860
397.21	5.764
397.57	5.266
397.92	6.111
398.28	5.977
398.64	5.000
399.00	6.264
399.35	5.474
399.71	6.203
400.07	6.953
400.42	6.365
400.78	6.675
401.14	6.534
401.49	7.266
401.85	5.545
402.21	6.386
402.57	5.563
402.92	5.709
403.28	6.140
403.63	5.170
403.99	5.931
404.35	6.121
404.70	6.250
405.06	4.818
405.42	5.656
405.77	5.171
406.13	5.821
406.49	6.039
406.84	5.501
407.20	6.020
407.55	5.602
407.91	4.947
408.27	4.971
408.62	5.785
408.98	5.360
409.34	6.568
409.69	5.879
410.05	6.281
410.40	6.667
410.76	6.695
411.11	5.625
411.47	6.114
411.83	5.524
412.18	5.405
412.54	6.367
412.89	5.234
413.25	6.558
413.60	5.528
413.96	5.767
414.31	6.159
414.67	6.350
415.03	5.593
415.38	6.070
415.74	5.993
416.09	6.401
416.45	5.942
416.80	6.213
417.16	6.561
417.51	6.662
417.87	5.606
418.22	5.959
418.58	6.555
418.93	6.207
419.29	5.186
419.64	5.574
420.00	6.675
420.35	6.388
420.71	7.169
421.06	6.875
421.42	6.550
421.77	6.012
422.12	5.051
422.48	5.847
422.83	6.613
423.19	6.321
423.54	6.349
423.90	5.300
424.25	6.142
424.61	6.487
424.96	6.098
425.31	6.586
425.67	6.455
426.02	6.478
426.38	5.636
426.73	6.235
427.09	6.519
427.44	6.588
427.79	6.482
428.15	6.189
428.50	5.875
428.85	5.344
429.21	6.508
429.56	6.146
429.92	6.215
430.27	5.514
430.62	5.280
430.98	5.945
431.33	6.782
431.68	6.279
432.04	5.981
432.39	5.533
432.74	5.713
433.10	7.069
433.45	6.452
433.80	5.746
434.16	5.651
434.51	6.613
434.86	6.330
435.22	6.955
435.57	6.425
435.92	6.527
436.28	6.440
436.63	5.990
436.98	6.315
437.34	6.352
437.69	6.142
438.04	6.382
438.39	5.925
438.75	5.889
439.10	6.452
439.45	6.634
439.81	5.933
440.16	6.354
440.51	6.627
440.86	7.492
441.22	6.109
441.57	6.126
441.92	6.925
442.27	6.430
442.63	6.745
442.98	6.548
443.33	5.843
443.68	5.942
444.03	6.508
444.39	6.444
444.74	6.243
445.09	7.071
445.44	5.983
445.79	7.478
446.15	6.498
446.50	5.879
446.85	6.111
447.20	5.944
447.55	7.366
447.91	6.543
448.26	6.887
448.61	6.448
448.96	6.254
449.31	6.358
449.66	6.504
450.02	6.788
450.37	6.461
450.72	6.644
451.07	7.025
451.42	6.679
451.77	6.148
452.12	5.921
452.47	5.602
452.83	6.419
453.18	6.894
453.53	7.206
453.88	6.315
454.23	6.208
454.58	6.675
454.93	6.765
455.28	6.032
455.63	7.130
455.98	6.915
456.34	6.130
456.69	7.179
457.04	6.868
457.39	6.622
457.74	6.046
458.09	6.004
458.44	6.027
458.79	6.555
459.14	7.151
459.49	7.045
459.84	6.655
460.19	6.007
460.54	6.540
460.89	6.477
461.24	6.335
461.59	6.829
461.94	6.289
462.29	7.479
462.64	7.708
462.99	6.500
463.34	6.259
463.69	5.856
464.04	7.324
464.39	6.549
464.74	7.055
465.09	6.114
465.44	7.040
465.79	6.293
466.14	7.355
466.49	6.325
466.84	7.793
467.19	6.508
467.54	5.811
467.89	6.317
468.24	7.482
468.59	6.984
468.94	7.302
469.29	7.082
469.64	6.972
469.99	7.218
470.34	5.392
470.68	7.755
471.03	6.653
471.38	6.562
471.73	7.143
472.08	6.716
472.43	6.040
472.78	6.580
473.13	7.143
473.48	7.622
473.83	6.787
474.17	7.707
474.52	6.637
474.87	7.333
475.22	6.284
475.57	6.719
475.92	7.515
476.27	7.509
476.61	6.887
476.96	6.916
477.31	7.301
477.66	6.685
478.01	6.850
478.36	6.373
478.70	7.504
479.05	7.857
479.40	6.730
479.75	7.404
480.10	6.554
480.45	7.550
480.79	6.999
481.14	7.275
481.49	6.650
481.84	6.708
482.19	6.408
482.53	7.146
482.88	7.255
483.23	6.670
483.58	6.934
483.92	6.970
484.27	6.290
484.62	7.351
484.97	6.592
485.31	6.395
485.66	6.824
486.01	6.895
486.36	6.810
486.70	6.829
487.05	6.969
487.40	6.644
487.75	6.930
488.09	6.644
488.44	6.843
488.79	6.612
489.13	6.811
489.48	7.012
489.83	6.368
490.17	6.652
490.52	7.206
490.87	7.404
491.22	7.498
491.56	7.068
491.91	6.979
492.26	7.438
492.60	6.910
492.95	7.280
493.30	6.790
493.64	6.876
493.99	7.391
494.34	7.087
494.68	7.571
495.03	7.056
495.37	6.820
495.72	7.320
496.07	7.415
496.41	6.887
496.76	6.817
497.11	6.567
497.45	7.971
497.80	7.669
498.14	7.154
498.49	7.110
498.84	7.435
499.18	6.978
499.53	7.192
499.87	7.344
500.22	7.765
500.56	6.909
500.91	6.878
501.26	6.970
501.60	6.640
501.95	7.860
502.29	7.506
502.64	7.722
502.98	7.499
503.33	6.628
503.67	6.843
504.02	7.527
504.36	7.818
504.71	7.374
505.06	7.599
505.40	6.701
505.75	7.784
506.09	7.146
506.44	7.444
506.78	7.449
507.13	8.014
507.47	7.624
507.82	6.410
508.16	7.290
508.51	7.555
508.85	7.640
509.19	6.919
509.54	7.292
509.88	7.713
510.23	6.885
510.57	7.376
510.92	6.716
511.26	7.201
511.61	6.986
511.95	7.178
512.30	7.317
512.64	7.624
512.98	7.243
513.33	7.499
513.67	6.993
514.02	8.467
514.36	8.514
514.70	7.809
515.05	7.991
515.39	7.438
515.74	7.784
516.08	7.472
516.42	7.715
516.77	8.777
517.11	7.596
517.46	7.660
517.80	7.688
518.14	7.410
518.49	7.632
518.83	7.837
519.17	7.398
519.52	7.697
519.86	6.783
520.20	8.262
520.55	7.380
520.89	8.971
521.23	7.853
521.58	7.634
521.92	7.821
522.26	7.742
522.61	7.987
522.95	8.079
523.29	8.259
523.64	8.196
523.98	8.944
524.32	7.861
524.66	7.618
525.01	7.792
525.35	8.490
525.69	7.273
526.04	7.209
526.38	8.171
526.72	7.129
527.06	8.106
527.41	8.047
527.75	7.708
528.09	8.106
528.43	8.643
528.78	7.261
529.12	8.774
529.46	8.057
529.80	8.170
530.15	8.119
530.49	8.013
530.83	8.482
531.17	8.059
531.51	8.618
531.86	7.750
532.20	7.307
532.54	7.965
532.88	8.419
533.22	8.132
533.57	8.191
533.91	7.050
534.25	8.984
534.59	7.761
534.93	7.930
535.27	7.424
535.62	7.647
535.96	7.893
536.30	8.113
536.64	8.822
536.98	8.153
537.32	8.108
537.66	9.187
538.01	7.692
538.35	8.114
538.69	9.321
539.03	8.202
539.37	8.950
539.71	8.248
540.05	8.418
540.39	8.172
540.73	8.229
541.07	8.218
541.42	9.409
541.76	8.672
542.10	7.571
542.44	7.992
542.78	6.951
543.12	7.761
543.46	8.345
543.80	7.981
544.14	7.276
544.48	8.261
544.82	8.407
545.16	8.470
545.50	8.611
545.84	8.215
546.18	8.865
546.52	8.219
546.86	8.914
547.20	7.940
547.54	7.915
547.88	8.764
548.22	7.298
548.56	7.982
548.90	9.030
549.24	8.609
549.58	9.520
549.92	8.649
550.26	9.304
550.60	8.996
550.94	7.767
551.28	8.810
551.62	8.231
551.96	8.045
552.30	6.871
552.64	7.969
552.98	8.298
553.32	8.916
553.66	8.345
554.00	8.029
554.34	8.346
554.68	8.186
555.02	8.631
555.36	8.527
555.69	6.520
556.03	8.137
556.37	7.972
556.71	8.448
557.05	7.681
557.39	7.138
557.73	8.321
558.07	8.522
558.41	7.504
558.75	8.106
559.08	7.801
559.42	8.413
559.76	8.407
560.10	7.875
560.44	7.893
560.78	8.881
561.12	8.604
561.45	7.519
561.79	8.333
562.13	7.736
562.47	7.770
562.81	8.573
563.15	8.533
563.48	8.416
563.82	8.785
564.16	8.357
564.50	8.446
564.84	7.898
565.17	7.780
565.51	8.333
565.85	8.711
566.19	8.422
566.52	8.177
566.86	8.740
567.20	7.846
567.54	8.637
567.88	7.967
568.21	7.636
568.55	7.609
568.89	7.906
569.23	8.329
569.56	7.399
569.90	8.161
570.24	7.667
570.57	8.145
570.91	8.226
571.25	7.498
571.59	7.287
571.92	7.822
572.26	7.307
572.60	7.163
572.93	7.531
573.27	7.273
573.61	7.876
573.95	7.783
574.28	7.707
574.62	7.424
574.96	7.504
575.29	7.597
575.63	6.763
575.97	7.048
576.30	7.647
576.64	7.364
576.98	7.593
577.31	7.102
577.65	7.477
577.98	7.502
578.32	7.112
578.66	7.178
578.99	7.160
579.33	7.145
579.67	7.267
580.00	7.063
580.34	7.139
580.67	6.899
581.01	7.277
581.35	7.300
581.68	7.321
582.02	6.974
582.35	7.372
582.69	7.246
583.02	7.178
583.36	6.932
583.70	7.529
584.03	7.117
584.37	7.905
584.70	7.418
585.04	6.969
585.37	7.224
585.71	7.085
586.04	7.312
586.38	7.282
586.72	7.489
587.05	7.828
587.39	7.353
587.72	7.736
588.06	7.556
588.39	7.576
588.73	7.692
589.06	7.469
589.40	7.570
589.73	8.288
590.07	7.931
590.40	7.779
590.73	7.743
591.07	7.930
591.40	7.925
591.74	7.919
592.07	7.978
592.41	8.436
592.74	8.005
593.08	7.859
593.41	7.578
593.75	7.524
594.08	7.381
594.41	7.533
594.75	7.176
595.08	7.719
595.42	7.545
595.75	7.736
596.09	7.780
596.42	7.358
596.75	8.126
597.09	8.565
597.42	7.724
597.75	7.421
598.09	7.967
598.42	7.852
598.76	7.851
599.09	7.812
599.42	7.920
599.76	7.412
600.09	7.617
600.42	7.809
600.76	7.429
601.09	7.061
601.42	7.756
601.76	7.662
602.09	7.426
602.42	8.425
602.76	7.852
603.09	8.306
603.42	8.194
603.76	7.379
604.09	7.209
604.42	7.741
604.76	8.322
605.09	7.770
605.42	8.307
605.75	7.881
606.09	7.601
606.42	7.756
606.75	7.662
607.09	8.747
607.42	7.798
607.75	7.726
608.08	7.772
608.42	8.040
608.75	8.145
609.08	8.022
609.41	8.325
609.75	7.611
610.08	8.088
610.41	7.585
610.74	8.191
611.07	7.855
611.41	7.784
611.74	8.635
612.07	7.709
612.40	7.987
612.73	7.966
613.07	8.043
613.40	8.151
613.73	7.387
614.06	8.459
614.39	7.896
614.72	8.011
615.06	8.324
615.39	8.297
615.72	7.696
616.05	7.877
616.38	8.547
616.71	7.462
617.05	8.833
617.38	8.360
617.71	8.994
618.04	7.683
618.37	8.701
618.70	8.185
619.03	8.403
619.36	7.598
619.69	8.719
620.03	9.350
620.36	8.298
620.69	8.423
621.02	8.028
621.35	8.631
621.68	9.014
622.01	8.250
622.34	9.098
622.67	9.148
623.00	9.342
623.33	7.927
623.66	8.751
623.99	8.775
624.32	8.213
624.65	7.218
624.99	8.578
625.32	7.961
625.65	9.348
625.98	9.750
626.31	7.897
626.64	9.445
626.97	10.384
627.30	8.494
627.63	8.925
627.96	9.254
628.29	10.176
628.62	10.029
628.95	9.118
629.28	7.460
629.61	8.275
629.94	10.362
630.26	9.387
630.59	9.053
630.92	9.128
631.25	8.821
631.58	9.361
631.91	8.224
632.24	8.372
632.57	10.568
632.90	8.541
633.23	10.471
633.56	7.683
633.89	10.604
634.22	10.988
634.55	7.116
634.88	8.685
635.20	10.641
635.53	10.400
635.86	7.932
636.19	10.220
636.52	8.801
636.85	8.561
637.18	8.805
637.51	10.566
637.83	10.250
638.16	11.050
638.49	8.856
638.82	9.605
639.15	9.905
639.48	9.491
639.81	9.066
640.13	10.101
640.46	9.329
640.79	9.867
641.12	10.487
641.45	10.060
641.77	9.185
642.10	10.585
642.43	9.164
642.76	10.396
643.09	11.632
643.41	9.547
643.74	11.203
644.07	10.837
644.40	11.655
644.73	10.333
645.05	8.221
645.38	9.877
645.71	9.043
646.04	10.952
646.36	10.284
646.69	11.331
647.02	10.019
647.35	12.687
647.67	10.603
648.00	10.075
648.33	11.092
648.66	8.644
648.98	7.370
649.31	8.760
649.64	8.320
649.96	9.724
650.29	9.199
650.62	9.402
650.94	8.519
651.27	10.242
651.60	9.009
651.92	8.916
652.25	9.591
652.58	9.833
652.90	9.091
653.23	10.420
653.56	6.937
653.88	9.107
654.21	5.429
654.54	8.998
654.86	9.677
655.19	10.088
655.52	9.211
655.84	7.575
656.17	8.533
656.49	11.110
656.82	11.320
657.15	8.341
657.47	6.320
657.80	4.499
658.13	4.256
658.45	6.545
658.78	6.201
659.10	6.089
659.43	6.004
659.75	6.364
660.08	6.552
660.41	6.844
660.73	8.564
661.06	12.825
661.38	8.415
661.71	6.160
662.03	10.515
662.36	9.890
662.68	11.283
663.01	12.009
663.33	6.729
663.66	9.070
663.98	10.698
664.31	11.514
664.63	9.447
664.96	6.739
665.28	6.181
665.61	8.658
665.93	10.870
666.26	8.894
666.58	9.172
666.91	7.059
667.23	10.142
667.56	11.374
667.88	9.113
668.21	10.024
668.53	10.165
668.86	10.377
669.18	9.198
669.50	8.717
669.83	10.000
670.15	10.023
670.48	5.742
670.80	10.138
671.13	8.725
671.45	7.534
671.77	11.159
672.10	8.515
672.42	9.363
672.75	9.769
673.07	13.059
673.39	9.908
673.72	7.692
674.04	10.208
674.37	10.805
674.69	8.351
675.01	10.667
675.34	10.811
675.66	11.574
675.98	11.752
676.31	13.532
676.63	8.551
676.95	8.409
677.28	11.765
677.60	11.807
677.92	12.385
678.25	9.190
678.57	6.710
678.89	11.765
679.22	7.606
679.54	7.631
679.86	7.753
680.18	10.485
680.51	10.985
680.83	8.946
681.15	9.200
681.48	10.246
681.80	10.331
682.12	8.065
682.44	7.950
682.77	11.700
683.09	8.696
683.41	7.273
683.73	10.369
684.06	7.743
684.38	7.742
684.70	10.893
685.02	8.299
685.34	8.893
685.67	10.319
685.99	9.222
686.31	9.735
686.63	9.647
686.96	8.365
687.28	6.263
687.60	9.506
687.92	12.525
688.24	8.065
688.56	9.607
688.89	9.821
689.21	12.889
689.53	7.425
689.85	10.465
690.17	11.607
690.49	8.983
690.82	9.466
691.14	7.143
691.46	8.411
691.78	11.261
692.10	11.398
692.42	9.307
692.74	10.684
693.06	10.135
693.39	8.145
693.71	6.561
694.03	9.238
694.35	7.009
694.67	9.091
694.99	8.355
695.31	9.922
695.63	9.500
695.95	8.586
696.27	9.326
696.59	11.944
696.91	9.524
697.23	6.684
697.56	6.436
697.88	9.032
698.20	9.112
698.52	9.176
698.84	7.895
699.16	9.000
699.48	8.521
699.80	10.422
700.12	11.590
700.44	9.804
700.76	9.302
701.08	9.394
701.40	9.337
701.72	16.358
702.04	8.581
702.36	9.365
702.68	8.108
703.00	8.788
703.32	7.331
703.64	4.520
703.96	8.406
704.28	9.816
704.60	9.206
704.91	6.940
705.23	6.645
705.55	12.014
705.87	7.942
706.19	8.519
706.51	10.653
706.83	12.540
707.15	8.100
707.47	8.403
707.79	10.938
708.11	12.500
708.43	10.750
708.74	8.269
709.06	12.676
709.38	8.257
709.70	10.355
710.02	10.510
710.34	7.740
710.66	6.731
710.98	7.947
711.29	9.180
711.61	6.780
711.93	10.749
712.25	10.309
712.57	10.989
712.89	8.955
713.20	9.689
713.52	8.711
713.84	8.532
714.16	8.935
714.48	9.677
714.80	11.859
715.11	8.207
715.43	9.718
715.75	8.333
716.07	8.306
716.39	9.060
716.70	6.642
717.02	6.870
717.34	12.551
717.66	7.965
717.97	7.391
718.29	6.695
718.61	11.417
718.93	6.977
719.24	9.886
719.56	6.827
719.88	11.684
720.20	5.682
720.51	6.130
720.83	13.127
721.15	7.563
721.46	8.871
721.78	6.324
722.10	8.550
722.42	6.224
722.73	9.796
723.05	7.755
723.37	9.746
723.68	11.261
724.00	5.556
724.32	4.000
724.63	6.818
724.95	10.044
725.27	8.756
725.58	10.593
725.90	4.365
726.22	6.950
726.53	10.847
726.85	7.491
727.16	11.321
727.48	6.073
727.80	11.336
728.11	6.356
728.43	5.882
728.74	4.839
729.06	8.400
729.38	15.789
729.69	9.163
730.01	5.769
730.32	10.448
730.64	7.420
730.96	11.698
731.27	9.333
731.59	8.475
731.90	5.732
732.22	10.095
732.53	12.625
732.85	6.028
733.16	10.774
733.48	3.597
733.80	6.884
734.11	10.847
734.43	7.560
734.74	7.576
735.06	4.886
735.37	9.668
735.69	11.448
736.00	5.226
736.32	9.060
736.63	8.451
736.95	9.556
737.26	9.253
737.58	7.047
737.89	8.791
738.21	9.398
738.52	9.465
738.83	7.424
739.15	4.803
739.46	8.661
739.78	5.128
740.09	10.784
740.41	8.333
740.72	5.906
741.04	13.765
741.35	7.234
741.66	7.583
741.98	1.020
742.29	7.921
742.61	8.377
742.92	2.370
743.23	6.481
743.55	9.050
743.86	9.091
744.18	9.091
744.49	9.574
744.80	8.696
745.12	15.508
745.43	6.829
745.74	8.333
746.06	9.756
746.37	11.518
746.68	11.374
747.00	5.851
747.31	11.940
747.62	7.767
747.94	10.526
748.25	9.901
748.56	5.464
748.88	3.665
749.19	10.638
749.50	15.271
749.82	7.075
750.13	4.587
750.44	12.406
750.75	13.060
751.07	13.139
751.38	9.962
751.69	5.490
752.01	10.465
752.32	11.952
752.63	4.743
752.94	4.741
753.26	16.736
753.57	4.977
753.88	5.752
754.19	8.333
754.51	2.066
754.82	5.668
755.13	12.500
755.44	12.903
755.75	10.937
756.07	8.949
756.38	6.415
756.69	4.215
757.00	6.667
757.31	7.516
757.63	7.317
757.94	5.000
758.25	8.767
758.56	7.979
758.87	6.516
759.18	7.477
759.50	6.182
759.81	9.365
760.12	7.097
760.43	10.000
760.74	11.420
761.05	4.615
761.36	6.534
761.67	9.394
761.99	6.122
762.30	5.455
762.61	7.510
762.92	2.715
763.23	10.360
763.54	4.206
763.85	11.441
764.16	9.544
764.47	5.242
764.78	8.425
765.10	10.438
765.41	11.041
765.72	10.476
766.03	1.880
766.34	6.569
766.65	9.562
766.96	7.576
767.27	8.511
767.58	1.724
767.89	2.837
768.20	5.682
768.51	7.143
768.82	7.882
769.13	4.608
769.44	6.438
769.75	0.913
770.06	6.034
770.37	9.135
770.68	4.569
770.99	5.430
771.30	6.863
771.61	9.955
771.92	8.621
772.23	13.300
772.54	3.226
772.85	7.407
773.16	13.483
773.47	15.686
773.78	14.379
774.09	5.988
774.39	6.000
774.70	7.006
775.01	15.862
775.32	7.857
775.63	-5.785
775.94	3.817
776.25	14.173
776.56	10.833
776.87	0.962
777.18	-5.983
777.48	5.172
777.79	-0.870
778.10	-3.810
778.41	10.811
778.72	14.286
779.03	12.782
779.34	4.965
779.65	10.274
779.95	8.904
780.26	8.966
780.57	-3.252
780.88	9.449
781.19	-0.862
781.50	15.504
781.80	7.101
782.11	0.000
782.42	2.308
782.73	8.633
783.04	9.630
783.34	1.389
783.65	0.855
783.96	4.098
784.27	4.828
784.57	5.691
784.88	7.031
785.19	18.000
785.50	8.000
785.81	8.621
786.11	0.000
786.42	8.738
786.73	14.545
787.04	6.122
787.34	9.821
787.65	2.857
787.96	0.885
788.26	3.636
788.57	5.983
788.88	14.063
789.19	11.905
789.49	-4.348
789.80	-1.020
790.11	6.061
790.41	3.636
790.72	4.348
791.03	-4.545
791.33	-3.750
791.64	-7.500
791.95	1.163
792.25	11.702
792.56	5.618
792.87	0.000
793.17	-2.899
793.48	5.333
793.79	-3.750
794.09	11.250
794.40	-1.887
794.70	-1.942
795.01	4.065
795.32	0.855
795.62	-1.905
795.93	0.000
796.23	6.604
796.54	3.125
796.85	8.824
797.15	2.817
797.46	16.667
797.76	16.667
798.07	3.488
798.37	10.526
798.68	4.545
798.99	6.173
799.29	4.286
799.60	-1.449
799.90	14.667
800.21	6.557
800.51	16.923
800.82	1.695
801.12	4.348
801.43	9.836
801.73	12.698
802.04	-2.000
802.34	2.985
802.65	17.308
802.95	-5.357
803.26	-3.846
803.56	5.882
803.87	-26.087
804.17	25.333
804.48	22.222
804.78	-24.074
805.09	-8.696
805.39	-28.889
805.70	12.963
806.00	-22.807
806.30	-1.408
806.61	11.429
806.91	-1.389
807.22	10.526
807.52	4.000
807.83	-20.000
808.13	1.389
808.43	14.706
808.74	-5.970
809.04	-11.864
809.35	7.692
809.65	7.813
809.95	-18.919
810.26	4.545
810.56	-2.740
810.86	-7.143
811.17	-6.000
811.47	-4.082
811.77	-42.105
812.08	2.273
812.38	1.887
812.69	-15.000
812.99	-33.333
813.29	-10.526
813.59	-22.857
813.90	-18.182
814.20	-28.205
814.50	17.308
814.81	16.981
815.11	-14.894
815.41	-3.390
815.72	4.762
816.02	17.647
816.32	22.917
816.62	-9.756
816.93	-8.108
817.23	-17.143
817.53	27.083
817.84	4.348
818.14	3.846
818.44	-28.947
818.74	23.913
819.04	-37.500
819.35	27.027
819.65	-17.647
819.95	8.333
820.25	19.048
820.56	37.500
820.86	-41.379
821.16	15.000
821.46	4.255
821.76	17.500
822.07	-11.628
822.37	2.703
822.67	-18.750
822.97	30.952
823.27	10.714
823.57	-16.000
823.88	-25.926
824.18	-10.714
824.48	-5.882
824.78	-6.452
825.08	-8.696
825.38	-24.242
825.69	-50.000
825.99	-13.158
826.29	0.000
826.59	-60.000
826.89	-76.190
827.19	10.870
827.49	-15.000
827.79	-8.571
828.09	-3.571
828.39	-6.061
828.70	21.622
829.00	-25.000
829.30	-19.048
829.60	3.333
829.90	15.625
830.20	-10.526
830.50	-11.111
830.80	-13.043
831.10	-45.455
831.40	27.273
831.70	22.581
832.00	28.571
832.30	0.000
832.60	-8.333
832.90	13.793
833.20	-35.000
833.50	21.212
833.80	11.111
834.10	-19.231
834.40	12.500
834.70	-33.333
835.00	-68.421
835.30	3.846
835.60	20.000
835.90	12.903
836.20	-31.818
836.50	17.857
836.80	-11.538
837.10	-7.143
837.40	-366.667
837.70	9.091
838.00	-90.909
838.30	21.739
838.60	-53.846
838.90	-22.727
839.19	0.000
839.49	-13.333
839.79	-61.538
840.09	-100.000
840.39	42.857
840.69	14.286
840.99	-26.923
841.29	-42.105
841.59	-140.000
841.88	-18.182
842.18	-40.000
842.48	-25.000
842.78	-33.333
843.08	-11.111
843.38	-200.000
843.68	-47.826
843.97	-20.000
844.27	-106.667
844.57	-10.000
844.87	-38.889
845.17	-33.333
845.47	6.667
845.76	-19.048
846.06	58.824
846.36	-50.000
846.66	-71.429
846.96	-80.000
847.25	-175.000
847.55	-7.143
847.85	-12.500
848.15	-31.818
848.44	-633.333
848.74	-45.000
849.04	22.222
849.34	-18.182
849.63	-133.333
849.93	-280.000
850.23	16.667
850.53	20.000
850.82	-69.231
851.12	-11.111
851.42	0.000
851.71	-34.615
852.01	14.286
852.31	-525.000
852.61	-90.909
852.90	-30.000
853.20	-47.368
853.50	-25.000
853.79	-26.087
854.09	20.833
854.39	-26.316
854.68	-25.000
854.98	41.935
855.28	11.538
855.57	0.000
855.87	-44.444
856.17	0.000
856.46	-21.429
856.76	-20.000
857.05	11.111
857.35	32.000
857.65	-44.444
857.94	-23.077
858.24	51.724
858.53	-44.444
858.83	0.000
859.13	-18.182
859.42	-13.043
859.72	-50.000
860.01	-466.667
860.31	32.000
860.60	-38.095
860.90	-333.333
861.20	-80.000
861.49	-400.000
861.79	-6.667
862.08	50.000
862.38	60.000
862.67	-160.000
862.97	-83.333
863.26	-108.333
863.56	16.667
863.85	-433.333
864.15	5.556
864.44	-40.000
864.74	-50.000
865.03	475.000
865.33	-260.000
865.62	50.000
865.92	8.333
866.21	-250.000
866.51	0.000
866.80	-45.455
867.10	-300.000
867.39	-8.333
867.69	0.000
867.98	-53.846
868.27	-133.333
868.57	53.333
868.86	-27.778
869.16	-115.385
869.45	60.000
869.75	-900.000
870.04	0.000
870.33	-57.143
870.63	23.810
870.92	600.000
871.22	-240.000
871.51	-1000.000
871.80	-77.778
872.10	200.000
>>>>>End Processed Spectral Data<<<<<
