SpectraSuite Data File
++++++++++++++++++++++++++++++++++++
Date: Fri May 15 21:00:38 PDT 2015
User: schluterlab
Dark Spectrum Present: Yes
Reference Spectrum Present: Yes
Number of Sampled Component Spectra: 1
Spectrometers: USB2E3373
Integration Time (usec): 3000 (USB2E3373)
Spectra Averaged: 3 (USB2E3373)
Boxcar Smoothing: 0 (USB2E3373)
Correct for Electrical Dark: No (USB2E3373)
Strobe/Lamp Enabled: No (USB2E3373)
Correct for Detector Non-linearity: No (USB2E3373)
Correct for Stray Light: No (USB2E3373)
Number of Pixels in Processed Spectrum: 2048
>>>>>Begin Processed Spectral Data<<<<<
178.53	0.000
178.91	0.000
179.29	0.000
179.67	-750.000
180.04	157.143
180.42	0.000
180.80	-400.000
181.18	233.333
181.56	900.000
181.94	-150.000
182.31	300.000
182.69	-20.000
183.07	-66.667
183.45	-320.000
183.83	166.667
184.20	-118.182
184.58	66.667
184.96	200.000
185.34	266.667
185.72	-550.000
186.09	7.692
186.47	-1200.000
186.85	233.333
187.23	233.333
187.61	1200.000
187.98	-233.333
188.36	66.667
188.74	-366.667
189.12	-29.412
189.49	-16.667
189.87	0.000
190.25	-21.429
190.63	-50.000
191.00	-233.333
191.38	-21.053
191.76	300.000
192.14	100.000
192.51	-200.000
192.89	-33.333
193.27	-100.000
193.65	316.667
194.02	181.818
194.40	80.000
194.78	-200.000
195.15	-50.000
195.53	-125.000
195.91	100.000
196.29	-75.000
196.66	69.231
197.04	214.286
197.42	-55.556
197.79	-400.000
198.17	-61.538
198.55	1400.000
198.92	-433.333
199.30	-1600.000
199.68	-140.000
200.05	-233.333
200.43	0.000
200.81	-33.333
201.18	-500.000
201.56	1700.000
201.94	-400.000
202.31	133.333
202.69	-220.000
203.07	500.000
203.44	600.000
203.82	0.000
204.19	21.429
204.57	-366.667
204.95	87.500
205.32	-20.000
205.70	-114.286
206.08	-50.000
206.45	188.889
206.83	-7.143
207.20	-57.143
207.58	500.000
207.96	-233.333
208.33	-130.000
208.71	-50.000
209.08	-216.667
209.46	-1400.000
209.84	-20.000
210.21	-1200.000
210.59	-185.714
210.96	-66.667
211.34	-125.000
211.71	-26.667
212.09	-128.571
212.46	-1400.000
212.84	0.000
213.22	150.000
213.59	850.000
213.97	0.000
214.34	-18.182
214.72	-33.333
215.09	475.000
215.47	0.000
215.84	-36.364
216.22	-200.000
216.59	-125.000
216.97	-100.000
217.34	-150.000
217.72	-160.000
218.09	37.500
218.47	162.500
218.84	-1400.000
219.22	-88.889
219.59	-320.000
219.97	66.667
220.34	525.000
220.72	42.857
221.09	-150.000
221.47	-350.000
221.84	-600.000
222.22	-1300.000
222.59	36.364
222.97	8.333
223.34	-433.333
223.72	0.000
224.09	19.048
224.46	3.571
224.84	166.667
225.21	-110.000
225.59	-13.333
225.96	-450.000
226.34	275.000
226.71	0.000
227.08	-33.333
227.46	-137.500
227.83	-750.000
228.21	-22.222
228.58	-45.455
228.95	-25.000
229.33	110.000
229.70	-18.750
230.08	-162.500
230.45	-128.571
230.82	-85.714
231.20	-40.000
231.57	14.286
231.95	-114.286
232.32	-230.000
232.69	21.429
233.07	-33.333
233.44	0.000
233.81	-100.000
234.19	-111.111
234.56	-5.882
234.93	300.000
235.31	100.000
235.68	-260.000
236.05	-92.308
236.43	-20.000
236.80	5.882
237.17	-3.125
237.55	10.000
237.92	-18.519
238.29	-11.111
238.67	-23.333
239.04	-17.647
239.41	-12.195
239.79	-16.667
240.16	12.195
240.53	-15.789
240.91	-13.043
241.28	4.762
241.65	14.286
242.02	16.438
242.40	0.000
242.77	11.864
243.14	-1.515
243.51	8.750
243.89	21.839
244.26	1.149
244.63	13.095
245.00	5.155
245.38	3.093
245.75	-14.607
246.12	7.759
246.49	14.876
246.87	15.385
247.24	8.403
247.61	9.649
247.98	2.439
248.36	10.000
248.73	15.132
249.10	12.338
249.47	6.962
249.84	17.647
250.22	15.294
250.59	13.072
250.96	16.901
251.33	12.791
251.70	8.824
252.08	17.259
252.45	8.911
252.82	16.583
253.19	17.972
253.56	10.280
253.94	18.018
254.31	16.087
254.68	13.596
255.05	13.780
255.42	10.917
255.79	16.602
256.16	18.288
256.54	17.537
256.91	11.027
257.28	14.870
257.65	14.232
258.02	15.603
258.39	13.805
258.76	16.850
259.14	17.608
259.51	17.799
259.88	13.402
260.25	10.131
260.62	15.972
260.99	15.932
261.36	10.274
261.73	20.253
262.10	16.109
262.47	14.417
262.85	13.480
263.22	15.385
263.59	14.330
263.96	17.702
264.33	16.364
264.70	13.393
265.07	12.798
265.44	16.714
265.81	17.232
266.18	15.574
266.55	16.452
266.92	15.544
267.29	17.232
267.66	14.834
268.03	16.230
268.40	16.710
268.77	16.578
269.14	15.827
269.51	15.938
269.88	13.965
270.25	16.071
270.62	16.829
270.99	14.578
271.36	13.936
271.73	15.728
272.10	17.275
272.47	16.785
272.84	13.861
273.21	16.705
273.58	17.108
273.95	17.849
274.32	12.933
274.69	15.611
275.06	16.741
275.43	14.512
275.80	14.349
276.17	13.563
276.54	16.916
276.91	15.570
277.28	13.319
277.65	16.736
278.02	15.319
278.39	15.098
278.76	15.933
279.13	12.448
279.50	17.227
279.87	15.119
280.23	15.699
280.60	17.934
280.97	14.949
281.34	15.577
281.71	16.427
282.08	13.497
282.45	14.286
282.82	13.514
283.19	16.441
283.56	15.800
283.92	15.370
284.29	13.846
284.66	14.147
285.03	14.342
285.40	14.367
285.77	14.060
286.14	14.079
286.51	15.683
286.87	13.163
287.24	15.285
287.61	13.051
287.98	15.789
288.35	14.558
288.72	17.163
289.08	13.889
289.45	14.060
289.82	12.937
290.19	13.652
290.56	11.149
290.93	12.458
291.29	13.097
291.66	12.756
292.03	13.238
292.40	10.806
292.77	10.526
293.13	11.201
293.50	11.533
293.87	12.824
294.24	10.819
294.60	11.177
294.97	12.798
295.34	13.804
295.71	10.581
296.08	12.855
296.44	10.811
296.81	12.500
297.18	11.014
297.55	11.653
297.91	12.055
298.28	13.325
298.65	10.719
299.02	10.108
299.38	9.986
299.75	10.621
300.12	8.639
300.48	10.408
300.85	10.139
301.22	10.909
301.59	10.395
301.95	10.886
302.32	12.062
302.69	9.826
303.05	9.530
303.42	10.461
303.79	11.215
304.15	10.394
304.52	9.631
304.89	9.942
305.25	9.927
305.62	9.918
305.99	9.357
306.35	9.249
306.72	9.561
307.09	9.350
307.45	9.644
307.82	9.838
308.19	10.453
308.55	9.597
308.92	11.547
309.29	9.609
309.65	9.473
310.02	9.681
310.38	9.879
310.75	9.180
311.12	9.365
311.48	9.862
311.85	10.157
312.22	9.388
312.58	9.448
312.95	9.392
313.31	9.006
313.68	10.262
314.05	9.592
314.41	10.722
314.78	9.278
315.14	10.277
315.51	10.352
315.87	9.016
316.24	10.617
316.61	10.039
316.97	10.218
317.34	9.863
317.70	9.656
318.07	9.135
318.43	10.196
318.80	10.227
319.16	11.035
319.53	10.161
319.89	10.433
320.26	10.526
320.62	11.434
320.99	8.455
321.35	10.586
321.72	12.253
322.08	9.466
322.45	10.254
322.81	10.216
323.18	9.912
323.54	9.942
323.91	7.984
324.27	10.059
324.64	10.019
325.00	9.854
325.37	11.203
325.73	9.791
326.10	10.354
326.46	11.211
326.83	10.674
327.19	9.852
327.56	10.078
327.92	10.651
328.29	10.179
328.65	9.434
329.01	11.121
329.38	11.613
329.74	10.104
330.11	10.751
330.47	9.833
330.84	9.615
331.20	10.646
331.56	11.111
331.93	9.589
332.29	10.449
332.66	9.683
333.02	9.944
333.38	9.899
333.75	11.447
334.11	10.027
334.48	10.970
334.84	10.440
335.20	10.613
335.57	9.157
335.93	9.395
336.29	9.669
336.66	9.537
337.02	9.572
337.38	8.241
337.75	9.818
338.11	10.189
338.47	9.945
338.84	9.889
339.20	9.232
339.56	10.183
339.93	10.116
340.29	10.826
340.65	10.305
341.02	9.397
341.38	9.204
341.74	9.629
342.11	9.012
342.47	9.875
342.83	9.775
343.20	9.233
343.56	9.826
343.92	10.806
344.28	9.735
344.65	9.326
345.01	9.853
345.37	9.840
345.73	10.293
346.10	9.836
346.46	10.008
346.82	9.165
347.19	8.728
347.55	8.855
347.91	9.871
348.27	9.135
348.63	10.477
349.00	8.203
349.36	9.726
349.72	9.784
350.08	9.918
350.45	9.976
350.81	9.136
351.17	8.713
351.53	9.714
351.89	8.505
352.26	9.760
352.62	9.597
352.98	9.076
353.34	9.903
353.70	9.790
354.07	8.710
354.43	8.887
354.79	9.414
355.15	10.476
355.51	10.047
355.87	9.385
356.24	7.993
356.60	8.892
356.96	10.635
357.32	9.345
357.68	8.679
358.04	8.724
358.40	8.441
358.77	9.809
359.13	8.887
359.49	9.630
359.85	9.516
360.21	9.250
360.57	9.028
360.93	9.985
361.29	9.366
361.66	9.091
362.02	9.318
362.38	9.901
362.74	9.160
363.10	9.180
363.46	9.118
363.82	10.443
364.18	9.151
364.54	8.897
364.90	8.746
365.26	8.297
365.62	9.051
365.98	9.604
366.35	9.323
366.71	9.313
367.07	10.087
367.43	8.555
367.79	9.470
368.15	9.117
368.51	9.395
368.87	8.471
369.23	8.592
369.59	8.746
369.95	8.578
370.31	9.176
370.67	8.209
371.03	8.364
371.39	8.169
371.75	8.645
372.11	9.415
372.47	8.802
372.83	9.226
373.19	8.702
373.55	7.148
373.91	8.567
374.27	8.646
374.63	8.973
374.99	8.723
375.35	8.287
375.71	8.671
376.07	8.146
376.42	8.095
376.78	9.262
377.14	9.208
377.50	8.101
377.86	8.233
378.22	8.998
378.58	8.718
378.94	8.129
379.30	8.422
379.66	9.781
380.02	7.725
380.38	8.338
380.74	7.600
381.09	8.957
381.45	8.502
381.81	8.945
382.17	9.074
382.53	8.370
382.89	8.851
383.25	8.961
383.61	9.268
383.97	7.556
384.32	8.818
384.68	8.359
385.04	7.598
385.40	7.965
385.76	9.434
386.12	8.668
386.48	9.068
386.83	7.483
387.19	8.547
387.55	9.222
387.91	8.496
388.27	9.280
388.62	8.433
388.98	8.471
389.34	8.307
389.70	8.452
390.06	7.615
390.42	7.707
390.77	8.175
391.13	8.008
391.49	8.279
391.85	8.837
392.20	8.098
392.56	7.565
392.92	8.749
393.28	7.901
393.64	8.589
393.99	9.467
394.35	7.970
394.71	9.323
395.07	8.297
395.42	8.136
395.78	8.664
396.14	8.386
396.50	8.117
396.85	8.113
397.21	8.208
397.57	8.840
397.92	7.969
398.28	8.851
398.64	7.590
399.00	8.465
399.35	7.731
399.71	8.558
400.07	8.706
400.42	8.629
400.78	9.369
401.14	9.014
401.49	8.636
401.85	8.470
402.21	8.614
402.57	8.438
402.92	7.842
403.28	8.208
403.63	8.512
403.99	7.844
404.35	9.244
404.70	8.631
405.06	8.108
405.42	8.266
405.77	8.077
406.13	7.974
406.49	8.644
406.84	8.313
407.20	9.272
407.55	8.113
407.91	8.489
408.27	8.413
408.62	8.738
408.98	8.626
409.34	8.612
409.69	8.463
410.05	8.621
410.40	8.642
410.76	9.107
411.11	8.500
411.47	8.547
411.83	7.345
412.18	8.752
412.54	8.614
412.89	8.374
413.25	8.604
413.60	8.758
413.96	8.098
414.31	8.963
414.67	8.275
415.03	8.522
415.38	9.008
415.74	7.883
416.09	9.340
416.45	8.373
416.80	8.394
417.16	8.494
417.51	8.328
417.87	8.605
418.22	8.808
418.58	7.559
418.93	9.279
419.29	7.939
419.64	8.231
420.00	9.131
420.35	8.657
420.71	8.384
421.06	8.717
421.42	9.014
421.77	8.439
422.12	7.832
422.48	8.554
422.83	8.469
423.19	8.804
423.54	7.878
423.90	8.481
424.25	8.840
424.61	9.608
424.96	8.827
425.31	9.243
425.67	8.627
426.02	9.128
426.38	8.078
426.73	8.777
427.09	9.304
427.44	8.529
427.79	8.662
428.15	9.527
428.50	8.237
428.85	7.985
429.21	9.225
429.56	9.003
429.92	9.091
430.27	9.273
430.62	8.050
430.98	8.652
431.33	9.096
431.68	8.373
432.04	8.496
432.39	8.557
432.74	8.599
433.10	9.023
433.45	8.244
433.80	8.706
434.16	8.310
434.51	8.548
434.86	8.711
435.22	8.749
435.57	9.295
435.92	9.281
436.28	8.587
436.63	7.815
436.98	8.111
437.34	7.623
437.69	8.766
438.04	8.889
438.39	8.613
438.75	8.318
439.10	9.338
439.45	8.460
439.81	7.890
440.16	9.264
440.51	9.970
440.86	9.547
441.22	8.937
441.57	9.051
441.92	9.234
442.27	8.481
442.63	9.636
442.98	9.362
443.33	8.570
443.68	8.594
444.03	9.588
444.39	8.903
444.74	9.810
445.09	9.354
445.44	9.516
445.79	10.108
446.15	8.700
446.50	8.652
446.85	9.245
447.20	8.863
447.55	10.268
447.91	9.983
448.26	9.846
448.61	9.442
448.96	9.753
449.31	9.249
449.66	9.350
450.02	9.755
450.37	9.781
450.72	9.221
451.07	9.557
451.42	10.112
451.77	10.368
452.12	9.809
452.47	9.079
452.83	9.658
453.18	9.488
453.53	9.418
453.88	9.654
454.23	9.711
454.58	9.698
454.93	10.374
455.28	8.762
455.63	10.105
455.98	9.982
456.34	10.089
456.69	10.102
457.04	10.775
457.39	10.146
457.74	9.794
458.09	9.712
458.44	9.830
458.79	9.580
459.14	10.526
459.49	10.806
459.84	9.870
460.19	9.648
460.54	10.880
460.89	10.625
461.24	10.435
461.59	10.926
461.94	10.440
462.29	9.831
462.64	9.967
462.99	9.682
463.34	10.918
463.69	10.103
464.04	10.230
464.39	9.703
464.74	10.613
465.09	10.231
465.44	10.214
465.79	10.261
466.14	10.319
466.49	9.776
466.84	10.351
467.19	10.075
467.54	10.600
467.89	10.297
468.24	10.036
468.59	11.238
468.94	9.778
469.29	11.082
469.64	11.141
469.99	11.212
470.34	9.966
470.68	11.484
471.03	11.394
471.38	10.057
471.73	10.504
472.08	10.583
472.43	10.201
472.78	10.487
473.13	10.204
473.48	11.010
473.83	10.461
474.17	11.917
474.52	10.913
474.87	11.030
475.22	10.250
475.57	10.220
475.92	11.355
476.27	11.350
476.61	11.169
476.96	10.708
477.31	11.466
477.66	10.000
478.01	10.837
478.36	11.329
478.70	11.202
479.05	10.495
479.40	11.500
479.75	10.532
480.10	10.855
480.45	10.250
480.79	11.984
481.14	11.066
481.49	11.084
481.84	10.956
482.19	10.103
482.53	10.983
482.88	11.551
483.23	11.036
483.58	10.849
483.92	11.084
484.27	10.438
484.62	11.071
484.97	10.489
485.31	10.441
485.66	9.592
486.01	9.586
486.36	9.231
486.70	9.676
487.05	10.141
487.40	10.315
487.75	10.000
488.09	9.951
488.44	10.282
488.79	10.422
489.13	10.857
489.48	10.817
489.83	10.583
490.17	10.787
490.52	11.363
490.87	11.522
491.22	11.700
491.56	11.860
491.91	11.424
492.26	12.105
492.60	11.372
492.95	11.363
493.30	11.187
493.64	11.935
493.99	12.077
494.34	10.971
494.68	11.714
495.03	11.095
495.37	11.384
495.72	11.459
496.07	11.659
496.41	11.604
496.76	10.917
497.11	11.504
497.45	11.456
497.80	11.655
498.14	11.823
498.49	11.579
498.84	12.275
499.18	11.195
499.53	11.706
499.87	11.381
500.22	12.265
500.56	11.599
500.91	11.245
501.26	11.567
501.60	12.051
501.95	11.499
502.29	11.574
502.64	11.052
502.98	11.988
503.33	11.191
503.67	11.759
504.02	11.730
504.36	12.370
504.71	11.818
505.06	11.978
505.40	11.878
505.75	11.701
506.09	12.164
506.44	12.834
506.78	11.786
507.13	12.461
507.47	11.384
507.82	11.966
508.16	11.886
508.51	12.120
508.85	11.774
509.19	12.241
509.54	12.493
509.88	11.543
510.23	12.265
510.57	12.346
510.92	11.887
511.26	12.384
511.61	12.376
511.95	12.110
512.30	12.029
512.64	12.243
512.98	12.016
513.33	12.759
513.67	12.848
514.02	13.330
514.36	13.600
514.70	13.403
515.05	13.807
515.39	12.279
515.74	13.772
516.08	13.568
516.42	13.899
516.77	13.049
517.11	12.938
517.46	13.645
517.80	13.647
518.14	13.288
518.49	12.921
518.83	12.394
519.17	12.432
519.52	12.848
519.86	13.265
520.20	13.426
520.55	12.195
520.89	13.927
521.23	13.490
521.58	13.817
521.92	14.038
522.26	13.598
522.61	13.442
522.95	14.570
523.29	13.787
523.64	13.532
523.98	14.517
524.32	13.466
524.66	14.341
525.01	13.831
525.35	14.128
525.69	13.939
526.04	13.161
526.38	15.110
526.72	13.734
527.06	13.230
527.41	13.654
527.75	13.472
528.09	13.621
528.43	14.855
528.78	13.003
529.12	14.065
529.46	12.541
529.80	13.933
530.15	14.587
530.49	13.805
530.83	13.953
531.17	13.902
531.51	13.817
531.86	12.916
532.20	13.222
532.54	14.432
532.88	13.963
533.22	13.172
533.57	12.975
533.91	13.969
534.25	13.411
534.59	13.214
534.93	13.279
535.27	13.198
535.62	13.480
535.96	13.960
536.30	13.522
536.64	14.128
536.98	12.962
537.32	15.078
537.66	14.656
538.01	13.846
538.35	14.078
538.69	14.581
539.03	13.397
539.37	13.930
539.71	13.838
540.05	13.781
540.39	13.989
540.73	14.156
541.07	14.710
541.42	14.113
541.76	14.453
542.10	13.214
542.44	14.107
542.78	12.663
543.12	13.187
543.46	13.491
543.80	14.434
544.14	13.351
544.48	14.590
544.82	13.534
545.16	14.344
545.50	13.818
545.84	14.164
546.18	14.965
546.52	14.564
546.86	13.659
547.20	13.948
547.54	13.993
547.88	14.470
548.22	13.478
548.56	13.391
548.90	14.488
549.24	13.499
549.58	14.104
549.92	13.367
550.26	13.846
550.60	14.201
550.94	14.414
551.28	15.147
551.62	15.769
551.96	14.586
552.30	13.816
552.64	14.175
552.98	13.924
553.32	14.622
553.66	13.933
554.00	14.161
554.34	15.140
554.68	14.528
555.02	14.732
555.36	13.762
555.69	12.747
556.03	13.062
556.37	13.523
556.71	14.368
557.05	14.467
557.39	14.052
557.73	14.093
558.07	15.460
558.41	15.008
558.75	13.874
559.08	14.578
559.42	13.889
559.76	14.892
560.10	13.838
560.44	13.701
560.78	15.175
561.12	13.963
561.45	14.336
561.79	14.566
562.13	13.130
562.47	13.741
562.81	14.265
563.15	15.162
563.48	14.003
563.82	14.001
564.16	14.415
564.50	13.446
564.84	15.060
565.17	13.816
565.51	13.934
565.85	15.021
566.19	13.992
566.52	13.874
566.86	13.946
567.20	13.325
567.54	12.287
567.88	13.884
568.21	13.631
568.55	13.043
568.89	12.885
569.23	12.470
569.56	12.434
569.90	12.464
570.24	12.244
570.57	11.855
570.91	11.851
571.25	11.246
571.59	11.243
571.92	11.111
572.26	10.719
572.60	11.225
572.93	10.951
573.27	10.846
573.61	11.277
573.95	10.814
574.28	10.620
574.62	10.628
574.96	10.845
575.29	10.853
575.63	10.495
575.97	10.924
576.30	10.964
576.64	10.411
576.98	10.785
577.31	10.469
577.65	10.619
577.98	10.566
578.32	10.198
578.66	10.144
578.99	10.342
579.33	10.117
579.67	10.548
580.00	10.911
580.34	10.697
580.67	10.435
581.01	10.423
581.35	10.121
581.68	10.116
582.02	9.818
582.35	9.879
582.69	10.148
583.02	10.126
583.36	10.480
583.70	10.826
584.03	10.509
584.37	10.926
584.70	10.604
585.04	10.648
585.37	11.007
585.71	10.318
586.04	10.414
586.38	10.509
586.72	10.760
587.05	10.861
587.39	10.847
587.72	11.318
588.06	10.435
588.39	10.681
588.73	11.172
589.06	11.611
589.40	11.649
589.73	11.318
590.07	11.254
590.40	11.765
590.73	11.779
591.07	12.002
591.40	12.289
591.74	11.900
592.07	11.827
592.41	11.837
592.74	12.107
593.08	10.863
593.41	11.598
593.75	11.318
594.08	10.573
594.41	11.463
594.75	11.412
595.08	11.578
595.42	11.483
595.75	12.092
596.09	11.532
596.42	12.195
596.75	12.877
597.09	12.164
597.42	12.285
597.75	11.864
598.09	11.951
598.42	12.681
598.76	12.055
599.09	11.579
599.42	11.330
599.76	11.550
600.09	10.935
600.42	11.372
600.76	11.404
601.09	11.031
601.42	11.320
601.76	11.314
602.09	11.345
602.42	12.384
602.76	12.139
603.09	12.209
603.42	12.375
603.76	11.653
604.09	11.219
604.42	11.971
604.76	12.283
605.09	12.066
605.42	12.280
605.75	11.296
606.09	12.144
606.42	11.635
606.75	11.991
607.09	12.659
607.42	11.874
607.75	11.856
608.08	11.590
608.42	12.837
608.75	12.578
609.08	12.755
609.41	12.538
609.75	12.601
610.08	12.731
610.41	12.174
610.74	12.433
611.07	12.351
611.41	12.247
611.74	12.900
612.07	12.473
612.40	12.910
612.73	12.768
613.07	13.048
613.40	12.527
613.73	12.255
614.06	13.244
614.39	12.916
614.72	12.661
615.06	13.464
615.39	13.373
615.72	12.540
616.05	13.464
616.38	12.877
616.71	13.333
617.05	13.033
617.38	13.074
617.71	13.899
618.04	13.079
618.37	14.439
618.70	13.597
619.03	14.861
619.36	12.735
619.69	13.950
620.03	15.267
620.36	14.378
620.69	13.776
621.02	15.291
621.35	15.934
621.68	15.816
622.01	14.750
622.34	15.084
622.67	15.931
623.00	14.012
623.33	14.558
623.66	13.762
623.99	14.750
624.32	15.057
624.65	13.835
624.99	14.748
625.32	13.798
625.65	15.240
625.98	14.827
626.31	14.547
626.64	16.205
626.97	15.620
627.30	16.287
627.63	16.378
627.96	17.430
628.29	16.559
628.62	16.519
628.95	16.032
629.28	17.339
629.61	16.849
629.94	16.911
630.26	16.008
630.59	17.482
630.92	16.410
631.25	16.718
631.58	17.621
631.91	17.434
632.24	15.596
632.57	18.977
632.90	16.963
633.23	17.176
633.56	19.018
633.89	16.893
634.22	18.148
634.55	17.281
634.88	16.986
635.20	18.077
635.53	18.667
635.86	18.205
636.19	19.534
636.52	18.240
636.85	16.749
637.18	17.484
637.51	18.491
637.83	17.346
638.16	18.963
638.49	17.984
638.82	19.342
639.15	17.639
639.48	18.432
639.81	19.386
640.13	17.605
640.46	18.950
640.79	17.378
641.12	17.578
641.45	17.417
641.77	20.148
642.10	21.959
642.43	19.936
642.76	17.822
643.09	20.517
643.41	19.417
643.74	20.099
644.07	22.003
644.40	22.466
644.73	21.541
645.05	20.134
645.38	22.046
645.71	18.085
646.04	22.262
646.36	18.972
646.69	21.043
647.02	20.605
647.35	19.030
647.67	19.196
648.00	21.082
648.33	20.307
648.66	19.322
648.98	19.430
649.31	16.198
649.64	17.425
649.96	17.504
650.29	20.613
650.62	20.513
650.94	21.296
651.27	18.436
651.60	20.360
651.92	18.357
652.25	19.005
652.58	21.167
652.90	21.612
653.23	21.513
653.56	19.289
653.88	17.526
654.21	19.089
654.54	19.525
654.86	19.355
655.19	17.105
655.52	14.164
655.84	9.869
656.17	10.091
656.49	13.438
656.82	13.910
657.15	10.880
657.47	8.304
657.80	6.220
658.13	6.316
658.45	9.787
658.78	10.195
659.10	9.905
659.43	10.741
659.75	11.889
660.08	12.000
660.41	16.343
660.73	17.956
661.06	18.891
661.38	20.548
661.71	18.891
662.03	20.601
662.36	22.198
662.68	19.912
663.01	22.707
663.33	23.666
663.66	20.698
663.98	17.674
664.31	21.322
664.63	21.659
664.96	18.913
665.28	19.205
665.61	21.861
665.93	21.522
666.26	21.041
666.58	19.463
666.91	20.000
667.23	22.406
667.56	20.142
667.88	19.904
668.21	22.912
668.53	21.040
668.86	21.934
669.18	19.340
669.50	19.613
669.83	21.860
670.15	19.114
670.48	19.617
670.80	21.198
671.13	19.463
671.45	19.178
671.77	22.318
672.10	18.614
672.42	18.539
672.75	21.137
673.07	20.215
673.39	20.183
673.72	17.751
674.04	19.583
674.37	19.068
674.69	17.773
675.01	21.111
675.34	21.396
675.66	20.370
675.98	21.729
676.31	18.349
676.63	21.140
676.95	22.045
677.28	23.529
677.60	22.892
677.92	19.725
678.25	17.287
678.57	17.965
678.89	18.067
679.22	19.687
679.54	18.072
679.86	18.489
680.18	18.641
680.51	18.561
680.83	17.097
681.15	20.200
681.48	21.107
681.80	19.215
682.12	19.758
682.44	17.155
682.77	19.647
683.09	18.078
683.41	18.864
683.73	19.585
684.06	19.690
684.38	17.419
684.70	18.736
685.02	16.805
685.34	17.391
685.67	17.636
685.99	17.722
686.31	15.575
686.63	18.924
686.96	16.920
687.28	14.545
687.60	17.490
687.92	19.596
688.24	17.742
688.56	19.869
688.89	18.304
689.21	20.000
689.53	18.329
689.85	20.000
690.17	18.973
690.49	18.676
690.82	19.417
691.14	19.048
691.46	21.028
691.78	19.144
692.10	19.140
692.42	17.749
692.74	19.872
693.06	18.694
693.39	17.195
693.71	21.041
694.03	17.552
694.35	16.121
694.67	19.697
694.99	19.321
695.31	24.543
695.63	21.500
695.95	18.182
696.27	21.244
696.59	18.333
696.91	24.650
697.23	20.308
697.56	19.554
697.88	19.785
698.20	17.768
698.52	18.588
698.84	16.507
699.16	16.000
699.48	17.293
699.80	21.340
700.12	17.520
700.44	24.370
700.76	20.930
701.08	20.000
701.40	20.181
701.72	23.765
702.04	20.792
702.36	22.742
702.68	18.919
703.00	17.576
703.32	19.062
703.64	22.599
703.96	21.739
704.28	19.632
704.60	18.730
704.91	19.874
705.23	20.598
705.55	25.442
705.87	27.437
706.19	21.481
706.51	20.619
706.83	25.080
707.15	13.084
707.47	19.888
707.79	15.365
708.11	19.000
708.43	18.000
708.74	20.155
709.06	19.437
709.38	21.407
709.70	22.189
710.02	21.656
710.34	20.433
710.66	18.269
710.98	18.212
711.29	20.656
711.61	17.627
711.93	18.241
712.25	22.337
712.57	19.048
712.89	22.388
713.20	20.761
713.52	22.300
713.84	22.526
714.16	20.962
714.48	17.419
714.80	18.910
715.11	18.845
715.43	12.539
715.75	23.000
716.07	17.608
716.39	20.470
716.70	18.819
717.02	22.901
717.34	27.530
717.66	18.142
717.97	18.696
718.29	17.155
718.61	20.472
718.93	19.380
719.24	15.589
719.56	18.072
719.88	18.557
720.20	19.318
720.51	18.774
720.83	18.147
721.15	20.168
721.46	17.742
721.78	17.787
722.10	18.216
722.42	15.768
722.73	19.592
723.05	25.306
723.37	24.576
723.68	28.378
724.00	20.513
724.32	20.000
724.63	20.455
724.95	16.157
725.27	22.120
725.58	22.881
725.90	13.889
726.22	19.305
726.53	19.661
726.85	21.723
727.16	20.755
727.48	15.789
727.80	20.648
728.11	18.220
728.43	19.216
728.74	18.145
729.06	22.800
729.38	19.549
729.69	16.335
730.01	16.154
730.32	22.015
730.64	18.021
730.96	18.491
731.27	18.333
731.59	14.915
731.90	17.834
732.22	18.297
732.53	18.272
732.85	18.440
733.16	19.865
733.48	12.590
733.80	14.493
734.11	17.627
734.43	17.869
734.74	16.364
735.06	11.726
735.37	15.710
735.69	16.498
736.00	18.118
736.32	17.450
736.63	16.197
736.95	15.358
737.26	12.456
737.58	16.107
737.89	16.117
738.21	13.910
738.52	18.519
738.83	17.904
739.15	17.031
739.46	17.717
739.78	13.919
740.09	15.359
740.41	17.391
740.72	15.354
741.04	19.433
741.35	15.745
741.66	21.801
741.98	15.306
742.29	19.802
742.61	20.419
742.92	14.218
743.23	18.519
743.55	19.457
743.86	19.139
744.18	19.139
744.49	17.021
744.80	14.130
745.12	20.856
745.43	16.585
745.74	22.396
746.06	19.512
746.37	21.466
746.68	24.171
747.00	13.298
747.31	22.388
747.62	12.136
747.94	19.139
748.25	18.812
748.56	17.486
748.88	19.372
749.19	20.213
749.50	19.704
749.82	13.679
750.13	12.844
750.44	20.677
750.75	17.537
751.07	19.343
751.38	22.989
751.69	14.902
752.01	15.891
752.32	22.709
752.63	14.229
752.94	14.655
753.26	23.013
753.57	17.647
753.88	15.487
754.19	16.250
754.51	14.463
754.82	17.409
755.13	21.250
755.44	16.129
755.75	12.891
756.07	15.564
756.38	13.585
756.69	11.877
757.00	17.333
757.31	14.052
757.63	14.329
757.94	14.722
758.25	13.425
758.56	14.894
758.87	14.448
759.18	13.084
759.50	10.182
759.81	14.716
760.12	11.935
760.43	10.000
760.74	15.123
761.05	14.154
761.36	13.920
761.67	16.970
761.99	17.347
762.30	13.818
762.61	18.577
762.92	14.027
763.23	18.468
763.54	14.019
763.85	15.254
764.16	11.618
764.47	15.323
764.78	14.286
765.10	17.172
765.41	14.511
765.72	13.968
766.03	8.271
766.34	11.679
766.65	19.522
766.96	16.667
767.27	16.489
767.58	16.667
767.89	14.894
768.20	15.909
768.51	13.187
768.82	12.808
769.13	15.207
769.44	13.734
769.75	11.872
770.06	15.086
770.37	20.673
770.68	14.721
770.99	13.575
771.30	13.235
771.61	14.027
771.92	14.655
772.23	13.300
772.54	16.667
772.85	17.901
773.16	17.416
773.47	18.301
773.78	14.379
774.09	23.353
774.39	13.333
774.70	15.287
775.01	15.862
775.32	12.857
775.63	14.876
775.94	19.847
776.25	23.622
776.56	11.667
776.87	16.346
777.18	21.368
777.48	17.241
777.79	14.783
778.10	1.905
778.41	15.315
778.72	17.460
779.03	15.789
779.34	19.858
779.65	16.438
779.95	9.589
780.26	15.862
780.57	8.943
780.88	8.661
781.19	19.828
781.50	21.705
781.80	19.527
782.11	13.208
782.42	15.385
782.73	17.266
783.04	14.815
783.34	15.278
783.65	7.692
783.96	13.115
784.27	21.379
784.57	8.943
784.88	16.406
785.19	18.000
785.50	18.000
785.81	14.655
786.11	9.483
786.42	25.243
786.73	20.000
787.04	17.347
787.34	11.607
787.65	14.286
787.96	5.310
788.26	11.818
788.57	9.402
788.88	17.969
789.19	12.698
789.49	15.652
789.80	10.204
790.11	15.152
790.41	4.545
790.72	10.870
791.03	18.182
791.33	10.000
791.64	13.750
791.95	2.326
792.25	12.766
792.56	11.236
792.87	-1.370
793.17	21.739
793.48	14.667
793.79	17.500
794.09	2.500
794.40	10.377
794.70	8.738
795.01	8.130
795.32	6.838
795.62	8.571
795.93	9.804
796.23	16.038
796.54	16.667
796.85	10.294
797.15	21.127
797.46	8.333
797.76	22.727
798.07	0.000
798.37	0.000
798.68	4.545
798.99	6.173
799.29	21.429
799.60	-4.348
799.90	13.333
800.21	29.508
800.51	12.308
800.82	10.169
801.12	27.536
801.43	21.311
801.73	17.460
802.04	-14.000
802.34	20.896
802.65	9.615
802.95	12.500
803.26	3.846
803.56	-1.961
803.87	-17.391
804.17	24.000
804.48	23.810
804.78	20.370
805.09	15.217
805.39	2.222
805.70	16.667
806.00	-5.263
806.30	7.042
806.61	8.571
806.91	4.167
807.22	30.263
807.52	24.000
807.83	16.364
808.13	13.889
808.43	11.765
808.74	10.448
809.04	-5.085
809.35	11.538
809.65	17.188
809.95	-21.622
810.26	-22.727
810.56	1.370
810.86	11.905
811.17	16.000
811.47	8.163
811.77	-23.684
812.08	25.000
812.38	11.321
812.69	0.000
812.99	-39.394
813.29	13.158
813.59	-11.429
813.90	4.545
814.20	-38.462
814.50	17.308
814.81	5.660
815.11	-10.638
815.41	10.169
815.72	35.714
816.02	9.804
816.32	-2.083
816.62	17.073
816.93	5.405
817.23	-5.714
817.53	27.083
817.84	6.522
818.14	15.385
818.44	-13.158
818.74	23.913
819.04	-15.000
819.35	24.324
819.65	-2.941
819.95	19.444
820.25	14.286
820.56	27.500
820.86	-20.690
821.16	25.000
821.46	4.255
821.76	30.000
822.07	-2.326
822.37	-43.243
822.67	-3.125
822.97	19.048
823.27	-39.286
823.57	-32.000
823.88	3.704
824.18	-10.714
824.48	5.882
824.78	-32.258
825.08	34.783
825.38	-3.030
825.69	-25.000
825.99	18.421
826.29	13.889
826.59	-6.667
826.89	-85.714
827.19	26.087
827.49	-2.500
827.79	-5.714
828.09	35.714
828.39	-6.061
828.70	37.838
829.00	-17.857
829.30	-14.286
829.60	10.000
829.90	0.000
830.20	13.158
830.50	-3.704
830.80	-21.739
831.10	4.545
831.40	27.273
831.70	-3.226
832.00	0.000
832.30	-47.619
832.60	8.333
832.90	-13.793
833.20	-45.000
833.50	30.303
833.80	29.630
834.10	3.846
834.40	3.125
834.70	-77.778
835.00	15.789
835.30	-7.692
835.60	6.667
835.90	16.129
836.20	45.455
836.50	-21.429
836.80	0.000
837.10	-21.429
837.40	-133.333
837.70	13.636
838.00	-63.636
838.30	-8.696
838.60	15.385
838.90	9.091
839.19	17.857
839.49	13.333
839.79	-53.846
840.09	-141.667
840.39	50.000
840.69	28.571
840.99	-38.462
841.29	-31.579
841.59	-110.000
841.88	-63.636
842.18	-20.000
842.48	0.000
842.78	-20.000
843.08	-14.815
843.38	-160.000
843.68	26.087
843.97	-53.333
844.27	-66.667
844.57	10.000
844.87	50.000
845.17	-38.095
845.47	26.667
845.76	-61.905
846.06	23.529
846.36	-30.000
846.66	-71.429
846.96	6.667
847.25	-112.500
847.55	-14.286
847.85	-175.000
848.15	-22.727
848.44	-666.667
848.74	-25.000
849.04	22.222
849.34	-36.364
849.63	-183.333
849.93	-360.000
850.23	-27.778
850.53	60.000
850.82	30.769
851.12	-11.111
851.42	0.000
851.71	-7.692
852.01	-64.286
852.31	-75.000
852.61	-36.364
852.90	35.000
853.20	-5.263
853.50	0.000
853.79	-34.783
854.09	25.000
854.39	36.842
854.68	-16.667
854.98	-12.903
855.28	0.000
855.57	35.000
855.87	-5.556
856.17	29.630
856.46	-64.286
856.76	-13.333
857.05	11.111
857.35	4.000
857.65	27.778
857.94	-38.462
858.24	10.345
858.53	11.111
858.83	22.222
859.13	-22.727
859.42	43.478
859.72	-225.000
860.01	-200.000
860.31	24.000
860.60	-14.286
860.90	-233.333
861.20	-33.333
861.49	-450.000
861.79	-20.000
862.08	-60.000
862.38	46.667
862.67	-360.000
862.97	33.333
863.26	-66.667
863.56	33.333
863.85	-433.333
864.15	-5.556
864.44	-130.000
864.74	-7.143
865.03	175.000
865.33	-40.000
865.62	-133.333
865.92	-83.333
866.21	-233.333
866.51	50.000
866.80	-136.364
867.10	-150.000
867.39	50.000
867.69	0.000
867.98	-30.769
868.27	-400.000
868.57	-46.667
868.86	11.111
869.16	-92.308
869.45	13.333
869.75	-1900.000
870.04	0.000
870.33	28.571
870.63	33.333
870.92	300.000
871.22	-140.000
871.51	-1000.000
871.80	-44.444
872.10	533.333
>>>>>End Processed Spectral Data<<<<<
