SpectraSuite Data File
++++++++++++++++++++++++++++++++++++
Date: Fri May 15 20:27:52 PDT 2015
User: schluterlab
Dark Spectrum Present: Yes
Reference Spectrum Present: Yes
Number of Sampled Component Spectra: 1
Spectrometers: USB2E3373
Integration Time (usec): 3000 (USB2E3373)
Spectra Averaged: 3 (USB2E3373)
Boxcar Smoothing: 0 (USB2E3373)
Correct for Electrical Dark: No (USB2E3373)
Strobe/Lamp Enabled: No (USB2E3373)
Correct for Detector Non-linearity: No (USB2E3373)
Correct for Stray Light: No (USB2E3373)
Number of Pixels in Processed Spectrum: 2048
>>>>>Begin Processed Spectral Data<<<<<
178.53	0.000
178.91	0.000
179.29	112.500
179.67	-150.000
180.04	128.571
180.42	0.000
180.80	-700.000
181.18	233.333
181.56	250.000
181.94	350.000
182.31	-500.000
182.69	40.000
183.07	-233.333
183.45	-260.000
183.83	183.333
184.20	-9.091
184.58	177.778
184.96	-50.000
185.34	100.000
185.72	50.000
186.09	46.154
186.47	-800.000
186.85	33.333
187.23	144.444
187.61	-0.000
187.98	-233.333
188.36	22.222
188.74	-333.333
189.12	35.294
189.49	27.778
189.87	0.000
190.25	21.429
190.63	100.000
191.00	-100.000
191.38	-15.789
191.76	-100.000
192.14	250.000
192.51	200.000
192.89	-66.667
193.27	42.857
193.65	150.000
194.02	127.273
194.40	-80.000
194.78	-125.000
195.15	-8.333
195.53	-50.000
195.91	250.000
196.29	-50.000
196.66	23.077
197.04	214.286
197.42	66.667
197.79	-733.333
198.17	-100.000
198.55	700.000
198.92	-500.000
199.30	-100.000
199.68	-140.000
200.05	-33.333
200.43	0.000
200.81	-33.333
201.18	100.000
201.56	1300.000
201.94	-50.000
202.31	100.000
202.69	40.000
203.07	-25.000
203.44	400.000
203.82	0.000
204.19	7.143
204.57	-600.000
204.95	225.000
205.32	50.000
205.70	-57.143
206.08	50.000
206.45	233.333
206.83	92.857
207.20	-128.571
207.58	200.000
207.96	-266.667
208.33	-90.000
208.71	-50.000
209.08	-183.333
209.46	-500.000
209.84	60.000
210.21	-300.000
210.59	-42.857
210.96	-33.333
211.34	-275.000
211.71	-13.333
212.09	-42.857
212.46	-1600.000
212.84	0.000
213.22	70.000
213.59	200.000
213.97	30.769
214.34	90.909
214.72	33.333
215.09	225.000
215.47	0.000
215.84	-18.182
216.22	-100.000
216.59	0.000
216.97	-50.000
217.34	100.000
217.72	-260.000
218.09	62.500
218.47	162.500
218.84	-900.000
219.22	-33.333
219.59	100.000
219.97	433.333
220.34	200.000
220.72	-42.857
221.09	300.000
221.47	50.000
221.84	-700.000
222.22	-350.000
222.59	0.000
222.97	16.667
223.34	-233.333
223.72	0.000
224.09	9.524
224.46	32.143
224.84	133.333
225.21	-30.000
225.59	40.000
225.96	-150.000
226.34	525.000
226.71	14.286
227.08	-66.667
227.46	-75.000
227.83	0.000
228.21	33.333
228.58	36.364
228.95	87.500
229.33	40.000
229.70	-18.750
230.08	-37.500
230.45	14.286
230.82	71.429
231.20	-6.667
231.57	50.000
231.95	157.143
232.32	-60.000
232.69	21.429
233.07	133.333
233.44	180.000
233.81	60.000
234.19	33.333
234.56	35.294
234.93	-100.000
235.31	25.000
235.68	-160.000
236.05	-38.462
236.43	40.000
236.80	29.412
237.17	43.750
237.55	70.000
237.92	59.259
238.29	52.778
238.67	86.667
239.04	44.118
239.41	53.659
239.79	36.667
240.16	75.610
240.53	50.000
240.91	50.000
241.28	49.206
241.65	51.786
242.02	50.685
242.40	50.000
242.77	71.186
243.14	59.091
243.51	53.750
243.89	56.322
244.26	47.126
244.63	59.524
245.00	60.825
245.38	51.546
245.75	58.427
246.12	52.586
246.49	57.851
246.87	52.885
247.24	60.504
247.61	47.368
247.98	55.285
248.36	48.750
248.73	54.605
249.10	58.442
249.47	60.127
249.84	56.209
250.22	46.471
250.59	66.013
250.96	55.399
251.33	52.326
251.70	57.059
252.08	56.345
252.45	54.455
252.82	59.296
253.19	59.908
253.56	58.879
253.94	52.252
254.31	52.609
254.68	58.772
255.05	59.449
255.42	56.332
255.79	56.757
256.16	52.529
256.54	55.597
256.91	53.232
257.28	56.877
257.65	56.929
258.02	55.674
258.39	54.545
258.76	61.905
259.14	58.472
259.51	51.780
259.88	53.952
260.25	58.497
260.62	62.153
260.99	57.627
261.36	55.822
261.73	56.646
262.10	56.535
262.47	52.761
262.85	53.605
263.22	58.154
263.59	53.583
263.96	59.317
264.33	61.818
264.70	54.464
265.07	54.464
265.44	58.924
265.81	58.192
266.18	54.372
266.55	54.242
266.92	55.699
267.29	57.963
267.66	57.289
268.03	57.068
268.40	56.658
268.77	57.219
269.14	52.278
269.51	60.154
269.88	54.863
270.25	52.806
270.62	56.829
270.99	54.987
271.36	54.279
271.73	57.277
272.10	57.908
272.47	55.083
272.84	53.960
273.21	55.452
273.58	56.867
273.95	56.979
274.32	50.808
274.69	48.869
275.06	56.473
275.43	53.968
275.80	56.291
276.17	53.333
276.54	51.178
276.91	53.728
277.28	54.148
277.65	54.545
278.02	51.915
278.39	54.486
278.76	54.507
279.13	50.000
279.50	54.412
279.87	54.860
280.23	51.398
280.60	50.877
280.97	52.323
281.34	51.346
281.71	54.209
282.08	53.579
282.45	52.642
282.82	50.579
283.19	52.805
283.56	51.445
283.92	52.941
284.29	52.500
284.66	49.419
285.03	49.116
285.40	51.040
285.77	50.615
286.14	49.458
286.51	52.583
286.87	47.715
287.24	53.591
287.61	48.501
287.98	48.246
288.35	49.047
288.72	47.636
289.08	48.785
289.45	48.330
289.82	49.476
290.19	49.147
290.56	47.684
290.93	46.633
291.29	43.451
291.66	47.402
292.03	46.252
292.40	47.097
292.77	43.062
293.13	41.721
293.50	42.944
293.87	43.511
294.24	44.977
294.60	42.772
294.97	42.411
295.34	43.098
295.71	41.580
296.08	42.750
296.44	38.691
296.81	42.083
297.18	42.174
297.55	42.547
297.91	40.822
298.28	39.842
298.65	39.484
299.02	40.296
299.38	38.030
299.75	39.034
300.12	40.576
300.48	39.789
300.85	37.009
301.22	38.701
301.59	39.342
301.95	39.747
302.32	40.337
302.69	39.055
303.05	38.861
303.42	40.722
303.79	38.084
304.15	38.232
304.52	37.455
304.89	36.959
305.25	38.983
305.62	37.573
305.99	37.895
306.35	36.763
306.72	38.133
307.09	40.023
307.45	39.724
307.82	37.616
308.19	39.954
308.55	37.732
308.92	39.542
309.29	39.888
309.65	38.321
310.02	37.294
310.38	39.188
310.75	40.109
311.12	37.998
311.48	39.343
311.85	38.639
312.22	39.346
312.58	38.641
312.95	38.420
313.31	40.166
313.68	40.000
314.05	37.857
314.41	40.103
314.78	40.309
315.14	42.035
315.51	41.718
315.87	40.471
316.24	42.366
316.61	41.339
316.97	40.575
317.34	40.625
317.70	41.874
318.07	42.308
318.43	44.314
318.80	42.424
319.16	43.848
319.53	44.255
319.89	45.276
320.26	45.445
320.62	45.737
320.99	42.067
321.35	43.474
321.72	43.406
322.08	44.713
322.45	45.685
322.81	45.874
323.18	44.455
323.54	46.042
323.91	44.109
324.27	45.703
324.64	47.285
325.00	45.985
325.37	48.760
325.73	45.784
326.10	47.502
326.46	47.354
326.83	46.894
327.19	47.864
327.56	48.653
327.92	49.912
328.29	47.946
328.65	49.151
329.01	48.805
329.38	48.018
329.74	48.725
330.11	48.563
330.47	47.774
330.84	48.462
331.20	51.331
331.56	45.741
331.93	50.685
332.29	50.504
332.66	49.864
333.02	48.606
333.38	48.304
333.75	49.908
334.11	48.791
334.48	50.227
334.84	48.718
335.20	49.405
335.57	48.957
335.93	49.774
336.29	50.645
336.66	49.228
337.02	49.628
337.38	48.241
337.75	48.545
338.11	49.955
338.47	49.544
338.84	50.000
339.20	49.909
339.56	48.899
339.93	49.329
340.29	49.174
340.65	48.925
341.02	48.670
341.38	50.088
341.74	47.703
342.11	48.614
342.47	49.911
342.83	48.529
343.20	49.129
343.56	48.783
343.92	48.007
344.28	48.591
344.65	49.396
345.01	48.747
345.37	47.939
345.73	46.778
346.10	48.404
346.46	48.360
346.82	47.463
347.19	46.800
347.55	48.204
347.91	48.301
348.27	48.019
348.63	49.489
349.00	47.006
349.36	49.127
349.72	48.756
350.08	49.016
350.45	47.805
350.81	47.342
351.17	46.091
351.53	47.020
351.89	47.151
352.26	49.040
352.62	47.661
352.98	45.060
353.34	46.538
353.70	46.926
354.07	47.419
354.43	47.078
354.79	47.481
355.15	46.984
355.51	48.418
355.87	47.573
356.24	46.737
356.60	47.696
356.96	47.937
357.32	47.125
357.68	46.990
358.04	46.688
358.40	46.543
358.77	47.847
359.13	47.558
359.49	47.149
359.85	46.880
360.21	48.086
360.57	46.366
360.93	45.537
361.29	45.921
361.66	47.257
362.02	47.197
362.38	47.601
362.74	46.329
363.10	48.382
363.46	47.739
363.82	47.784
364.18	47.011
364.54	45.588
364.90	47.527
365.26	47.089
365.62	48.613
365.98	47.654
366.35	48.216
366.71	47.450
367.07	47.968
367.43	47.448
367.79	47.562
368.15	47.810
368.51	49.381
368.87	46.662
369.23	47.437
369.59	47.668
369.95	48.680
370.31	47.977
370.67	49.552
371.03	46.602
371.39	47.484
371.75	49.084
372.11	47.290
372.47	49.038
372.83	49.752
373.19	47.361
373.55	47.942
373.91	48.380
374.27	49.327
374.63	49.533
374.99	47.589
375.35	49.025
375.71	49.930
376.07	49.438
376.42	48.912
376.78	48.523
377.14	49.763
377.50	51.062
377.86	49.598
378.22	48.309
378.58	49.872
378.94	50.221
379.30	50.218
379.66	50.157
380.02	49.969
380.38	48.570
380.74	50.030
381.09	50.920
381.45	51.560
381.81	50.401
382.17	50.698
382.53	50.344
382.89	51.977
383.25	51.836
383.61	52.073
383.97	52.508
384.32	51.595
384.68	51.084
385.04	51.532
385.40	51.462
385.76	53.396
386.12	52.717
386.48	52.554
386.83	51.871
387.19	52.381
387.55	53.513
387.91	52.506
388.27	52.381
388.62	53.241
388.98	52.855
389.34	53.279
389.70	53.822
390.06	52.863
390.42	54.145
390.77	54.284
391.13	53.657
391.49	54.334
391.85	53.996
392.20	53.045
392.56	54.228
392.92	55.138
393.28	53.302
393.64	53.333
393.99	55.486
394.35	54.522
394.71	55.236
395.07	53.677
395.42	54.888
395.78	54.919
396.14	54.288
396.50	54.978
396.85	55.763
397.21	54.449
397.57	53.480
397.92	54.344
398.28	54.770
398.64	53.675
399.00	54.966
399.35	54.458
399.71	55.026
400.07	54.655
400.42	53.427
400.78	54.501
401.14	55.354
401.49	55.628
401.85	55.515
402.21	55.361
402.57	54.438
402.92	54.203
403.28	55.075
403.63	55.359
403.99	55.038
404.35	55.590
404.70	53.274
405.06	54.700
405.42	55.562
405.77	54.155
406.13	54.715
406.49	53.760
406.84	55.562
407.20	55.689
407.55	54.797
407.91	54.679
408.27	55.641
408.62	54.462
408.98	53.728
409.34	53.779
409.69	53.876
410.05	53.818
410.40	54.444
410.76	54.765
411.11	55.125
411.47	54.701
411.83	54.614
412.18	56.178
412.54	54.432
412.89	53.879
413.25	54.633
413.60	53.602
413.96	54.417
414.31	54.817
414.67	53.624
415.03	53.462
415.38	53.133
415.74	53.746
416.09	54.931
416.45	54.423
416.80	54.065
417.16	54.903
417.51	54.364
417.87	53.716
418.22	54.987
418.58	55.251
418.93	55.361
419.29	52.177
419.64	54.310
420.00	55.542
420.35	54.507
420.71	53.949
421.06	53.714
421.42	54.627
421.77	55.318
422.12	53.632
422.48	53.546
422.83	54.698
423.19	54.176
423.54	55.614
423.90	54.770
424.25	54.535
424.61	55.080
424.96	54.704
425.31	55.286
425.67	55.458
426.02	56.478
426.38	55.354
426.73	56.356
427.09	54.873
427.44	55.000
427.79	56.276
428.15	53.944
428.50	55.179
428.85	54.300
429.21	55.008
429.56	54.825
429.92	55.316
430.27	54.085
430.62	54.313
430.98	55.202
431.33	54.942
431.68	54.736
432.04	56.177
432.39	55.790
432.74	55.021
433.10	56.149
433.45	55.795
433.80	56.007
434.16	54.460
434.51	55.161
434.86	56.504
435.22	55.356
435.57	56.082
435.92	56.168
436.28	54.204
436.63	54.820
436.98	53.882
437.34	55.051
437.69	56.589
438.04	55.442
438.39	55.406
438.75	55.920
439.10	57.102
439.45	56.482
439.81	54.679
440.16	56.591
440.51	56.716
440.86	56.979
441.22	55.656
441.57	56.291
441.92	57.398
442.27	57.594
442.63	57.923
442.98	57.036
443.33	56.873
443.68	56.499
444.03	56.731
444.39	57.009
444.74	59.253
445.09	56.849
445.44	58.803
445.79	58.432
446.15	56.608
446.50	56.739
446.85	57.758
447.20	58.081
447.55	58.594
447.91	56.796
448.26	58.509
448.61	57.340
448.96	58.290
449.31	58.960
449.66	57.782
450.02	57.501
450.37	58.447
450.72	56.987
451.07	58.544
451.42	56.866
451.77	57.565
452.12	57.656
452.47	56.600
452.83	57.420
453.18	56.483
453.53	57.522
453.88	58.470
454.23	57.652
454.58	58.690
454.93	58.119
455.28	55.873
455.63	58.648
455.98	58.509
456.34	57.471
456.69	58.005
457.04	59.483
457.39	58.870
457.74	59.855
458.09	57.210
458.44	58.104
458.79	56.975
459.14	58.810
459.49	58.985
459.84	58.094
460.19	58.617
460.54	58.557
460.89	58.068
461.24	58.447
461.59	59.145
461.94	58.239
462.29	57.600
462.64	58.738
462.99	57.955
463.34	57.371
463.69	57.529
464.04	57.809
464.39	57.489
464.74	57.853
465.09	57.580
465.44	57.819
465.79	56.746
466.14	57.868
466.49	57.274
466.84	58.239
467.19	58.698
467.54	57.535
467.89	57.549
468.24	57.908
468.59	58.095
468.94	58.095
469.29	57.508
469.64	56.938
469.99	57.954
470.34	57.406
470.68	58.538
471.03	59.590
471.38	55.991
471.73	57.703
472.08	56.242
472.43	56.846
472.78	56.546
473.13	57.891
473.48	56.808
473.83	56.725
474.17	57.189
474.52	57.052
474.87	56.545
475.22	57.596
475.57	58.216
475.92	57.268
476.27	57.916
476.61	58.044
476.96	55.828
477.31	57.869
477.66	55.899
478.01	56.373
478.36	57.516
478.70	56.716
479.05	57.473
479.40	56.916
479.75	56.621
480.10	57.399
480.45	56.300
480.79	58.207
481.14	57.889
481.49	56.995
481.84	57.143
482.19	54.630
482.53	56.403
482.88	56.181
483.23	55.710
483.58	55.896
483.92	55.518
484.27	54.695
484.62	57.373
484.97	55.804
485.31	56.214
485.66	55.400
486.01	56.688
486.36	56.251
486.70	57.117
487.05	57.270
487.40	56.541
487.75	56.423
488.09	55.068
488.44	55.089
488.79	55.510
489.13	55.529
489.48	55.024
489.83	55.112
490.17	55.191
490.52	55.335
490.87	53.540
491.22	55.158
491.56	54.269
491.91	53.967
492.26	55.032
492.60	54.031
492.95	55.140
493.30	53.395
493.64	55.452
493.99	54.155
494.34	53.981
494.68	54.476
495.03	53.625
495.37	54.661
495.72	54.568
496.07	54.293
496.41	53.868
496.76	53.754
497.11	54.122
497.45	53.604
497.80	54.238
498.14	53.304
498.49	54.393
498.84	52.246
499.18	54.669
499.53	54.415
499.87	53.988
500.22	53.215
500.56	54.463
500.91	53.163
501.26	53.435
501.60	53.910
501.95	53.324
502.29	53.608
502.64	53.620
502.98	54.563
503.33	52.017
503.67	53.060
504.02	53.324
504.36	53.340
504.71	52.879
505.06	52.542
505.40	52.792
505.75	53.969
506.09	51.647
506.44	54.158
506.78	53.010
507.13	52.120
507.47	50.966
507.82	52.457
508.16	52.034
508.51	52.413
508.85	52.800
509.19	51.623
509.54	50.831
509.88	50.809
510.23	52.555
510.57	50.882
510.92	51.013
511.26	51.664
511.61	51.815
511.95	50.356
512.30	50.610
512.64	51.419
512.98	49.747
513.33	51.539
513.67	51.165
514.02	52.975
514.36	52.057
514.70	52.739
515.05	52.879
515.39	50.945
515.74	52.994
516.08	51.345
516.42	52.532
516.77	50.614
517.11	51.810
517.46	51.287
517.80	51.609
518.14	51.500
518.49	49.459
518.83	50.122
519.17	49.303
519.52	49.793
519.86	50.540
520.20	50.851
520.55	49.531
520.89	50.690
521.23	49.082
521.58	50.852
521.92	49.167
522.26	49.837
522.61	49.675
522.95	51.060
523.29	48.856
523.64	49.746
523.98	51.199
524.32	48.969
524.66	49.616
525.01	50.065
525.35	50.356
525.69	49.495
526.04	47.817
526.38	49.027
526.72	48.986
527.06	48.638
527.41	48.219
527.75	48.525
528.09	48.306
528.43	50.236
528.78	50.231
529.12	49.548
529.46	48.863
529.80	49.208
530.15	49.241
530.49	48.620
530.83	48.974
531.17	48.086
531.51	48.769
531.86	46.839
532.20	47.669
532.54	46.971
532.88	48.802
533.22	47.245
533.57	47.313
533.91	49.543
534.25	49.740
534.59	47.081
534.93	47.199
535.27	46.003
535.62	48.023
535.96	46.967
536.30	46.636
536.64	47.967
536.98	46.969
537.32	48.009
537.66	47.896
538.01	47.413
538.35	46.325
538.69	46.072
539.03	45.728
539.37	47.376
539.71	46.762
540.05	46.707
540.39	46.884
540.73	46.653
541.07	48.481
541.42	47.110
541.76	47.901
542.10	47.626
542.44	45.935
542.78	45.010
543.12	47.047
543.46	46.871
543.80	47.606
544.14	44.993
544.48	46.236
544.82	46.548
545.16	48.156
545.50	46.595
545.84	46.671
546.18	46.170
546.52	45.133
546.86	46.226
547.20	46.352
547.54	44.947
547.88	45.924
548.22	44.313
548.56	45.383
548.90	45.081
549.24	45.868
549.58	44.781
549.92	44.460
550.26	43.590
550.60	44.758
550.94	44.884
551.28	44.977
551.62	46.692
551.96	44.887
552.30	43.860
552.64	42.666
552.98	45.710
553.32	43.581
553.66	43.541
554.00	44.818
554.34	45.199
554.68	43.953
555.02	43.527
555.36	42.782
555.69	43.736
556.03	43.897
556.37	44.413
556.71	43.249
557.05	45.488
557.39	42.528
557.73	44.903
558.07	43.741
558.41	44.564
558.75	43.492
559.08	42.947
559.42	45.317
559.76	44.115
560.10	44.419
560.44	43.187
560.78	43.916
561.12	45.063
561.45	43.570
561.79	43.978
562.13	44.074
562.47	43.597
562.81	42.507
563.15	43.653
563.48	43.211
563.82	43.514
564.16	42.618
564.50	40.811
564.84	43.039
565.17	43.729
565.51	43.238
565.85	43.141
566.19	42.905
566.52	44.236
566.86	44.537
567.20	42.030
567.54	43.127
567.88	45.343
568.21	44.570
568.55	43.913
568.89	43.840
569.23	43.284
569.56	43.170
569.90	44.458
570.24	43.431
570.57	44.400
570.91	44.231
571.25	42.552
571.59	42.853
571.92	42.696
572.26	43.146
572.60	42.574
572.93	42.422
573.27	42.602
573.61	42.393
573.95	43.583
574.28	42.611
574.62	42.690
574.96	42.608
575.29	42.908
575.63	41.539
575.97	41.258
576.30	41.917
576.64	41.536
576.98	42.471
577.31	42.664
577.65	42.592
577.98	42.730
578.32	42.461
578.66	41.715
578.99	42.092
579.33	40.819
579.67	41.080
580.00	41.975
580.34	41.692
580.67	40.999
581.01	41.691
581.35	41.236
581.68	41.803
582.02	41.989
582.35	41.801
582.69	42.209
583.02	41.636
583.36	41.826
583.70	41.952
584.03	41.785
584.37	42.321
584.70	41.346
585.04	40.440
585.37	40.270
585.71	41.348
586.04	41.427
586.38	40.864
586.72	40.775
587.05	40.555
587.39	41.068
587.72	41.689
588.06	41.074
588.39	40.530
588.73	40.842
589.06	41.031
589.40	40.684
589.73	41.037
590.07	41.692
590.40	41.486
590.73	41.310
591.07	40.288
591.40	39.760
591.74	40.724
592.07	40.213
592.41	41.210
592.74	40.661
593.08	40.063
593.41	40.033
593.75	39.614
594.08	39.616
594.41	39.265
594.75	40.649
595.08	39.463
595.42	40.265
595.75	40.105
596.09	39.992
596.42	39.562
596.75	39.432
597.09	39.544
597.42	39.431
597.75	40.861
598.09	38.841
598.42	38.899
598.76	39.554
599.09	39.663
599.42	38.954
599.76	39.391
600.09	38.462
600.42	39.196
600.76	38.856
601.09	38.626
601.42	39.052
601.76	39.182
602.09	39.068
602.42	39.975
602.76	39.007
603.09	39.203
603.42	39.423
603.76	38.831
604.09	38.356
604.42	38.959
604.76	39.475
605.09	38.163
605.42	38.555
605.75	38.573
606.09	38.684
606.42	38.157
606.75	38.225
607.09	38.330
607.42	38.192
607.75	38.233
608.08	37.197
608.42	37.597
608.75	38.120
609.08	38.316
609.41	37.766
609.75	37.198
610.08	38.293
610.41	37.053
610.74	37.786
611.07	37.881
611.41	38.661
611.74	38.166
612.07	36.938
612.40	38.676
612.73	38.023
613.07	37.683
613.40	37.637
613.73	37.605
614.06	38.397
614.39	37.733
614.72	38.263
615.06	37.430
615.39	36.517
615.72	36.814
616.05	38.045
616.38	36.581
616.71	37.798
617.05	38.048
617.38	37.901
617.71	37.673
618.04	38.159
618.37	38.146
618.70	37.030
619.03	37.292
619.36	36.469
619.69	36.619
620.03	37.034
620.36	36.338
620.69	36.759
621.02	35.933
621.35	37.095
621.68	38.265
622.01	37.000
622.34	37.191
622.67	37.224
623.00	36.371
623.33	36.433
623.66	36.425
623.99	35.930
624.32	37.110
624.65	36.692
624.99	37.246
625.32	36.315
625.65	36.528
625.98	36.180
626.31	36.741
626.64	36.135
626.97	36.213
627.30	35.814
627.63	36.135
627.96	36.748
628.29	35.153
628.62	35.202
628.95	35.170
629.28	36.593
629.61	35.394
629.94	36.070
630.26	35.672
630.59	35.484
630.92	36.615
631.25	35.590
631.58	35.022
631.91	33.114
632.24	35.665
632.57	34.432
632.90	34.164
633.23	36.000
633.56	36.020
633.89	35.018
634.22	36.173
634.55	34.562
634.88	34.483
635.20	33.846
635.53	35.200
635.86	33.160
636.19	33.506
636.52	34.311
636.85	34.243
637.18	36.226
637.51	36.101
637.83	33.903
638.16	34.652
638.49	33.924
638.82	35.132
639.15	35.142
639.48	34.938
639.81	33.891
640.13	35.498
640.46	34.548
640.79	34.168
641.12	33.826
641.45	32.432
641.77	35.556
642.10	33.807
642.43	32.637
642.76	34.983
643.09	35.218
643.41	32.686
643.74	32.784
644.07	33.990
644.40	35.811
644.73	34.851
645.05	33.054
645.38	33.686
645.71	34.397
646.04	34.470
646.36	34.929
646.69	35.612
647.02	36.295
647.35	35.821
647.67	32.724
648.00	34.701
648.33	36.348
648.66	33.559
648.98	31.993
649.31	31.570
649.64	33.124
649.96	32.415
650.29	34.412
650.62	32.650
650.94	33.519
651.27	34.078
651.60	32.252
651.92	33.217
652.25	32.504
652.58	32.500
652.90	34.134
653.23	32.437
653.56	33.164
653.88	32.474
654.21	30.648
654.54	33.447
654.86	33.786
655.19	32.310
655.52	37.074
655.84	35.858
656.17	39.922
656.49	54.366
656.82	56.244
657.15	42.754
657.47	31.743
657.80	23.534
658.13	23.300
658.45	35.707
658.78	34.603
659.10	34.063
659.43	33.382
659.75	32.906
660.08	31.724
660.41	31.869
660.73	31.492
661.06	31.716
661.38	31.115
661.71	27.721
662.03	30.687
662.36	27.692
662.68	30.310
663.01	34.279
663.33	30.626
663.66	31.860
663.98	30.233
664.31	29.211
664.63	30.415
664.96	28.696
665.28	29.139
665.61	30.519
665.93	31.957
666.26	32.104
666.58	30.201
666.91	33.882
667.23	31.840
667.56	31.280
667.88	31.175
668.21	31.265
668.53	31.678
668.86	34.670
669.18	29.717
669.50	33.414
669.83	28.140
670.15	30.769
670.48	30.861
670.80	29.954
671.13	31.767
671.45	30.365
671.77	32.833
672.10	31.287
672.42	34.270
672.75	29.663
673.07	33.274
673.39	33.028
673.72	30.178
674.04	30.625
674.37	33.263
674.69	29.336
675.01	34.000
675.34	31.757
675.66	33.796
675.98	30.820
676.31	31.422
676.63	29.216
676.95	30.227
677.28	28.471
677.60	31.566
677.92	29.358
678.25	30.635
678.57	30.087
678.89	30.462
679.22	34.004
679.54	28.514
679.86	31.610
680.18	31.262
680.51	32.197
680.83	29.026
681.15	31.800
681.48	35.246
681.80	34.298
682.12	30.040
682.44	31.172
682.77	33.554
683.09	31.579
683.41	30.000
683.73	29.724
684.06	32.301
684.38	28.602
684.70	30.065
685.02	29.461
685.34	30.237
685.67	31.144
685.99	32.550
686.31	30.796
686.63	29.314
686.96	30.989
687.28	27.273
687.60	31.369
687.92	33.737
688.24	31.048
688.56	32.969
688.89	27.902
689.21	30.444
689.53	30.626
689.85	32.558
690.17	31.920
690.49	31.678
690.82	29.126
691.14	31.667
691.46	30.841
691.78	31.306
692.10	31.183
692.42	31.818
692.74	30.769
693.06	27.703
693.39	30.769
693.71	30.995
694.03	29.099
694.35	30.140
694.67	28.788
694.99	27.937
695.31	32.376
695.63	32.500
695.95	28.788
696.27	29.016
696.59	29.722
696.91	25.770
697.23	27.506
697.56	31.436
697.88	30.108
698.20	31.663
698.52	32.000
698.84	27.273
699.16	29.500
699.48	30.576
699.80	30.521
700.12	29.919
700.44	33.053
700.76	25.000
701.08	26.061
701.40	29.518
701.72	30.247
702.04	30.033
702.36	34.783
702.68	30.030
703.00	27.576
703.32	29.619
703.64	26.554
703.96	25.217
704.28	27.914
704.60	27.619
704.91	31.230
705.23	26.246
705.55	33.569
705.87	31.047
706.19	30.741
706.51	27.491
706.83	29.260
707.15	27.414
707.47	33.894
707.79	30.208
708.11	29.500
708.43	30.750
708.74	30.491
709.06	32.958
709.38	29.969
709.70	29.586
710.02	30.573
710.34	32.817
710.66	26.603
710.98	29.801
711.29	33.770
711.61	29.153
711.93	28.664
712.25	34.364
712.57	31.136
712.89	27.239
713.20	29.412
713.52	26.829
713.84	27.986
714.16	28.522
714.48	26.452
714.80	33.333
715.11	28.571
715.43	27.586
715.75	29.333
716.07	26.578
716.39	28.859
716.70	23.985
717.02	31.679
717.34	31.984
717.66	26.991
717.97	24.348
718.29	27.615
718.61	29.921
718.93	30.620
719.24	30.798
719.56	31.727
719.88	29.210
720.20	30.303
720.51	28.736
720.83	30.502
721.15	25.210
721.46	27.823
721.78	27.668
722.10	24.164
722.42	28.216
722.73	30.204
723.05	35.510
723.37	34.322
723.68	33.784
724.00	31.197
724.32	26.222
724.63	30.909
724.95	31.004
725.27	29.954
725.58	32.203
725.90	26.587
726.22	29.344
726.53	28.814
726.85	30.337
727.16	29.811
727.48	29.150
727.80	29.555
728.11	26.271
728.43	29.804
728.74	29.435
729.06	31.600
729.38	33.835
729.69	24.303
730.01	27.692
730.32	30.597
730.64	31.449
730.96	33.962
731.27	28.333
731.59	35.254
731.90	28.344
732.22	32.177
732.53	30.897
732.85	30.142
733.16	30.303
733.48	26.259
733.80	28.986
734.11	28.475
734.43	29.553
734.74	29.091
735.06	27.687
735.37	30.211
735.69	27.273
736.00	25.087
736.32	29.530
736.63	27.465
736.95	27.645
737.26	28.470
737.58	29.530
737.89	24.542
738.21	32.707
738.52	25.926
738.83	33.624
739.15	28.821
739.46	29.921
739.78	26.374
740.09	27.451
740.41	31.159
740.72	26.378
741.04	31.174
741.35	26.383
741.66	32.701
741.98	19.388
742.29	29.703
742.61	31.937
742.92	25.592
743.23	20.833
743.55	30.317
743.86	26.794
744.18	28.708
744.49	33.511
744.80	29.891
745.12	32.620
745.43	25.366
745.74	26.042
746.06	23.902
746.37	30.890
746.68	28.910
747.00	25.000
747.31	34.328
747.62	29.126
747.94	28.708
748.25	28.713
748.56	32.787
748.88	29.319
749.19	30.319
749.50	27.586
749.82	25.472
750.13	25.229
750.44	31.955
750.75	35.075
751.07	31.387
751.38	28.736
751.69	25.490
752.01	30.620
752.32	26.693
752.63	29.644
752.94	28.017
753.26	35.983
753.57	27.602
753.88	26.549
754.19	25.000
754.51	28.099
754.82	29.555
755.13	32.083
755.44	30.242
755.75	28.906
756.07	29.961
756.38	29.057
756.69	26.820
757.00	29.667
757.31	31.373
757.63	32.317
757.94	28.056
758.25	28.219
758.56	27.128
758.87	26.912
759.18	25.234
759.50	26.909
759.81	30.100
760.12	30.000
760.43	28.485
760.74	34.259
761.05	29.538
761.36	32.386
761.67	30.303
761.99	31.293
762.30	27.636
762.61	28.854
762.92	26.244
763.23	32.883
763.54	25.701
763.85	29.661
764.16	30.290
764.47	31.452
764.78	28.938
765.10	31.987
765.41	29.338
765.72	26.032
766.03	28.571
766.34	28.102
766.65	32.271
766.96	26.768
767.27	31.915
767.58	26.437
767.89	16.312
768.20	25.000
768.51	28.022
768.82	29.064
769.13	26.267
769.44	30.043
769.75	29.224
770.06	30.172
770.37	26.923
770.68	27.411
770.99	26.697
771.30	37.255
771.61	32.127
771.92	34.483
772.23	27.094
772.54	26.882
772.85	31.481
773.16	30.337
773.47	23.529
773.78	30.065
774.09	26.347
774.39	25.333
774.70	28.662
775.01	33.103
775.32	25.000
775.63	31.405
775.94	29.771
776.25	26.772
776.56	26.667
776.87	26.923
777.18	17.949
777.48	25.000
777.79	21.739
778.10	18.095
778.41	20.721
778.72	19.048
779.03	26.316
779.34	24.823
779.65	30.822
779.95	23.973
780.26	33.103
780.57	28.455
780.88	21.260
781.19	20.690
781.50	31.783
781.80	26.627
782.11	20.126
782.42	36.923
782.73	21.583
783.04	31.852
783.34	25.000
783.65	23.932
783.96	25.410
784.27	32.414
784.57	30.081
784.88	25.781
785.19	34.000
785.50	31.000
785.81	14.655
786.11	30.172
786.42	20.388
786.73	33.636
787.04	24.490
787.34	22.321
787.65	19.048
787.96	24.779
788.26	26.364
788.57	25.641
788.88	33.594
789.19	23.016
789.49	21.739
789.80	32.653
790.11	23.232
790.41	24.545
790.72	21.739
791.03	32.955
791.33	35.000
791.64	20.000
791.95	19.767
792.25	27.660
792.56	26.966
792.87	16.438
793.17	30.435
793.48	20.000
793.79	21.250
794.09	32.500
794.40	15.094
794.70	22.330
795.01	23.577
795.32	29.915
795.62	29.524
795.93	27.451
796.23	26.415
796.54	32.292
796.85	19.118
797.15	25.352
797.46	19.444
797.76	34.848
798.07	22.093
798.37	13.158
798.68	12.121
798.99	19.753
799.29	41.429
799.60	15.942
799.90	41.333
800.21	37.705
800.51	16.923
800.82	25.424
801.12	33.333
801.43	26.230
801.73	36.508
802.04	22.000
802.34	31.343
802.65	15.385
802.95	8.929
803.26	30.769
803.56	27.451
803.87	4.348
804.17	32.000
804.48	53.968
804.78	16.667
805.09	32.609
805.39	20.000
805.70	16.667
806.00	5.263
806.30	38.028
806.61	17.143
806.91	2.778
807.22	38.158
807.52	37.333
807.83	9.091
808.13	34.722
808.43	23.529
808.74	13.433
809.04	15.254
809.35	15.385
809.65	21.875
809.95	-2.703
810.26	20.455
810.56	30.137
810.86	28.571
811.17	28.000
811.47	32.653
811.77	10.526
812.08	15.909
812.38	20.755
812.69	27.500
812.99	6.061
813.29	10.526
813.59	0.000
813.90	13.636
814.20	12.821
814.50	15.385
814.81	24.528
815.11	10.638
815.41	42.373
815.72	4.762
816.02	25.490
816.32	22.917
816.62	14.634
816.93	16.216
817.23	-2.857
817.53	33.333
817.84	15.217
818.14	19.231
818.44	7.895
818.74	23.913
819.04	0.000
819.35	10.811
819.65	26.471
819.95	-33.333
820.25	23.810
820.56	22.500
820.86	0.000
821.16	57.500
821.46	19.149
821.76	42.500
822.07	23.256
822.37	-2.703
822.67	3.125
822.97	26.190
823.27	-25.000
823.57	-24.000
823.88	-18.519
824.18	35.714
824.48	17.647
824.78	-16.129
825.08	0.000
825.38	15.152
825.69	-8.333
825.99	15.789
826.29	0.000
826.59	13.333
826.89	-23.810
827.19	23.913
827.49	10.000
827.79	17.143
828.09	-14.286
828.39	30.303
828.70	40.541
829.00	17.857
829.30	4.762
829.60	40.000
829.90	34.375
830.20	21.053
830.50	14.815
830.80	-26.087
831.10	22.727
831.40	30.303
831.70	35.484
832.00	76.190
832.30	-4.762
832.60	16.667
832.90	0.000
833.20	-45.000
833.50	27.273
833.80	33.333
834.10	23.077
834.40	50.000
834.70	-88.889
835.00	21.053
835.30	53.846
835.60	33.333
835.90	29.032
836.20	13.636
836.50	50.000
836.80	-11.538
837.10	32.143
837.40	-400.000
837.70	36.364
838.00	-154.545
838.30	34.783
838.60	-76.923
838.90	22.727
839.19	28.571
839.49	16.667
839.79	-46.154
840.09	-133.333
840.39	35.714
840.69	17.857
840.99	7.692
841.29	-10.526
841.59	-80.000
841.88	54.545
842.18	10.000
842.48	-12.500
842.78	6.667
843.08	37.037
843.38	-40.000
843.68	43.478
843.97	-20.000
844.27	-46.667
844.57	30.000
844.87	16.667
845.17	-42.857
845.47	-33.333
845.76	-19.048
846.06	17.647
846.36	-10.000
846.66	7.143
846.96	40.000
847.25	-200.000
847.55	-28.571
847.85	-87.500
848.15	-27.273
848.44	-566.667
848.74	15.000
849.04	51.852
849.34	0.000
849.63	-316.667
849.93	-120.000
850.23	-22.222
850.53	70.000
850.82	-7.692
851.12	66.667
851.42	33.333
851.71	-11.538
852.01	28.571
852.31	-125.000
852.61	-27.273
852.90	-40.000
853.20	-21.053
853.50	-58.333
853.79	4.348
854.09	33.333
854.39	21.053
854.68	8.333
854.98	25.806
855.28	30.769
855.57	25.000
855.87	38.889
856.17	66.667
856.46	-7.143
856.76	-93.333
857.05	0.000
857.35	36.000
857.65	22.222
857.94	-69.231
858.24	17.241
858.53	50.000
858.83	0.000
859.13	13.636
859.42	4.348
859.72	-25.000
860.01	-133.333
860.31	24.000
860.60	38.095
860.90	-66.667
861.20	-20.000
861.49	-700.000
861.79	-73.333
862.08	10.000
862.38	40.000
862.67	-100.000
862.97	-33.333
863.26	-8.333
863.56	27.778
863.85	-366.667
864.15	55.556
864.44	80.000
864.74	50.000
865.03	100.000
865.33	-160.000
865.62	-16.667
865.92	-8.333
866.21	-83.333
866.51	68.750
866.80	27.273
867.10	100.000
867.39	8.333
867.69	0.000
867.98	84.615
868.27	-333.333
868.57	-13.333
868.86	66.667
869.16	-30.769
869.45	60.000
869.75	-400.000
870.04	0.000
870.33	-228.571
870.63	42.857
870.92	300.000
871.22	-300.000
871.51	-500.000
871.80	66.667
872.10	700.000
>>>>>End Processed Spectral Data<<<<<
