SpectraSuite Data File
++++++++++++++++++++++++++++++++++++
Date: Fri May 15 20:53:41 PDT 2015
User: schluterlab
Dark Spectrum Present: Yes
Reference Spectrum Present: Yes
Number of Sampled Component Spectra: 1
Spectrometers: USB2E3373
Integration Time (usec): 3000 (USB2E3373)
Spectra Averaged: 3 (USB2E3373)
Boxcar Smoothing: 0 (USB2E3373)
Correct for Electrical Dark: No (USB2E3373)
Strobe/Lamp Enabled: No (USB2E3373)
Correct for Detector Non-linearity: No (USB2E3373)
Correct for Stray Light: No (USB2E3373)
Number of Pixels in Processed Spectrum: 2048
>>>>>Begin Processed Spectral Data<<<<<
178.53	0.000
178.91	0.000
179.29	100.000
179.67	-50.000
180.04	-14.286
180.42	200.000
180.80	-300.000
181.18	100.000
181.56	350.000
181.94	400.000
182.31	300.000
182.69	-20.000
183.07	-300.000
183.45	-80.000
183.83	266.667
184.20	0.000
184.58	66.667
184.96	-150.000
185.34	-233.333
185.72	-300.000
186.09	100.000
186.47	500.000
186.85	-50.000
187.23	100.000
187.61	-400.000
187.98	-266.667
188.36	-33.333
188.74	-166.667
189.12	0.000
189.49	16.667
189.87	0.000
190.25	71.429
190.63	-50.000
191.00	-100.000
191.38	-21.053
191.76	-100.000
192.14	-75.000
192.51	150.000
192.89	-11.111
193.27	-128.571
193.65	233.333
194.02	154.545
194.40	20.000
194.78	-150.000
195.15	-50.000
195.53	-87.500
195.91	400.000
196.29	-350.000
196.66	169.231
197.04	71.429
197.42	-111.111
197.79	-466.667
198.17	-53.846
198.55	1600.000
198.92	-66.667
199.30	500.000
199.68	-60.000
200.05	-466.667
200.43	0.000
200.81	-66.667
201.18	-166.667
201.56	400.000
201.94	-350.000
202.31	-100.000
202.69	-260.000
203.07	-0.000
203.44	0.000
203.82	0.000
204.19	42.857
204.57	-500.000
204.95	12.500
205.32	-20.000
205.70	-100.000
206.08	25.000
206.45	88.889
206.83	28.571
207.20	14.286
207.58	600.000
207.96	-266.667
208.33	10.000
208.71	-125.000
209.08	-83.333
209.46	-200.000
209.84	-100.000
210.21	-1200.000
210.59	14.286
210.96	66.667
211.34	-50.000
211.71	53.333
212.09	-57.143
212.46	-1200.000
212.84	0.000
213.22	60.000
213.59	200.000
213.97	-38.462
214.34	136.364
214.72	-150.000
215.09	375.000
215.47	-46.154
215.84	9.091
216.22	-266.667
216.59	-75.000
216.97	250.000
217.34	50.000
217.72	-360.000
218.09	50.000
218.47	125.000
218.84	0.000
219.22	-44.444
219.59	60.000
219.97	533.333
220.34	225.000
220.72	-42.857
221.09	-125.000
221.47	-50.000
221.84	-700.000
222.22	-650.000
222.59	-18.182
222.97	-25.000
223.34	-100.000
223.72	-21.429
224.09	0.000
224.46	21.429
224.84	266.667
225.21	-20.000
225.59	60.000
225.96	550.000
226.34	275.000
226.71	-28.571
227.08	0.000
227.46	-50.000
227.83	-900.000
228.21	-44.444
228.58	18.182
228.95	-75.000
229.33	100.000
229.70	43.750
230.08	-50.000
230.45	-71.429
230.82	-71.429
231.20	20.000
231.57	42.857
231.95	42.857
232.32	-80.000
232.69	-28.571
233.07	-333.333
233.44	60.000
233.81	-90.000
234.19	0.000
234.56	-23.529
234.93	-250.000
235.31	125.000
235.68	-300.000
236.05	-15.385
236.43	5.000
236.80	-5.882
237.17	50.000
237.55	65.000
237.92	-7.407
238.29	19.444
238.67	26.667
239.04	5.882
239.41	-7.317
239.79	-3.333
240.16	46.341
240.53	2.632
240.91	43.478
241.28	15.873
241.65	33.929
242.02	34.247
242.40	38.333
242.77	13.559
243.14	19.697
243.51	25.000
243.89	20.690
244.26	8.046
244.63	21.429
245.00	21.649
245.38	30.928
245.75	17.978
246.12	22.414
246.49	29.752
246.87	28.846
247.24	19.328
247.61	14.912
247.98	20.325
248.36	21.250
248.73	21.711
249.10	21.429
249.47	30.380
249.84	23.529
250.22	27.059
250.59	30.065
250.96	26.761
251.33	27.326
251.70	25.294
252.08	32.487
252.45	27.228
252.82	25.126
253.19	23.963
253.56	18.224
253.94	29.279
254.31	30.435
254.68	32.895
255.05	25.197
255.42	29.258
255.79	28.958
256.16	28.405
256.54	27.985
256.91	29.278
257.28	25.651
257.65	28.090
258.02	22.695
258.39	29.630
258.76	28.205
259.14	25.581
259.51	28.155
259.88	25.086
260.25	26.797
260.62	30.903
260.99	26.441
261.36	22.260
261.73	27.848
262.10	27.356
262.47	26.074
262.85	24.138
263.22	25.538
263.59	26.480
263.96	26.708
264.33	26.667
264.70	29.167
265.07	26.786
265.44	24.929
265.81	25.706
266.18	27.596
266.55	25.450
266.92	31.347
267.29	25.849
267.66	26.598
268.03	28.272
268.40	25.326
268.77	28.075
269.14	24.460
269.51	24.679
269.88	23.192
270.25	22.959
270.62	23.902
270.99	25.064
271.36	25.183
271.73	26.291
272.10	24.818
272.47	24.113
272.84	26.485
273.21	25.522
273.58	26.506
273.95	27.689
274.32	23.326
274.69	23.077
275.06	27.455
275.43	26.077
275.80	25.607
276.17	22.989
276.54	24.839
276.91	26.096
277.28	22.489
277.65	26.033
278.02	25.319
278.39	23.632
278.76	24.319
279.13	23.029
279.50	27.941
279.87	25.918
280.23	22.796
280.60	26.121
280.97	24.444
281.34	22.885
281.71	26.489
282.08	25.153
282.45	23.483
282.82	26.448
283.19	26.112
283.56	23.121
283.92	22.770
284.29	24.038
284.66	23.450
285.03	27.898
285.40	22.495
285.77	21.617
286.14	22.202
286.51	27.122
286.87	22.669
287.24	25.414
287.61	23.104
287.98	24.912
288.35	23.224
288.72	25.394
289.08	23.785
289.45	24.605
289.82	24.650
290.19	24.232
290.56	22.985
290.93	23.232
291.29	21.263
291.66	22.677
292.03	24.083
292.40	22.097
292.77	20.734
293.13	18.669
293.50	21.396
293.87	22.443
294.24	22.720
294.60	21.311
294.97	21.280
295.34	22.086
295.71	22.504
296.08	21.824
296.44	20.626
296.81	21.528
297.18	21.304
297.55	23.984
297.91	21.096
298.28	23.351
298.65	21.303
299.02	19.272
299.38	20.383
299.75	21.379
300.12	20.681
300.48	21.344
300.85	20.025
301.22	20.390
301.59	20.132
301.95	22.532
302.32	23.476
302.69	22.139
303.05	20.173
303.42	21.420
303.79	21.262
304.15	22.103
304.52	21.165
304.89	20.702
305.25	20.823
305.62	20.303
305.99	20.702
306.35	21.387
306.72	20.472
307.09	21.323
307.45	23.995
307.82	20.718
308.19	23.229
308.55	22.028
308.92	23.420
309.29	22.346
309.65	22.713
310.02	23.542
310.38	23.820
310.75	24.262
311.12	24.004
311.48	23.648
311.85	23.874
312.22	23.418
312.58	24.522
312.95	22.839
313.31	24.638
313.68	24.293
314.05	22.653
314.41	25.258
314.78	24.948
315.14	25.488
315.51	26.812
315.87	25.820
316.24	28.514
316.61	27.461
316.97	27.183
317.34	28.809
317.70	27.629
318.07	27.212
318.43	29.314
318.80	29.830
319.16	30.176
319.53	28.775
319.89	29.331
320.26	30.870
320.62	30.391
320.99	29.854
321.35	31.757
321.72	31.464
322.08	32.024
322.45	32.690
322.81	32.318
323.18	33.562
323.54	32.432
323.91	32.911
324.27	35.352
324.64	36.798
325.00	36.223
325.37	37.925
325.73	36.899
326.10	39.691
326.46	39.821
326.83	38.933
327.19	40.715
327.56	41.703
327.92	43.222
328.29	41.250
328.65	43.302
329.01	43.474
329.38	42.765
329.74	43.248
330.11	44.022
330.47	43.135
330.84	45.000
331.20	49.525
331.56	46.852
331.93	48.128
332.29	46.838
332.66	47.149
333.02	45.818
333.38	46.196
333.75	48.260
334.11	46.822
334.48	47.507
334.84	47.802
335.20	48.399
335.57	47.597
335.93	48.058
336.29	48.987
336.66	48.865
337.02	50.279
337.38	47.130
337.75	49.000
338.11	48.963
338.47	49.453
338.84	48.983
339.20	48.812
339.56	49.817
339.93	48.075
340.29	48.073
340.65	50.090
341.02	50.621
341.38	47.876
341.74	46.820
342.11	48.094
342.47	48.132
342.83	49.308
343.20	47.735
343.56	49.391
343.92	50.664
344.28	50.128
344.65	49.223
345.01	48.228
345.37	47.603
345.73	48.703
346.10	50.388
346.46	48.108
346.82	47.463
347.19	47.714
347.55	48.872
347.91	48.220
348.27	48.181
348.63	48.296
349.00	48.646
349.36	50.623
349.72	48.425
350.08	48.197
350.45	48.603
350.81	48.588
351.17	47.231
351.53	48.816
351.89	47.234
352.26	48.320
352.62	49.194
352.98	47.631
353.34	47.101
353.70	47.654
354.07	46.694
354.43	47.798
354.79	49.050
355.15	47.619
355.51	48.022
355.87	48.220
356.24	46.819
356.60	46.564
356.96	48.095
357.32	47.923
357.68	47.381
358.04	47.658
358.40	48.553
358.77	47.847
359.13	48.038
359.49	45.840
359.85	47.660
360.21	47.289
360.57	47.360
360.93	46.672
361.29	46.526
361.66	47.022
362.02	48.636
362.38	47.982
362.74	47.086
363.10	47.479
363.46	49.148
363.82	48.460
364.18	47.454
364.54	46.618
364.90	47.168
365.26	48.180
365.62	47.737
365.98	47.214
366.35	49.599
366.71	48.928
367.07	48.476
367.43	47.232
367.79	47.491
368.15	47.882
368.51	48.143
368.87	46.805
369.23	47.437
369.59	48.324
369.95	49.267
370.31	48.916
370.67	48.209
371.03	47.050
371.39	48.140
371.75	47.839
372.11	48.146
372.47	47.263
372.83	47.835
373.19	48.359
373.55	46.498
373.91	47.732
374.27	47.909
374.63	48.672
374.99	48.156
375.35	49.095
375.71	48.392
376.07	47.472
376.42	47.211
376.78	48.121
377.14	47.258
377.50	48.473
377.86	46.988
378.22	48.054
378.58	48.269
378.94	46.692
379.30	48.035
379.66	48.464
380.02	48.743
380.38	47.839
380.74	48.354
381.09	49.202
381.45	48.073
381.81	47.872
382.17	47.208
382.53	47.220
382.89	49.027
383.25	48.911
383.61	48.720
383.97	46.603
384.32	48.218
384.68	48.235
385.04	47.733
385.40	47.853
385.76	49.371
386.12	49.612
386.48	48.723
386.83	46.988
387.19	48.168
387.55	48.369
387.91	48.716
388.27	46.764
388.62	49.025
388.98	48.435
389.34	47.783
389.70	47.980
390.06	47.262
390.42	47.604
390.77	48.855
391.13	47.541
391.49	49.030
391.85	47.368
392.20	47.520
392.56	48.442
392.92	47.739
393.28	47.759
393.64	48.829
393.99	49.279
394.35	48.134
394.71	48.084
395.07	48.272
395.42	48.391
395.78	47.687
396.14	48.235
396.50	48.510
396.85	47.972
397.21	47.619
397.57	47.774
397.92	47.693
398.28	48.851
398.64	45.783
399.00	47.460
399.35	46.445
399.71	48.478
400.07	47.158
400.42	48.164
400.78	47.520
401.14	47.852
401.49	48.064
401.85	47.715
402.21	46.867
402.57	47.000
402.92	47.051
403.28	47.055
403.63	48.550
403.99	47.194
404.35	47.658
404.70	46.012
405.06	47.356
405.42	46.986
405.77	47.008
406.13	48.312
406.49	46.832
406.84	47.616
407.20	47.742
407.55	47.135
407.91	46.725
408.27	47.100
408.62	47.877
408.98	46.334
409.34	47.893
409.69	47.739
410.05	46.305
410.40	47.222
410.76	47.708
411.11	46.688
411.47	47.600
411.83	47.207
412.18	48.713
412.54	46.192
412.89	45.936
413.25	48.075
413.60	46.957
413.96	46.564
414.31	45.732
414.67	47.595
415.03	47.870
415.38	47.063
415.74	48.078
416.09	48.726
416.45	48.008
416.80	46.728
417.16	48.135
417.51	47.968
417.87	47.718
418.22	48.251
418.58	48.495
418.93	47.524
419.29	46.159
419.64	47.699
420.00	48.237
420.35	46.269
420.71	48.481
421.06	47.452
421.42	48.377
421.77	48.035
422.12	48.070
422.48	47.212
422.83	48.782
423.19	47.686
423.54	47.737
423.90	47.527
424.25	48.220
424.61	49.388
424.96	48.026
425.31	49.567
425.67	49.413
426.02	49.293
426.38	50.657
426.73	48.608
427.09	50.380
427.44	49.000
427.79	49.676
428.15	48.726
428.50	50.030
428.85	48.403
429.21	48.613
429.56	50.512
429.92	48.742
430.27	48.772
430.62	47.831
430.98	48.301
431.33	49.685
431.68	47.881
432.04	50.307
432.39	49.059
432.74	47.384
433.10	51.034
433.45	49.104
433.80	50.087
434.16	48.809
434.51	49.839
434.86	50.929
435.22	50.140
435.57	50.780
435.92	50.539
436.28	49.314
436.63	49.914
436.98	49.594
437.34	49.304
437.69	50.089
438.04	50.256
438.39	49.481
438.75	50.698
439.10	49.462
439.45	50.396
439.81	49.725
440.16	51.663
440.51	51.761
440.86	51.662
441.22	50.339
441.57	50.331
441.92	51.836
442.27	51.718
442.63	52.784
442.98	50.890
443.33	49.805
443.68	49.920
444.03	51.813
444.39	50.566
444.74	52.620
445.09	51.169
445.44	51.339
445.79	52.089
446.15	50.936
446.50	50.361
446.85	51.700
447.20	51.356
447.55	51.674
447.91	51.213
448.26	53.045
448.61	52.332
448.96	51.578
449.31	51.676
449.66	51.394
450.02	52.196
450.37	53.468
450.72	51.375
451.07	53.228
451.42	51.498
451.77	51.417
452.12	50.957
452.47	51.320
452.83	52.473
453.18	52.309
453.53	53.161
453.88	52.520
454.23	53.534
454.58	53.715
454.93	52.255
455.28	50.286
455.63	52.449
455.98	51.533
456.34	52.554
456.69	52.922
457.04	53.686
457.39	52.187
457.74	52.963
458.09	51.619
458.44	51.960
458.79	51.821
459.14	52.517
459.49	53.612
459.84	53.243
460.19	51.517
460.54	51.589
460.89	53.239
461.24	52.422
461.59	52.375
461.94	51.006
462.29	53.559
462.64	54.684
462.99	52.404
463.34	53.408
463.69	53.346
464.04	52.785
464.39	53.184
464.74	51.656
465.09	53.337
465.44	52.683
465.79	50.000
466.14	53.364
466.49	52.444
466.84	53.480
467.19	52.441
467.54	53.512
467.89	54.390
468.24	52.920
468.59	54.222
468.94	52.508
469.29	54.557
469.64	54.135
469.99	55.151
470.34	54.198
470.68	54.884
471.03	55.697
471.38	56.277
471.73	55.322
472.08	54.885
472.43	54.765
472.78	54.352
473.13	55.102
473.48	54.788
473.83	53.176
474.17	54.793
474.52	53.542
474.87	55.152
475.22	54.790
475.57	53.247
475.92	55.458
476.27	54.948
476.61	54.456
476.96	54.490
477.31	55.219
477.66	55.449
478.01	54.520
478.36	54.521
478.70	55.411
479.05	54.835
479.40	55.644
479.75	53.597
480.10	54.583
480.45	53.750
480.79	55.337
481.14	56.301
481.49	54.138
481.84	54.681
482.19	53.882
482.53	55.683
482.88	54.081
483.23	53.119
483.58	55.094
483.92	54.647
484.27	54.148
484.62	54.774
484.97	53.275
485.31	52.601
485.66	50.134
486.01	50.108
486.36	49.491
486.70	49.874
487.05	50.257
487.40	51.319
487.75	51.746
488.09	51.174
488.44	52.166
488.79	53.231
489.13	54.087
489.48	54.767
489.83	54.350
490.17	54.517
490.52	54.965
490.87	54.928
491.22	55.540
491.56	54.696
491.91	55.688
492.26	55.566
492.60	55.182
492.95	57.354
493.30	55.300
493.64	56.925
493.99	55.894
494.34	55.243
494.68	55.381
495.03	55.036
495.37	55.545
495.72	57.244
496.07	54.927
496.41	55.047
496.76	55.504
497.11	54.588
497.45	55.609
497.80	56.660
498.14	55.887
498.49	56.171
498.84	55.439
499.18	56.074
499.53	55.754
499.87	56.031
500.22	56.479
500.56	56.531
500.91	55.974
501.26	55.957
501.60	56.321
501.95	57.254
502.29	55.690
502.64	55.550
502.98	55.698
503.33	54.803
503.67	56.048
504.02	55.327
504.36	55.814
504.71	55.606
505.06	55.913
505.40	57.107
505.75	57.629
506.09	57.020
506.44	57.700
506.78	57.806
507.13	56.877
507.47	56.554
507.82	57.639
508.16	57.052
508.51	57.975
508.85	58.189
509.19	57.265
509.54	58.284
509.88	56.796
510.23	57.934
510.57	58.097
510.92	56.397
511.26	57.501
511.61	57.206
511.95	57.699
512.30	58.370
512.64	57.874
512.98	57.608
513.33	58.982
513.67	58.101
514.02	60.183
514.36	59.543
514.70	59.848
515.05	59.988
515.39	59.740
515.74	60.838
516.08	60.072
516.42	60.188
516.77	59.274
517.11	61.424
517.46	60.922
517.80	59.774
518.14	59.829
518.49	58.774
518.83	60.571
519.17	59.005
519.52	59.384
519.86	60.444
520.20	61.725
520.55	60.288
520.89	60.853
521.23	61.368
521.58	61.451
521.92	61.282
522.26	61.939
522.61	62.013
522.95	62.715
523.29	60.546
523.64	61.690
523.98	61.244
524.32	60.503
524.66	62.036
525.01	63.896
525.35	60.791
525.69	63.367
526.04	61.772
526.38	62.970
526.72	62.394
527.06	60.506
527.41	62.665
527.75	62.399
528.09	61.528
528.43	62.593
528.78	61.650
529.12	60.839
529.46	61.274
529.80	59.721
530.15	63.630
530.49	63.232
530.83	62.654
531.17	61.518
531.51	63.885
531.86	61.863
532.20	61.447
532.54	61.198
532.88	62.286
533.22	61.425
533.57	59.502
533.91	59.987
534.25	61.523
534.59	60.103
534.93	60.352
535.27	58.883
535.62	58.782
535.96	62.492
536.30	59.631
536.64	61.682
536.98	60.767
537.32	61.593
537.66	62.903
538.01	63.147
538.35	61.165
538.69	59.321
539.03	60.424
539.37	61.104
539.71	59.168
540.05	59.946
540.39	61.357
540.73	61.367
541.07	61.948
541.42	60.349
541.76	61.046
542.10	60.496
542.44	59.277
542.78	59.670
543.12	60.165
543.46	60.501
543.80	62.387
544.14	58.879
544.48	60.493
544.82	61.312
545.16	61.680
545.50	59.746
545.84	60.836
546.18	62.482
546.52	61.067
546.86	61.251
547.20	61.660
547.54	60.495
547.88	60.462
548.22	58.514
548.56	57.718
548.90	60.377
549.24	59.573
549.58	60.649
549.92	61.258
550.26	61.172
550.60	62.007
550.94	61.987
551.28	61.901
551.62	62.154
551.96	61.429
552.30	61.038
552.64	58.956
552.98	60.408
553.32	60.628
553.66	59.507
554.00	60.949
554.34	61.743
554.68	61.947
555.02	61.086
555.36	62.304
555.69	59.267
556.03	60.385
556.37	60.569
556.71	60.794
557.05	61.596
557.39	59.926
557.73	61.844
558.07	61.689
558.41	62.328
558.75	61.029
559.08	62.490
559.42	63.175
559.76	62.210
560.10	62.385
560.44	60.611
560.78	59.650
561.12	61.213
561.45	60.998
561.79	61.345
562.13	60.256
562.47	60.360
562.81	61.023
563.15	59.803
563.48	60.184
563.82	60.192
564.16	59.749
564.50	59.257
564.84	57.831
565.17	59.624
565.51	61.612
565.85	60.700
566.19	59.549
566.52	59.383
566.86	58.933
567.20	57.410
567.54	58.212
567.88	57.118
568.21	57.127
568.55	55.870
568.89	57.444
569.23	54.165
569.56	53.853
569.90	54.162
570.24	51.544
570.57	51.527
570.91	52.144
571.25	50.148
571.59	50.202
571.92	49.007
572.26	49.185
572.60	49.333
572.93	49.012
573.27	48.652
573.61	49.075
573.95	49.153
574.28	48.014
574.62	47.979
574.96	47.270
575.29	47.627
575.63	46.852
575.97	47.601
576.30	47.737
576.64	47.417
576.98	47.722
577.31	48.022
577.65	47.798
577.98	46.788
578.32	46.528
578.66	46.078
578.99	46.982
579.33	47.115
579.67	46.631
580.00	47.848
580.34	47.040
580.67	46.835
581.01	47.262
581.35	46.102
581.68	46.152
582.02	45.678
582.35	45.645
582.69	45.598
583.02	46.593
583.36	47.291
583.70	47.118
584.03	48.207
584.37	48.419
584.70	47.747
585.04	46.269
585.37	46.978
585.71	46.581
586.04	46.974
586.38	47.533
586.72	47.661
587.05	47.978
587.39	48.365
587.72	48.250
588.06	48.049
588.39	47.451
588.73	48.199
589.06	49.185
589.40	49.395
589.73	50.237
590.07	49.811
590.40	50.426
590.73	51.153
591.07	51.272
591.40	50.935
591.74	51.991
592.07	52.597
592.41	50.707
592.74	49.263
593.08	47.852
593.41	47.974
593.75	47.988
594.08	48.301
594.41	49.527
594.75	49.351
595.08	50.586
595.42	49.319
595.75	49.493
596.09	50.039
596.42	50.186
596.75	50.844
597.09	50.478
597.42	50.813
597.75	51.260
598.09	50.068
598.42	50.361
598.76	50.064
599.09	48.878
599.42	49.072
599.76	48.871
600.09	49.811
600.42	48.863
600.76	48.328
601.09	47.748
601.42	48.570
601.76	49.266
602.09	49.587
602.42	50.253
602.76	49.703
603.09	50.332
603.42	50.836
603.76	49.597
604.09	49.372
604.42	49.958
604.76	49.889
605.09	50.503
605.42	50.880
605.75	49.562
606.09	49.851
606.42	49.291
606.75	49.697
607.09	49.714
607.42	49.402
607.75	50.000
608.08	48.967
608.42	49.475
608.75	51.566
609.08	51.470
609.41	51.980
609.75	51.764
610.08	50.874
610.41	49.855
610.74	51.146
611.07	52.351
611.41	51.687
611.74	53.252
612.07	50.857
612.40	52.188
612.73	53.616
613.07	52.587
613.40	53.665
613.73	51.987
614.06	52.866
614.39	52.792
614.72	53.109
615.06	52.514
615.39	51.856
615.72	51.076
616.05	52.458
616.38	50.712
616.71	52.599
617.05	56.393
617.38	53.677
617.71	53.585
618.04	54.286
618.37	55.927
618.70	54.191
619.03	55.556
619.36	55.282
619.69	57.165
620.03	56.318
620.36	55.794
620.69	56.460
621.02	57.263
621.35	57.925
621.68	58.163
622.01	59.333
622.34	57.861
622.67	57.413
623.00	57.351
623.33	57.927
623.66	56.619
623.99	55.522
624.32	56.730
624.65	56.917
624.99	57.261
625.32	56.558
625.65	58.130
625.98	59.388
626.31	57.689
626.64	61.785
626.97	60.995
627.30	59.282
627.63	59.965
627.96	60.198
628.29	61.702
628.62	61.652
628.95	63.226
629.28	62.601
629.61	60.618
629.94	62.170
630.26	60.375
630.59	65.140
630.92	65.026
631.25	62.462
631.58	65.969
631.91	64.364
632.24	65.940
632.57	64.545
632.90	63.345
633.23	66.000
633.56	68.010
633.89	66.338
634.22	67.160
634.55	68.107
634.88	66.667
635.20	65.897
635.53	68.000
635.86	66.450
636.19	66.882
636.52	67.092
636.85	63.524
637.18	64.025
637.51	65.786
637.83	65.309
638.16	70.396
638.49	67.030
638.82	67.105
639.15	67.164
639.48	68.638
639.81	69.735
640.13	68.975
640.46	69.534
640.79	69.661
641.12	69.276
641.45	69.369
641.77	69.778
642.10	70.932
642.43	67.042
642.76	71.287
643.09	70.921
643.41	70.550
643.74	70.181
644.07	71.100
644.40	74.324
644.73	73.205
645.05	70.134
645.38	72.840
645.71	73.050
646.04	75.763
646.36	70.745
646.69	72.302
647.02	73.913
647.35	75.187
647.67	73.675
648.00	72.015
648.33	71.160
648.66	69.492
648.98	69.347
649.31	67.934
649.64	67.661
649.96	67.747
650.29	70.528
650.62	68.376
650.94	73.333
651.27	72.067
651.60	72.072
651.92	70.629
652.25	69.094
652.58	67.500
652.90	69.297
653.23	67.731
653.56	65.651
653.88	69.416
654.21	67.075
654.54	67.572
654.86	68.761
655.19	64.912
655.52	56.037
655.84	43.218
656.17	45.304
656.49	61.255
656.82	62.692
657.15	48.437
657.47	36.453
657.80	27.641
658.13	27.207
658.45	42.272
658.78	43.544
659.10	43.687
659.43	45.316
659.75	48.643
660.08	50.345
660.41	56.691
660.73	61.050
661.06	65.858
661.38	71.429
661.71	70.226
662.03	72.532
662.36	74.066
662.68	72.788
663.01	75.109
663.33	73.782
663.66	75.814
663.98	77.674
664.31	73.987
664.63	76.498
664.96	70.217
665.28	69.978
665.61	69.697
665.93	72.609
666.26	69.414
666.58	71.588
666.91	76.941
667.23	80.896
667.56	77.014
667.88	76.019
668.21	76.134
668.53	74.704
668.86	72.642
669.18	71.934
669.50	74.818
669.83	72.558
670.15	75.758
670.48	76.794
670.80	72.350
671.13	70.470
671.45	69.406
671.77	72.961
672.10	67.921
672.42	64.419
672.75	65.364
673.07	66.011
673.39	66.239
673.72	64.694
674.04	65.417
674.37	70.127
674.69	70.021
675.01	69.556
675.34	69.144
675.66	71.065
675.98	70.510
676.31	70.413
676.63	73.634
676.95	69.091
677.28	73.176
677.60	75.904
677.92	69.037
678.25	71.991
678.57	67.965
678.89	68.277
679.22	73.154
679.54	62.651
679.86	66.600
680.18	68.350
680.51	63.068
680.83	66.600
681.15	66.400
681.48	69.467
681.80	67.975
682.12	65.927
682.44	68.828
682.77	71.744
683.09	68.192
683.41	70.682
683.73	70.737
684.06	70.796
684.38	65.591
684.70	70.370
685.02	64.108
685.34	62.846
685.67	62.664
685.99	62.206
686.31	62.478
686.63	61.039
686.96	60.646
687.28	64.646
687.60	62.548
687.92	67.879
688.24	62.298
688.56	68.996
688.89	67.411
689.21	70.889
689.53	67.981
689.85	66.047
690.17	62.723
690.49	68.558
690.82	64.078
691.14	70.000
691.46	66.121
691.78	64.640
692.10	63.441
692.42	64.069
692.74	63.675
693.06	64.865
693.39	61.765
693.71	61.991
694.03	62.125
694.35	62.150
694.67	69.444
694.99	67.624
695.31	72.063
695.63	69.000
695.95	62.879
696.27	67.876
696.59	66.667
696.91	70.028
697.23	64.524
697.56	66.089
697.88	63.226
698.20	62.187
698.52	62.588
698.84	64.115
699.16	61.500
699.48	64.411
699.80	65.509
700.12	66.846
700.44	68.627
700.76	70.058
701.08	70.303
701.40	68.072
701.72	73.148
702.04	72.937
702.36	81.271
702.68	69.369
703.00	73.030
703.32	68.328
703.64	64.689
703.96	65.507
704.28	66.258
704.60	70.794
704.91	64.353
705.23	70.432
705.55	79.152
705.87	72.563
706.19	73.704
706.51	63.574
706.83	69.453
707.15	65.421
707.47	62.745
707.79	61.719
708.11	63.000
708.43	62.250
708.74	61.499
709.06	64.507
709.38	70.336
709.70	65.976
710.02	61.783
710.34	67.492
710.66	61.859
710.98	66.556
711.29	68.197
711.61	67.119
711.93	70.033
712.25	71.478
712.57	71.062
712.89	67.164
713.20	70.934
713.52	69.338
713.84	64.164
714.16	68.041
714.48	65.161
714.80	64.744
715.11	62.310
715.43	62.069
715.75	65.667
716.07	67.110
716.39	61.745
716.70	65.314
717.02	67.557
717.34	67.611
717.66	70.354
717.97	72.609
718.29	71.967
718.61	69.685
718.93	65.504
719.24	62.357
719.56	68.675
719.88	63.574
720.20	66.288
720.51	62.452
720.83	64.093
721.15	69.328
721.46	66.935
721.78	67.984
722.10	60.595
722.42	71.369
722.73	60.408
723.05	69.796
723.37	66.949
723.68	74.775
724.00	65.385
724.32	66.222
724.63	68.182
724.95	68.559
725.27	70.046
725.58	69.492
725.90	61.111
726.22	62.162
726.53	59.322
726.85	59.551
727.16	63.774
727.48	61.943
727.80	67.206
728.11	62.288
728.43	55.686
728.74	62.097
729.06	60.800
729.38	66.165
729.69	62.550
730.01	55.769
730.32	66.418
730.64	59.717
730.96	58.491
731.27	58.000
731.59	58.983
731.90	61.783
732.22	59.937
732.53	59.468
732.85	57.801
733.16	62.626
733.48	60.791
733.80	61.594
734.11	56.949
734.43	61.168
734.74	57.273
735.06	56.678
735.37	60.725
735.69	57.239
736.00	60.279
736.32	56.711
736.63	59.155
736.95	54.949
737.26	59.075
737.58	56.040
737.89	53.846
738.21	60.150
738.52	63.374
738.83	62.882
739.15	57.642
739.46	60.630
739.78	57.143
740.09	56.536
740.41	60.145
740.72	61.024
741.04	59.514
741.35	57.447
741.66	63.033
741.98	58.163
742.29	59.406
742.61	69.634
742.92	63.507
743.23	63.889
743.55	62.896
743.86	67.943
744.18	62.679
744.49	65.426
744.80	64.674
745.12	66.310
745.43	59.512
745.74	70.833
746.06	60.976
746.37	68.063
746.68	63.033
747.00	63.830
747.31	72.139
747.62	63.107
747.94	63.636
748.25	60.396
748.56	61.202
748.88	63.874
749.19	65.957
749.50	65.025
749.82	58.491
750.13	66.055
750.44	62.030
750.75	56.343
751.07	62.774
751.38	57.854
751.69	59.608
752.01	60.853
752.32	60.159
752.63	58.498
752.94	56.897
753.26	66.527
753.57	64.706
753.88	61.504
754.19	55.833
754.51	54.132
754.82	59.919
755.13	64.583
755.44	64.919
755.75	57.031
756.07	61.479
756.38	53.585
756.69	61.686
757.00	54.000
757.31	54.248
757.63	50.305
757.94	49.722
758.25	50.685
758.56	50.000
758.87	47.592
759.18	49.844
759.50	53.091
759.81	53.846
760.12	56.452
760.43	48.485
760.74	52.160
761.05	52.615
761.36	50.852
761.67	56.667
761.99	54.082
762.30	54.182
762.61	52.569
762.92	57.014
763.23	51.802
763.54	56.542
763.85	56.780
764.16	56.432
764.47	50.000
764.78	53.480
765.10	51.178
765.41	50.158
765.72	48.254
766.03	46.617
766.34	47.080
766.65	58.167
766.96	57.576
767.27	60.106
767.58	58.621
767.89	57.447
768.20	59.091
768.51	58.791
768.82	57.635
769.13	47.465
769.44	48.927
769.75	53.881
770.06	54.310
770.37	54.327
770.68	57.868
770.99	53.846
771.30	57.843
771.61	56.109
771.92	56.466
772.23	58.128
772.54	58.065
772.85	61.728
773.16	62.360
773.47	63.399
773.78	62.092
774.09	42.515
774.39	61.333
774.70	56.051
775.01	57.241
775.32	57.857
775.63	59.504
775.94	57.252
776.25	62.992
776.56	60.000
776.87	64.423
777.18	61.538
777.48	63.793
777.79	56.522
778.10	56.190
778.41	54.054
778.72	54.762
779.03	59.398
779.34	60.993
779.65	59.589
779.95	58.904
780.26	56.552
780.57	53.659
780.88	59.055
781.19	59.483
781.50	53.488
781.80	39.645
782.11	45.283
782.42	56.923
782.73	55.396
783.04	55.556
783.34	47.917
783.65	47.009
783.96	64.754
784.27	58.621
784.57	52.033
784.88	63.281
785.19	62.000
785.50	66.000
785.81	53.448
786.11	49.138
786.42	66.990
786.73	59.091
787.04	67.347
787.34	58.036
787.65	60.952
787.96	48.673
788.26	65.455
788.57	58.974
788.88	54.688
789.19	47.619
789.49	48.696
789.80	63.265
790.11	38.384
790.41	52.727
790.72	57.609
791.03	53.409
791.33	60.000
791.64	61.250
791.95	47.674
792.25	57.447
792.56	64.045
792.87	54.795
793.17	59.420
793.48	60.000
793.79	58.750
794.09	56.250
794.40	60.377
794.70	49.515
795.01	42.276
795.32	52.137
795.62	46.667
795.93	54.902
796.23	49.057
796.54	52.083
796.85	70.588
797.15	60.563
797.46	59.722
797.76	71.212
798.07	48.837
798.37	57.895
798.68	54.545
798.99	61.728
799.29	67.143
799.60	57.971
799.90	58.667
800.21	68.852
800.51	49.231
800.82	59.322
801.12	63.768
801.43	59.016
801.73	71.429
802.04	66.000
802.34	49.254
802.65	69.231
802.95	39.286
803.26	51.923
803.56	76.471
803.87	47.826
804.17	49.333
804.48	69.841
804.78	70.370
805.09	43.478
805.39	71.111
805.70	74.074
806.00	54.386
806.30	50.704
806.61	50.000
806.91	47.222
807.22	52.632
807.52	56.000
807.83	69.091
808.13	45.833
808.43	58.824
808.74	64.179
809.04	44.068
809.35	61.538
809.65	50.000
809.95	64.865
810.26	38.636
810.56	53.425
810.86	64.286
811.17	46.000
811.47	67.347
811.77	39.474
812.08	50.000
812.38	47.170
812.69	75.000
812.99	57.576
813.29	76.316
813.59	60.000
813.90	59.091
814.20	46.154
814.50	38.462
814.81	60.377
815.11	29.787
815.41	55.932
815.72	47.619
816.02	43.137
816.32	52.083
816.62	29.268
816.93	54.054
817.23	48.571
817.53	45.833
817.84	43.478
818.14	50.000
818.44	26.316
818.74	60.870
819.04	25.000
819.35	89.189
819.65	67.647
819.95	52.778
820.25	45.238
820.56	50.000
820.86	6.897
821.16	50.000
821.46	68.085
821.76	55.000
822.07	65.116
822.37	48.649
822.67	50.000
822.97	59.524
823.27	42.857
823.57	16.000
823.88	55.556
824.18	64.286
824.48	26.471
824.78	25.806
825.08	86.957
825.38	69.697
825.69	29.167
825.99	55.263
826.29	41.667
826.59	73.333
826.89	76.190
827.19	36.957
827.49	20.000
827.79	71.429
828.09	32.143
828.39	75.758
828.70	75.676
829.00	53.571
829.30	33.333
829.60	60.000
829.90	43.750
830.20	31.579
830.50	55.556
830.80	26.087
831.10	50.000
831.40	69.697
831.70	74.194
832.00	85.714
832.30	-19.048
832.60	-16.667
832.90	41.379
833.20	-20.000
833.50	72.727
833.80	22.222
834.10	57.692
834.40	59.375
834.70	22.222
835.00	31.579
835.30	96.154
835.60	93.333
835.90	51.613
836.20	100.000
836.50	50.000
836.80	-26.923
837.10	71.429
837.40	-33.333
837.70	72.727
838.00	100.000
838.30	47.826
838.60	7.692
838.90	77.273
839.19	17.857
839.49	40.000
839.79	92.308
840.09	-8.333
840.39	53.571
840.69	25.000
840.99	-3.846
841.29	-47.368
841.59	-40.000
841.88	45.455
842.18	20.000
842.48	25.000
842.78	53.333
843.08	18.519
843.38	40.000
843.68	60.870
843.97	66.667
844.27	6.667
844.57	-5.000
844.87	50.000
845.17	42.857
845.47	26.667
845.76	38.095
846.06	35.294
846.36	40.000
846.66	50.000
846.96	66.667
847.25	-50.000
847.55	92.857
847.85	175.000
848.15	-9.091
848.44	-133.333
848.74	80.000
849.04	62.963
849.34	63.636
849.63	-16.667
849.93	-100.000
850.23	61.111
850.53	100.000
850.82	-7.692
851.12	11.111
851.42	40.000
851.71	15.385
852.01	28.571
852.31	125.000
852.61	-27.273
852.90	25.000
853.20	26.316
853.50	66.667
853.79	39.130
854.09	45.833
854.39	5.263
854.68	0.000
854.98	38.710
855.28	80.769
855.57	10.000
855.87	33.333
856.17	44.444
856.46	-14.286
856.76	73.333
857.05	66.667
857.35	72.000
857.65	5.556
857.94	30.769
858.24	-3.448
858.53	50.000
858.83	25.926
859.13	40.909
859.42	8.696
859.72	-75.000
860.01	66.667
860.31	56.000
860.60	9.524
860.90	-200.000
861.20	40.000
861.49	-300.000
861.79	20.000
862.08	20.000
862.38	153.333
862.67	20.000
862.97	16.667
863.26	-25.000
863.56	72.222
863.85	33.333
864.15	27.778
864.44	40.000
864.74	64.286
865.03	300.000
865.33	-60.000
865.62	33.333
865.92	16.667
866.21	-66.667
866.51	87.500
866.80	45.455
867.10	300.000
867.39	33.333
867.69	0.000
867.98	30.769
868.27	100.000
868.57	46.667
868.86	44.444
869.16	-7.692
869.45	-6.667
869.75	-1400.000
870.04	0.000
870.33	14.286
870.63	19.048
870.92	333.333
871.22	-100.000
871.51	100.000
871.80	133.333
872.10	200.000
>>>>>End Processed Spectral Data<<<<<
