SpectraSuite Data File
++++++++++++++++++++++++++++++++++++
Date: Fri May 15 21:01:03 PDT 2015
User: schluterlab
Dark Spectrum Present: Yes
Reference Spectrum Present: Yes
Number of Sampled Component Spectra: 1
Spectrometers: USB2E3373
Integration Time (usec): 3000 (USB2E3373)
Spectra Averaged: 3 (USB2E3373)
Boxcar Smoothing: 0 (USB2E3373)
Correct for Electrical Dark: No (USB2E3373)
Strobe/Lamp Enabled: No (USB2E3373)
Correct for Detector Non-linearity: No (USB2E3373)
Correct for Stray Light: No (USB2E3373)
Number of Pixels in Processed Spectrum: 2048
>>>>>Begin Processed Spectral Data<<<<<
178.53	0.000
178.91	0.000
179.29	-25.000
179.67	-850.000
180.04	85.714
180.42	-50.000
180.80	-300.000
181.18	-33.333
181.56	650.000
181.94	-50.000
182.31	1700.000
182.69	-160.000
183.07	-466.667
183.45	-100.000
183.83	16.667
184.20	-27.273
184.58	66.667
184.96	150.000
185.34	-33.333
185.72	-250.000
186.09	61.538
186.47	-500.000
186.85	133.333
187.23	55.556
187.61	300.000
187.98	-700.000
188.36	-33.333
188.74	-366.667
189.12	58.824
189.49	5.556
189.87	0.000
190.25	-7.143
190.63	-400.000
191.00	-166.667
191.38	-52.632
191.76	600.000
192.14	50.000
192.51	0.000
192.89	-155.556
193.27	0.000
193.65	250.000
194.02	145.455
194.40	-60.000
194.78	-200.000
195.15	-33.333
195.53	-50.000
195.91	550.000
196.29	-200.000
196.66	146.154
197.04	285.714
197.42	-111.111
197.79	-500.000
198.17	-100.000
198.55	1300.000
198.92	-366.667
199.30	-800.000
199.68	-80.000
200.05	-666.667
200.43	0.000
200.81	133.333
201.18	-33.333
201.56	800.000
201.94	-450.000
202.31	100.000
202.69	-220.000
203.07	200.000
203.44	-100.000
203.82	0.000
204.19	-7.143
204.57	-733.333
204.95	237.500
205.32	-60.000
205.70	14.286
206.08	-125.000
206.45	0.000
206.83	57.143
207.20	-214.286
207.58	900.000
207.96	-300.000
208.33	-110.000
208.71	-125.000
209.08	-16.667
209.46	-1200.000
209.84	20.000
210.21	-1500.000
210.59	42.857
210.96	83.333
211.34	-200.000
211.71	53.333
212.09	-214.286
212.46	-1800.000
212.84	0.000
213.22	-10.000
213.59	1000.000
213.97	-23.077
214.34	-45.455
214.72	-83.333
215.09	400.000
215.47	-38.462
215.84	-45.455
216.22	-133.333
216.59	-12.500
216.97	-350.000
217.34	-100.000
217.72	-220.000
218.09	-12.500
218.47	87.500
218.84	-600.000
219.22	-88.889
219.59	-240.000
219.97	566.667
220.34	400.000
220.72	-100.000
221.09	-275.000
221.47	-500.000
221.84	-200.000
222.22	-700.000
222.59	9.091
222.97	16.667
223.34	-366.667
223.72	-50.000
224.09	-23.810
224.46	-3.571
224.84	500.000
225.21	20.000
225.59	0.000
225.96	-300.000
226.34	400.000
226.71	-171.429
227.08	-183.333
227.46	12.500
227.83	-1250.000
228.21	-55.556
228.58	-36.364
228.95	-125.000
229.33	120.000
229.70	-25.000
230.08	-150.000
230.45	-142.857
230.82	114.286
231.20	13.333
231.57	28.571
231.95	-85.714
232.32	-50.000
232.69	-7.143
233.07	-200.000
233.44	60.000
233.81	-30.000
234.19	-44.444
234.56	41.176
234.93	400.000
235.31	0.000
235.68	-60.000
236.05	-76.923
236.43	-50.000
236.80	-52.941
237.17	-15.625
237.55	20.000
237.92	-40.741
238.29	25.000
238.67	46.667
239.04	5.882
239.41	-29.268
239.79	3.333
240.16	17.073
240.53	-7.895
240.91	6.522
241.28	9.524
241.65	23.214
242.02	24.658
242.40	11.667
242.77	8.475
243.14	4.545
243.51	16.250
243.89	22.989
244.26	16.092
244.63	15.476
245.00	17.526
245.38	16.495
245.75	-2.247
246.12	11.207
246.49	17.355
246.87	18.269
247.24	10.084
247.61	14.035
247.98	14.634
248.36	15.625
248.73	12.500
249.10	16.234
249.47	16.456
249.84	16.340
250.22	21.765
250.59	16.993
250.96	23.944
251.33	15.698
251.70	21.765
252.08	17.259
252.45	13.861
252.82	20.603
253.19	25.346
253.56	16.822
253.94	18.919
254.31	20.435
254.68	22.807
255.05	19.685
255.42	19.651
255.79	18.919
256.16	17.510
256.54	21.269
256.91	20.532
257.28	16.729
257.65	18.352
258.02	21.277
258.39	19.529
258.76	16.484
259.14	20.598
259.51	22.330
259.88	18.900
260.25	19.281
260.62	21.181
260.99	14.915
261.36	19.178
261.73	18.671
262.10	21.884
262.47	22.393
262.85	20.690
263.22	19.077
263.59	19.938
263.96	20.497
264.33	18.485
264.70	22.321
265.07	20.536
265.44	23.229
265.81	20.056
266.18	20.492
266.55	23.393
266.92	20.984
267.29	20.627
267.66	22.506
268.03	19.895
268.40	22.193
268.77	24.064
269.14	20.384
269.51	20.823
269.88	20.200
270.25	21.173
270.62	18.780
270.99	22.251
271.36	18.826
271.73	21.596
272.10	22.384
272.47	19.385
272.84	19.554
273.21	21.346
273.58	21.928
273.95	19.451
274.32	19.169
274.69	20.362
275.06	20.982
275.43	19.274
275.80	20.309
276.17	18.851
276.54	19.914
276.91	17.763
277.28	21.179
277.65	18.802
278.02	20.213
278.39	19.475
278.76	20.755
279.13	18.672
279.50	19.328
279.87	20.950
280.23	19.140
280.60	20.663
280.97	21.010
281.34	18.269
281.71	21.150
282.08	18.814
282.45	22.505
282.82	18.533
283.19	18.569
283.56	21.965
283.92	17.078
284.29	18.077
284.66	19.186
285.03	17.682
285.40	18.715
285.77	18.981
286.14	19.134
286.51	20.295
286.87	16.636
287.24	19.153
287.61	17.813
287.98	18.947
288.35	18.371
288.72	20.315
289.08	17.882
289.45	18.278
289.82	19.580
290.19	17.577
290.56	18.353
290.93	17.172
291.29	16.641
291.66	17.323
292.03	17.384
292.40	17.419
292.77	16.906
293.13	13.799
293.50	15.478
293.87	17.099
294.24	16.847
294.60	14.754
294.97	17.560
295.34	14.877
295.71	16.244
296.08	17.040
296.44	13.940
296.81	16.944
297.18	16.232
297.55	17.886
297.91	16.575
298.28	15.172
298.65	14.654
299.02	14.420
299.38	13.406
299.75	16.138
300.12	15.183
300.48	14.229
300.85	14.702
301.22	15.455
301.59	13.289
301.95	15.696
302.32	15.435
302.69	12.811
303.05	14.604
303.42	12.329
303.79	14.136
304.15	14.217
304.52	13.555
304.89	13.216
305.25	13.317
305.62	13.419
305.99	13.450
306.35	14.335
306.72	13.723
307.09	13.911
307.45	15.040
307.82	12.500
308.19	14.634
308.55	13.086
308.92	14.924
309.29	13.073
309.65	13.240
310.02	14.631
310.38	12.294
310.75	13.005
311.12	14.747
311.48	13.786
311.85	14.241
312.22	13.819
312.58	14.756
312.95	13.340
313.31	14.907
313.68	13.403
314.05	14.184
314.41	14.639
314.78	15.464
315.14	15.622
315.51	14.493
315.87	15.574
316.24	16.077
316.61	15.551
316.97	16.667
317.34	15.820
317.70	14.914
318.07	15.000
318.43	16.569
318.80	16.667
319.16	18.359
319.53	17.759
319.89	17.913
320.26	18.725
320.62	18.455
320.99	18.163
321.35	19.836
321.72	19.107
322.08	19.335
322.45	19.594
322.81	20.825
323.18	19.921
323.54	20.463
323.91	20.253
324.27	20.801
324.64	20.880
325.00	22.354
325.37	23.416
325.73	21.668
326.10	23.161
326.46	22.960
326.83	23.885
327.19	24.673
327.56	24.674
327.92	24.296
328.29	23.393
328.65	25.472
329.01	24.265
329.38	24.977
329.74	25.307
330.11	25.023
330.47	25.325
330.84	24.712
331.20	26.996
331.56	24.630
331.93	27.580
332.29	26.123
332.66	27.149
333.02	26.022
333.38	25.023
333.75	27.106
334.11	24.978
334.48	26.564
334.84	26.648
335.20	26.441
335.57	27.199
335.93	26.558
336.29	27.256
336.66	26.158
337.02	26.487
337.38	26.111
337.75	27.091
338.11	27.322
338.47	26.916
338.84	26.987
339.20	26.051
339.56	26.881
339.93	28.021
340.29	27.615
340.65	26.971
341.02	26.773
341.38	26.018
341.74	26.502
342.11	26.343
342.47	26.512
342.83	27.422
343.20	26.481
343.56	27.130
343.92	25.864
344.28	27.669
344.65	26.511
345.01	25.756
345.37	25.904
345.73	26.360
346.10	27.179
346.46	25.820
346.82	24.468
347.19	25.935
347.55	25.397
347.91	26.214
348.27	25.546
348.63	26.917
349.00	26.333
349.36	26.185
349.72	26.202
350.08	26.066
350.45	25.619
350.81	25.997
351.17	25.163
351.53	27.102
351.89	25.103
352.26	25.200
352.62	26.048
352.98	24.739
353.34	25.201
353.70	25.971
354.07	25.968
354.43	25.861
354.79	25.516
355.15	26.508
355.51	26.424
355.87	26.699
356.24	24.796
356.60	25.627
356.96	25.952
357.32	25.958
357.68	25.567
358.04	25.283
358.40	25.804
358.77	25.917
359.13	24.820
359.49	25.424
359.85	25.507
360.21	24.880
360.57	25.325
360.93	26.399
361.29	23.640
361.66	24.843
362.02	25.758
362.38	25.362
362.74	25.208
363.10	24.906
363.46	26.390
363.82	27.122
364.18	24.207
364.54	24.853
364.90	25.233
365.26	25.691
365.62	26.569
365.98	24.413
366.35	26.293
366.71	25.129
367.07	25.835
367.43	24.587
367.79	26.007
368.15	25.628
368.51	25.929
368.87	25.341
369.23	24.765
369.59	25.364
369.95	25.806
370.31	25.434
370.67	25.597
371.03	25.392
371.39	26.331
371.75	26.520
372.11	24.964
372.47	26.701
372.83	25.337
373.19	26.320
373.55	25.848
373.91	25.918
374.27	26.152
374.63	26.131
374.99	25.319
375.35	27.228
375.71	26.014
376.07	25.562
376.42	25.918
376.78	26.309
377.14	25.999
377.50	26.892
377.86	26.037
378.22	26.228
378.58	26.923
378.94	26.150
379.30	25.764
379.66	26.708
380.02	25.812
380.38	25.806
380.74	26.272
381.09	27.607
381.45	26.300
381.81	25.910
382.17	26.332
382.53	26.483
382.89	27.495
383.25	27.878
383.61	26.890
383.97	26.413
384.32	27.267
384.68	26.997
385.04	26.900
385.40	26.322
385.76	27.925
386.12	27.814
386.48	27.586
386.83	26.252
387.19	26.618
387.55	27.854
387.91	26.834
388.27	27.106
388.62	27.753
388.98	26.826
389.34	27.108
389.70	27.035
390.06	26.809
390.42	26.749
390.77	27.534
391.13	26.923
391.49	27.167
391.85	28.005
392.20	27.307
392.56	27.463
392.92	26.718
393.28	26.946
393.64	26.907
393.99	28.527
394.35	27.261
394.71	28.480
395.07	27.278
395.42	26.594
395.78	27.818
396.14	27.112
396.50	26.823
396.85	27.366
397.21	27.569
397.57	26.771
397.92	26.723
398.28	27.759
398.64	26.024
399.00	27.596
399.35	26.016
399.71	26.020
400.07	27.509
400.42	27.295
400.78	27.128
401.14	27.223
401.49	27.397
401.85	26.569
402.21	27.289
402.57	26.000
402.92	24.467
403.28	26.817
403.63	26.356
403.99	26.148
404.35	27.108
404.70	25.833
405.06	26.381
405.42	26.352
405.77	24.346
406.13	25.669
406.49	26.051
406.84	27.200
407.20	25.948
407.55	26.014
407.91	26.003
408.27	25.813
408.62	27.015
408.98	25.385
409.34	26.642
409.69	25.388
410.05	25.123
410.40	25.494
410.76	25.694
411.11	25.562
411.47	25.773
411.83	24.419
412.18	25.740
412.54	25.094
412.89	24.754
413.25	25.812
413.60	25.342
413.96	24.663
414.31	25.854
414.67	24.759
415.03	24.900
415.38	24.608
415.74	25.798
416.09	25.669
416.45	24.916
416.80	24.851
417.16	24.448
417.51	25.250
417.87	24.707
418.22	24.741
418.58	25.284
418.93	24.138
419.29	23.752
419.64	24.757
420.00	25.378
420.35	24.955
420.71	25.699
421.06	24.800
421.42	24.700
421.77	25.029
422.12	24.574
422.48	25.176
422.83	24.594
423.19	25.282
423.54	24.045
423.90	23.852
424.25	24.627
424.61	25.153
424.96	25.029
425.31	25.361
425.67	24.648
426.02	26.090
426.38	25.297
426.73	25.363
427.09	25.443
427.44	25.294
427.79	25.869
428.15	25.121
428.50	24.773
428.85	23.096
429.21	25.241
429.56	24.798
429.92	24.756
430.27	24.561
430.62	24.360
430.98	24.947
431.33	24.343
431.68	24.594
432.04	24.595
432.39	24.187
432.74	24.955
433.10	25.690
433.45	24.313
433.80	24.086
434.16	24.321
434.51	24.516
434.86	25.436
435.22	25.070
435.57	24.641
435.92	24.611
436.28	24.389
436.63	24.472
436.98	23.465
437.34	24.622
437.69	24.925
438.04	24.046
438.39	24.924
438.75	25.137
439.10	25.127
439.45	24.954
439.81	25.443
440.16	25.475
440.51	23.642
440.86	24.773
441.22	24.604
441.57	25.386
441.92	24.764
442.27	24.834
442.63	25.589
442.98	24.182
443.33	24.263
443.68	24.775
444.03	24.491
444.39	24.594
444.74	25.641
445.09	25.223
445.44	24.615
445.79	25.683
446.15	24.504
446.50	24.126
446.85	25.239
447.20	25.026
447.55	25.614
447.91	24.196
448.26	24.758
448.61	25.273
448.96	25.645
449.31	25.376
449.66	25.494
450.02	24.929
450.37	25.667
450.72	24.628
451.07	25.506
451.42	25.218
451.77	24.653
452.12	24.701
452.47	24.920
452.83	24.912
453.18	25.300
453.53	25.790
453.88	24.712
454.23	24.831
454.58	25.378
454.93	24.807
455.28	23.683
455.63	24.861
455.98	24.835
456.34	25.223
456.69	25.349
457.04	24.953
457.39	25.152
457.74	24.426
458.09	23.484
458.44	24.927
458.79	24.370
459.14	25.515
459.49	25.672
459.84	24.986
460.19	24.939
460.54	25.306
460.89	24.489
461.24	23.851
461.59	24.050
461.94	23.522
462.29	24.910
462.64	25.515
462.99	24.915
463.34	23.644
463.69	24.646
464.04	25.303
464.39	24.500
464.74	23.926
465.09	24.205
465.44	23.774
465.79	24.433
466.14	24.686
466.49	23.404
466.84	23.260
467.19	23.905
467.54	24.266
467.89	23.816
468.24	23.723
468.59	24.825
468.94	23.365
469.29	23.803
469.64	22.830
469.99	25.088
470.34	22.526
470.68	24.683
471.03	24.487
471.38	24.536
471.73	24.020
472.08	24.288
472.43	23.557
472.78	23.098
473.13	23.810
473.48	23.974
473.83	23.039
474.17	24.482
474.52	23.421
474.87	23.394
475.22	23.917
475.57	23.264
475.92	23.642
476.27	23.749
476.61	24.421
476.96	22.755
477.31	24.337
477.66	23.483
478.01	23.021
478.36	23.529
478.70	23.491
479.05	23.077
479.40	24.165
479.75	22.784
480.10	23.707
480.45	22.900
480.79	24.622
481.14	24.027
481.49	22.857
481.84	23.552
482.19	23.386
482.53	23.022
482.88	23.484
483.23	22.697
483.58	22.783
483.92	22.168
484.27	23.063
484.62	22.905
484.97	22.139
485.31	23.121
485.66	22.676
486.01	22.923
486.36	22.667
486.70	23.063
487.05	23.208
487.40	23.113
487.75	22.901
488.09	22.559
488.44	21.836
488.79	22.525
489.13	22.516
489.48	21.975
489.83	21.973
490.17	21.933
490.52	22.818
490.87	22.490
491.22	23.305
491.56	22.628
491.91	22.897
492.26	21.974
492.60	22.361
492.95	22.873
493.30	21.837
493.64	23.428
493.99	21.739
494.34	21.942
494.68	21.810
495.03	21.946
495.37	22.424
495.72	23.322
496.07	22.293
496.41	21.745
496.76	22.294
497.11	22.077
497.45	22.196
497.80	22.755
498.14	22.355
498.49	22.550
498.84	21.357
499.18	21.988
499.53	22.073
499.87	21.644
500.22	22.601
500.56	21.886
500.91	22.490
501.26	21.354
501.60	21.840
501.95	21.689
502.29	21.646
502.64	22.201
502.98	21.411
503.33	22.094
503.67	21.542
504.02	22.287
504.36	22.563
504.71	21.970
505.06	21.842
505.40	22.030
505.75	21.340
506.09	21.693
506.44	21.663
506.78	21.633
507.13	21.665
507.47	21.201
507.82	21.154
508.16	21.342
508.51	21.091
508.85	21.350
509.19	21.235
509.54	21.501
509.88	21.090
510.23	21.463
510.57	22.234
510.92	20.896
511.26	21.331
511.61	21.232
511.95	21.699
512.30	21.951
512.64	21.313
512.98	21.842
513.33	22.104
513.67	21.262
514.02	22.254
514.36	22.857
514.70	21.911
515.05	21.857
515.39	22.019
515.74	22.156
516.08	21.757
516.42	22.261
516.77	22.645
517.11	21.840
517.46	22.501
517.80	21.990
518.14	22.045
518.49	20.493
518.83	21.689
519.17	21.164
519.52	21.551
519.86	21.128
520.20	22.661
520.55	20.325
520.89	22.208
521.23	21.849
521.58	21.830
521.92	22.885
522.26	21.535
522.61	21.753
522.95	22.252
523.29	21.474
523.64	22.808
523.98	21.711
524.32	21.327
524.66	22.663
525.01	21.883
525.35	22.618
525.69	20.404
526.04	21.892
526.38	21.660
526.72	19.751
527.06	21.725
527.41	22.427
527.75	21.850
528.09	21.528
528.43	23.160
528.78	21.320
529.12	22.065
529.46	21.378
529.80	21.343
530.15	22.508
530.49	21.684
530.83	22.161
531.17	21.961
531.51	21.751
531.86	21.142
532.20	21.294
532.54	21.920
532.88	21.424
533.22	21.237
533.57	22.412
533.91	21.084
534.25	21.680
534.59	21.296
534.93	21.082
535.27	20.622
535.62	21.646
535.96	21.787
536.30	21.240
536.64	20.882
536.98	20.767
537.32	22.262
537.66	22.721
538.01	22.308
538.35	21.775
538.69	20.972
539.03	20.643
539.37	21.198
539.71	20.995
540.05	22.064
540.39	23.061
540.73	20.432
541.07	22.099
541.42	22.245
541.76	21.404
542.10	20.922
542.44	21.612
542.78	19.752
543.12	20.536
543.46	21.558
543.80	21.374
544.14	20.160
544.48	21.386
544.82	21.873
545.16	22.199
545.50	21.295
545.84	21.955
546.18	22.411
546.52	21.557
546.86	20.705
547.20	21.316
547.54	21.131
547.88	21.399
548.22	21.236
548.56	20.910
548.90	22.170
549.24	20.386
549.58	19.746
549.92	19.871
550.26	20.879
550.60	21.933
550.94	21.807
551.28	21.020
551.62	21.692
551.96	20.902
552.30	20.906
552.64	21.086
552.98	20.886
553.32	20.970
553.66	19.666
554.00	20.730
554.34	21.049
554.68	20.428
555.02	21.057
555.36	19.970
555.69	20.513
556.03	20.128
556.37	19.502
556.71	21.588
557.05	20.880
557.39	20.000
557.73	20.615
558.07	21.569
558.41	20.521
558.75	20.577
559.08	20.646
559.42	20.714
559.76	20.977
560.10	20.566
560.44	20.328
560.78	20.769
561.12	20.945
561.45	21.715
561.79	20.448
562.13	20.724
562.47	20.576
562.81	20.533
563.15	21.016
563.48	20.792
563.82	21.414
564.16	21.797
564.50	20.811
564.84	21.352
565.17	19.718
565.51	21.995
565.85	20.645
566.19	21.154
566.52	21.448
566.86	21.208
567.20	19.863
567.54	20.681
567.88	21.910
568.21	21.267
568.55	20.978
568.89	20.945
569.23	21.329
569.56	21.497
569.90	21.681
570.24	20.916
570.57	20.909
570.91	21.924
571.25	21.046
571.59	20.741
571.92	20.830
572.26	20.471
572.60	21.333
572.93	20.866
573.27	20.909
573.61	20.316
573.95	21.054
574.28	21.107
574.62	20.468
574.96	20.718
575.29	20.697
575.63	19.902
575.97	20.439
576.30	20.382
576.64	20.424
576.98	21.004
577.31	20.963
577.65	21.193
577.98	21.281
578.32	20.334
578.66	20.159
578.99	20.215
579.33	20.585
579.67	20.363
580.00	20.658
580.34	20.672
580.67	20.104
581.01	20.701
581.35	20.672
581.68	21.138
582.02	20.885
582.35	20.910
582.69	21.270
583.02	20.978
583.36	21.244
583.70	20.976
584.03	20.628
584.37	20.864
584.70	20.330
585.04	20.207
585.37	21.229
585.71	20.785
586.04	20.272
586.38	20.459
586.72	20.890
587.05	20.884
587.39	20.688
587.72	21.405
588.06	20.758
588.39	20.849
588.73	20.726
589.06	21.005
589.40	20.532
589.73	20.957
590.07	21.186
590.40	21.169
590.73	20.923
591.07	21.247
591.40	20.614
591.74	21.267
592.07	20.640
592.41	21.599
592.74	20.828
593.08	20.363
593.41	20.923
593.75	20.641
594.08	20.357
594.41	21.070
594.75	20.649
595.08	20.810
595.42	20.979
595.75	21.142
596.09	20.719
596.42	20.628
596.75	20.382
597.09	20.638
597.42	20.732
597.75	20.522
598.09	20.869
598.42	20.217
598.76	20.378
599.09	21.114
599.42	19.818
599.76	20.655
600.09	20.928
600.42	20.584
600.76	20.059
601.09	20.954
601.42	20.094
601.76	20.603
602.09	21.040
602.42	21.356
602.76	20.628
603.09	21.013
603.42	21.906
603.76	20.766
604.09	20.251
604.42	21.404
604.76	20.961
605.09	21.389
605.42	20.542
605.75	20.622
606.09	20.764
606.42	20.392
606.75	20.823
607.09	20.879
607.42	20.204
607.75	20.870
608.08	19.766
608.42	20.238
608.75	20.337
609.08	20.678
609.41	20.457
609.75	20.262
610.08	20.669
610.41	20.580
610.74	20.868
611.07	20.517
611.41	21.328
611.74	22.015
612.07	20.021
612.40	20.405
612.73	21.299
613.07	20.247
613.40	20.460
613.73	20.761
614.06	20.979
614.39	20.699
614.72	20.112
615.06	20.559
615.39	20.087
615.72	20.883
616.05	20.950
616.38	19.487
616.71	21.040
617.05	19.889
617.38	20.867
617.71	20.566
618.04	21.206
618.37	20.807
618.70	21.122
619.03	21.250
619.36	19.971
619.69	20.773
620.03	21.256
620.36	20.601
620.69	19.914
621.02	20.107
621.35	20.913
621.68	20.833
622.01	20.917
622.34	21.389
622.67	20.662
623.00	20.827
623.33	19.588
623.66	18.848
623.99	21.180
624.32	20.532
624.65	20.226
624.99	21.445
625.32	18.575
625.65	20.974
625.98	21.031
626.31	19.784
626.64	21.231
626.97	20.942
627.30	20.841
627.63	20.624
627.96	20.485
628.29	19.981
628.62	19.371
628.95	20.842
629.28	19.758
629.61	21.535
629.94	19.746
630.26	19.763
630.59	21.748
630.92	20.103
631.25	19.282
631.58	20.154
631.91	20.833
632.24	19.381
632.57	20.000
632.90	20.403
633.23	20.824
633.56	19.018
633.89	21.948
634.22	18.765
634.55	21.347
634.88	20.434
635.20	20.000
635.53	21.333
635.86	19.506
636.19	20.957
636.52	19.388
636.85	19.603
637.18	20.000
637.51	20.503
637.83	20.368
638.16	21.282
638.49	19.210
638.82	20.789
639.15	19.132
639.48	21.183
639.81	22.176
640.13	18.615
640.46	19.388
640.79	19.440
641.12	20.384
641.45	21.321
641.77	19.407
642.10	20.695
642.43	18.328
642.76	20.132
643.09	21.648
643.41	18.447
643.74	18.616
644.07	20.033
644.40	21.453
644.73	21.191
645.05	19.631
645.38	20.459
645.71	19.858
646.04	20.646
646.36	20.035
646.69	21.403
647.02	20.416
647.35	18.843
647.67	20.110
648.00	20.896
648.33	20.819
648.66	19.831
648.98	16.583
649.31	19.504
649.64	17.896
649.96	17.990
650.29	18.399
650.62	18.803
650.94	20.000
651.27	19.367
651.60	18.919
651.92	20.280
652.25	17.940
652.58	19.500
652.90	22.298
653.23	17.647
653.56	19.459
653.88	19.759
654.21	18.039
654.54	20.883
654.86	18.506
655.19	19.006
655.52	22.910
655.84	21.786
656.17	24.057
656.49	31.685
656.82	32.070
657.15	23.728
657.47	17.596
657.80	12.883
658.13	12.463
658.45	18.619
658.78	18.068
659.10	18.266
659.43	18.336
659.75	18.254
660.08	17.241
660.41	16.956
660.73	18.508
661.06	18.024
661.38	18.395
661.71	17.248
662.03	20.386
662.36	18.462
662.68	18.142
663.01	22.489
663.33	17.401
663.66	15.814
663.98	18.372
664.31	19.190
664.63	16.129
664.96	16.522
665.28	16.777
665.61	18.398
665.93	18.261
666.26	18.655
666.58	16.331
666.91	16.941
667.23	17.453
667.56	17.299
667.88	19.664
668.21	21.718
668.53	19.858
668.86	19.340
669.18	19.340
669.50	17.918
669.83	17.442
670.15	16.783
670.48	18.900
670.80	17.972
671.13	18.121
671.45	17.123
671.77	21.888
672.10	18.812
672.42	19.288
672.75	18.650
673.07	20.751
673.39	21.651
673.72	16.568
674.04	20.625
674.37	19.492
674.69	16.060
675.01	19.778
675.34	19.369
675.66	19.213
675.98	21.286
676.31	16.743
676.63	19.477
676.95	17.273
677.28	20.941
677.60	20.723
677.92	18.578
678.25	20.788
678.57	16.667
678.89	20.168
679.22	18.568
679.54	16.466
679.86	15.109
680.18	20.388
680.51	19.318
680.83	17.495
681.15	16.600
681.48	19.262
681.80	19.421
682.12	17.944
682.44	20.084
682.77	20.971
683.09	19.908
683.41	16.136
683.73	17.972
684.06	19.912
684.38	15.914
684.70	18.301
685.02	17.842
685.34	16.206
685.67	15.947
685.99	18.626
686.31	19.469
686.63	18.924
686.96	16.350
687.28	17.172
687.60	18.631
687.92	17.576
688.24	19.556
688.56	18.777
688.89	18.973
689.21	21.333
689.53	18.097
689.85	18.837
690.17	18.973
690.49	19.385
690.82	20.146
691.14	16.667
691.46	21.262
691.78	21.171
692.10	20.860
692.42	18.615
692.74	17.735
693.06	18.018
693.39	16.290
693.71	16.516
694.03	14.550
694.35	18.458
694.67	19.949
694.99	16.188
695.31	17.232
695.63	19.500
695.95	16.162
696.27	18.912
696.59	18.611
696.91	14.566
697.23	16.452
697.56	17.822
697.88	20.215
698.20	17.768
698.52	18.118
698.84	16.507
699.16	18.000
699.48	17.794
699.80	18.610
700.12	19.677
700.44	17.367
700.76	16.279
701.08	12.727
701.40	17.771
701.72	18.519
702.04	17.162
702.36	16.722
702.68	18.619
703.00	15.758
703.32	18.475
703.64	16.102
703.96	17.681
704.28	19.632
704.60	15.873
704.91	16.719
705.23	17.608
705.55	23.675
705.87	20.217
706.19	17.778
706.51	18.557
706.83	19.293
707.15	17.445
707.47	15.126
707.79	17.969
708.11	17.250
708.43	20.500
708.74	18.088
709.06	21.127
709.38	14.373
709.70	18.047
710.02	16.242
710.34	19.195
710.66	16.346
710.98	18.212
711.29	21.639
711.61	20.678
711.93	17.590
712.25	21.306
712.57	13.919
712.89	20.522
713.20	21.453
713.52	17.073
713.84	17.065
714.16	16.838
714.48	18.710
714.80	17.308
715.11	18.541
715.43	13.793
715.75	16.333
716.07	17.608
716.39	14.765
716.70	14.022
717.02	14.122
717.34	18.219
717.66	16.814
717.97	17.826
718.29	16.736
718.61	19.685
718.93	17.442
719.24	16.350
719.56	18.474
719.88	12.715
720.20	14.773
720.51	16.092
720.83	15.058
721.15	13.866
721.46	16.532
721.78	15.810
722.10	18.216
722.42	14.108
722.73	16.735
723.05	22.041
723.37	17.373
723.68	18.018
724.00	16.239
724.32	12.444
724.63	14.091
724.95	14.410
725.27	14.286
725.58	17.373
725.90	17.857
726.22	19.305
726.53	20.000
726.85	20.599
727.16	22.264
727.48	12.146
727.80	14.575
728.11	16.949
728.43	20.000
728.74	12.903
729.06	18.400
729.38	19.925
729.69	17.131
730.01	10.769
730.32	18.284
730.64	19.081
730.96	18.113
731.27	17.000
731.59	15.254
731.90	15.287
732.22	16.088
732.53	19.934
732.85	16.312
733.16	20.539
733.48	15.108
733.80	17.754
734.11	17.966
734.43	15.808
734.74	16.970
735.06	11.401
735.37	17.523
735.69	18.519
736.00	14.983
736.32	14.765
736.63	14.789
736.95	17.406
737.26	16.370
737.58	13.758
737.89	15.751
738.21	14.662
738.52	19.753
738.83	18.777
739.15	14.410
739.46	20.472
739.78	11.355
740.09	14.706
740.41	17.029
740.72	14.173
741.04	17.409
741.35	17.447
741.66	13.744
741.98	18.367
742.29	16.337
742.61	20.942
742.92	9.005
743.23	10.648
743.55	19.005
743.86	12.440
744.18	11.962
744.49	10.106
744.80	14.674
745.12	16.578
745.43	13.659
745.74	17.708
746.06	15.610
746.37	11.518
746.68	18.009
747.00	14.894
747.31	12.935
747.62	19.417
747.94	16.746
748.25	12.376
748.56	12.568
748.88	17.277
749.19	14.362
749.50	15.764
749.82	14.151
750.13	13.303
750.44	22.932
750.75	14.179
751.07	21.898
751.38	16.858
751.69	14.510
752.01	17.054
752.32	18.327
752.63	12.253
752.94	17.241
753.26	20.084
753.57	9.955
753.88	15.929
754.19	16.250
754.51	15.702
754.82	12.955
755.13	20.417
755.44	16.935
755.75	18.750
756.07	14.786
756.38	14.340
756.69	13.410
757.00	18.000
757.31	15.686
757.63	16.768
757.94	12.778
758.25	15.616
758.56	16.489
758.87	15.581
759.18	15.265
759.50	13.455
759.81	18.395
760.12	19.032
760.43	17.273
760.74	15.741
761.05	15.077
761.36	16.477
761.67	18.182
761.99	21.429
762.30	11.636
762.61	18.577
762.92	17.195
763.23	13.964
763.54	12.617
763.85	15.254
764.16	15.768
764.47	18.145
764.78	16.484
765.10	18.182
765.41	14.826
765.72	18.413
766.03	13.534
766.34	15.328
766.65	19.920
766.96	14.141
767.27	15.957
767.58	8.621
767.89	6.383
768.20	10.227
768.51	11.538
768.82	14.286
769.13	15.207
769.44	17.167
769.75	10.502
770.06	10.776
770.37	12.981
770.68	13.198
770.99	13.575
771.30	21.078
771.61	18.100
771.92	16.810
772.23	17.241
772.54	10.215
772.85	14.198
773.16	14.607
773.47	18.954
773.78	7.843
774.09	16.766
774.39	6.000
774.70	12.739
775.01	16.552
775.32	16.429
775.63	8.264
775.94	7.634
776.25	16.535
776.56	10.000
776.87	7.692
777.18	8.547
777.48	9.483
777.79	4.348
778.10	-0.952
778.41	0.000
778.72	11.111
779.03	12.030
779.34	15.603
779.65	13.699
779.95	13.014
780.26	15.862
780.57	3.252
780.88	10.236
781.19	20.690
781.50	10.078
781.80	12.426
782.11	5.660
782.42	14.615
782.73	9.353
783.04	14.074
783.34	13.194
783.65	-1.709
783.96	4.098
784.27	17.241
784.57	-1.626
784.88	13.281
785.19	14.000
785.50	20.000
785.81	18.103
786.11	3.448
786.42	-0.971
786.73	15.455
787.04	8.163
787.34	10.714
787.65	11.429
787.96	7.965
788.26	10.909
788.57	7.692
788.88	16.406
789.19	12.698
789.49	9.565
789.80	10.204
790.11	6.061
790.41	12.727
790.72	10.870
791.03	12.500
791.33	18.750
791.64	2.500
791.95	2.326
792.25	3.191
792.56	16.854
792.87	10.959
793.17	11.594
793.48	-8.000
793.79	11.250
794.09	15.000
794.40	0.943
794.70	0.971
795.01	12.195
795.32	0.000
795.62	2.857
795.93	16.667
796.23	6.604
796.54	17.708
796.85	23.529
797.15	7.042
797.46	19.444
797.76	24.242
798.07	11.628
798.37	1.316
798.68	-1.515
798.99	16.049
799.29	30.000
799.60	7.246
799.90	10.667
800.21	16.393
800.51	-15.385
800.82	10.169
801.12	20.290
801.43	9.836
801.73	20.635
802.04	6.000
802.34	-1.493
802.65	5.769
802.95	12.500
803.26	3.846
803.56	5.882
803.87	-17.391
804.17	14.667
804.48	30.159
804.78	11.111
805.09	13.043
805.39	-15.556
805.70	-27.778
806.00	7.018
806.30	8.451
806.61	1.429
806.91	-2.778
807.22	30.263
807.52	6.667
807.83	-12.727
808.13	1.389
808.43	7.353
808.74	20.896
809.04	10.169
809.35	-3.846
809.65	4.687
809.95	-10.811
810.26	20.455
810.56	0.000
810.86	4.762
811.17	12.000
811.47	-4.082
811.77	-7.895
812.08	-2.273
812.38	-5.660
812.69	12.500
812.99	-21.212
813.29	5.263
813.59	-8.571
813.90	9.091
814.20	-53.846
814.50	-9.615
814.81	22.642
815.11	-12.766
815.41	22.034
815.72	4.762
816.02	17.647
816.32	-4.167
816.62	9.756
816.93	-10.811
817.23	-28.571
817.53	20.833
817.84	-2.174
818.14	15.385
818.44	-13.158
818.74	17.391
819.04	-22.500
819.35	-21.622
819.65	-14.706
819.95	-22.222
820.25	19.048
820.56	-5.000
820.86	-34.483
821.16	7.500
821.46	17.021
821.76	27.500
822.07	16.279
822.37	-10.811
822.67	-3.125
822.97	4.762
823.27	-17.857
823.57	-44.000
823.88	-33.333
824.18	17.857
824.48	5.882
824.78	16.129
825.08	-21.739
825.38	0.000
825.69	-79.167
825.99	-10.526
826.29	-5.556
826.59	-126.667
826.89	-61.905
827.19	-6.522
827.49	-2.500
827.79	2.857
828.09	-10.714
828.39	36.364
828.70	16.216
829.00	-35.714
829.30	-57.143
829.60	0.000
829.90	-18.750
830.20	26.316
830.50	-18.519
830.80	-56.522
831.10	-50.000
831.40	45.455
831.70	-6.452
832.00	-4.762
832.30	-61.905
832.60	-33.333
832.90	6.897
833.20	-5.000
833.50	3.030
833.80	-11.111
834.10	-30.769
834.40	15.625
834.70	-88.889
835.00	-21.053
835.30	76.923
835.60	-46.667
835.90	-3.226
836.20	13.636
836.50	0.000
836.80	-61.538
837.10	-17.857
837.40	-400.000
837.70	-9.091
838.00	-100.000
838.30	0.000
838.60	-92.308
838.90	-4.545
839.19	-28.571
839.49	-20.000
839.79	-7.692
840.09	-183.333
840.39	32.143
840.69	-3.571
840.99	3.846
841.29	-47.368
841.59	-170.000
841.88	-72.727
842.18	-40.000
842.48	-25.000
842.78	0.000
843.08	-25.926
843.38	-110.000
843.68	4.348
843.97	-60.000
844.27	-46.667
844.57	-45.000
844.87	-11.111
845.17	-47.619
845.47	-40.000
845.76	-71.429
846.06	-47.059
846.36	-20.000
846.66	-14.286
846.96	-40.000
847.25	-300.000
847.55	-28.571
847.85	-62.500
848.15	-36.364
848.44	-600.000
848.74	0.000
849.04	37.037
849.34	-72.727
849.63	-200.000
849.93	-160.000
850.23	-11.111
850.53	20.000
850.82	-153.846
851.12	77.778
851.42	-53.333
851.71	-19.231
852.01	-57.143
852.31	-450.000
852.61	-63.636
852.90	-20.000
853.20	-21.053
853.50	-100.000
853.79	-8.696
854.09	-16.667
854.39	-36.842
854.68	-33.333
854.98	29.032
855.28	-7.692
855.57	-15.000
855.87	33.333
856.17	11.111
856.46	-50.000
856.76	-6.667
857.05	-22.222
857.35	-4.000
857.65	-27.778
857.94	-7.692
858.24	27.586
858.53	-16.667
858.83	14.815
859.13	4.545
859.42	-43.478
859.72	150.000
860.01	-500.000
860.31	32.000
860.60	-14.286
860.90	-333.333
861.20	-60.000
861.49	-550.000
861.79	-60.000
862.08	0.000
862.38	40.000
862.67	-260.000
862.97	-166.667
863.26	-75.000
863.56	0.000
863.85	-566.667
864.15	16.667
864.44	-60.000
864.74	7.143
865.03	400.000
865.33	-480.000
865.62	83.333
865.92	-16.667
866.21	-216.667
866.51	-18.750
866.80	-109.091
867.10	-550.000
867.39	-25.000
867.69	0.000
867.98	-23.077
868.27	-433.333
868.57	-46.667
868.86	-38.889
869.16	-84.615
869.45	40.000
869.75	-1400.000
870.04	0.000
870.33	-171.429
870.63	38.095
870.92	633.333
871.22	-380.000
871.51	-1400.000
871.80	-33.333
872.10	533.333
>>>>>End Processed Spectral Data<<<<<
