SpectraSuite Data File
++++++++++++++++++++++++++++++++++++
Date: Fri May 15 20:30:02 PDT 2015
User: schluterlab
Dark Spectrum Present: Yes
Reference Spectrum Present: Yes
Number of Sampled Component Spectra: 1
Spectrometers: USB2E3373
Integration Time (usec): 3000 (USB2E3373)
Spectra Averaged: 3 (USB2E3373)
Boxcar Smoothing: 0 (USB2E3373)
Correct for Electrical Dark: No (USB2E3373)
Strobe/Lamp Enabled: No (USB2E3373)
Correct for Detector Non-linearity: No (USB2E3373)
Correct for Stray Light: No (USB2E3373)
Number of Pixels in Processed Spectrum: 2048
>>>>>Begin Processed Spectral Data<<<<<
178.53	0.000
178.91	0.000
179.29	75.000
179.67	-750.000
180.04	142.857
180.42	75.000
180.80	-400.000
181.18	-0.000
181.56	500.000
181.94	-200.000
182.31	1100.000
182.69	100.000
183.07	-133.333
183.45	-160.000
183.83	333.333
184.20	-9.091
184.58	100.000
184.96	-0.000
185.34	-166.667
185.72	-200.000
186.09	138.462
186.47	-1100.000
186.85	66.667
187.23	133.333
187.61	-400.000
187.98	-433.333
188.36	33.333
188.74	-166.667
189.12	5.882
189.49	16.667
189.87	0.000
190.25	92.857
190.63	400.000
191.00	-133.333
191.38	-42.105
191.76	-100.000
192.14	275.000
192.51	-200.000
192.89	66.667
193.27	-200.000
193.65	200.000
194.02	163.636
194.40	-10.000
194.78	-87.500
195.15	-8.333
195.53	-87.500
195.91	175.000
196.29	-25.000
196.66	161.538
197.04	100.000
197.42	11.111
197.79	-233.333
198.17	-92.308
198.55	900.000
198.92	-200.000
199.30	-1000.000
199.68	-260.000
200.05	-333.333
200.43	0.000
200.81	66.667
201.18	-233.333
201.56	900.000
201.94	-350.000
202.31	300.000
202.69	-60.000
203.07	150.000
203.44	-100.000
203.82	0.000
204.19	21.429
204.57	-333.333
204.95	112.500
205.32	20.000
205.70	14.286
206.08	-225.000
206.45	222.222
206.83	71.429
207.20	0.000
207.58	300.000
207.96	33.333
208.33	-190.000
208.71	-150.000
209.08	-283.333
209.46	300.000
209.84	80.000
210.21	-1000.000
210.59	-157.143
210.96	66.667
211.34	100.000
211.71	0.000
212.09	-157.143
212.46	-1200.000
212.84	0.000
213.22	10.000
213.59	400.000
213.97	7.692
214.34	0.000
214.72	-83.333
215.09	425.000
215.47	-23.077
215.84	9.091
216.22	33.333
216.59	-112.500
216.97	250.000
217.34	-25.000
217.72	-240.000
218.09	0.000
218.47	112.500
218.84	0.000
219.22	-166.667
219.59	-20.000
219.97	166.667
220.34	175.000
220.72	-100.000
221.09	0.000
221.47	-50.000
221.84	-350.000
222.22	-150.000
222.59	-27.273
222.97	50.000
223.34	-400.000
223.72	-21.429
224.09	-9.524
224.46	7.143
224.84	233.333
225.21	-50.000
225.59	0.000
225.96	400.000
226.34	550.000
226.71	-100.000
227.08	-150.000
227.46	12.500
227.83	-700.000
228.21	-22.222
228.58	-54.545
228.95	-25.000
229.33	160.000
229.70	0.000
230.08	0.000
230.45	-128.571
230.82	57.143
231.20	0.000
231.57	50.000
231.95	-28.571
232.32	-40.000
232.69	35.714
233.07	200.000
233.44	80.000
233.81	-60.000
234.19	0.000
234.56	11.765
234.93	300.000
235.31	-100.000
235.68	-20.000
236.05	-30.769
236.43	-45.000
236.80	52.941
237.17	43.750
237.55	55.000
237.92	33.333
238.29	33.333
238.67	33.333
239.04	29.412
239.41	7.317
239.79	40.000
240.16	36.585
240.53	10.526
240.91	43.478
241.28	33.333
241.65	37.500
242.02	42.466
242.40	53.333
242.77	32.203
243.14	28.788
243.51	41.250
243.89	44.828
244.26	27.586
244.63	35.714
245.00	38.144
245.38	39.175
245.75	42.697
246.12	36.207
246.49	28.099
246.87	45.192
247.24	34.454
247.61	35.088
247.98	38.211
248.36	31.250
248.73	44.737
249.10	37.013
249.47	39.241
249.84	38.562
250.22	38.824
250.59	47.059
250.96	38.028
251.33	39.535
251.70	42.941
252.08	37.056
252.45	36.634
252.82	37.688
253.19	45.161
253.56	37.383
253.94	43.694
254.31	39.130
254.68	42.544
255.05	37.008
255.42	41.921
255.79	38.996
256.16	40.078
256.54	40.299
256.91	36.882
257.28	33.086
257.65	37.453
258.02	39.716
258.39	41.414
258.76	41.026
259.14	44.186
259.51	41.100
259.88	40.893
260.25	40.196
260.62	42.708
260.99	38.983
261.36	38.699
261.73	38.608
262.10	41.033
262.47	41.718
262.85	37.931
263.22	42.769
263.59	41.745
263.96	39.441
264.33	40.000
264.70	39.881
265.07	41.071
265.44	45.326
265.81	44.915
266.18	40.710
266.55	39.075
266.92	39.637
267.29	39.426
267.66	40.409
268.03	39.005
268.40	37.859
268.77	45.187
269.14	38.369
269.51	42.159
269.88	40.399
270.25	37.755
270.62	40.976
270.99	38.363
271.36	39.364
271.73	43.192
272.10	42.822
272.47	38.061
272.84	39.109
273.21	40.139
273.58	39.759
273.95	39.359
274.32	38.568
274.69	37.557
275.06	38.170
275.43	40.363
275.80	39.956
276.17	37.241
276.54	40.043
276.91	40.351
277.28	37.118
277.65	36.570
278.02	39.149
278.39	39.606
278.76	38.574
279.13	37.967
279.50	39.916
279.87	41.253
280.23	39.140
280.60	36.842
280.97	40.000
281.34	35.577
281.71	39.014
282.08	34.765
282.45	36.986
282.82	39.189
283.19	38.685
283.56	37.187
283.92	38.899
284.29	37.308
284.66	37.209
285.03	38.507
285.40	37.807
285.77	34.622
286.14	35.740
286.51	38.376
286.87	37.112
287.24	37.385
287.61	35.273
287.98	34.211
288.35	36.568
288.72	35.902
289.08	35.417
289.45	35.677
289.82	35.839
290.19	34.642
290.56	35.506
290.93	33.333
291.29	32.820
291.66	34.488
292.03	34.450
292.40	33.226
292.77	31.260
293.13	30.682
293.50	31.259
293.87	33.740
294.24	31.066
294.60	29.806
294.97	31.994
295.34	31.442
295.71	30.104
296.08	29.148
296.44	29.018
296.81	28.056
297.18	30.435
297.55	31.030
297.91	27.534
298.28	29.947
298.65	29.308
299.02	27.089
299.38	27.497
299.75	28.966
300.12	29.712
300.48	27.800
300.85	27.883
301.22	27.792
301.59	28.026
301.95	28.861
302.32	27.497
302.69	26.493
303.05	26.609
303.42	26.401
303.79	28.505
304.15	25.687
304.52	26.159
304.89	25.848
305.25	27.361
305.62	26.021
305.99	25.497
306.35	26.705
306.72	26.097
307.09	26.340
307.45	27.325
307.82	25.231
308.19	26.365
308.55	26.172
308.92	26.688
309.29	25.251
309.65	25.619
310.02	27.943
310.38	27.552
310.75	27.432
311.12	26.480
311.48	26.723
311.85	26.178
312.22	24.789
312.58	26.645
312.95	25.507
313.31	25.983
313.68	26.492
314.05	26.020
314.41	27.010
314.78	27.010
315.14	27.441
315.51	28.364
315.87	26.537
316.24	28.514
316.61	28.051
316.97	27.183
317.34	27.930
317.70	27.629
318.07	27.885
318.43	29.216
318.80	28.598
319.16	30.371
319.53	30.199
319.89	28.445
320.26	31.275
320.62	31.294
320.99	29.645
321.35	30.319
321.72	32.503
322.08	32.528
322.45	32.995
322.81	32.908
323.18	33.072
323.54	32.915
323.91	33.398
324.27	34.277
324.64	35.112
325.00	36.223
325.37	36.639
325.73	36.446
326.10	39.055
326.46	39.103
326.83	37.358
327.19	37.576
327.56	38.228
327.92	40.405
328.29	39.107
328.65	41.415
329.01	40.441
329.38	41.106
329.74	41.076
330.11	40.964
330.47	40.631
330.84	41.442
331.20	43.916
331.56	42.593
331.93	43.744
332.29	43.263
332.66	41.629
333.02	43.216
333.38	43.446
333.75	45.147
334.11	43.688
334.48	45.422
334.84	45.330
335.20	43.001
335.57	44.152
335.93	44.173
336.29	45.304
336.66	44.323
337.02	44.888
337.38	43.889
337.75	43.727
338.11	46.438
338.47	47.080
338.84	46.303
339.20	46.435
339.56	47.431
339.93	47.001
340.29	46.422
340.65	46.595
341.02	45.124
341.38	47.522
341.74	45.230
342.11	45.407
342.47	47.153
342.83	47.837
343.20	46.080
343.56	47.739
343.92	46.678
344.28	48.164
344.65	47.409
345.01	47.018
345.37	44.239
345.73	47.029
346.10	48.749
346.46	47.855
346.82	47.054
347.19	46.135
347.55	48.287
347.91	47.249
348.27	47.534
348.63	49.659
349.00	46.924
349.36	47.465
349.72	48.756
350.08	46.557
350.45	47.725
350.81	47.176
351.17	47.720
351.53	48.490
351.89	47.729
352.26	46.560
352.62	46.774
352.98	46.827
353.34	47.585
353.70	47.896
354.07	48.468
354.43	47.798
354.79	47.481
355.15	47.778
355.51	48.339
355.87	49.191
356.24	47.553
356.60	48.666
356.96	49.365
357.32	48.243
357.68	46.990
358.04	48.465
358.40	48.071
358.77	48.804
359.13	49.960
359.49	48.690
359.85	48.830
360.21	48.565
360.57	47.819
360.93	48.563
361.29	46.828
361.66	48.746
362.02	48.712
362.38	49.048
362.74	48.675
363.10	49.210
363.46	49.370
363.82	49.061
364.18	47.601
364.54	48.456
364.90	48.530
365.26	49.345
365.62	50.146
365.98	49.633
366.35	51.202
366.71	49.815
367.07	50.653
367.43	49.605
367.79	49.894
368.15	50.251
368.51	49.527
368.87	49.174
369.23	49.747
369.59	49.344
369.95	48.754
370.31	50.578
370.67	49.776
371.03	47.872
371.39	50.693
371.75	49.524
372.11	49.643
372.47	50.592
372.83	50.106
373.19	50.571
373.55	49.242
373.91	49.532
374.27	50.957
374.63	50.108
374.99	49.220
375.35	49.373
375.71	51.399
376.07	50.351
376.42	49.728
376.78	52.617
377.14	49.831
377.50	50.730
377.86	51.138
378.22	50.160
378.58	49.551
378.94	50.158
379.30	49.595
379.66	50.784
380.02	51.625
380.38	48.996
380.74	50.868
381.09	51.595
381.45	49.480
381.81	50.524
382.17	49.810
382.53	50.094
382.89	51.538
383.25	50.778
383.61	50.488
383.97	50.794
384.32	50.219
384.68	51.765
385.04	49.203
385.40	50.031
385.76	51.698
386.12	51.617
386.48	51.980
386.83	49.905
387.19	51.404
387.55	51.631
387.91	52.017
388.27	49.939
388.62	52.045
388.98	52.118
389.34	51.343
389.70	52.020
390.06	50.346
390.42	51.813
390.77	51.668
391.13	51.892
391.49	51.294
391.85	50.552
392.20	50.910
392.56	51.367
392.92	51.380
393.28	50.708
393.64	51.351
393.99	51.411
394.35	51.550
394.71	50.830
395.07	50.786
395.42	49.909
395.78	50.033
396.14	51.892
396.50	51.173
396.85	52.093
397.21	50.439
397.57	50.031
397.92	49.730
398.28	50.402
398.64	49.337
399.00	51.354
399.35	50.282
399.71	49.397
400.07	50.544
400.42	50.245
400.78	50.827
401.14	49.425
401.49	50.208
401.85	48.812
402.21	49.759
402.57	50.812
402.92	48.745
403.28	50.251
403.63	50.126
403.99	49.490
404.35	50.656
404.70	48.452
405.06	49.295
405.42	49.099
405.77	47.937
406.13	49.593
406.49	48.431
406.84	49.817
407.20	50.873
407.55	48.229
407.91	48.663
408.27	49.140
408.62	47.569
408.98	49.045
409.34	49.752
409.69	48.514
410.05	48.153
410.40	48.889
410.76	48.673
411.11	48.000
411.47	48.126
411.83	47.081
412.18	47.812
412.54	46.442
412.89	47.537
413.25	47.112
413.60	48.075
413.96	46.871
414.31	47.134
414.67	46.376
415.03	47.537
415.38	47.454
415.74	46.971
416.09	47.355
416.45	47.468
416.80	46.927
417.16	47.307
417.51	46.769
417.87	46.023
418.22	47.280
418.58	46.355
418.93	47.712
419.29	45.262
419.64	46.273
420.00	47.607
420.35	45.612
420.71	45.747
421.06	46.593
421.42	45.733
421.77	46.358
422.12	46.935
422.48	45.804
422.83	45.302
423.19	45.429
423.54	45.326
423.90	45.171
424.25	46.613
424.61	45.900
424.96	46.167
425.31	46.274
425.67	46.009
426.02	46.172
426.38	45.961
426.73	46.429
427.09	45.949
427.44	46.176
427.79	44.313
428.15	45.206
428.50	44.216
428.85	43.919
429.21	44.029
429.56	44.744
429.92	43.606
430.27	43.759
430.62	44.067
430.98	43.631
431.33	44.479
431.68	42.700
432.04	44.047
432.39	43.126
432.74	43.055
433.10	42.874
433.45	43.847
433.80	43.413
434.16	43.213
434.51	42.581
434.86	42.973
435.22	42.681
435.57	43.107
435.92	42.575
436.28	42.874
436.63	42.784
436.98	42.005
437.34	41.742
437.69	43.053
438.04	42.279
438.39	41.295
438.75	42.198
439.10	41.822
439.45	42.727
439.81	41.774
440.16	42.696
440.51	42.030
440.86	43.021
441.22	42.081
441.57	42.053
441.92	41.710
442.27	42.960
442.63	42.452
442.98	42.275
443.33	41.736
443.68	41.804
444.03	42.722
444.39	41.171
444.74	42.196
445.09	42.650
445.44	42.336
445.79	43.063
446.15	41.189
446.50	41.320
446.85	41.286
447.20	40.928
447.55	41.574
447.91	40.778
448.26	41.719
448.61	41.623
448.96	41.538
449.31	41.329
449.66	40.476
450.02	41.244
450.37	41.138
450.72	40.034
451.07	40.443
451.42	39.763
451.77	40.084
452.12	40.789
452.47	39.472
452.83	40.106
453.18	39.722
453.53	40.708
453.88	40.376
454.23	40.258
454.58	39.169
454.93	40.142
455.28	39.238
455.63	40.174
455.98	40.710
456.34	39.655
456.69	39.263
457.04	38.752
457.39	38.943
457.74	38.452
458.09	38.258
458.44	38.444
458.79	38.375
459.14	39.874
459.49	38.507
459.84	38.861
460.19	38.714
460.54	38.998
460.89	38.125
461.24	37.702
461.59	38.361
461.94	38.302
462.29	38.359
462.64	38.870
462.99	37.982
463.34	38.039
463.69	38.288
464.04	37.772
464.39	37.417
464.74	37.178
465.09	37.617
465.44	38.373
465.79	37.415
466.14	38.369
466.49	36.860
466.84	38.073
467.19	38.173
467.54	35.568
467.89	37.145
468.24	36.800
468.59	38.286
468.94	36.127
469.29	37.049
469.64	37.116
469.99	36.931
470.34	36.109
470.68	38.106
471.03	37.013
471.38	36.519
471.73	35.994
472.08	35.278
472.43	36.846
472.78	34.887
473.13	36.463
473.48	36.808
473.83	35.866
474.17	35.427
474.52	34.971
474.87	36.909
475.22	35.387
475.57	35.291
475.92	35.765
476.27	35.448
476.61	35.938
476.96	34.300
477.31	35.100
477.66	34.551
478.01	34.138
478.36	34.586
478.70	35.073
479.05	35.604
479.40	34.923
479.75	34.984
480.10	35.023
480.45	34.750
480.79	35.549
481.14	36.117
481.49	33.941
481.84	34.073
482.19	34.051
482.53	34.868
482.88	33.461
483.23	34.069
483.58	33.632
483.92	33.204
484.27	33.546
484.62	33.617
484.97	33.706
485.31	32.551
485.66	32.456
486.01	33.176
486.36	33.283
486.70	33.477
487.05	33.750
487.40	33.557
487.75	33.014
488.09	32.880
488.44	32.840
488.79	32.648
489.13	33.534
489.48	32.920
489.83	32.332
490.17	33.258
490.52	32.102
490.87	32.994
491.22	32.951
491.56	31.879
491.91	31.692
492.26	33.106
492.60	31.958
492.95	33.153
493.30	31.851
493.64	33.006
493.99	32.512
494.34	31.699
494.68	32.143
495.03	31.533
495.37	32.679
495.72	32.408
496.07	32.098
496.41	31.368
496.76	31.690
497.11	31.393
497.45	31.599
497.80	32.089
498.14	31.893
498.49	31.640
498.84	30.838
499.18	32.380
499.53	31.498
499.87	31.031
500.22	31.108
500.56	32.123
500.91	31.124
501.26	31.438
501.60	31.431
501.95	31.538
502.29	30.799
502.64	31.902
502.98	31.228
503.33	30.596
503.67	30.988
504.02	31.378
504.36	31.272
504.71	30.606
505.06	29.894
505.40	30.914
505.75	30.722
506.09	30.867
506.44	30.698
506.78	30.153
507.13	30.196
507.47	30.078
507.82	29.541
508.16	29.952
508.51	31.060
508.85	30.665
509.19	29.643
509.54	30.724
509.88	30.367
510.23	31.146
510.57	29.984
510.92	29.531
511.26	30.496
511.61	30.583
511.95	30.137
512.30	29.933
512.64	30.384
512.98	30.152
513.33	30.274
513.67	30.074
514.02	30.149
514.36	31.314
514.70	30.711
515.05	29.730
515.39	29.988
515.74	29.940
516.08	30.843
516.42	30.801
516.77	30.193
517.11	30.030
517.46	30.999
517.80	29.023
518.14	30.435
518.49	28.425
518.83	29.708
519.17	28.927
519.52	28.774
519.86	28.932
520.20	29.891
520.55	29.706
520.89	29.862
521.23	29.132
521.58	30.095
521.92	29.487
522.26	29.603
522.61	29.091
522.95	29.934
523.29	30.051
523.64	29.479
523.98	30.071
524.32	28.286
524.66	29.385
525.01	30.000
525.35	29.229
525.69	29.562
526.04	28.505
526.38	30.480
526.72	27.927
527.06	29.248
527.41	29.090
527.75	28.083
528.09	27.508
528.43	28.697
528.78	28.779
529.12	28.387
529.46	28.395
529.80	29.196
530.15	28.977
530.49	28.822
530.83	28.865
531.17	28.073
531.51	29.275
531.86	28.076
532.20	27.697
532.54	29.340
532.88	27.515
533.22	28.159
533.57	28.244
533.91	28.525
534.25	29.362
534.59	28.929
534.93	27.816
535.27	26.904
535.62	27.933
535.96	29.028
536.30	28.958
536.64	28.532
536.98	28.014
537.32	28.592
537.66	28.331
538.01	28.741
538.35	28.225
538.69	27.896
539.03	26.931
539.37	28.735
539.71	27.948
540.05	28.242
540.39	27.978
540.73	27.266
541.07	27.970
541.42	27.419
541.76	27.736
542.10	27.047
542.44	28.006
542.78	26.222
543.12	27.473
543.46	27.816
543.80	27.967
544.14	26.969
544.48	27.249
544.82	27.751
545.16	28.210
545.50	27.637
545.84	28.187
546.18	27.660
546.52	26.748
546.86	26.600
547.20	28.827
547.54	26.219
547.88	27.921
548.22	26.364
548.56	27.704
548.90	26.819
549.24	26.584
549.58	27.292
549.92	25.947
550.26	27.253
550.60	27.286
550.94	26.587
551.28	27.202
551.62	26.769
551.96	27.744
552.30	26.243
552.64	26.305
552.98	27.356
553.32	26.676
553.66	25.617
554.00	26.642
554.34	27.253
554.68	26.401
555.02	27.976
555.36	26.103
555.69	24.615
556.03	25.767
556.37	25.409
556.71	26.498
557.05	26.771
557.39	26.320
557.73	25.337
558.07	26.094
558.41	26.187
558.75	26.267
559.08	26.714
559.42	26.032
559.76	25.701
560.10	25.765
560.44	24.721
560.78	26.993
561.12	26.164
561.45	26.704
561.79	26.891
562.13	26.615
562.47	26.043
562.81	26.369
563.15	25.670
563.48	26.167
563.82	26.150
564.16	26.184
564.50	25.541
564.84	26.104
565.17	26.023
565.51	26.161
565.85	26.543
566.19	26.326
566.52	27.145
566.86	27.506
567.20	26.214
567.54	27.311
567.88	27.885
568.21	26.980
568.55	25.598
568.89	26.694
569.23	26.143
569.56	26.095
569.90	27.487
570.24	26.721
570.57	27.091
570.91	26.664
571.25	25.617
571.59	25.942
571.92	25.541
572.26	26.057
572.60	26.078
572.93	25.698
573.27	26.019
573.61	26.492
573.95	26.297
574.28	25.874
574.62	25.477
574.96	25.954
575.29	25.694
575.63	25.084
575.97	25.129
576.30	25.611
576.64	25.351
576.98	25.586
577.31	25.805
577.65	26.101
577.98	25.571
578.32	25.985
578.66	25.618
578.99	25.573
579.33	25.506
579.67	25.713
580.00	25.342
580.34	25.622
580.67	25.420
581.01	25.528
581.35	25.431
581.68	25.526
582.02	25.252
582.35	25.311
582.69	25.633
583.02	25.272
583.36	25.408
583.70	26.012
584.03	25.632
584.37	25.438
584.70	25.604
585.04	24.922
585.37	25.356
585.71	25.278
586.04	25.340
586.38	25.340
586.72	25.481
587.05	26.083
587.39	26.195
587.72	25.834
588.06	25.159
588.39	25.434
588.73	25.305
589.06	25.669
589.40	25.683
589.73	25.885
590.07	25.566
590.40	25.503
590.73	25.412
591.07	25.403
591.40	24.622
591.74	24.570
592.07	25.557
592.41	26.237
592.74	25.448
593.08	24.939
593.41	24.909
593.75	24.861
594.08	24.579
594.41	24.818
594.75	25.153
595.08	25.388
595.42	24.844
595.75	25.197
596.09	24.941
596.42	25.465
596.75	24.423
597.09	24.966
597.42	25.203
597.75	24.966
598.09	24.627
598.42	23.782
598.76	24.496
599.09	24.920
599.42	24.403
599.76	24.266
600.09	24.284
600.42	25.133
600.76	23.997
601.09	24.618
601.42	24.638
601.76	25.169
602.09	24.752
602.42	24.558
602.76	25.085
603.09	24.834
603.42	25.836
603.76	24.274
604.09	23.572
604.42	25.169
604.76	24.522
605.09	24.634
605.42	24.740
605.75	24.737
606.09	24.374
606.42	23.937
606.75	24.719
607.09	25.011
607.42	23.394
607.75	24.378
608.08	24.214
608.42	24.486
608.75	24.096
609.08	24.564
609.41	23.503
609.75	23.639
610.08	25.162
610.41	24.541
610.74	23.891
611.07	24.289
611.41	24.598
611.74	24.414
612.07	24.197
612.40	24.508
612.73	25.254
613.07	23.510
613.40	24.508
613.73	23.783
614.06	24.151
614.39	24.309
614.72	24.034
615.06	24.469
615.39	24.072
615.72	23.789
616.05	23.799
616.38	22.621
616.71	22.875
617.05	24.089
617.38	23.759
617.71	24.591
618.04	24.571
618.37	25.095
618.70	23.102
619.03	24.931
619.36	24.240
619.69	23.503
620.03	24.324
620.36	24.320
620.69	24.340
621.02	23.165
621.35	25.394
621.68	25.000
622.01	24.417
622.34	23.304
622.67	23.738
623.00	24.502
623.33	23.476
623.66	22.887
623.99	24.735
624.32	24.411
624.65	23.534
624.99	23.777
625.32	23.124
625.65	23.959
625.98	24.416
626.31	23.275
626.64	23.917
626.97	23.909
627.30	22.942
627.63	23.917
627.96	23.630
628.29	23.497
628.62	24.090
628.95	23.848
629.28	21.976
629.61	22.732
629.94	24.145
630.26	22.628
630.59	24.142
630.92	23.795
631.25	22.154
631.58	23.348
631.91	21.382
632.24	21.330
632.57	22.955
632.90	23.250
633.23	21.412
633.56	22.166
633.89	22.935
634.22	22.346
634.55	21.982
634.88	22.478
635.20	20.769
635.53	24.800
635.86	22.107
636.19	23.286
636.52	23.597
636.85	22.084
637.18	21.258
637.51	22.264
637.83	24.047
638.16	21.965
638.49	20.572
638.82	23.816
639.15	22.659
639.48	21.596
639.81	23.152
640.13	23.232
640.46	21.574
640.79	22.091
641.12	22.304
641.45	22.523
641.77	24.148
642.10	24.487
642.43	22.830
642.76	22.112
643.09	25.363
643.41	19.579
643.74	23.064
644.07	22.003
644.40	23.311
644.73	23.117
645.05	20.638
645.38	21.693
645.71	21.454
646.04	24.237
646.36	23.404
646.69	23.381
647.02	21.550
647.35	22.761
647.67	23.400
648.00	23.507
648.33	25.256
648.66	21.356
648.98	21.943
649.31	21.653
649.64	21.821
649.96	22.366
650.29	22.147
650.62	21.538
650.94	21.481
651.27	21.974
651.60	22.342
651.92	23.601
652.25	22.025
652.58	22.667
652.90	25.557
653.23	22.857
653.56	21.151
653.88	22.337
654.21	20.140
654.54	23.430
654.86	23.260
655.19	21.930
655.52	24.923
655.84	24.527
656.17	27.455
656.49	36.954
656.82	37.402
657.15	28.483
657.47	21.029
657.80	15.806
658.13	15.315
658.45	23.394
658.78	23.061
659.10	22.391
659.43	22.061
659.75	22.496
660.08	20.621
660.41	21.757
660.73	21.409
661.06	22.357
661.38	20.352
661.71	18.686
662.03	22.532
662.36	24.396
662.68	19.912
663.01	24.236
663.33	20.882
663.66	21.163
663.98	17.907
664.31	21.748
664.63	17.281
664.96	19.348
665.28	20.309
665.61	20.563
665.93	22.391
666.26	24.295
666.58	19.687
666.91	19.059
667.23	22.642
667.56	21.801
667.88	20.384
668.21	22.912
668.53	24.350
668.86	21.226
669.18	19.575
669.50	20.097
669.83	21.860
670.15	22.611
670.48	19.378
670.80	21.198
671.13	17.897
671.45	18.493
671.77	21.245
672.10	22.574
672.42	20.974
672.75	22.558
673.07	23.435
673.39	20.550
673.72	19.527
674.04	19.792
674.37	22.246
674.69	21.627
675.01	20.667
675.34	24.324
675.66	21.759
675.98	22.838
676.31	22.706
676.63	21.853
676.95	20.682
677.28	21.412
677.60	20.241
677.92	19.495
678.25	24.508
678.57	20.779
678.89	19.958
679.22	22.371
679.54	21.486
679.86	20.477
680.18	20.971
680.51	22.538
680.83	20.875
681.15	22.000
681.48	23.566
681.80	22.314
682.12	23.185
682.44	20.084
682.77	21.413
683.09	20.595
683.41	20.227
683.73	22.350
684.06	23.009
684.38	21.505
684.70	22.222
685.02	23.237
685.34	18.972
685.67	18.011
685.99	23.870
686.31	20.000
686.63	24.119
686.96	21.673
687.28	18.384
687.60	21.103
687.92	22.626
688.24	22.782
688.56	22.707
688.89	20.312
689.21	23.556
689.53	22.042
689.85	23.256
690.17	23.661
690.49	22.931
690.82	19.417
691.14	23.333
691.46	21.028
691.78	20.721
692.10	21.505
692.42	20.996
692.74	23.291
693.06	22.297
693.39	19.910
693.71	21.493
694.03	20.323
694.35	21.495
694.67	19.949
694.99	20.627
695.31	23.499
695.63	21.500
695.95	20.202
696.27	21.503
696.59	20.556
696.91	18.207
697.23	17.995
697.56	20.792
697.88	21.505
698.20	22.096
698.52	19.294
698.84	17.943
699.16	18.250
699.48	21.303
699.80	22.333
700.12	19.407
700.44	21.289
700.76	20.930
701.08	20.303
701.40	17.169
701.72	24.074
702.04	18.812
702.36	19.064
702.68	21.321
703.00	21.818
703.32	22.581
703.64	17.232
703.96	21.449
704.28	18.712
704.60	20.952
704.91	15.457
705.23	17.608
705.55	24.735
705.87	22.022
706.19	22.222
706.51	23.024
706.83	21.543
707.15	19.938
707.47	22.409
707.79	21.354
708.11	24.250
708.43	21.250
708.74	21.189
709.06	21.408
709.38	19.572
709.70	23.077
710.02	19.108
710.34	23.220
710.66	17.308
710.98	17.881
711.29	20.000
711.61	19.322
711.93	20.195
712.25	21.306
712.57	23.077
712.89	18.284
713.20	22.491
713.52	20.209
713.84	21.160
714.16	21.306
714.48	19.677
714.80	22.756
715.11	23.100
715.43	16.928
715.75	19.333
716.07	16.611
716.39	18.456
716.70	20.664
717.02	17.939
717.34	21.862
717.66	19.469
717.97	17.391
718.29	16.318
718.61	22.047
718.93	18.992
719.24	20.532
719.56	19.277
719.88	19.588
720.20	17.803
720.51	19.923
720.83	22.394
721.15	18.487
721.46	20.161
721.78	19.368
722.10	21.561
722.42	17.842
722.73	18.367
723.05	28.163
723.37	21.186
723.68	22.072
724.00	20.513
724.32	19.556
724.63	15.909
724.95	25.764
725.27	20.276
725.58	16.949
725.90	20.238
726.22	20.077
726.53	24.746
726.85	18.352
727.16	24.528
727.48	20.243
727.80	21.457
728.11	20.763
728.43	23.529
728.74	15.323
729.06	17.600
729.38	25.188
729.69	18.327
730.01	18.077
730.32	18.284
730.64	21.908
730.96	23.396
731.27	19.667
731.59	20.678
731.90	20.382
732.22	21.767
732.53	25.249
732.85	21.277
733.16	22.222
733.48	18.705
733.80	22.101
734.11	22.712
734.43	20.619
734.74	20.606
735.06	18.241
735.37	20.846
735.69	22.222
736.00	20.557
736.32	18.121
736.63	23.592
736.95	20.137
737.26	19.573
737.58	15.772
737.89	20.879
738.21	22.180
738.52	22.634
738.83	21.397
739.15	18.341
739.46	23.228
739.78	17.949
740.09	22.549
740.41	20.290
740.72	15.748
741.04	21.862
741.35	14.894
741.66	21.327
741.98	15.306
742.29	18.812
742.61	19.372
742.92	9.005
743.23	16.667
743.55	18.552
743.86	15.789
744.18	16.746
744.49	20.745
744.80	22.283
745.12	25.134
745.43	19.024
745.74	19.271
746.06	22.439
746.37	15.707
746.68	18.483
747.00	15.426
747.31	20.398
747.62	20.874
747.94	19.139
748.25	20.297
748.56	20.219
748.88	24.084
749.19	25.000
749.50	15.764
749.82	15.566
750.13	17.431
750.44	25.940
750.75	20.149
751.07	24.088
751.38	19.923
751.69	16.078
752.01	21.318
752.32	17.928
752.63	18.972
752.94	17.672
753.26	27.615
753.57	20.362
753.88	19.027
754.19	16.250
754.51	18.595
754.82	21.053
755.13	25.000
755.44	20.968
755.75	21.094
756.07	22.568
756.38	20.755
756.69	15.709
757.00	17.667
757.31	16.340
757.63	17.683
757.94	22.778
758.25	18.630
758.56	20.479
758.87	18.130
759.18	18.380
759.50	17.455
759.81	23.411
760.12	20.645
760.43	20.606
760.74	19.136
761.05	20.000
761.36	21.875
761.67	23.333
761.99	23.469
762.30	15.636
762.61	26.482
762.92	11.765
763.23	23.423
763.54	18.692
763.85	19.915
764.16	16.598
764.47	20.161
764.78	23.077
765.10	21.212
765.41	17.666
765.72	20.952
766.03	18.797
766.34	19.708
766.65	22.311
766.96	27.273
767.27	19.149
767.58	16.092
767.89	11.348
768.20	15.341
768.51	20.330
768.82	16.749
769.13	14.286
769.44	18.884
769.75	16.895
770.06	18.103
770.37	17.788
770.68	18.274
770.99	17.195
771.30	22.059
771.61	19.457
771.92	22.845
772.23	26.108
772.54	21.505
772.85	25.926
773.16	24.157
773.47	23.529
773.78	19.608
774.09	20.958
774.39	9.333
774.70	16.561
775.01	17.241
775.32	20.000
775.63	4.959
775.94	15.267
776.25	18.110
776.56	16.667
776.87	16.346
777.18	13.675
777.48	10.345
777.79	13.043
778.10	10.476
778.41	21.622
778.72	16.667
779.03	23.308
779.34	20.567
779.65	16.438
779.95	13.014
780.26	22.759
780.57	8.130
780.88	13.386
781.19	11.207
781.50	24.031
781.80	18.935
782.11	13.836
782.42	19.231
782.73	16.547
783.04	26.667
783.34	16.667
783.65	7.692
783.96	14.754
784.27	28.276
784.57	12.195
784.88	21.875
785.19	30.000
785.50	26.000
785.81	18.103
786.11	9.483
786.42	9.709
786.73	23.636
787.04	11.224
787.34	16.071
787.65	16.190
787.96	14.159
788.26	26.364
788.57	11.111
788.88	18.750
789.19	12.698
789.49	13.043
789.80	0.000
790.11	26.263
790.41	18.182
790.72	20.652
791.03	10.227
791.33	23.750
791.64	16.250
791.95	19.767
792.25	27.660
792.56	26.966
792.87	9.589
793.17	20.290
793.48	6.667
793.79	11.250
794.09	23.750
794.40	13.208
794.70	14.563
795.01	15.447
795.32	21.368
795.62	18.095
795.93	24.510
796.23	21.698
796.54	20.833
796.85	26.471
797.15	16.901
797.46	18.056
797.76	22.727
798.07	6.977
798.37	13.158
798.68	4.545
798.99	16.049
799.29	22.857
799.60	20.290
799.90	18.667
800.21	13.115
800.51	10.769
800.82	16.949
801.12	7.246
801.43	11.475
801.73	14.286
802.04	22.000
802.34	14.925
802.65	28.846
802.95	7.143
803.26	0.000
803.56	25.490
803.87	-17.391
804.17	17.333
804.48	34.921
804.78	1.852
805.09	13.043
805.39	-4.444
805.70	9.259
806.00	-3.509
806.30	25.352
806.61	18.571
806.91	-2.778
807.22	30.263
807.52	24.000
807.83	9.091
808.13	18.056
808.43	13.235
808.74	7.463
809.04	18.644
809.35	9.615
809.65	1.563
809.95	-51.351
810.26	-13.636
810.56	27.397
810.86	11.905
811.17	8.000
811.47	40.816
811.77	-7.895
812.08	6.818
812.38	0.000
812.69	10.000
812.99	-6.061
813.29	-10.526
813.59	2.857
813.90	22.727
814.20	0.000
814.50	40.385
814.81	16.981
815.11	2.128
815.41	37.288
815.72	7.143
816.02	17.647
816.32	35.417
816.62	12.195
816.93	10.811
817.23	2.857
817.53	31.250
817.84	0.000
818.14	23.077
818.44	21.053
818.74	30.435
819.04	-40.000
819.35	0.000
819.65	29.412
819.95	8.333
820.25	2.381
820.56	47.500
820.86	-27.586
821.16	22.500
821.46	27.660
821.76	35.000
822.07	6.977
822.37	-5.405
822.67	-25.000
822.97	16.667
823.27	-21.429
823.57	-8.000
823.88	-40.741
824.18	7.143
824.48	14.706
824.78	-9.677
825.08	17.391
825.38	15.152
825.69	-45.833
825.99	18.421
826.29	11.111
826.59	-53.333
826.89	0.000
827.19	13.043
827.49	0.000
827.79	22.857
828.09	32.143
828.39	12.121
828.70	40.541
829.00	-25.000
829.30	-33.333
829.60	-23.333
829.90	-3.125
830.20	-7.895
830.50	-55.556
830.80	-21.739
831.10	-4.545
831.40	24.242
831.70	9.677
832.00	42.857
832.30	-9.524
832.60	8.333
832.90	24.138
833.20	-45.000
833.50	18.182
833.80	7.407
834.10	15.385
834.40	28.125
834.70	-33.333
835.00	-15.789
835.30	38.462
835.60	-53.333
835.90	29.032
836.20	18.182
836.50	35.714
836.80	-23.077
837.10	7.143
837.40	-100.000
837.70	22.727
838.00	-45.455
838.30	13.043
838.60	-38.462
838.90	18.182
839.19	-3.571
839.49	26.667
839.79	-84.615
840.09	-50.000
840.39	35.714
840.69	10.714
840.99	-11.538
841.29	26.316
841.59	-80.000
841.88	-36.364
842.18	0.000
842.48	37.500
842.78	-60.000
843.08	-14.815
843.38	-150.000
843.68	52.174
843.97	6.667
844.27	-46.667
844.57	50.000
844.87	0.000
845.17	-38.095
845.47	60.000
845.76	-19.048
846.06	-5.882
846.36	20.000
846.66	-28.571
846.96	33.333
847.25	-250.000
847.55	-28.571
847.85	-75.000
848.15	-4.545
848.44	-433.333
848.74	15.000
849.04	7.407
849.34	54.545
849.63	-33.333
849.93	-240.000
850.23	-16.667
850.53	-50.000
850.82	-53.846
851.12	-22.222
851.42	20.000
851.71	3.846
852.01	42.857
852.31	-125.000
852.61	-9.091
852.90	-5.000
853.20	47.368
853.50	-16.667
853.79	4.348
854.09	4.167
854.39	-89.474
854.68	8.333
854.98	32.258
855.28	7.692
855.57	-35.000
855.87	61.111
856.17	22.222
856.46	-42.857
856.76	6.667
857.05	11.111
857.35	12.000
857.65	-11.111
857.94	-100.000
858.24	17.241
858.53	22.222
858.83	44.444
859.13	27.273
859.42	-4.348
859.72	-25.000
860.01	-200.000
860.31	12.000
860.60	4.762
860.90	-66.667
861.20	20.000
861.49	-500.000
861.79	-26.667
862.08	5.000
862.38	46.667
862.67	-180.000
862.97	33.333
863.26	-16.667
863.56	50.000
863.85	-666.667
864.15	16.667
864.44	-30.000
864.74	64.286
865.03	400.000
865.33	-100.000
865.62	-83.333
865.92	-33.333
866.21	-166.667
866.51	-6.250
866.80	18.182
867.10	-650.000
867.39	-33.333
867.69	0.000
867.98	-38.462
868.27	-166.667
868.57	-40.000
868.86	33.333
869.16	-100.000
869.45	46.667
869.75	-800.000
870.04	0.000
870.33	-185.714
870.63	14.286
870.92	200.000
871.22	-160.000
871.51	-700.000
871.80	-77.778
872.10	433.333
>>>>>End Processed Spectral Data<<<<<
