SpectraSuite Data File
++++++++++++++++++++++++++++++++++++
Date: Fri May 15 21:03:06 PDT 2015
User: schluterlab
Dark Spectrum Present: Yes
Reference Spectrum Present: Yes
Number of Sampled Component Spectra: 1
Spectrometers: USB2E3373
Integration Time (usec): 3000 (USB2E3373)
Spectra Averaged: 3 (USB2E3373)
Boxcar Smoothing: 0 (USB2E3373)
Correct for Electrical Dark: No (USB2E3373)
Strobe/Lamp Enabled: No (USB2E3373)
Correct for Detector Non-linearity: No (USB2E3373)
Correct for Stray Light: No (USB2E3373)
Number of Pixels in Processed Spectrum: 2048
>>>>>Begin Processed Spectral Data<<<<<
178.53	0.000
178.91	0.000
179.29	-125.000
179.67	-450.000
180.04	-0.000
180.42	-75.000
180.80	-1300.000
181.18	166.667
181.56	650.000
181.94	-500.000
182.31	800.000
182.69	-180.000
183.07	-133.333
183.45	-340.000
183.83	266.667
184.20	-63.636
184.58	211.111
184.96	225.000
185.34	233.333
185.72	-700.000
186.09	84.615
186.47	-1000.000
186.85	200.000
187.23	100.000
187.61	100.000
187.98	-100.000
188.36	-133.333
188.74	-633.333
189.12	-29.412
189.49	-5.556
189.87	0.000
190.25	-7.143
190.63	0.000
191.00	-533.333
191.38	36.842
191.76	250.000
192.14	150.000
192.51	300.000
192.89	-111.111
193.27	-28.571
193.65	233.333
194.02	118.182
194.40	-70.000
194.78	-162.500
195.15	-50.000
195.53	-125.000
195.91	525.000
196.29	-300.000
196.66	46.154
197.04	185.714
197.42	-55.556
197.79	-733.333
198.17	-107.692
198.55	1400.000
198.92	-566.667
199.30	-1400.000
199.68	-80.000
200.05	-600.000
200.43	0.000
200.81	-133.333
201.18	0.000
201.56	1300.000
201.94	-500.000
202.31	-66.667
202.69	-160.000
203.07	250.000
203.44	200.000
203.82	0.000
204.19	21.429
204.57	-600.000
204.95	125.000
205.32	-70.000
205.70	14.286
206.08	-75.000
206.45	88.889
206.83	0.000
207.20	-85.714
207.58	500.000
207.96	-200.000
208.33	-220.000
208.71	-475.000
209.08	-250.000
209.46	-1400.000
209.84	-220.000
210.21	-1000.000
210.59	-128.571
210.96	-33.333
211.34	-75.000
211.71	6.667
212.09	-300.000
212.46	-1600.000
212.84	0.000
213.22	-50.000
213.59	750.000
213.97	-23.077
214.34	0.000
214.72	-166.667
215.09	475.000
215.47	-30.769
215.84	-54.545
216.22	-500.000
216.59	-50.000
216.97	50.000
217.34	-300.000
217.72	-100.000
218.09	-62.500
218.47	287.500
218.84	-400.000
219.22	-11.111
219.59	-100.000
219.97	500.000
220.34	425.000
220.72	-28.571
221.09	-200.000
221.47	-50.000
221.84	-550.000
222.22	-800.000
222.59	9.091
222.97	-41.667
223.34	-133.333
223.72	-42.857
224.09	-28.571
224.46	-10.714
224.84	466.667
225.21	0.000
225.59	20.000
225.96	150.000
226.34	400.000
226.71	-85.714
227.08	-116.667
227.46	0.000
227.83	-900.000
228.21	-33.333
228.58	-27.273
228.95	-62.500
229.33	200.000
229.70	-62.500
230.08	-125.000
230.45	-142.857
230.82	14.286
231.20	-13.333
231.57	7.143
231.95	-142.857
232.32	-20.000
232.69	0.000
233.07	-300.000
233.44	-120.000
233.81	-80.000
234.19	-44.444
234.56	11.765
234.93	500.000
235.31	0.000
235.68	-240.000
236.05	-100.000
236.43	-15.000
236.80	0.000
237.17	3.125
237.55	30.000
237.92	-33.333
238.29	33.333
238.67	40.000
239.04	-8.824
239.41	-19.512
239.79	-13.333
240.16	19.512
240.53	13.158
240.91	28.261
241.28	22.222
241.65	23.214
242.02	31.507
242.40	15.000
242.77	32.203
243.14	15.152
243.51	30.000
243.89	34.483
244.26	27.586
244.63	22.619
245.00	30.928
245.38	35.052
245.75	22.472
246.12	24.138
246.49	32.231
246.87	30.769
247.24	22.689
247.61	33.333
247.98	32.520
248.36	28.125
248.73	29.605
249.10	34.416
249.47	30.380
249.84	28.758
250.22	30.000
250.59	33.333
250.96	34.742
251.33	25.581
251.70	32.353
252.08	32.995
252.45	32.673
252.82	31.658
253.19	33.641
253.56	35.981
253.94	35.135
254.31	33.043
254.68	35.965
255.05	31.102
255.42	34.934
255.79	32.819
256.16	33.463
256.54	32.836
256.91	33.460
257.28	33.086
257.65	32.584
258.02	31.560
258.39	36.364
258.76	39.927
259.14	31.229
259.51	33.657
259.88	28.179
260.25	32.353
260.62	34.028
260.99	29.831
261.36	31.849
261.73	33.228
262.10	32.523
262.47	32.515
262.85	35.110
263.22	32.308
263.59	33.022
263.96	33.540
264.33	34.545
264.70	32.440
265.07	34.524
265.44	31.445
265.81	35.593
266.18	35.246
266.55	38.303
266.92	37.047
267.29	33.420
267.66	32.225
268.03	35.340
268.40	32.898
268.77	33.957
269.14	34.053
269.51	35.733
269.88	33.416
270.25	34.694
270.62	33.902
270.99	34.271
271.36	30.318
271.73	34.977
272.10	33.090
272.47	35.225
272.84	35.149
273.21	38.051
273.58	33.494
273.95	34.554
274.32	33.256
274.69	31.900
275.06	35.045
275.43	33.333
275.80	32.671
276.17	33.103
276.54	31.049
276.91	33.553
277.28	30.568
277.65	33.678
278.02	31.702
278.39	35.230
278.76	33.124
279.13	31.535
279.50	36.345
279.87	31.533
280.23	31.398
280.60	32.554
280.97	34.343
281.34	29.808
281.71	33.470
282.08	31.902
282.45	29.941
282.82	31.853
283.19	32.302
283.56	33.911
283.92	32.068
284.29	32.692
284.66	30.620
285.03	32.220
285.40	32.514
285.77	29.174
286.14	31.047
286.51	33.764
286.87	30.165
287.24	31.676
287.61	29.630
287.98	33.333
288.35	29.983
288.72	31.349
289.08	29.861
289.45	29.525
289.82	30.070
290.19	27.304
290.56	28.988
290.93	27.946
291.29	26.965
291.66	28.661
292.03	27.113
292.40	28.387
292.77	27.273
293.13	26.461
293.50	26.100
293.87	25.802
294.24	27.202
294.60	25.484
294.97	27.083
295.34	25.307
295.71	26.230
296.08	23.617
296.44	23.613
296.81	25.278
297.18	25.072
297.55	25.881
297.91	25.479
298.28	25.198
298.65	24.016
299.02	24.124
299.38	22.982
299.75	25.517
300.12	21.597
300.48	23.452
300.85	23.701
301.22	23.766
301.59	22.763
301.95	24.937
302.32	23.606
302.69	24.129
303.05	22.772
303.42	23.288
303.79	22.547
304.15	23.417
304.52	21.879
304.89	23.158
305.25	22.760
305.62	21.937
305.99	22.573
306.35	22.890
306.72	21.372
307.09	22.235
307.45	22.503
307.82	22.685
308.19	23.229
308.55	21.592
308.92	22.767
309.29	22.793
309.65	21.959
310.02	22.552
310.38	20.637
310.75	21.530
311.12	23.036
311.48	20.785
311.85	20.209
312.22	20.675
312.58	22.081
312.95	19.957
313.31	20.911
313.68	21.466
314.05	21.429
314.41	22.062
314.78	21.959
315.14	23.022
315.51	22.464
315.87	21.209
316.24	23.559
316.61	21.063
316.97	21.429
317.34	21.680
317.70	21.797
318.07	21.635
318.43	22.451
318.80	21.686
319.16	22.656
319.53	24.406
319.89	24.311
320.26	23.583
320.62	24.373
320.99	23.695
321.35	24.152
321.72	24.195
322.08	24.572
322.45	24.975
322.81	25.344
323.18	24.534
323.54	24.324
323.91	25.803
324.27	26.172
324.64	26.311
325.00	26.642
325.37	29.109
325.73	27.380
326.10	29.155
326.46	29.238
326.83	29.134
327.19	29.991
327.56	30.495
327.92	30.898
328.29	30.268
328.65	31.604
329.01	31.342
329.38	31.429
329.74	31.350
330.11	32.901
330.47	31.633
330.84	31.731
331.20	34.316
331.56	32.037
331.93	33.059
332.29	33.364
332.66	33.756
333.02	34.294
333.38	32.906
333.75	34.799
334.11	34.646
334.48	34.451
334.84	35.714
335.20	34.584
335.57	33.726
335.93	34.327
336.29	34.346
336.66	33.969
337.02	35.688
337.38	35.093
337.75	33.455
338.11	35.528
338.47	36.861
338.84	36.044
339.20	35.192
339.56	35.321
339.93	35.989
340.29	36.330
340.65	37.993
341.02	36.525
341.38	36.637
341.74	35.247
342.11	35.789
342.47	35.409
342.83	36.332
343.20	34.582
343.56	35.739
343.92	36.404
344.28	37.062
344.65	36.010
345.01	35.523
345.37	35.660
345.73	36.904
346.10	37.964
346.46	35.744
346.82	35.925
347.19	35.578
347.55	36.341
347.91	36.489
348.27	36.378
348.63	37.905
349.00	36.423
349.36	35.411
349.72	36.318
350.08	36.148
350.45	37.111
350.81	35.963
351.17	36.645
351.53	37.224
351.89	35.838
352.26	36.400
352.62	37.258
352.98	34.458
353.34	35.990
353.70	37.217
354.07	35.887
354.43	36.910
354.79	35.260
355.15	37.857
355.51	36.234
355.87	36.650
356.24	37.194
356.60	36.055
356.96	38.333
357.32	36.342
357.68	35.731
358.04	36.107
358.40	36.495
358.77	37.081
359.13	36.029
359.49	36.595
359.85	36.895
360.21	37.241
360.57	35.960
360.93	37.897
361.29	35.876
361.66	38.793
362.02	38.182
362.38	37.167
362.74	37.547
363.10	37.321
363.46	38.844
363.82	38.242
364.18	37.269
364.54	37.353
364.90	37.706
365.26	37.773
365.62	39.124
365.98	38.123
366.35	38.092
366.71	38.803
367.07	38.462
367.43	38.390
367.79	38.728
368.15	38.981
368.51	38.893
368.87	38.981
369.23	38.484
369.59	40.306
369.95	39.150
370.31	39.090
370.67	39.030
371.03	39.358
371.39	38.220
371.75	39.634
372.11	38.944
372.47	39.423
372.83	40.880
373.19	39.800
373.55	39.206
373.91	39.885
374.27	40.397
374.63	42.355
374.99	40.142
375.35	41.852
375.71	41.818
376.07	41.643
376.42	41.020
376.78	41.141
377.14	40.217
377.50	41.633
377.86	40.830
378.22	41.736
378.58	41.474
378.94	41.021
379.30	41.235
379.66	41.630
380.02	42.244
380.38	40.840
380.74	41.712
381.09	43.681
381.45	42.936
381.81	41.764
382.17	43.147
382.53	42.911
382.89	43.252
383.25	43.373
383.61	44.085
383.97	43.429
384.32	43.590
384.68	43.901
385.04	44.608
385.40	43.373
385.76	45.283
386.12	45.860
386.48	44.381
386.83	44.388
387.19	44.994
387.55	45.358
387.91	44.866
388.27	45.726
388.62	46.067
388.98	46.163
389.34	46.908
389.70	46.489
390.06	45.626
390.42	47.150
390.77	46.305
391.13	46.406
391.49	46.766
391.85	46.979
392.20	45.951
392.56	46.027
392.92	47.563
393.28	46.580
393.64	46.366
393.99	48.903
394.35	48.514
394.71	47.190
395.07	47.957
395.42	47.055
395.78	48.860
396.14	47.982
396.50	47.495
396.85	48.358
397.21	47.995
397.57	47.461
397.92	48.412
398.28	47.989
398.64	48.253
399.00	48.815
399.35	47.799
399.71	48.076
400.07	49.274
400.42	48.715
400.78	48.377
401.14	49.244
401.49	48.779
401.85	49.421
402.21	50.301
402.57	50.062
402.92	50.125
403.28	50.501
403.63	51.072
403.99	51.020
404.35	51.280
404.70	50.179
405.06	50.118
405.42	50.280
405.77	48.983
406.13	50.640
406.49	50.977
406.84	51.956
407.20	51.716
407.55	51.127
407.91	51.270
408.27	50.351
408.62	51.508
408.98	51.633
409.34	51.797
409.69	50.969
410.05	51.293
410.40	51.975
410.76	52.593
411.11	51.500
411.47	53.452
411.83	52.103
412.18	53.797
412.54	51.498
412.89	50.739
413.25	52.708
413.60	52.609
413.96	52.883
414.31	54.024
414.67	52.598
415.03	52.929
415.38	53.721
415.74	54.267
416.09	53.821
416.45	54.085
416.80	53.404
417.16	55.939
417.51	54.697
417.87	53.716
418.22	55.246
418.58	54.916
418.93	55.172
419.29	52.881
419.64	54.569
420.00	56.423
420.35	53.791
420.71	54.860
421.06	54.880
421.42	54.627
421.77	55.376
422.12	54.313
422.48	54.792
422.83	55.568
423.19	55.587
423.54	54.615
423.90	54.653
424.25	56.946
424.61	55.998
424.96	55.110
425.31	57.250
425.67	56.984
426.02	56.832
426.38	58.234
426.73	58.354
427.09	57.278
427.44	56.824
427.79	57.513
428.15	55.825
428.50	57.480
428.85	55.958
429.21	57.725
429.56	57.898
429.92	57.011
430.27	56.692
430.62	57.658
430.98	57.219
431.33	57.886
431.68	58.242
432.04	58.245
432.39	57.045
432.74	57.186
433.10	59.943
433.45	58.602
433.80	58.967
434.16	58.560
434.51	59.194
434.86	59.175
435.22	58.721
435.57	60.075
435.92	58.563
436.28	57.961
436.63	59.840
436.98	58.633
437.34	59.165
437.69	61.061
438.04	60.627
438.39	59.499
438.75	62.234
439.10	59.989
439.45	61.716
439.81	60.795
440.16	61.995
440.51	61.373
440.86	63.082
441.22	61.312
441.57	60.817
441.92	61.700
442.27	64.246
442.63	62.634
442.98	61.516
443.33	61.157
443.68	61.751
444.03	61.798
444.39	62.764
444.74	64.827
445.09	62.584
445.44	64.217
445.79	65.188
446.15	63.106
446.50	62.784
446.85	64.612
447.20	63.139
447.55	64.676
447.91	64.580
448.26	63.916
448.61	65.976
448.96	64.659
449.31	64.971
449.66	65.738
450.02	65.203
450.37	65.619
450.72	64.605
451.07	66.835
451.42	64.170
451.77	64.919
452.12	65.012
452.47	64.713
452.83	65.489
453.18	65.844
453.53	65.866
453.88	66.060
454.23	65.274
454.58	66.751
454.93	65.528
455.28	64.825
455.63	66.336
455.98	66.867
456.34	66.475
456.69	66.709
457.04	67.612
457.39	65.857
457.74	65.719
458.09	64.803
458.44	65.769
458.79	65.826
459.14	66.876
459.49	65.612
459.84	65.651
460.19	65.898
460.54	66.320
460.89	66.364
461.24	66.584
461.59	66.865
461.94	66.981
462.29	68.697
462.64	68.173
462.99	67.299
463.34	66.273
463.69	66.345
464.04	65.557
464.39	66.283
464.74	66.810
465.09	67.810
465.44	67.109
465.79	64.739
466.14	66.021
466.49	65.785
466.84	66.984
467.19	66.521
467.54	67.497
467.89	66.835
468.24	66.058
468.59	67.619
468.94	66.159
469.29	67.934
469.64	67.464
469.99	68.465
470.34	68.055
470.68	69.202
471.03	70.347
471.38	68.331
471.73	69.258
472.08	68.182
472.43	68.322
472.78	66.210
473.13	68.707
473.48	68.599
473.83	66.936
474.17	67.940
474.52	67.773
474.87	67.879
475.22	67.480
475.57	68.041
475.92	68.020
476.27	68.976
476.61	68.171
476.96	66.871
477.31	69.173
477.66	67.697
478.01	68.950
478.36	66.503
478.70	69.114
479.05	68.571
479.40	66.985
479.75	66.997
480.10	66.871
480.45	68.500
480.79	69.235
481.14	69.006
481.49	67.586
481.84	69.643
482.19	67.774
482.53	69.640
482.88	68.496
483.23	68.042
483.58	68.774
483.92	67.328
484.27	66.819
484.62	67.100
484.97	67.620
485.31	66.691
485.66	63.675
486.01	63.583
486.36	63.963
486.70	65.640
487.05	67.166
487.40	66.003
487.75	67.775
488.09	67.151
488.44	67.744
488.79	67.426
489.13	68.349
489.48	68.021
489.83	68.251
490.17	68.584
490.52	69.284
490.87	67.145
491.22	67.717
491.56	69.165
491.91	67.830
492.26	69.130
492.60	68.474
492.95	69.257
493.30	68.344
493.64	69.008
493.99	67.488
494.34	68.155
494.68	68.619
495.03	67.786
495.37	69.333
495.72	68.652
496.07	68.439
496.41	68.585
496.76	68.033
497.11	68.421
497.45	69.260
497.80	70.636
498.14	67.312
498.49	68.563
498.84	68.713
499.18	69.227
499.53	69.891
499.87	67.315
500.22	68.843
500.56	69.592
500.91	69.578
501.26	69.451
501.60	68.815
501.95	68.753
502.29	69.153
502.64	69.498
502.98	68.673
503.33	67.627
503.67	68.337
504.02	68.475
504.36	69.817
504.71	68.636
505.06	68.546
505.40	68.883
505.75	71.134
506.09	68.829
506.44	70.534
506.78	71.582
507.13	69.545
507.47	69.661
507.82	69.071
508.16	70.787
508.51	70.776
508.85	70.696
509.19	69.824
509.54	70.456
509.88	69.687
510.23	71.651
510.57	70.978
510.92	70.043
511.26	71.631
511.61	70.627
511.95	71.452
512.30	69.845
512.64	70.896
512.98	70.747
513.33	70.565
513.67	70.893
514.02	73.741
514.36	73.829
514.70	73.077
515.05	73.325
515.39	73.318
515.74	73.593
516.08	74.059
516.42	72.850
516.77	73.727
517.11	73.591
517.46	73.908
517.80	72.527
518.14	74.648
518.49	71.935
518.83	72.114
519.17	72.589
519.52	72.173
519.86	73.169
520.20	74.362
520.55	73.984
520.89	73.839
521.23	73.528
521.58	74.006
521.92	74.359
522.26	75.146
522.61	73.896
522.95	76.358
523.29	73.316
523.64	74.333
523.98	74.141
524.32	73.969
524.66	74.840
525.01	74.286
525.35	74.141
525.69	74.949
526.04	74.802
526.38	74.189
526.72	74.951
527.06	73.671
527.41	73.879
527.75	73.458
528.09	74.086
528.43	74.679
528.78	74.587
529.12	74.129
529.46	73.489
529.80	73.211
530.15	75.776
530.49	76.027
530.83	76.607
531.17	73.069
531.51	75.787
531.86	73.895
532.20	75.574
532.54	75.153
532.88	74.812
533.22	73.992
533.57	75.164
533.91	74.413
534.25	74.609
534.59	73.958
534.93	73.254
535.27	73.350
535.62	73.493
535.96	73.712
536.30	73.945
536.64	74.845
536.98	73.937
537.32	74.751
537.66	74.825
538.01	73.986
538.35	72.746
538.69	73.169
539.03	72.317
539.37	72.813
539.71	73.756
540.05	72.641
540.39	73.338
540.73	74.128
541.07	74.102
541.42	72.984
541.76	74.329
542.10	73.090
542.44	74.983
542.78	73.021
543.12	74.382
543.46	74.131
543.80	75.156
544.14	71.028
544.48	72.885
544.82	74.573
545.16	74.249
545.50	73.231
545.84	74.433
546.18	74.326
546.52	73.828
546.86	73.976
547.20	74.750
547.54	72.226
547.88	72.622
548.22	72.189
548.56	71.372
548.90	73.450
549.24	69.904
549.58	72.214
549.92	71.337
550.26	74.212
550.60	74.647
550.94	73.936
551.28	72.875
551.62	75.154
551.96	74.361
552.30	72.661
552.64	72.920
552.98	73.840
553.32	73.110
553.66	73.004
554.00	74.672
554.34	74.668
554.68	73.083
555.02	75.074
555.36	74.196
555.69	72.161
556.03	71.378
556.37	72.669
556.71	72.996
557.05	74.273
557.39	71.524
557.73	72.489
558.07	73.831
558.41	72.818
558.75	74.825
559.08	74.310
559.42	75.952
559.76	75.340
560.10	75.000
560.44	73.045
560.78	72.098
561.12	73.061
561.45	71.680
561.79	72.969
562.13	72.889
562.47	72.590
562.81	72.767
563.15	71.862
563.48	72.702
563.82	72.752
564.16	72.702
564.50	71.757
564.84	70.750
565.17	70.355
565.51	72.268
565.85	73.114
566.19	71.751
566.52	70.777
566.86	71.530
567.20	72.540
567.54	71.898
567.88	71.236
568.21	70.192
568.55	69.891
568.89	69.251
569.23	69.764
569.56	67.863
569.90	67.276
570.24	66.133
570.57	67.527
570.91	66.365
571.25	65.669
571.59	64.653
571.92	64.711
572.26	64.704
572.60	65.240
572.93	64.230
573.27	64.201
573.61	65.424
573.95	63.927
574.28	64.698
574.62	62.599
574.96	62.678
575.29	63.529
575.63	62.451
575.97	63.730
576.30	63.340
576.64	62.411
576.98	63.655
577.31	64.070
577.65	63.509
577.98	62.891
578.32	63.087
578.66	62.003
578.99	62.073
579.33	62.878
579.67	61.998
580.00	63.063
580.34	63.905
580.67	62.710
581.01	63.641
581.35	62.102
581.68	61.759
582.02	61.461
582.35	62.080
582.69	62.213
583.02	63.085
583.36	62.669
583.70	63.603
584.03	65.054
584.37	64.568
584.70	63.269
585.04	62.021
585.37	62.457
585.71	62.577
586.04	62.481
586.38	62.737
586.72	63.300
587.05	63.865
587.39	63.657
587.72	63.641
588.06	63.438
588.39	62.176
588.73	63.614
589.06	64.612
589.40	64.189
589.73	64.330
590.07	64.690
590.40	64.938
590.73	65.939
591.07	64.885
591.40	65.093
591.74	65.204
592.07	65.306
592.41	64.267
592.74	62.565
593.08	61.718
593.41	62.339
593.75	61.694
594.08	61.792
594.41	63.282
594.75	62.290
595.08	62.694
595.42	63.416
595.75	63.875
596.09	64.152
596.42	64.696
596.75	63.499
597.09	64.009
597.42	62.692
597.75	65.186
598.09	62.789
598.42	62.771
598.76	62.934
599.09	61.458
599.42	61.197
599.76	61.324
600.09	61.652
600.42	61.676
600.76	60.921
601.09	61.336
601.42	60.204
601.76	62.326
602.09	62.583
602.42	63.100
602.76	61.545
603.09	62.625
603.42	62.960
603.76	61.129
604.09	61.239
604.42	62.014
604.76	63.106
605.09	61.883
605.42	61.535
605.75	61.996
606.09	60.679
606.42	61.134
606.75	61.905
607.09	61.451
607.42	61.187
607.75	60.568
608.08	60.916
608.42	60.758
608.75	63.229
609.08	62.332
609.41	61.980
609.75	61.341
610.08	62.406
610.41	61.353
610.74	61.336
611.07	62.171
611.41	61.495
611.74	62.793
612.07	61.296
612.40	62.418
612.73	63.277
613.07	62.373
613.40	60.832
613.73	62.115
614.06	61.825
614.39	62.888
614.72	61.064
615.06	61.844
615.39	59.498
615.72	59.042
616.05	60.894
616.38	61.140
616.71	61.346
617.05	62.014
617.38	62.099
617.71	62.956
618.04	63.111
618.37	62.799
618.70	63.762
619.03	64.583
619.36	62.229
619.69	64.215
620.03	64.134
620.36	62.947
620.69	62.027
621.02	62.768
621.35	64.730
621.68	64.201
622.01	65.167
622.34	62.330
622.67	63.486
623.00	62.481
623.33	62.957
623.66	62.678
623.99	60.968
624.32	63.878
624.65	61.805
624.99	61.550
625.32	62.926
625.65	63.001
625.98	64.061
626.31	62.344
626.64	65.251
626.97	64.049
627.30	63.485
627.63	62.565
627.96	63.702
628.29	62.812
628.62	64.897
628.95	63.327
629.28	65.323
629.61	62.911
629.94	64.125
630.26	63.735
630.59	64.828
630.92	64.615
631.25	62.769
631.58	66.079
631.91	64.145
632.24	65.826
632.57	66.250
632.90	64.176
633.23	64.471
633.56	65.113
633.89	66.708
634.22	66.914
634.55	67.217
634.88	65.645
635.20	64.359
635.53	68.800
635.86	62.809
636.19	65.459
636.52	65.561
636.85	63.400
637.18	62.516
637.51	64.654
637.83	63.075
638.16	67.121
638.49	64.441
638.82	64.737
639.15	64.858
639.48	64.787
639.81	63.319
640.13	66.811
640.46	65.306
640.79	65.243
641.12	63.811
641.45	64.865
641.77	64.148
642.10	68.246
642.43	66.881
642.76	66.502
643.09	66.559
643.41	64.078
643.74	62.273
644.07	63.383
644.40	65.541
644.73	67.601
645.05	64.262
645.38	65.079
645.71	64.894
646.04	66.786
646.36	65.071
646.69	67.266
647.02	68.053
647.35	65.299
647.67	61.243
648.00	67.537
648.33	62.628
648.66	64.746
648.98	63.484
649.31	63.967
649.64	60.911
649.96	61.750
650.29	62.010
650.62	63.932
650.94	63.704
651.27	65.549
651.60	61.982
651.92	62.937
652.25	63.410
652.58	60.167
652.90	62.950
653.23	64.034
653.56	62.098
653.88	60.309
654.21	59.545
654.54	61.460
654.86	61.969
655.19	58.333
655.52	57.972
655.84	49.900
656.17	53.998
656.49	72.604
656.82	75.963
657.15	59.155
657.47	45.005
657.80	34.058
658.13	33.904
658.45	53.412
658.78	54.273
659.10	54.377
659.43	54.720
659.75	55.649
660.08	56.000
660.41	57.406
660.73	58.564
661.06	62.912
661.38	60.274
661.71	57.290
662.03	66.524
662.36	63.297
662.68	60.177
663.01	61.572
663.33	61.949
663.66	60.698
663.98	62.558
664.31	59.488
664.63	61.751
664.96	58.696
665.28	58.057
665.61	58.009
665.93	63.261
666.26	61.605
666.58	59.732
666.91	62.353
667.23	62.028
667.56	62.559
667.88	59.233
668.21	61.337
668.53	59.811
668.86	61.557
669.18	61.792
669.50	60.775
669.83	57.674
670.15	63.170
670.48	57.416
670.80	61.521
671.13	58.389
671.45	55.708
671.77	59.871
672.10	56.634
672.42	57.678
672.75	56.306
673.07	58.318
673.39	57.248
673.72	53.254
674.04	58.542
674.37	56.780
674.69	56.531
675.01	58.889
675.34	61.036
675.66	60.880
675.98	60.089
676.31	56.881
676.63	58.195
676.95	57.727
677.28	58.588
677.60	62.169
677.92	56.651
678.25	59.081
678.57	57.359
678.89	58.403
679.22	57.942
679.54	52.610
679.86	54.076
680.18	54.951
680.51	53.220
680.83	54.871
681.15	55.400
681.48	55.738
681.80	56.198
682.12	52.218
682.44	54.393
682.77	57.616
683.09	56.522
683.41	55.000
683.73	54.378
684.06	55.752
684.38	54.194
684.70	55.773
685.02	51.660
685.34	49.407
685.67	53.659
685.99	51.899
686.31	51.504
686.63	52.319
686.96	50.570
687.28	53.737
687.60	50.951
687.92	56.364
688.24	52.016
688.56	51.747
688.89	52.679
689.21	56.667
689.53	51.972
689.85	53.488
690.17	54.464
690.49	53.428
690.82	52.913
691.14	51.429
691.46	51.636
691.78	52.703
692.10	50.753
692.42	53.247
692.74	48.718
693.06	50.901
693.39	51.131
693.71	49.548
694.03	51.732
694.35	51.636
694.67	50.000
694.99	53.525
695.31	50.914
695.63	49.500
695.95	46.212
696.27	50.777
696.59	52.500
696.91	51.821
697.23	50.900
697.56	50.990
697.88	49.462
698.20	48.747
698.52	49.647
698.84	50.718
699.16	49.250
699.48	50.125
699.80	45.906
700.12	53.369
700.44	49.020
700.76	49.419
701.08	48.182
701.40	52.410
701.72	58.951
702.04	52.145
702.36	55.184
702.68	51.051
703.00	51.515
703.32	47.507
703.64	46.045
703.96	48.406
704.28	51.534
704.60	54.286
704.91	46.372
705.23	50.831
705.55	53.004
705.87	51.986
706.19	53.333
706.51	48.454
706.83	51.125
707.15	47.975
707.47	55.182
707.79	44.531
708.11	48.750
708.43	47.500
708.74	48.062
709.06	51.549
709.38	48.624
709.70	48.225
710.02	51.274
710.34	48.297
710.66	41.346
710.98	47.351
711.29	46.885
711.61	47.797
711.93	46.906
712.25	56.014
712.57	48.718
712.89	48.507
713.20	45.329
713.52	45.296
713.84	47.440
714.16	52.234
714.48	47.419
714.80	44.872
715.11	47.112
715.43	45.768
715.75	45.000
716.07	42.193
716.39	45.973
716.70	46.125
717.02	46.183
717.34	47.368
717.66	46.460
717.97	52.609
718.29	46.862
718.61	47.638
718.93	47.674
719.24	49.049
719.56	46.586
719.88	46.392
720.20	48.485
720.51	42.529
720.83	47.104
721.15	43.697
721.46	43.952
721.78	42.292
722.10	43.494
722.42	41.909
722.73	44.082
723.05	46.531
723.37	47.034
723.68	50.450
724.00	41.453
724.32	43.111
724.63	41.364
724.95	44.105
725.27	47.926
725.58	41.525
725.90	42.460
726.22	45.946
726.53	42.034
726.85	42.697
727.16	49.057
727.48	42.510
727.80	44.130
728.11	40.254
728.43	41.569
728.74	39.919
729.06	46.800
729.38	42.105
729.69	40.239
730.01	42.308
730.32	41.418
730.64	43.463
730.96	43.019
731.27	39.000
731.59	36.271
731.90	38.535
732.22	41.956
732.53	44.850
732.85	45.390
733.16	45.791
733.48	37.410
733.80	40.217
734.11	46.441
734.43	43.299
734.74	40.000
735.06	40.717
735.37	43.807
735.69	44.781
736.00	40.767
736.32	39.933
736.63	46.127
736.95	34.812
737.26	43.060
737.58	40.940
737.89	41.026
738.21	36.842
738.52	41.564
738.83	44.105
739.15	37.118
739.46	39.764
739.78	40.659
740.09	35.294
740.41	41.304
740.72	38.189
741.04	43.320
741.35	38.298
741.66	43.128
741.98	36.224
742.29	40.099
742.61	40.838
742.92	34.597
743.23	34.722
743.55	40.271
743.86	42.584
744.18	39.713
744.49	38.830
744.80	38.587
745.12	43.850
745.43	38.537
745.74	41.146
746.06	44.390
746.37	41.361
746.68	43.128
747.00	36.702
747.31	47.264
747.62	44.175
747.94	40.191
748.25	36.634
748.56	34.973
748.88	42.408
749.19	45.745
749.50	39.901
749.82	35.377
750.13	37.615
750.44	44.361
750.75	39.925
751.07	43.066
751.38	35.632
751.69	31.765
752.01	42.248
752.32	40.637
752.63	39.526
752.94	34.483
753.26	39.749
753.57	38.462
753.88	35.841
754.19	37.500
754.51	38.017
754.82	36.032
755.13	44.167
755.44	38.306
755.75	38.281
756.07	38.521
756.38	33.208
756.69	40.996
757.00	39.000
757.31	33.987
757.63	34.756
757.94	34.722
758.25	35.890
758.56	34.043
758.87	33.711
759.18	34.268
759.50	33.818
759.81	38.796
760.12	38.065
760.43	36.364
760.74	38.272
761.05	32.923
761.36	33.807
761.67	36.364
761.99	41.497
762.30	31.273
762.61	38.340
762.92	38.009
763.23	39.189
763.54	34.112
763.85	33.051
764.16	32.365
764.47	29.032
764.78	38.462
765.10	37.037
765.41	31.861
765.72	33.968
766.03	32.331
766.34	38.321
766.65	33.068
766.96	33.838
767.27	41.489
767.58	29.310
767.89	34.043
768.20	37.500
768.51	34.615
768.82	36.453
769.13	28.571
769.44	31.760
769.75	28.311
770.06	34.483
770.37	30.288
770.68	30.964
770.99	30.317
771.30	33.333
771.61	32.579
771.92	34.052
772.23	41.872
772.54	32.796
772.85	31.481
773.16	33.708
773.47	37.255
773.78	39.869
774.09	31.138
774.39	38.000
774.70	39.490
775.01	37.241
775.32	36.429
775.63	29.752
775.94	35.115
776.25	38.583
776.56	34.167
776.87	36.538
777.18	25.641
777.48	30.172
777.79	26.087
778.10	14.286
778.41	33.333
778.72	34.127
779.03	38.346
779.34	26.241
779.65	30.137
779.95	32.192
780.26	28.966
780.57	34.146
780.88	31.496
781.19	33.621
781.50	29.457
781.80	28.402
782.11	25.786
782.42	38.462
782.73	32.374
783.04	28.889
783.34	20.139
783.65	15.385
783.96	28.689
784.27	31.034
784.57	31.707
784.88	28.906
785.19	40.000
785.50	31.000
785.81	40.517
786.11	25.000
786.42	26.214
786.73	30.909
787.04	31.633
787.34	25.000
787.65	29.524
787.96	23.894
788.26	37.273
788.57	29.915
788.88	32.813
789.19	30.159
789.49	26.957
789.80	28.571
790.11	24.242
790.41	20.000
790.72	33.696
791.03	25.000
791.33	37.500
791.64	15.000
791.95	17.442
792.25	29.787
792.56	31.461
792.87	15.068
793.17	24.638
793.48	12.000
793.79	25.000
794.09	30.000
794.40	31.132
794.70	24.272
795.01	18.699
795.32	25.641
795.62	32.381
795.93	33.333
796.23	29.245
796.54	22.917
796.85	23.529
797.15	15.493
797.46	40.278
797.76	37.879
798.07	24.419
798.37	27.632
798.68	-1.515
798.99	27.160
799.29	22.857
799.60	14.493
799.90	25.333
800.21	32.787
800.51	18.462
800.82	32.203
801.12	11.594
801.43	24.590
801.73	15.873
802.04	28.000
802.34	14.925
802.65	36.538
802.95	3.571
803.26	21.154
803.56	5.882
803.87	4.348
804.17	5.333
804.48	36.508
804.78	0.000
805.09	4.348
805.39	17.778
805.70	16.667
806.00	5.263
806.30	26.761
806.61	44.286
806.91	4.167
807.22	34.211
807.52	30.667
807.83	29.091
808.13	13.889
808.43	35.294
808.74	10.448
809.04	16.949
809.35	15.385
809.65	18.750
809.95	-2.703
810.26	-6.818
810.56	8.219
810.86	7.143
811.17	24.000
811.47	34.694
811.77	0.000
812.08	20.455
812.38	20.755
812.69	17.500
812.99	51.515
813.29	55.263
813.59	-20.000
813.90	20.455
814.20	-20.513
814.50	11.538
814.81	24.528
815.11	21.277
815.41	27.119
815.72	21.429
816.02	39.216
816.32	16.667
816.62	34.146
816.93	10.811
817.23	-14.286
817.53	8.333
817.84	-2.174
818.14	21.154
818.44	-21.053
818.74	26.087
819.04	10.000
819.35	27.027
819.65	11.765
819.95	16.667
820.25	2.381
820.56	47.500
820.86	-27.586
821.16	37.500
821.46	8.511
821.76	27.500
822.07	-6.977
822.37	5.405
822.67	3.125
822.97	28.571
823.27	-14.286
823.57	-24.000
823.88	18.519
824.18	-3.571
824.48	-8.824
824.78	16.129
825.08	-13.043
825.38	-27.273
825.69	0.000
825.99	34.211
826.29	-5.556
826.59	-60.000
826.89	-47.619
827.19	19.565
827.49	22.500
827.79	28.571
828.09	32.143
828.39	21.212
828.70	45.946
829.00	-28.571
829.30	-4.762
829.60	10.000
829.90	28.125
830.20	18.421
830.50	-7.407
830.80	-4.348
831.10	-4.545
831.40	54.545
831.70	16.129
832.00	42.857
832.30	19.048
832.60	-16.667
832.90	-37.931
833.20	-40.000
833.50	21.212
833.80	18.519
834.10	-50.000
834.40	18.750
834.70	-88.889
835.00	-52.632
835.30	50.000
835.60	46.667
835.90	12.903
836.20	9.091
836.50	21.429
836.80	-26.923
837.10	28.571
837.40	-300.000
837.70	4.545
838.00	9.091
838.30	8.696
838.60	-30.769
838.90	-9.091
839.19	35.714
839.49	-16.667
839.79	-15.385
840.09	-108.333
840.39	32.143
840.69	3.571
840.99	-19.231
841.29	-31.579
841.59	-120.000
841.88	-9.091
842.18	20.000
842.48	18.750
842.78	73.333
843.08	3.704
843.38	-120.000
843.68	26.087
843.97	6.667
844.27	-86.667
844.57	45.000
844.87	11.111
845.17	9.524
845.47	73.333
845.76	-4.762
846.06	29.412
846.36	-30.000
846.66	-57.143
846.96	-33.333
847.25	-137.500
847.55	-14.286
847.85	-87.500
848.15	-13.636
848.44	-366.667
848.74	20.000
849.04	29.630
849.34	-63.636
849.63	-366.667
849.93	-280.000
850.23	-33.333
850.53	30.000
850.82	-76.923
851.12	-55.556
851.42	6.667
851.71	34.615
852.01	-64.286
852.31	-375.000
852.61	-90.909
852.90	-15.000
853.20	-31.579
853.50	-33.333
853.79	-26.087
854.09	41.667
854.39	0.000
854.68	-45.833
854.98	6.452
855.28	7.692
855.57	-15.000
855.87	11.111
856.17	0.000
856.46	-57.143
856.76	-40.000
857.05	-11.111
857.35	0.000
857.65	-55.556
857.94	-7.692
858.24	-3.448
858.53	-11.111
858.83	-7.407
859.13	22.727
859.42	4.348
859.72	-225.000
860.01	-366.667
860.31	16.000
860.60	-19.048
860.90	-266.667
861.20	6.667
861.49	-450.000
861.79	-60.000
862.08	-30.000
862.38	-13.333
862.67	-80.000
862.97	0.000
863.26	-66.667
863.56	61.111
863.85	-733.333
864.15	33.333
864.44	-120.000
864.74	35.714
865.03	325.000
865.33	-280.000
865.62	-83.333
865.92	0.000
866.21	-266.667
866.51	18.750
866.80	-45.455
867.10	-400.000
867.39	16.667
867.69	0.000
867.98	-15.385
868.27	-66.667
868.57	66.667
868.86	11.111
869.16	-84.615
869.45	6.667
869.75	-600.000
870.04	0.000
870.33	-228.571
870.63	9.524
870.92	433.333
871.22	-320.000
871.51	0.000
871.80	-22.222
872.10	866.667
>>>>>End Processed Spectral Data<<<<<
