SpectraSuite Data File
++++++++++++++++++++++++++++++++++++
Date: Fri May 15 20:51:33 PDT 2015
User: schluterlab
Dark Spectrum Present: Yes
Reference Spectrum Present: Yes
Number of Sampled Component Spectra: 1
Spectrometers: USB2E3373
Integration Time (usec): 3000 (USB2E3373)
Spectra Averaged: 3 (USB2E3373)
Boxcar Smoothing: 0 (USB2E3373)
Correct for Electrical Dark: No (USB2E3373)
Strobe/Lamp Enabled: No (USB2E3373)
Correct for Detector Non-linearity: No (USB2E3373)
Correct for Stray Light: No (USB2E3373)
Number of Pixels in Processed Spectrum: 2048
>>>>>Begin Processed Spectral Data<<<<<
178.53	0.000
178.91	0.000
179.29	0.000
179.67	-500.000
180.04	14.286
180.42	-25.000
180.80	-800.000
181.18	-300.000
181.56	500.000
181.94	100.000
182.31	-0.000
182.69	20.000
183.07	-233.333
183.45	-180.000
183.83	266.667
184.20	45.455
184.58	133.333
184.96	150.000
185.34	266.667
185.72	-650.000
186.09	107.692
186.47	-900.000
186.85	166.667
187.23	144.444
187.61	-200.000
187.98	-333.333
188.36	55.556
188.74	-100.000
189.12	5.882
189.49	11.111
189.87	0.000
190.25	-7.143
190.63	-100.000
191.00	-166.667
191.38	-15.789
191.76	200.000
192.14	25.000
192.51	250.000
192.89	11.111
193.27	-100.000
193.65	150.000
194.02	236.364
194.40	-40.000
194.78	-275.000
195.15	-50.000
195.53	-112.500
195.91	275.000
196.29	-75.000
196.66	84.615
197.04	171.429
197.42	-155.556
197.79	-300.000
198.17	-146.154
198.55	1900.000
198.92	-66.667
199.30	-400.000
199.68	-320.000
200.05	-600.000
200.43	0.000
200.81	-333.333
201.18	33.333
201.56	800.000
201.94	-200.000
202.31	-200.000
202.69	-180.000
203.07	200.000
203.44	200.000
203.82	0.000
204.19	7.143
204.57	-433.333
204.95	150.000
205.32	-10.000
205.70	-57.143
206.08	-325.000
206.45	111.111
206.83	-28.571
207.20	-171.429
207.58	600.000
207.96	-233.333
208.33	-80.000
208.71	-300.000
209.08	-250.000
209.46	-300.000
209.84	-160.000
210.21	-1200.000
210.59	-28.571
210.96	16.667
211.34	-275.000
211.71	60.000
212.09	-185.714
212.46	-1700.000
212.84	0.000
213.22	-60.000
213.59	150.000
213.97	46.154
214.34	-18.182
214.72	-133.333
215.09	475.000
215.47	0.000
215.84	-27.273
216.22	-566.667
216.59	12.500
216.97	-150.000
217.34	-175.000
217.72	-240.000
218.09	87.500
218.47	100.000
218.84	-1200.000
219.22	-100.000
219.59	20.000
219.97	700.000
220.34	250.000
220.72	-100.000
221.09	300.000
221.47	50.000
221.84	-700.000
222.22	-650.000
222.59	0.000
222.97	33.333
223.34	-200.000
223.72	-42.857
224.09	14.286
224.46	3.571
224.84	800.000
225.21	-80.000
225.59	40.000
225.96	-500.000
226.34	350.000
226.71	-228.571
227.08	-150.000
227.46	-87.500
227.83	-650.000
228.21	-22.222
228.58	-45.455
228.95	-162.500
229.33	130.000
229.70	43.750
230.08	-37.500
230.45	14.286
230.82	0.000
231.20	-73.333
231.57	42.857
231.95	28.571
232.32	-220.000
232.69	21.429
233.07	66.667
233.44	-220.000
233.81	-110.000
234.19	55.556
234.56	-35.294
234.93	600.000
235.31	-150.000
235.68	-340.000
236.05	-38.462
236.43	-105.000
236.80	-76.471
237.17	-18.750
237.55	-10.000
237.92	-40.741
238.29	-27.778
238.67	-13.333
239.04	-29.412
239.41	-24.390
239.79	-43.333
240.16	-31.707
240.53	-13.158
240.91	-8.696
241.28	1.587
241.65	0.000
242.02	6.849
242.40	-6.667
242.77	10.169
243.14	-16.667
243.51	-5.000
243.89	3.448
244.26	-12.644
244.63	-1.190
245.00	-2.062
245.38	-1.031
245.75	-19.101
246.12	-6.034
246.49	-1.653
246.87	-11.538
247.24	-14.286
247.61	-17.544
247.98	-0.813
248.36	-3.750
248.73	-0.658
249.10	-5.195
249.47	-2.532
249.84	-2.614
250.22	-3.529
250.59	-3.922
250.96	7.042
251.33	-3.488
251.70	-1.176
252.08	0.000
252.45	1.980
252.82	-4.523
253.19	1.843
253.56	-6.542
253.94	1.351
254.31	0.870
254.68	0.877
255.05	0.000
255.42	-0.437
255.79	-3.089
256.16	-0.778
256.54	-1.493
256.91	-2.662
257.28	-0.372
257.65	-2.622
258.02	-0.709
258.39	0.673
258.76	2.198
259.14	4.319
259.51	0.971
259.88	-2.405
260.25	-0.654
260.62	3.819
260.99	-3.051
261.36	-0.342
261.73	-2.532
262.10	-0.608
262.47	1.227
262.85	-2.194
263.22	-0.615
263.59	-1.246
263.96	1.242
264.33	-1.212
264.70	0.000
265.07	-4.167
265.44	-0.567
265.81	-0.565
266.18	1.093
266.55	0.771
266.92	0.777
267.29	-0.261
267.66	-0.256
268.03	0.524
268.40	-0.783
268.77	3.209
269.14	0.000
269.51	0.514
269.88	0.000
270.25	-1.276
270.62	-0.488
270.99	-2.558
271.36	-1.222
271.73	-1.643
272.10	-0.487
272.47	-1.655
272.84	-0.990
273.21	1.624
273.58	0.723
273.95	2.517
274.32	-0.693
274.69	-1.810
275.06	-0.223
275.43	-1.134
275.80	0.221
276.17	-1.839
276.54	0.428
276.91	-1.754
277.28	-0.437
277.65	2.686
278.02	-2.128
278.39	-1.532
278.76	1.258
279.13	-3.527
279.50	0.840
279.87	-1.080
280.23	-1.290
280.60	1.949
280.97	0.000
281.34	-2.115
281.71	1.232
282.08	-0.818
282.45	0.000
282.82	-2.317
283.19	0.387
283.56	-1.734
283.92	-1.139
284.29	-2.115
284.66	-0.775
285.03	0.393
285.40	0.945
285.77	0.879
286.14	0.542
286.51	0.738
286.87	0.366
287.24	-0.921
287.61	-2.116
287.98	0.175
288.35	-0.520
288.72	0.000
289.08	1.042
289.45	0.176
289.82	1.224
290.19	0.171
290.56	-1.372
290.93	-0.673
291.29	-1.387
291.66	0.945
292.03	0.319
292.40	-1.290
292.77	-1.595
293.13	-0.812
293.50	-0.759
293.87	0.458
294.24	0.618
294.60	0.596
294.97	0.446
295.34	-0.920
295.71	0.000
296.08	0.000
296.44	-0.996
296.81	0.833
297.18	0.000
297.55	0.542
297.91	0.822
298.28	2.243
298.65	-0.271
299.02	0.135
299.38	-0.958
299.75	0.276
300.12	-0.524
300.48	-1.581
300.85	0.507
301.22	0.649
301.59	-0.789
301.95	2.152
302.32	0.259
302.69	0.871
303.05	-0.248
303.42	0.996
303.79	0.000
304.15	0.597
304.52	-0.357
304.89	-0.819
305.25	0.121
305.62	-0.350
305.99	0.234
306.35	0.347
306.72	-0.337
307.09	0.684
307.45	1.378
307.82	-0.231
308.19	1.974
308.55	1.418
308.92	1.525
309.29	0.223
309.65	1.722
310.02	0.550
310.38	1.647
310.75	0.984
311.12	0.861
311.48	2.651
311.85	0.105
312.22	0.844
312.58	1.592
312.95	1.281
313.31	0.828
313.68	1.361
314.05	1.531
314.41	2.268
314.78	2.268
315.14	3.700
315.51	3.313
315.87	2.049
316.24	4.752
316.61	5.709
316.97	4.167
317.34	3.809
317.70	4.493
318.07	5.385
318.43	5.686
318.80	5.398
319.16	4.688
319.53	6.078
319.89	6.004
320.26	7.287
320.62	8.225
320.99	5.532
321.35	8.016
321.72	8.723
322.08	8.560
322.45	8.629
322.81	9.234
323.18	9.912
323.54	9.459
323.91	9.445
324.27	10.156
324.64	11.423
325.00	11.588
325.37	13.039
325.73	12.239
326.10	13.806
326.46	13.632
326.83	13.998
327.19	13.514
327.56	14.248
327.92	15.053
328.29	14.375
328.65	13.302
329.01	14.246
329.38	15.853
329.74	15.109
330.11	17.053
330.47	15.028
330.84	16.346
331.20	18.061
331.56	15.463
331.93	16.804
332.29	17.140
332.66	16.109
333.02	16.914
333.38	15.674
333.75	17.399
334.11	15.577
334.48	16.228
334.84	16.758
335.20	16.926
335.57	16.591
335.93	17.254
336.29	16.759
336.66	17.257
337.02	16.078
337.38	17.037
337.75	15.273
338.11	16.231
338.47	17.883
338.84	16.913
339.20	16.728
339.56	17.064
339.93	18.174
340.29	16.789
340.65	17.115
341.02	15.957
341.38	16.549
341.74	16.873
342.11	15.685
342.47	16.014
342.83	17.561
343.20	16.028
343.56	16.783
343.92	16.120
344.28	17.250
344.65	16.580
345.01	16.162
345.37	17.410
345.73	15.983
346.10	17.170
346.46	16.064
346.82	15.466
347.19	15.212
347.55	15.622
347.91	16.586
348.27	17.219
348.63	15.673
349.00	15.997
349.36	15.378
349.72	16.501
350.08	15.328
350.45	16.361
350.81	14.286
351.17	15.065
351.53	16.000
351.89	15.442
352.26	15.440
352.62	15.161
352.98	15.261
353.34	14.815
353.70	16.343
354.07	16.452
354.43	15.612
354.79	15.194
355.15	16.032
355.51	16.060
355.87	14.563
356.24	16.150
356.60	14.390
356.96	14.921
357.32	14.856
357.68	16.106
358.04	15.670
358.40	15.514
358.77	15.072
359.13	15.372
359.49	14.638
359.85	16.459
360.21	14.274
360.57	16.144
360.93	14.675
361.29	14.502
361.66	15.204
362.02	15.076
362.38	16.070
362.74	15.291
363.10	14.974
363.46	14.455
363.82	16.454
364.18	15.867
364.54	14.632
364.90	16.057
365.26	15.357
365.62	16.642
365.98	15.396
366.35	15.805
366.71	16.038
367.07	15.239
367.43	15.025
367.79	16.184
368.15	15.075
368.51	15.586
368.87	14.860
369.23	15.090
369.59	14.796
369.95	16.422
370.31	14.740
370.67	15.448
371.03	15.609
371.39	15.536
371.75	16.117
372.11	14.337
372.47	15.459
372.83	14.975
373.19	15.621
373.55	15.379
373.91	15.119
374.27	15.663
374.63	16.439
374.99	16.028
375.35	15.181
375.71	16.434
376.07	15.028
376.42	15.170
376.78	16.443
377.14	15.030
377.50	15.405
377.86	16.131
378.22	16.082
378.58	15.769
378.94	15.564
379.30	16.594
379.66	16.928
380.02	16.248
380.38	14.851
380.74	15.500
381.09	16.994
381.45	15.963
381.81	15.916
382.17	15.736
382.53	15.553
382.89	16.510
383.25	16.615
383.61	16.768
383.97	15.429
384.32	16.198
384.68	16.037
385.04	15.257
385.40	16.490
385.76	17.296
386.12	16.300
386.48	16.858
386.83	15.536
387.19	16.422
387.55	17.503
387.91	17.237
388.27	17.033
388.62	17.244
388.98	16.882
389.34	17.239
389.70	17.464
390.06	16.488
390.42	17.034
390.77	17.659
391.13	17.213
391.49	17.529
391.85	16.959
392.20	17.514
392.56	18.373
392.92	17.792
393.28	17.925
393.64	17.477
393.99	17.931
394.35	17.141
394.71	18.072
395.07	17.096
395.42	17.972
395.78	17.850
396.14	17.087
396.50	18.072
396.85	18.352
397.21	18.421
397.57	17.868
397.92	18.214
398.28	18.276
398.64	18.735
399.00	18.341
399.35	17.664
399.71	18.667
400.07	17.715
400.42	17.809
400.78	18.983
401.14	18.451
401.49	19.893
401.85	18.160
402.21	18.675
402.57	18.563
402.92	18.068
403.28	18.672
403.63	18.663
403.99	17.474
404.35	19.425
404.70	18.155
405.06	18.684
405.42	18.769
405.77	18.129
406.13	18.626
406.49	18.887
406.84	18.765
407.20	19.928
407.55	17.965
407.91	18.984
408.27	18.547
408.62	19.877
408.98	19.409
409.34	20.136
409.69	19.638
410.05	19.581
410.40	19.815
410.76	19.180
411.11	19.438
411.47	19.855
411.83	19.272
412.18	20.013
412.54	19.788
412.89	19.520
413.25	21.179
413.60	20.248
413.96	19.816
414.31	20.793
414.67	20.334
415.03	20.639
415.38	19.713
415.74	20.912
416.09	21.620
416.45	21.540
416.80	20.886
417.16	22.099
417.51	20.919
417.87	20.665
418.22	20.725
418.58	20.736
418.93	21.442
419.29	20.423
419.64	20.933
420.00	21.599
420.35	21.313
420.71	21.689
421.06	20.319
421.42	21.935
421.77	21.561
422.12	20.942
422.48	20.736
422.83	21.752
423.19	22.178
423.54	21.693
423.90	21.201
424.25	22.044
424.61	22.521
424.96	22.125
425.31	22.530
425.67	21.655
426.02	21.437
426.38	23.106
426.73	22.518
427.09	23.608
427.44	22.647
427.79	22.746
428.15	23.362
428.50	21.623
428.85	22.052
429.21	22.411
429.56	23.127
429.92	23.112
430.27	23.108
430.62	23.053
430.98	22.824
431.33	23.449
431.68	22.187
432.04	23.756
432.39	22.818
432.74	22.550
433.10	22.931
433.45	23.895
433.80	23.447
434.16	22.825
434.51	23.656
434.86	24.506
435.22	24.678
435.57	23.269
435.92	24.012
436.28	23.614
436.63	23.845
436.98	24.508
437.34	24.319
437.69	25.999
438.04	23.818
438.39	23.519
438.75	25.076
439.10	24.392
439.45	24.833
439.81	24.587
440.16	25.713
440.51	25.612
440.86	25.559
441.22	25.509
441.57	24.945
441.92	25.184
442.27	24.390
442.63	25.803
442.98	25.273
443.33	24.819
443.68	26.048
444.03	25.733
444.39	25.184
444.74	26.812
445.09	25.724
445.44	26.553
445.79	26.715
446.15	26.267
446.50	25.735
446.85	25.505
447.20	26.382
447.55	26.004
447.91	26.001
448.26	26.978
448.61	27.288
448.96	26.506
449.31	26.301
449.66	26.887
450.02	26.526
450.37	25.845
450.72	26.002
451.07	27.152
451.42	27.154
451.77	26.703
452.12	25.718
452.47	25.563
452.83	26.266
453.18	27.071
453.53	27.244
453.88	26.533
454.23	27.904
454.58	27.771
454.93	27.771
455.28	26.603
455.63	26.906
455.98	27.420
456.34	28.480
456.69	27.637
457.04	28.040
457.39	27.886
457.74	27.751
458.09	26.133
458.44	27.560
458.79	27.003
459.14	27.460
459.49	28.060
459.84	26.847
460.19	27.367
460.54	27.751
460.89	27.670
461.24	26.894
461.59	28.385
461.94	27.547
462.29	27.563
462.64	28.638
462.99	27.759
463.34	26.982
463.69	27.606
464.04	28.329
464.39	26.622
464.74	27.423
465.09	27.823
465.44	28.159
465.79	26.587
466.14	28.392
466.49	26.797
466.84	28.138
467.19	27.722
467.54	28.225
467.89	27.353
468.24	27.311
468.59	29.016
468.94	27.492
469.29	28.328
469.64	28.640
469.99	28.521
470.34	27.235
470.68	28.262
471.03	28.025
471.38	28.388
471.73	28.081
472.08	28.087
472.43	26.644
472.78	27.553
473.13	28.095
473.48	28.730
473.83	28.767
474.17	28.692
474.52	27.951
474.87	27.576
475.22	27.944
475.57	28.007
475.92	28.305
476.27	28.405
476.61	28.356
476.96	28.054
477.31	27.420
477.66	27.978
478.01	28.186
478.36	27.505
478.70	27.569
479.05	28.187
479.40	28.299
479.75	26.642
480.10	27.906
480.45	27.450
480.79	29.104
481.14	28.945
481.49	27.685
481.84	28.089
482.19	27.409
482.53	28.585
482.88	28.353
483.23	27.927
483.58	28.302
483.92	27.251
484.27	26.937
484.62	28.059
484.97	26.866
485.31	27.023
485.66	25.766
486.01	26.675
486.36	25.872
486.70	26.757
487.05	26.268
487.40	25.853
487.75	26.817
488.09	26.761
488.44	26.685
488.79	27.045
489.13	27.444
489.48	26.422
489.83	26.906
490.17	27.101
490.52	26.836
490.87	27.348
491.22	28.032
491.56	27.467
491.91	26.960
492.26	27.856
492.60	27.591
492.95	27.841
493.30	27.211
493.64	27.161
493.99	27.923
494.34	26.699
494.68	27.810
495.03	26.326
495.37	27.821
495.72	27.562
496.07	27.366
496.41	27.642
496.76	26.900
497.11	26.456
497.45	27.112
497.80	27.952
498.14	27.273
498.49	26.105
498.84	26.397
499.18	27.610
499.53	26.935
499.87	26.605
500.22	26.459
500.56	27.736
500.91	27.159
501.26	26.644
501.60	26.906
501.95	26.977
502.29	26.199
502.64	26.351
502.98	27.183
503.33	25.889
503.67	25.831
504.02	27.077
504.36	26.670
504.71	26.111
505.06	26.724
505.40	26.396
505.75	26.082
506.09	26.153
506.44	27.002
506.78	27.041
507.13	26.422
507.47	26.423
507.82	25.748
508.16	26.307
508.51	26.338
508.85	26.164
509.19	26.503
509.54	26.542
509.88	25.243
510.23	26.251
510.57	26.189
510.92	25.000
511.26	26.296
511.61	26.403
511.95	26.192
512.30	25.776
512.64	25.097
512.98	25.547
513.33	25.238
513.67	25.014
514.02	26.259
514.36	26.000
514.70	26.399
515.05	26.557
515.39	25.915
515.74	26.347
516.08	25.822
516.42	26.796
516.77	25.863
517.11	25.757
517.46	26.870
517.80	25.507
518.14	26.087
518.49	25.300
518.83	25.213
519.17	24.985
519.52	24.808
519.86	25.570
520.20	25.942
520.55	24.765
520.89	25.972
521.23	24.636
521.58	25.615
521.92	24.872
522.26	25.309
522.61	24.935
522.95	26.424
523.29	24.841
523.64	25.667
523.98	26.183
524.32	25.064
524.66	25.864
525.01	25.065
525.35	25.275
525.69	25.051
526.04	23.545
526.38	25.811
526.72	24.395
527.06	24.968
527.41	25.396
527.75	25.201
528.09	24.120
528.43	25.726
528.78	23.168
529.12	24.774
529.46	24.366
529.80	24.003
530.15	24.488
530.49	24.175
530.83	24.350
531.17	22.834
531.51	24.008
531.86	24.745
532.20	23.521
532.54	24.575
532.88	23.272
533.22	23.992
533.57	23.132
533.91	22.650
534.25	24.089
534.59	22.130
534.93	22.656
535.27	22.081
535.62	23.072
535.96	23.744
536.30	23.615
536.64	22.812
536.98	22.787
537.32	24.111
537.66	23.001
538.01	24.406
538.35	21.983
538.69	22.104
539.03	22.625
539.37	22.544
539.71	22.563
540.05	22.132
540.39	22.992
540.73	22.385
541.07	22.445
541.42	22.648
541.76	21.473
542.10	22.161
542.44	22.099
542.78	21.473
543.12	21.978
543.46	22.045
543.80	21.166
544.14	21.028
544.48	22.518
544.82	22.351
545.16	21.858
545.50	21.429
545.84	21.530
546.18	21.915
546.52	21.485
546.86	20.848
547.20	21.030
547.54	20.636
547.88	21.399
548.22	19.527
548.56	21.174
548.90	21.226
549.24	20.730
549.58	20.028
549.92	20.300
550.26	20.659
550.60	20.446
550.94	20.762
551.28	20.170
551.62	20.231
551.96	20.150
552.30	19.664
552.64	19.464
552.98	20.605
553.32	20.043
553.66	19.376
554.00	19.708
554.34	20.606
554.68	20.059
555.02	19.940
555.36	19.746
555.69	18.828
556.03	18.986
556.37	18.861
556.71	19.278
557.05	19.836
557.39	18.959
557.73	19.190
558.07	20.362
558.41	19.985
558.75	18.784
559.08	19.070
559.42	18.651
559.76	19.295
560.10	18.960
560.44	18.541
560.78	18.531
561.12	18.265
561.45	18.833
561.79	18.768
562.13	18.524
562.47	17.914
562.81	18.156
563.15	18.759
563.48	18.034
563.82	18.806
564.16	18.175
564.50	18.176
564.84	17.805
565.17	18.176
565.51	17.828
565.85	18.176
566.19	17.639
566.52	17.828
566.86	18.059
567.20	18.120
567.54	17.032
567.88	17.047
568.21	17.251
568.55	16.793
568.89	17.454
569.23	16.514
569.56	16.068
569.90	16.403
570.24	15.966
570.57	16.255
570.91	16.835
571.25	15.719
571.59	15.852
571.92	15.319
572.26	15.670
572.60	15.473
572.93	15.312
573.27	15.078
573.61	14.916
573.95	15.292
574.28	15.069
574.62	14.900
574.96	15.532
575.29	14.841
575.63	14.641
575.97	14.584
576.30	14.591
576.64	14.305
576.98	15.109
577.31	14.598
577.65	14.748
577.98	14.751
578.32	14.161
578.66	14.356
578.99	14.460
579.33	14.039
579.67	14.257
580.00	14.304
580.34	14.403
580.67	13.773
581.01	14.193
581.35	13.975
581.68	13.993
582.02	13.911
582.35	13.668
582.69	13.751
583.02	14.228
583.36	14.171
583.70	14.278
584.03	14.623
584.37	14.314
584.70	14.368
585.04	13.342
585.37	13.907
585.71	13.528
586.04	13.490
586.38	13.497
586.72	13.888
587.05	14.009
587.39	13.810
587.72	14.024
588.06	13.451
588.39	13.529
588.73	13.492
589.06	13.960
589.40	13.550
589.73	13.837
590.07	13.822
590.40	13.777
590.73	14.539
591.07	13.359
591.40	13.891
591.74	14.072
592.07	14.193
592.41	13.913
592.74	13.700
593.08	12.924
593.41	13.180
593.75	12.888
594.08	13.011
594.41	13.282
594.75	12.519
595.08	13.205
595.42	12.624
595.75	13.368
596.09	13.135
596.42	13.353
596.75	12.789
597.09	12.802
597.42	12.963
597.75	13.193
598.09	12.721
598.42	12.049
598.76	12.656
599.09	12.780
599.42	12.846
599.76	12.415
600.09	12.821
600.42	12.396
600.76	12.259
601.09	12.099
601.42	12.338
601.76	12.545
602.09	11.964
602.42	13.227
602.76	12.394
603.09	12.334
603.42	12.249
603.76	11.290
604.09	12.475
604.42	12.606
604.76	12.773
605.09	12.431
605.42	12.054
605.75	12.084
606.09	11.720
606.42	12.427
606.75	12.035
607.09	11.736
607.42	11.653
607.75	11.767
608.08	11.635
608.42	11.695
608.75	11.759
609.08	12.207
609.41	12.589
609.75	12.097
610.08	11.533
610.41	11.256
610.74	11.653
611.07	12.041
611.41	12.143
611.74	12.154
612.07	12.099
612.40	12.035
612.73	11.921
613.07	11.080
613.40	12.801
613.73	10.464
614.06	11.853
614.39	11.393
614.72	11.541
615.06	12.179
615.39	11.299
615.72	11.572
616.05	12.123
616.38	10.883
616.71	11.865
617.05	11.859
617.38	10.874
617.71	11.635
618.04	11.492
618.37	13.241
618.70	11.419
619.03	12.431
619.36	10.709
619.69	12.964
620.03	12.345
620.36	12.303
620.69	11.635
621.02	12.309
621.35	12.365
621.68	11.820
622.01	11.500
622.34	12.051
622.67	11.435
623.00	11.792
623.33	10.976
623.66	11.444
623.99	10.439
624.32	11.027
624.65	10.150
624.99	12.265
625.32	10.690
625.65	12.490
625.98	11.765
626.31	10.474
626.64	12.652
626.97	11.257
627.30	11.208
627.63	11.785
627.96	11.860
628.29	10.268
628.62	13.176
628.95	10.922
629.28	11.593
629.61	11.167
629.94	11.730
630.26	11.067
630.59	12.487
630.92	11.385
631.25	10.974
631.58	12.115
631.91	11.184
632.24	10.665
632.57	11.818
632.90	10.558
633.23	11.059
633.56	9.320
633.89	11.837
634.22	11.605
634.55	11.817
634.88	11.239
635.20	9.487
635.53	12.267
635.86	10.663
636.19	13.195
636.52	11.352
636.85	9.677
637.18	10.818
637.51	12.075
637.83	12.484
638.16	11.050
638.49	9.809
638.82	11.711
639.15	11.262
639.48	12.242
639.81	12.273
640.13	9.957
640.46	11.224
640.79	10.898
641.12	9.306
641.45	13.363
641.77	12.296
642.10	10.427
642.43	10.450
642.76	11.056
643.09	11.955
643.41	10.680
643.74	9.720
644.07	11.823
644.40	10.980
644.73	11.208
645.05	12.248
645.38	10.229
645.71	10.106
646.04	11.131
646.36	9.752
646.69	13.849
647.02	11.531
647.35	10.448
647.67	11.700
648.00	12.500
648.33	10.922
648.66	11.356
648.98	8.208
649.31	9.256
649.64	9.576
649.96	9.887
650.29	11.244
650.62	10.769
650.94	9.444
651.27	7.821
651.60	10.090
651.92	10.664
652.25	11.190
652.58	10.167
652.90	10.463
653.23	9.916
653.56	10.998
653.88	9.107
654.21	7.881
654.54	8.998
654.86	11.885
655.19	8.041
655.52	10.062
655.84	8.022
656.17	9.188
656.49	12.577
656.82	12.939
657.15	9.721
657.47	7.223
657.80	5.419
658.13	5.239
658.45	8.037
658.78	8.151
659.10	8.249
659.43	7.920
659.75	8.584
660.08	8.552
660.41	8.376
660.73	10.083
661.06	10.572
661.38	9.589
661.71	5.339
662.03	10.300
662.36	10.989
662.68	8.850
663.01	12.009
663.33	8.121
663.66	7.209
663.98	8.605
664.31	10.874
664.63	9.447
664.96	8.043
665.28	7.064
665.61	8.874
665.93	9.783
666.26	10.195
666.58	6.488
666.91	8.000
667.23	11.557
667.56	8.057
667.88	9.113
668.21	10.979
668.53	11.111
668.86	11.085
669.18	8.962
669.50	8.717
669.83	9.070
670.15	9.790
670.48	6.938
670.80	11.290
671.13	8.277
671.45	6.393
671.77	9.657
672.10	8.317
672.42	9.738
672.75	9.236
673.07	9.660
673.39	10.642
673.72	6.509
674.04	8.333
674.37	8.051
674.69	7.281
675.01	7.333
675.34	7.207
675.66	9.259
675.98	9.978
676.31	10.092
676.63	8.076
676.95	10.227
677.28	9.176
677.60	10.843
677.92	11.239
678.25	8.753
678.57	6.710
678.89	9.244
679.22	8.949
679.54	8.434
679.86	8.549
680.18	8.544
680.51	7.955
680.83	8.151
681.15	9.200
681.48	8.402
681.80	11.364
682.12	7.056
682.44	8.159
682.77	9.492
683.09	8.238
683.41	7.273
683.73	5.069
684.06	8.186
684.38	6.667
684.70	6.100
685.02	4.564
685.34	4.545
685.67	8.443
685.99	7.957
686.31	8.850
686.63	7.607
686.96	6.274
687.28	5.859
687.60	7.034
687.92	8.889
688.24	7.460
688.56	8.515
688.89	9.598
689.21	10.222
689.53	8.817
689.85	8.605
690.17	10.045
690.49	8.747
690.82	6.068
691.14	5.238
691.46	7.710
691.78	9.234
692.10	9.892
692.42	6.926
692.74	5.983
693.06	7.883
693.39	3.846
693.71	4.977
694.03	3.002
694.35	6.075
694.67	8.081
694.99	8.094
695.31	10.183
695.63	7.250
695.95	7.576
696.27	8.031
696.59	8.333
696.91	0.840
697.23	6.170
697.56	8.911
697.88	9.677
698.20	6.834
698.52	4.471
698.84	5.742
699.16	8.500
699.48	9.023
699.80	6.948
700.12	8.625
700.44	7.003
700.76	4.651
701.08	5.758
701.40	3.916
701.72	12.963
702.04	7.591
702.36	7.358
702.68	8.408
703.00	7.576
703.32	8.504
703.64	6.215
703.96	6.087
704.28	5.521
704.60	9.841
704.91	5.678
705.23	6.645
705.55	8.127
705.87	9.747
706.19	4.074
706.51	9.966
706.83	6.752
707.15	2.181
707.47	5.322
707.79	4.948
708.11	8.750
708.43	6.500
708.74	8.527
709.06	9.014
709.38	6.728
709.70	5.917
710.02	3.822
710.34	7.740
710.66	3.846
710.98	4.636
711.29	4.590
711.61	8.814
711.93	5.863
712.25	8.247
712.57	5.861
712.89	4.851
713.20	7.612
713.52	0.000
713.84	7.167
714.16	5.498
714.48	8.387
714.80	6.090
715.11	7.295
715.43	4.389
715.75	3.333
716.07	2.658
716.39	6.376
716.70	7.749
717.02	5.344
717.34	4.453
717.66	3.540
717.97	2.609
718.29	5.858
718.61	12.205
718.93	5.814
719.24	7.985
719.56	7.229
719.88	7.560
720.20	5.303
720.51	5.747
720.83	9.266
721.15	3.361
721.46	8.468
721.78	5.138
722.10	4.833
722.42	1.660
722.73	5.714
723.05	11.429
723.37	9.322
723.68	8.559
724.00	8.120
724.32	3.111
724.63	4.091
724.95	8.734
725.27	3.687
725.58	4.661
725.90	4.365
726.22	5.792
726.53	9.492
726.85	6.742
727.16	8.302
727.48	3.239
727.80	7.287
728.11	4.237
728.43	7.451
728.74	2.016
729.06	4.400
729.38	8.647
729.69	4.382
730.01	-1.154
730.32	9.701
730.64	6.714
730.96	3.396
731.27	6.667
731.59	6.102
731.90	6.369
732.22	6.309
732.53	9.302
732.85	4.610
733.16	5.387
733.48	6.115
733.80	-0.725
734.11	8.136
734.43	5.842
734.74	4.848
735.06	3.257
735.37	9.063
735.69	5.724
736.00	3.136
736.32	7.718
736.63	2.113
736.95	4.096
737.26	6.050
737.58	2.013
737.89	2.198
738.21	1.504
738.52	9.465
738.83	3.493
739.15	4.367
739.46	5.512
739.78	2.198
740.09	6.863
740.41	1.087
740.72	-1.575
741.04	4.858
741.35	2.553
741.66	8.057
741.98	-0.510
742.29	4.455
742.61	1.571
742.92	-0.948
743.23	-2.315
743.55	11.312
743.86	4.306
744.18	6.220
744.49	0.532
744.80	0.543
745.12	4.278
745.43	4.390
745.74	7.292
746.06	6.829
746.37	2.094
746.68	8.057
747.00	3.191
747.31	11.940
747.62	0.485
747.94	5.742
748.25	3.960
748.56	6.011
748.88	0.524
749.19	10.106
749.50	2.956
749.82	0.000
750.13	1.835
750.44	11.654
750.75	8.209
751.07	7.664
751.38	3.831
751.69	1.961
752.01	3.101
752.32	-1.195
752.63	3.162
752.94	-1.293
753.26	11.297
753.57	3.167
753.88	-2.212
754.19	0.000
754.51	1.653
754.82	1.619
755.13	5.000
755.44	7.661
755.75	5.469
756.07	1.556
756.38	6.415
756.69	-1.149
757.00	5.000
757.31	2.941
757.63	4.268
757.94	5.833
758.25	4.658
758.56	5.851
758.87	5.382
759.18	4.673
759.50	1.455
759.81	5.351
760.12	4.839
760.43	5.152
760.74	1.235
761.05	5.538
761.36	5.114
761.67	5.455
761.99	7.143
762.30	2.909
762.61	7.115
762.92	3.620
763.23	1.802
763.54	-0.467
763.85	5.932
764.16	4.149
764.47	0.806
764.78	7.326
765.10	3.367
765.41	4.416
765.72	5.714
766.03	2.632
766.34	7.299
766.65	5.976
766.96	3.535
767.27	4.255
767.58	2.874
767.89	0.709
768.20	3.409
768.51	2.198
768.82	0.493
769.13	-0.461
769.44	3.433
769.75	2.740
770.06	3.017
770.37	2.885
770.68	4.569
770.99	1.810
771.30	-1.961
771.61	0.000
771.92	6.034
772.23	6.404
772.54	4.301
772.85	2.469
773.16	3.371
773.47	13.725
773.78	2.614
774.09	-0.599
774.39	0.667
774.70	3.822
775.01	9.655
775.32	7.857
775.63	-4.132
775.94	4.580
776.25	4.724
776.56	-4.167
776.87	-5.769
777.18	0.000
777.48	4.310
777.79	-3.478
778.10	-2.857
778.41	-3.604
778.72	11.905
779.03	6.015
779.34	4.255
779.65	2.055
779.95	-4.110
780.26	4.828
780.57	-6.504
780.88	3.937
781.19	-7.759
781.50	4.651
781.80	5.917
782.11	0.000
782.42	0.000
782.73	1.439
783.04	6.667
783.34	0.694
783.65	-6.838
783.96	-0.820
784.27	7.586
784.57	-4.065
784.88	10.938
785.19	2.000
785.50	4.000
785.81	4.310
786.11	-6.034
786.42	-5.825
786.73	0.909
787.04	1.020
787.34	1.786
787.65	6.667
787.96	-5.310
788.26	-5.455
788.57	4.274
788.88	8.594
789.19	5.556
789.49	-5.217
789.80	-8.163
790.11	-5.051
790.41	6.364
790.72	-1.087
791.03	4.545
791.33	1.250
791.64	3.750
791.95	-3.488
792.25	5.319
792.56	8.989
792.87	-2.740
793.17	1.449
793.48	-6.667
793.79	-3.750
794.09	7.500
794.40	4.717
794.70	-3.883
795.01	-2.439
795.32	-4.274
795.62	-5.714
795.93	-3.922
796.23	8.491
796.54	-1.042
796.85	1.471
797.15	5.634
797.46	11.111
797.76	1.515
798.07	0.000
798.37	-2.632
798.68	-18.182
798.99	-4.938
799.29	-1.429
799.60	-2.899
799.90	4.000
800.21	-4.918
800.51	4.615
800.82	-8.475
801.12	1.449
801.43	1.639
801.73	1.587
802.04	0.000
802.34	-5.970
802.65	-15.385
802.95	-25.000
803.26	-19.231
803.56	1.961
803.87	-39.130
804.17	-16.000
804.48	20.635
804.78	-14.815
805.09	-4.348
805.39	-22.222
805.70	-18.519
806.00	-21.053
806.30	-1.408
806.61	10.000
806.91	-5.556
807.22	9.211
807.52	-14.667
807.83	-29.091
808.13	-2.778
808.43	13.235
808.74	5.970
809.04	6.780
809.35	-7.692
809.65	-3.125
809.95	-24.324
810.26	-13.636
810.56	4.110
810.86	0.000
811.17	-16.000
811.47	20.408
811.77	-31.579
812.08	-4.545
812.38	16.981
812.69	-2.500
812.99	-21.212
813.29	-7.895
813.59	-34.286
813.90	-2.273
814.20	-28.205
814.50	-9.615
814.81	-13.208
815.11	-21.277
815.41	3.390
815.72	4.762
816.02	15.686
816.32	-18.750
816.62	4.878
816.93	-32.432
817.23	-20.000
817.53	2.083
817.84	-8.696
818.14	-13.462
818.44	-13.158
818.74	-6.522
819.04	-42.500
819.35	-13.514
819.65	-11.765
819.95	-13.889
820.25	-4.762
820.56	7.500
820.86	-31.034
821.16	-10.000
821.46	8.511
821.76	12.500
822.07	-18.605
822.37	-40.541
822.67	-12.500
822.97	4.762
823.27	-35.714
823.57	-8.000
823.88	-25.926
824.18	21.429
824.48	-11.765
824.78	-16.129
825.08	-52.174
825.38	9.091
825.69	-58.333
825.99	-23.684
826.29	-2.778
826.59	-40.000
826.89	-80.952
827.19	0.000
827.49	-12.500
827.79	20.000
828.09	-14.286
828.39	-12.121
828.70	35.135
829.00	-46.429
829.30	-9.524
829.60	-26.667
829.90	-3.125
830.20	-7.895
830.50	-59.259
830.80	-34.783
831.10	4.545
831.40	21.212
831.70	35.484
832.00	-4.762
832.30	-38.095
832.60	-125.000
832.90	10.345
833.20	-45.000
833.50	-21.212
833.80	-3.704
834.10	-23.077
834.40	-6.250
834.70	-122.222
835.00	-52.632
835.30	-11.538
835.60	0.000
835.90	3.226
836.20	-68.182
836.50	-14.286
836.80	-61.538
837.10	-7.143
837.40	-300.000
837.70	31.818
838.00	-118.182
838.30	0.000
838.60	-30.769
838.90	-9.091
839.19	-7.143
839.49	20.000
839.79	-15.385
840.09	-150.000
840.39	0.000
840.69	-28.571
840.99	-23.077
841.29	-84.211
841.59	-180.000
841.88	-27.273
842.18	-60.000
842.48	-25.000
842.78	-20.000
843.08	-37.037
843.38	-130.000
843.68	-4.348
843.97	-46.667
844.27	-93.333
844.57	-20.000
844.87	-11.111
845.17	-23.810
845.47	33.333
845.76	-33.333
846.06	0.000
846.36	-150.000
846.66	-85.714
846.96	0.000
847.25	-237.500
847.55	-28.571
847.85	-150.000
848.15	0.000
848.44	-633.333
848.74	15.000
849.04	-40.741
849.34	-81.818
849.63	-133.333
849.93	-200.000
850.23	-33.333
850.53	20.000
850.82	-84.615
851.12	-77.778
851.42	53.333
851.71	-19.231
852.01	-28.571
852.31	50.000
852.61	-100.000
852.90	5.000
853.20	0.000
853.50	-83.333
853.79	-13.043
854.09	25.000
854.39	-36.842
854.68	-25.000
854.98	19.355
855.28	-42.308
855.57	-35.000
855.87	-11.111
856.17	0.000
856.46	-7.143
856.76	-73.333
857.05	-11.111
857.35	-16.000
857.65	-33.333
857.94	-61.538
858.24	41.379
858.53	-11.111
858.83	-3.704
859.13	22.727
859.42	0.000
859.72	-200.000
860.01	-433.333
860.31	0.000
860.60	-4.762
860.90	-233.333
861.20	-20.000
861.49	-600.000
861.79	0.000
862.08	15.000
862.38	26.667
862.67	-260.000
862.97	0.000
863.26	41.667
863.56	55.556
863.85	-700.000
864.15	16.667
864.44	-140.000
864.74	21.429
865.03	425.000
865.33	-200.000
865.62	-150.000
865.92	8.333
866.21	-150.000
866.51	-31.250
866.80	54.545
867.10	-450.000
867.39	-8.333
867.69	0.000
867.98	0.000
868.27	-266.667
868.57	-53.333
868.86	27.778
869.16	-53.846
869.45	-6.667
869.75	-1600.000
870.04	0.000
870.33	-214.286
870.63	-38.095
870.92	666.667
871.22	-360.000
871.51	-600.000
871.80	0.000
872.10	500.000
>>>>>End Processed Spectral Data<<<<<
