SpectraSuite Data File
++++++++++++++++++++++++++++++++++++
Date: Fri May 15 21:04:45 PDT 2015
User: schluterlab
Dark Spectrum Present: Yes
Reference Spectrum Present: Yes
Number of Sampled Component Spectra: 1
Spectrometers: USB2E3373
Integration Time (usec): 3000 (USB2E3373)
Spectra Averaged: 3 (USB2E3373)
Boxcar Smoothing: 0 (USB2E3373)
Correct for Electrical Dark: No (USB2E3373)
Strobe/Lamp Enabled: No (USB2E3373)
Correct for Detector Non-linearity: No (USB2E3373)
Correct for Stray Light: No (USB2E3373)
Number of Pixels in Processed Spectrum: 2048
>>>>>Begin Processed Spectral Data<<<<<
178.53	0.000
178.91	0.000
179.29	-50.000
179.67	-700.000
180.04	114.286
180.42	-300.000
180.80	-700.000
181.18	33.333
181.56	500.000
181.94	-200.000
182.31	500.000
182.69	-60.000
183.07	-333.333
183.45	-80.000
183.83	333.333
184.20	-54.545
184.58	144.444
184.96	-25.000
185.34	-100.000
185.72	-850.000
186.09	146.154
186.47	-1300.000
186.85	83.333
187.23	200.000
187.61	100.000
187.98	-33.333
188.36	-11.111
188.74	-133.333
189.12	17.647
189.49	22.222
189.87	0.000
190.25	14.286
190.63	-50.000
191.00	-66.667
191.38	-10.526
191.76	450.000
192.14	175.000
192.51	300.000
192.89	-155.556
193.27	-142.857
193.65	300.000
194.02	209.091
194.40	-60.000
194.78	-287.500
195.15	-83.333
195.53	-150.000
195.91	350.000
196.29	-200.000
196.66	84.615
197.04	85.714
197.42	-77.778
197.79	-633.333
198.17	-76.923
198.55	1400.000
198.92	-266.667
199.30	100.000
199.68	-240.000
200.05	-333.333
200.43	0.000
200.81	-200.000
201.18	200.000
201.56	1000.000
201.94	-200.000
202.31	133.333
202.69	-340.000
203.07	525.000
203.44	-1000.000
203.82	0.000
204.19	28.571
204.57	-633.333
204.95	200.000
205.32	-20.000
205.70	-42.857
206.08	-200.000
206.45	111.111
206.83	0.000
207.20	-257.143
207.58	700.000
207.96	-566.667
208.33	-140.000
208.71	-125.000
209.08	-116.667
209.46	-500.000
209.84	-160.000
210.21	-300.000
210.59	-71.429
210.96	-33.333
211.34	25.000
211.71	-33.333
212.09	-171.429
212.46	-2000.000
212.84	0.000
213.22	-10.000
213.59	300.000
213.97	30.769
214.34	18.182
214.72	-200.000
215.09	425.000
215.47	-123.077
215.84	-118.182
216.22	-133.333
216.59	-75.000
216.97	-150.000
217.34	-25.000
217.72	-180.000
218.09	-100.000
218.47	137.500
218.84	-1700.000
219.22	-88.889
219.59	-240.000
219.97	333.333
220.34	300.000
220.72	-57.143
221.09	-400.000
221.47	350.000
221.84	-750.000
222.22	-650.000
222.59	63.636
222.97	108.333
223.34	-366.667
223.72	-114.286
224.09	-4.762
224.46	7.143
224.84	700.000
225.21	-90.000
225.59	13.333
225.96	-550.000
226.34	175.000
226.71	42.857
227.08	-216.667
227.46	-37.500
227.83	-700.000
228.21	-100.000
228.58	-9.091
228.95	-200.000
229.33	120.000
229.70	18.750
230.08	-62.500
230.45	-128.571
230.82	-114.286
231.20	-46.667
231.57	-21.429
231.95	-128.571
232.32	-150.000
232.69	-35.714
233.07	-233.333
233.44	-100.000
233.81	-120.000
234.19	-66.667
234.56	-94.118
234.93	900.000
235.31	-225.000
235.68	-240.000
236.05	-76.923
236.43	-75.000
236.80	5.882
237.17	9.375
237.55	-20.000
237.92	-14.815
238.29	-11.111
238.67	-20.000
239.04	-32.353
239.41	-26.829
239.79	-20.000
240.16	-4.878
240.53	-36.842
240.91	-28.261
241.28	-4.762
241.65	7.143
242.02	15.068
242.40	-11.667
242.77	-1.695
243.14	-1.515
243.51	1.250
243.89	6.897
244.26	-9.195
244.63	9.524
245.00	-5.155
245.38	5.155
245.75	-4.494
246.12	0.000
246.49	4.959
246.87	16.346
247.24	0.000
247.61	1.754
247.98	-4.065
248.36	1.250
248.73	7.895
249.10	-1.299
249.47	8.228
249.84	5.882
250.22	0.588
250.59	0.654
250.96	15.023
251.33	0.000
251.70	5.294
252.08	3.046
252.45	7.921
252.82	2.513
253.19	3.226
253.56	3.271
253.94	3.153
254.31	6.522
254.68	7.456
255.05	10.236
255.42	6.987
255.79	7.722
256.16	8.949
256.54	6.343
256.91	6.464
257.28	4.833
257.65	4.494
258.02	3.191
258.39	6.061
258.76	6.593
259.14	6.645
259.51	6.149
259.88	5.498
260.25	9.804
260.62	5.556
260.99	4.746
261.36	3.082
261.73	2.848
262.10	5.167
262.47	3.067
262.85	1.881
263.22	5.538
263.59	4.050
263.96	11.180
264.33	7.879
264.70	5.060
265.07	5.655
265.44	7.649
265.81	8.475
266.18	8.197
266.55	9.769
266.92	4.663
267.29	8.094
267.66	4.348
268.03	7.330
268.40	6.527
268.77	8.021
269.14	8.633
269.51	8.740
269.88	4.738
270.25	4.847
270.62	5.366
270.99	6.650
271.36	6.112
271.73	9.624
272.10	8.029
272.47	8.511
272.84	5.693
273.21	9.977
273.58	8.434
273.95	9.840
274.32	6.236
274.69	5.656
275.06	9.598
275.43	6.576
275.80	8.168
276.17	6.437
276.54	8.351
276.91	8.333
277.28	5.240
277.65	7.231
278.02	5.532
278.39	7.440
278.76	6.080
279.13	5.602
279.50	8.193
279.87	8.855
280.23	6.237
280.60	7.797
280.97	7.273
281.34	6.346
281.71	8.419
282.08	7.771
282.45	3.914
282.82	6.564
283.19	7.737
283.56	8.092
283.92	7.400
284.29	4.615
284.66	5.814
285.03	3.340
285.40	5.104
285.77	6.151
286.14	7.040
286.51	8.303
286.87	6.399
287.24	7.366
287.61	5.820
287.98	9.474
288.35	4.853
288.72	7.180
289.08	6.597
289.45	5.975
289.82	5.245
290.19	5.802
290.56	6.346
290.93	6.566
291.29	4.468
291.66	6.929
292.03	6.380
292.40	6.290
292.77	6.858
293.13	4.058
293.50	5.159
293.87	5.038
294.24	6.646
294.60	7.750
294.97	7.143
295.34	5.061
295.71	5.812
296.08	6.278
296.44	3.698
296.81	4.583
297.18	5.217
297.55	7.182
297.91	5.753
298.28	7.124
298.65	5.020
299.02	5.391
299.38	3.420
299.75	3.586
300.12	5.105
300.48	5.797
300.85	5.577
301.22	3.896
301.59	5.395
301.95	6.456
302.32	7.263
302.69	4.104
303.05	5.074
303.42	5.355
303.79	5.607
304.15	5.735
304.52	4.281
304.89	4.912
305.25	5.085
305.62	4.317
305.99	5.029
306.35	4.855
306.72	4.612
307.09	5.131
307.45	5.511
307.82	3.935
308.19	6.156
308.55	3.926
308.92	5.447
309.29	4.804
309.65	5.167
310.02	5.281
310.38	5.379
310.75	5.027
311.12	5.382
311.48	5.196
311.85	5.759
312.22	4.114
312.58	5.520
312.95	4.909
313.31	6.108
313.68	5.340
314.05	5.306
314.41	6.186
314.78	5.155
315.14	6.783
315.51	6.936
315.87	7.070
316.24	7.482
316.61	7.480
316.97	6.845
317.34	6.250
317.70	6.979
318.07	8.558
318.43	6.961
318.80	7.197
319.16	8.301
319.53	10.351
319.89	8.661
320.26	9.008
320.62	9.829
320.99	9.081
321.35	9.764
321.72	9.969
322.08	9.869
322.45	9.848
322.81	11.002
323.18	10.304
323.54	11.390
323.91	11.295
324.27	11.914
324.64	12.453
325.00	12.956
325.37	15.243
325.73	13.327
326.10	13.987
326.46	15.067
326.83	14.786
327.19	16.216
327.56	16.594
327.92	16.725
328.29	15.536
328.65	16.698
329.01	16.452
329.38	16.959
329.74	16.714
330.11	17.794
330.47	18.089
330.84	18.077
331.20	18.821
331.56	16.759
331.93	18.630
332.29	17.782
332.66	18.824
333.02	17.937
333.38	18.240
333.75	19.597
334.11	19.248
334.48	19.130
334.84	20.330
335.20	18.481
335.57	18.767
335.93	19.241
336.29	20.074
336.66	19.982
337.02	19.145
337.38	20.000
337.75	18.909
338.11	19.477
338.47	20.438
338.84	20.240
339.20	19.835
339.56	20.642
339.93	19.875
340.29	20.642
340.65	20.520
341.02	20.301
341.38	20.708
341.74	19.700
342.11	17.851
342.47	19.039
342.83	19.550
343.20	20.296
343.56	21.130
343.92	20.283
344.28	19.471
344.65	19.257
345.01	19.360
345.37	18.671
345.73	21.004
346.10	20.449
346.46	19.176
346.82	18.985
347.19	19.784
347.55	19.131
347.91	19.498
348.27	20.291
348.63	19.761
349.00	19.442
349.36	19.867
349.72	20.481
350.08	20.164
350.45	19.872
350.81	18.771
351.17	19.870
351.53	20.163
351.89	19.571
352.26	19.920
352.62	20.161
352.98	18.876
353.34	19.243
353.70	20.146
354.07	18.548
354.43	18.975
354.79	19.983
355.15	20.556
355.51	19.620
355.87	19.903
356.24	19.250
356.60	19.725
356.96	20.476
357.32	19.489
357.68	19.312
358.04	19.790
358.40	19.534
358.77	19.936
359.13	19.376
359.49	18.952
359.85	19.033
360.21	19.617
360.57	19.204
360.93	19.667
361.29	17.900
361.66	18.574
362.02	19.167
362.38	19.193
362.74	20.212
363.10	20.166
363.46	19.570
363.82	19.835
364.18	19.631
364.54	18.971
364.90	18.710
365.26	19.287
365.62	19.416
365.98	19.795
366.35	19.519
366.71	19.808
367.07	18.578
367.43	19.554
367.79	18.799
368.15	18.665
368.51	19.592
368.87	18.808
369.23	18.267
369.59	19.169
369.95	20.308
370.31	19.220
370.67	19.179
371.03	18.820
371.39	19.767
371.75	19.634
372.11	19.258
372.47	19.822
372.83	19.375
373.19	18.474
373.55	18.845
373.91	19.006
374.27	19.702
374.63	20.101
374.99	18.440
375.35	19.290
375.71	19.161
376.07	19.101
376.42	18.707
376.78	18.456
377.14	19.160
377.50	19.389
377.86	18.608
378.22	19.528
378.58	18.526
378.94	18.715
379.30	19.713
379.66	19.248
380.02	19.375
380.38	19.477
380.74	18.851
381.09	20.184
381.45	18.654
381.81	18.692
382.17	18.655
382.53	18.551
382.89	18.895
383.25	19.353
383.61	18.963
383.97	18.476
384.32	18.261
384.68	18.328
385.04	18.260
385.40	18.419
385.76	19.371
386.12	19.728
386.48	19.923
386.83	19.341
387.19	19.414
387.55	19.824
387.91	19.682
388.27	19.231
388.62	19.257
388.98	19.030
389.34	18.613
389.70	19.204
390.06	17.936
390.42	19.301
390.77	18.705
391.13	18.033
391.49	18.629
391.85	18.324
392.20	18.079
392.56	18.754
392.92	18.438
393.28	18.632
393.64	17.958
393.99	19.875
394.35	17.141
394.71	19.923
395.07	17.976
395.42	18.579
395.78	18.827
396.14	19.042
396.50	18.960
396.85	18.416
397.21	18.860
397.57	18.370
397.92	19.053
398.28	18.736
398.64	17.289
399.00	19.131
399.35	18.002
399.71	18.610
400.07	18.380
400.42	18.176
400.78	19.167
401.14	18.451
401.49	18.582
401.85	17.855
402.21	19.157
402.57	17.813
402.92	17.252
403.28	18.734
403.63	18.537
403.99	18.112
404.35	18.426
404.70	17.857
405.06	17.920
405.42	19.080
405.77	17.838
406.13	17.870
406.49	18.413
406.84	18.704
407.20	18.844
407.55	17.514
407.91	18.382
408.27	17.208
408.62	19.015
408.98	17.930
409.34	18.587
409.69	16.925
410.05	18.103
410.40	17.469
410.76	17.732
411.11	18.250
411.47	17.226
411.83	18.079
412.18	17.439
412.54	17.541
412.89	17.365
413.25	18.592
413.60	16.460
413.96	17.607
414.31	18.963
414.67	18.089
415.03	17.177
415.38	17.428
415.74	18.371
416.09	18.746
416.45	17.893
416.80	17.317
417.16	17.749
417.51	18.454
417.87	17.731
418.22	16.904
418.58	17.391
418.93	18.558
419.29	16.325
419.64	17.239
420.00	18.703
420.35	17.552
420.71	18.287
421.06	17.741
421.42	17.488
421.77	17.977
422.12	17.423
422.48	17.650
422.83	18.097
423.19	17.946
423.54	16.637
423.90	17.197
424.25	17.394
424.61	17.809
424.96	17.364
425.31	18.198
425.67	17.547
426.02	18.316
426.38	17.658
426.73	17.857
427.09	17.089
427.44	18.118
427.79	18.268
428.15	17.597
428.50	17.807
428.85	16.830
429.21	18.280
429.56	18.544
429.92	17.874
430.27	18.446
430.62	17.616
430.98	17.516
431.33	18.297
431.68	17.321
432.04	17.999
432.39	17.456
432.74	16.957
433.10	18.448
433.45	16.667
433.80	17.702
434.16	17.396
434.51	17.742
434.86	17.944
435.22	18.340
435.57	17.592
435.92	18.563
436.28	16.995
436.63	17.228
436.98	17.149
437.34	17.181
437.69	17.829
438.04	17.949
438.39	17.227
438.75	17.243
439.10	17.431
439.45	18.077
439.81	16.942
440.16	18.765
440.51	18.090
440.86	18.489
441.22	17.421
441.57	17.605
441.92	18.206
442.27	17.406
442.63	18.362
442.98	17.404
443.33	18.086
443.68	18.196
444.03	18.579
444.39	17.364
444.74	18.618
445.09	17.316
445.44	18.120
445.79	18.360
446.15	18.337
446.50	17.249
446.85	18.013
447.20	17.466
447.55	18.080
447.91	17.936
448.26	17.814
448.61	18.998
448.96	18.646
449.31	16.590
449.66	17.712
450.02	18.083
450.37	17.783
450.72	17.411
451.07	18.038
451.42	17.978
451.77	17.420
452.12	17.524
452.47	17.708
452.83	17.256
453.18	16.951
453.53	18.015
453.88	16.636
454.23	18.070
454.58	17.947
454.93	17.590
455.28	16.762
455.63	18.475
455.98	17.198
456.34	17.688
456.69	18.170
457.04	17.517
457.39	17.558
457.74	16.929
458.09	17.422
458.44	17.964
458.79	16.975
459.14	17.563
459.49	17.373
459.84	17.823
460.19	17.476
460.54	17.665
460.89	18.068
461.24	17.640
461.59	17.518
461.94	16.730
462.29	18.215
462.64	17.741
462.99	17.197
463.34	16.829
463.69	16.602
464.04	17.554
464.39	17.344
464.74	17.607
465.09	17.218
465.44	17.888
465.79	16.610
466.14	17.275
466.49	17.251
466.84	16.538
467.19	16.834
467.54	16.667
467.89	16.172
468.24	16.423
468.59	18.095
468.94	17.524
469.29	17.377
469.64	16.815
469.99	17.449
470.34	16.314
470.68	17.823
471.03	17.764
471.38	16.976
471.73	17.507
472.08	16.893
472.43	16.980
472.78	16.313
473.13	16.939
473.48	16.678
473.83	16.189
474.17	16.321
474.52	16.847
474.87	17.091
475.22	16.595
475.57	16.657
475.92	16.566
476.27	17.288
476.61	16.667
476.96	16.788
477.31	17.036
477.66	16.629
478.01	16.620
478.36	16.558
478.70	17.292
479.05	16.813
479.40	16.799
479.75	17.570
480.10	16.897
480.45	16.600
480.79	17.674
481.14	16.752
481.49	16.453
481.84	17.037
482.19	16.464
482.53	17.218
482.88	16.277
483.23	17.083
483.58	16.509
483.92	16.215
484.27	16.591
484.62	16.584
484.97	16.542
485.31	16.546
485.66	16.389
486.01	16.421
486.36	16.859
486.70	16.973
487.05	17.266
487.40	17.037
487.75	16.000
488.09	15.884
488.44	16.334
488.79	16.100
489.13	16.667
489.48	15.733
489.83	16.637
490.17	15.551
490.52	15.982
490.87	16.104
491.22	16.714
491.56	15.987
491.91	16.348
492.26	16.140
492.60	16.123
492.95	16.281
493.30	15.828
493.64	16.306
493.99	16.232
494.34	15.728
494.68	16.095
495.03	15.280
495.37	16.241
495.72	16.254
496.07	16.439
496.41	16.557
496.76	15.753
497.11	15.510
497.45	16.420
497.80	16.246
498.14	16.244
498.49	15.541
498.84	15.968
499.18	16.064
499.53	15.774
499.87	14.835
500.22	15.430
500.56	16.036
500.91	15.964
501.26	15.769
501.60	15.347
501.95	15.429
502.29	15.642
502.64	16.264
502.98	15.442
503.33	14.841
503.67	15.036
504.02	16.031
504.36	15.982
504.71	15.000
505.06	15.450
505.40	15.228
505.75	15.515
506.09	14.698
506.44	15.811
506.78	15.714
507.13	15.770
507.47	15.770
507.82	14.530
508.16	14.686
508.51	15.215
508.85	15.751
509.19	14.050
509.54	15.013
509.88	15.210
510.23	15.438
510.57	15.126
510.92	15.032
511.26	14.457
511.61	15.457
511.95	14.411
512.30	14.967
512.64	15.415
512.98	14.711
513.33	15.613
513.67	14.667
514.02	15.389
514.36	14.914
514.70	15.734
515.05	15.276
515.39	15.289
515.74	15.150
516.08	14.824
516.42	15.430
516.77	14.921
517.11	14.362
517.46	15.260
517.80	15.495
518.14	14.452
518.49	14.543
518.83	15.310
519.17	14.312
519.52	14.624
519.86	14.166
520.20	14.459
520.55	13.446
520.89	15.245
521.23	14.503
521.58	15.016
521.92	14.679
522.26	14.118
522.61	14.026
522.95	15.364
523.29	14.612
523.64	14.740
523.98	15.489
524.32	13.724
524.66	15.749
525.01	15.714
525.35	15.230
525.69	14.209
526.04	15.146
526.38	14.656
526.72	13.996
527.06	14.008
527.41	14.446
527.75	14.075
528.09	14.419
528.43	15.395
528.78	14.191
529.12	14.387
529.46	14.360
529.80	14.883
530.15	14.917
530.49	14.613
530.83	13.680
531.17	14.238
531.51	14.843
531.86	13.800
532.20	13.570
532.54	14.364
532.88	14.100
533.22	14.247
533.57	14.744
533.91	14.099
534.25	14.518
534.59	14.496
534.93	13.845
535.27	13.832
535.62	13.091
535.96	14.416
536.30	14.314
536.64	14.197
536.98	13.380
537.32	13.442
537.66	15.007
538.01	13.706
538.35	12.829
538.69	14.248
539.03	12.987
539.37	14.334
539.71	13.156
540.05	14.189
540.39	13.989
540.73	14.156
541.07	14.296
541.42	14.382
541.76	14.040
542.10	14.315
542.44	14.315
542.78	12.870
543.12	14.148
543.46	13.839
543.80	13.949
544.14	12.951
544.48	14.590
544.82	14.422
545.16	13.866
545.50	15.287
545.84	14.093
546.18	14.752
546.52	14.492
546.86	14.378
547.20	14.735
547.54	13.922
547.88	14.538
548.22	13.215
548.56	13.325
548.90	13.544
549.24	13.361
549.58	13.470
549.92	12.437
550.26	12.747
550.60	14.424
550.94	12.397
551.28	14.065
551.62	13.692
551.96	13.233
552.30	13.670
552.64	12.200
552.98	13.080
553.32	13.552
553.66	12.337
554.00	12.774
554.34	13.589
554.68	13.201
555.02	14.137
555.36	12.565
555.69	12.381
556.03	12.562
556.37	12.954
556.71	12.852
557.05	12.677
557.39	11.747
557.73	12.669
558.07	13.424
558.41	12.251
558.75	13.250
559.08	12.924
559.42	12.698
559.76	13.531
560.10	12.080
560.44	12.063
560.78	12.587
561.12	12.200
561.45	12.860
561.79	12.955
562.13	12.633
562.47	11.942
562.81	13.545
563.15	12.906
563.48	12.447
563.82	12.629
564.16	12.187
564.50	12.162
564.84	12.718
565.17	12.341
565.51	12.978
565.85	11.454
566.19	13.395
566.52	12.802
566.86	13.175
567.20	12.765
567.54	11.496
567.88	13.181
568.21	12.557
568.55	12.283
568.89	13.142
569.23	13.240
569.56	12.522
569.90	13.317
570.24	13.212
570.57	12.873
570.91	13.210
571.25	12.562
571.59	12.551
571.92	12.385
572.26	12.681
572.60	12.434
572.93	12.206
573.27	12.288
573.61	12.411
573.95	12.480
574.28	12.129
574.62	12.611
574.96	12.366
575.29	12.191
575.63	12.050
575.97	12.198
576.30	12.117
576.64	11.841
576.98	12.407
577.31	12.485
577.65	12.041
577.98	12.553
578.32	12.367
578.66	12.272
578.99	12.120
579.33	12.291
579.67	12.364
580.00	12.127
580.34	12.264
580.67	11.696
581.01	11.816
581.35	11.693
581.68	12.438
582.02	12.204
582.35	12.461
582.69	12.115
583.02	12.070
583.36	12.278
583.70	12.279
584.03	12.288
584.37	12.789
584.70	12.170
585.04	11.503
585.37	11.867
585.71	12.170
586.04	11.599
586.38	11.736
586.72	11.822
587.05	11.958
587.39	11.965
587.72	12.028
588.06	11.625
588.39	12.276
588.73	12.027
589.06	11.611
589.40	12.548
589.73	12.413
590.07	12.122
590.40	11.842
590.73	12.356
591.07	11.578
591.40	11.086
591.74	11.448
592.07	11.967
592.41	11.970
592.74	11.509
593.08	10.933
593.41	11.730
593.75	11.580
594.08	11.740
594.41	11.972
594.75	11.336
595.08	12.183
595.42	11.483
595.75	11.641
596.09	11.650
596.42	11.534
596.75	10.657
597.09	11.481
597.42	11.608
597.75	11.315
598.09	11.634
598.42	10.740
598.76	11.712
599.09	11.418
599.42	11.482
599.76	11.738
600.09	10.935
600.42	11.334
600.76	11.218
601.09	11.412
601.42	10.693
601.76	11.036
602.09	10.974
602.42	11.542
602.76	11.630
603.09	11.213
603.42	12.040
603.76	10.444
604.09	10.936
604.42	11.294
604.76	11.749
605.09	10.923
605.42	11.603
605.75	10.771
606.09	11.295
606.42	11.134
606.75	10.433
607.09	11.077
607.42	10.988
607.75	11.279
608.08	11.186
608.42	10.964
608.75	11.373
609.08	10.862
609.41	11.421
609.75	10.887
610.08	11.533
610.41	10.918
610.74	10.239
611.07	11.214
611.41	11.053
611.74	11.567
612.07	10.707
612.40	11.379
612.73	11.525
613.07	10.405
613.40	11.379
613.73	11.192
614.06	11.630
614.39	11.055
614.72	11.204
615.06	11.006
615.39	10.808
615.72	10.926
616.05	10.950
616.38	11.054
616.71	10.581
617.05	10.253
617.38	10.874
617.71	10.943
618.04	10.540
618.37	11.665
618.70	11.155
619.03	11.667
619.36	10.203
619.69	11.221
620.03	10.957
620.36	10.873
620.69	10.564
621.02	11.009
621.35	10.290
621.68	10.884
622.01	10.500
622.34	10.535
622.67	11.120
623.00	10.949
623.33	10.671
623.66	9.798
623.99	9.758
624.32	10.418
624.65	9.699
624.99	10.835
625.32	9.856
625.65	10.919
625.98	10.556
626.31	9.476
626.64	10.399
626.97	11.082
627.30	10.595
627.63	11.092
627.96	10.602
628.29	9.991
628.62	10.423
628.95	9.319
629.28	9.476
629.61	8.873
629.94	10.948
630.26	9.190
630.59	10.614
630.92	10.154
631.25	9.949
631.58	10.352
631.91	10.417
632.24	9.862
632.57	10.227
632.90	9.727
633.23	10.235
633.56	8.942
633.89	9.988
634.22	10.617
634.55	7.751
634.88	10.728
635.20	9.744
635.53	10.400
635.86	9.363
636.19	9.702
636.52	9.821
636.85	9.677
637.18	9.686
637.51	11.572
637.83	9.330
638.16	9.550
638.49	8.174
638.82	10.526
639.15	9.634
639.48	9.629
639.81	9.484
640.13	9.091
640.46	10.350
640.79	8.984
641.12	9.453
641.45	8.709
641.77	10.370
642.10	10.742
642.43	9.646
642.76	7.921
643.09	11.309
643.41	8.091
643.74	9.555
644.07	10.345
644.40	10.135
644.73	9.107
645.05	9.396
645.38	8.818
645.71	7.624
646.04	8.259
646.36	9.397
646.69	11.871
647.02	10.586
647.35	8.955
647.67	10.603
648.00	9.328
648.33	11.263
648.66	9.661
648.98	8.878
649.31	8.760
649.64	9.105
649.96	8.104
650.29	11.244
650.62	8.718
650.94	8.148
651.27	8.380
651.60	8.829
651.92	9.441
652.25	8.171
652.58	10.500
652.90	8.748
653.23	7.899
653.56	9.645
653.88	9.622
654.21	6.130
654.54	9.168
654.86	9.677
655.19	9.942
655.52	10.526
655.84	10.054
656.17	11.317
656.49	15.553
656.82	16.005
657.15	12.252
657.47	9.122
657.80	6.604
658.13	6.432
658.45	10.086
658.78	9.847
659.10	9.428
659.43	9.295
659.75	9.324
660.08	9.655
660.41	8.784
660.73	9.669
661.06	9.012
661.38	9.393
661.71	8.008
662.03	9.442
662.36	9.451
662.68	6.195
663.01	9.607
663.33	6.497
663.66	8.605
663.98	6.279
664.31	10.021
664.63	7.143
664.96	6.957
665.28	6.623
665.61	8.009
665.93	9.783
666.26	11.280
666.58	8.725
666.91	8.235
667.23	10.142
667.56	6.635
667.88	8.393
668.21	7.399
668.53	11.584
668.86	10.142
669.18	6.604
669.50	5.811
669.83	8.837
670.15	8.159
670.48	8.612
670.80	7.604
671.13	6.264
671.45	5.936
671.77	8.584
672.10	8.119
672.42	7.678
672.75	11.190
673.07	11.270
673.39	11.376
673.72	4.734
674.04	6.250
674.37	8.686
674.69	8.779
675.01	8.444
675.34	7.432
675.66	10.185
675.98	11.308
676.31	8.257
676.63	6.888
676.95	8.182
677.28	9.882
677.60	6.506
677.92	7.339
678.25	10.722
678.57	7.143
678.89	9.454
679.22	8.501
679.54	7.028
679.86	5.567
680.18	8.155
680.51	7.955
680.83	8.151
681.15	7.400
681.48	9.631
681.80	9.091
682.12	9.476
682.44	8.368
682.77	8.168
683.09	8.696
683.41	8.182
683.73	9.447
684.06	7.522
684.38	6.667
684.70	9.150
685.02	6.639
685.34	6.719
685.67	9.568
685.99	8.318
686.31	9.204
686.63	7.607
686.96	6.464
687.28	6.465
687.60	7.795
687.92	10.505
688.24	6.855
688.56	8.734
688.89	6.250
689.21	9.778
689.53	6.497
689.85	7.907
690.17	9.821
690.49	8.274
690.82	7.039
691.14	9.762
691.46	9.346
691.78	7.207
692.10	8.817
692.42	7.792
692.74	8.547
693.06	7.432
693.39	7.466
693.71	4.299
694.03	6.697
694.35	7.944
694.67	7.828
694.99	7.833
695.31	9.661
695.63	8.500
695.95	6.818
696.27	8.031
696.59	9.722
696.91	4.482
697.23	5.913
697.56	7.426
697.88	10.968
698.20	4.784
698.52	6.824
698.84	4.545
699.16	5.500
699.48	7.769
699.80	7.692
700.12	6.739
700.44	9.524
700.76	5.814
701.08	4.848
701.40	8.434
701.72	9.259
702.04	7.591
702.36	7.358
702.68	6.907
703.00	8.788
703.32	5.279
703.64	6.215
703.96	8.406
704.28	7.975
704.60	8.254
704.91	4.732
705.23	4.651
705.55	8.834
705.87	9.386
706.19	5.556
706.51	5.155
706.83	10.932
707.15	3.427
707.47	11.485
707.79	5.469
708.11	9.000
708.43	10.000
708.74	8.269
709.06	10.423
709.38	7.034
709.70	10.059
710.02	9.554
710.34	11.455
710.66	5.769
710.98	6.623
711.29	11.803
711.61	5.085
711.93	11.075
712.25	9.966
712.57	9.890
712.89	6.343
713.20	7.266
713.52	5.575
713.84	7.509
714.16	10.653
714.48	6.452
714.80	6.090
715.11	7.903
715.43	5.016
715.75	6.333
716.07	2.990
716.39	7.718
716.70	1.845
717.02	8.015
717.34	4.049
717.66	5.752
717.97	0.000
718.29	4.603
718.61	9.449
718.93	5.426
719.24	5.323
719.56	4.418
719.88	6.529
720.20	6.818
720.51	4.598
720.83	1.544
721.15	9.244
721.46	2.823
721.78	0.791
722.10	9.294
722.42	0.830
722.73	4.490
723.05	10.612
723.37	8.051
723.68	5.856
724.00	7.265
724.32	3.111
724.63	0.909
724.95	5.240
725.27	6.912
725.58	2.542
725.90	4.365
726.22	8.494
726.53	12.203
726.85	9.738
727.16	9.057
727.48	4.453
727.80	2.834
728.11	4.661
728.43	9.020
728.74	5.242
729.06	4.400
729.38	11.278
729.69	5.179
730.01	0.769
730.32	7.090
730.64	8.127
730.96	7.170
731.27	2.333
731.59	7.119
731.90	7.325
732.22	8.517
732.53	10.299
732.85	6.028
733.16	11.785
733.48	3.597
733.80	6.884
734.11	4.746
734.43	7.216
734.74	5.758
735.06	2.932
735.37	7.855
735.69	8.081
736.00	5.226
736.32	9.060
736.63	5.986
736.95	5.802
737.26	3.559
737.58	1.342
737.89	9.524
738.21	5.639
738.52	7.819
738.83	5.240
739.15	0.000
739.46	7.874
739.78	2.198
740.09	6.863
740.41	6.159
740.72	5.906
741.04	8.097
741.35	3.830
741.66	8.057
741.98	8.673
742.29	8.911
742.61	8.377
742.92	-0.948
743.23	-0.463
743.55	9.502
743.86	4.306
744.18	1.435
744.49	2.128
744.80	-2.174
745.12	9.626
745.43	2.439
745.74	3.125
746.06	2.927
746.37	9.948
746.68	9.005
747.00	4.255
747.31	6.468
747.62	5.340
747.94	5.742
748.25	-0.990
748.56	3.279
748.88	5.236
749.19	6.383
749.50	4.433
749.82	3.302
750.13	5.505
750.44	9.398
750.75	7.090
751.07	9.489
751.38	8.429
751.69	4.706
752.01	4.651
752.32	5.578
752.63	6.324
752.94	4.310
753.26	9.623
753.57	0.000
753.88	6.195
754.19	-0.833
754.51	0.826
754.82	1.619
755.13	9.167
755.44	7.258
755.75	8.594
756.07	7.004
756.38	8.679
756.69	-1.916
757.00	9.667
757.31	6.863
757.63	8.232
757.94	5.556
758.25	4.932
758.56	6.649
758.87	7.082
759.18	7.477
759.50	2.909
759.81	5.351
760.12	8.065
760.43	5.152
760.74	3.704
761.05	6.769
761.36	6.250
761.67	9.394
761.99	8.844
762.30	6.182
762.61	3.557
762.92	5.430
763.23	7.207
763.54	-0.467
763.85	6.780
764.16	0.415
764.47	1.210
764.78	6.227
765.10	9.764
765.41	6.940
765.72	6.349
766.03	3.383
766.34	7.299
766.65	10.757
766.96	0.505
767.27	2.128
767.58	0.575
767.89	-2.837
768.20	2.841
768.51	3.846
768.82	8.374
769.13	6.912
769.44	5.150
769.75	4.110
770.06	9.914
770.37	8.654
770.68	1.523
770.99	2.715
771.30	15.196
771.61	4.977
771.92	7.328
772.23	7.882
772.54	7.527
772.85	4.321
773.16	5.618
773.47	13.072
773.78	5.882
774.09	4.192
774.39	2.000
774.70	1.274
775.01	5.517
775.32	3.571
775.63	-13.223
775.94	0.763
776.25	11.811
776.56	3.333
776.87	0.000
777.18	5.128
777.48	0.862
777.79	-3.478
778.10	-15.238
778.41	1.802
778.72	6.349
779.03	11.278
779.34	2.837
779.65	6.849
779.95	1.370
780.26	10.345
780.57	-3.252
780.88	-2.362
781.19	1.724
781.50	1.550
781.80	-0.592
782.11	-1.258
782.42	-3.846
782.73	6.475
783.04	0.000
783.34	0.694
783.65	-12.821
783.96	-4.098
784.27	6.207
784.57	8.130
784.88	5.469
785.19	0.000
785.50	10.000
785.81	-0.862
786.11	1.724
786.42	-7.767
786.73	10.000
787.04	3.061
787.34	4.464
787.65	-2.857
787.96	0.885
788.26	0.000
788.57	-5.128
788.88	11.719
789.19	7.937
789.49	-8.696
789.80	1.020
790.11	0.000
790.41	1.818
790.72	-1.087
791.03	0.000
791.33	-10.000
791.64	-7.500
791.95	5.814
792.25	8.511
792.56	5.618
792.87	-10.959
793.17	-8.696
793.48	-6.667
793.79	-6.250
794.09	-7.500
794.40	-9.434
794.70	-4.854
795.01	-3.252
795.32	2.564
795.62	0.952
795.93	-5.882
796.23	4.717
796.54	9.375
796.85	8.824
797.15	5.634
797.46	11.111
797.76	9.091
798.07	3.488
798.37	-11.842
798.68	1.515
798.99	2.469
799.29	0.000
799.60	0.000
799.90	2.667
800.21	-4.918
800.51	-10.769
800.82	-10.169
801.12	-1.449
801.43	-6.557
801.73	4.762
802.04	0.000
802.34	-8.955
802.65	0.000
802.95	-7.143
803.26	-17.308
803.56	-21.569
803.87	-45.652
804.17	5.333
804.48	6.349
804.78	-11.111
805.09	-10.870
805.39	-17.778
805.70	-5.556
806.00	-33.333
806.30	11.268
806.61	10.000
806.91	-15.278
807.22	5.263
807.52	0.000
807.83	-29.091
808.13	9.722
808.43	-1.471
808.74	-5.970
809.04	-22.034
809.35	-13.462
809.65	3.125
809.95	-51.351
810.26	-27.273
810.56	6.849
810.86	-7.143
811.17	-12.000
811.47	-10.204
811.77	-36.842
812.08	-13.636
812.38	15.094
812.69	-7.500
812.99	-30.303
813.29	0.000
813.59	-40.000
813.90	-11.364
814.20	-28.205
814.50	-13.462
814.81	-18.868
815.11	-25.532
815.41	1.695
815.72	-9.524
816.02	11.765
816.32	14.583
816.62	-39.024
816.93	8.108
817.23	-8.571
817.53	10.417
817.84	4.348
818.14	-1.923
818.44	-42.105
818.74	17.391
819.04	-17.500
819.35	0.000
819.65	-2.941
819.95	-33.333
820.25	2.381
820.56	20.000
820.86	-48.276
821.16	-7.500
821.46	2.128
821.76	-25.000
822.07	2.326
822.37	-27.027
822.67	-37.500
822.97	2.381
823.27	-7.143
823.57	-40.000
823.88	-55.556
824.18	-21.429
824.48	-35.294
824.78	6.452
825.08	-26.087
825.38	33.333
825.69	-50.000
825.99	18.421
826.29	-25.000
826.59	-66.667
826.89	-85.714
827.19	-4.348
827.49	-37.500
827.79	-11.429
828.09	-35.714
828.39	-3.030
828.70	18.919
829.00	-53.571
829.30	-61.905
829.60	6.667
829.90	3.125
830.20	-2.632
830.50	-62.963
830.80	-60.870
831.10	-22.727
831.40	9.091
831.70	0.000
832.00	23.810
832.30	14.286
832.60	-50.000
832.90	-51.724
833.20	-65.000
833.50	21.212
833.80	0.000
834.10	-23.077
834.40	-25.000
834.70	-166.667
835.00	-21.053
835.30	26.923
835.60	-33.333
835.90	-16.129
836.20	-22.727
836.50	7.143
836.80	-26.923
837.10	-14.286
837.40	-500.000
837.70	4.545
838.00	-90.909
838.30	-26.087
838.60	7.692
838.90	0.000
839.19	-53.571
839.49	6.667
839.79	-46.154
840.09	-83.333
840.39	14.286
840.69	-25.000
840.99	-65.385
841.29	-47.368
841.59	-130.000
841.88	-18.182
842.18	-170.000
842.48	31.250
842.78	-33.333
843.08	-40.741
843.38	-200.000
843.68	4.348
843.97	-20.000
844.27	-53.333
844.57	-35.000
844.87	-5.556
845.17	-61.905
845.47	-40.000
845.76	-4.762
846.06	17.647
846.36	-40.000
846.66	-85.714
846.96	0.000
847.25	-237.500
847.55	-85.714
847.85	-125.000
848.15	-45.455
848.44	-666.667
848.74	-20.000
849.04	22.222
849.34	-27.273
849.63	-266.667
849.93	-280.000
850.23	5.556
850.53	-30.000
850.82	-7.692
851.12	-22.222
851.42	-53.333
851.71	-42.308
852.01	-14.286
852.31	-225.000
852.61	-45.455
852.90	-45.000
853.20	-36.842
853.50	-58.333
853.79	-26.087
854.09	-12.500
854.39	-31.579
854.68	-33.333
854.98	16.129
855.28	30.769
855.57	-10.000
855.87	-44.444
856.17	14.815
856.46	-92.857
856.76	-53.333
857.05	-88.889
857.35	-28.000
857.65	-11.111
857.94	-53.846
858.24	13.793
858.53	-77.778
858.83	0.000
859.13	-18.182
859.42	-34.783
859.72	-175.000
860.01	-333.333
860.31	-8.000
860.60	-14.286
860.90	-566.667
861.20	-93.333
861.49	-1000.000
861.79	-60.000
862.08	-30.000
862.38	0.000
862.67	-240.000
862.97	-133.333
863.26	-41.667
863.56	0.000
863.85	-433.333
864.15	0.000
864.44	-70.000
864.74	-21.429
865.03	275.000
865.33	-380.000
865.62	-66.667
865.92	-83.333
866.21	-216.667
866.51	18.750
866.80	-18.182
867.10	-950.000
867.39	0.000
867.69	0.000
867.98	-7.692
868.27	-333.333
868.57	-6.667
868.86	-5.556
869.16	-100.000
869.45	0.000
869.75	-700.000
870.04	0.000
870.33	-242.857
870.63	28.571
870.92	433.333
871.22	-160.000
871.51	-1300.000
871.80	11.111
872.10	533.333
>>>>>End Processed Spectral Data<<<<<
