SpectraSuite Data File
++++++++++++++++++++++++++++++++++++
Date: Fri May 15 20:55:10 PDT 2015
User: schluterlab
Dark Spectrum Present: Yes
Reference Spectrum Present: Yes
Number of Sampled Component Spectra: 1
Spectrometers: USB2E3373
Integration Time (usec): 3000 (USB2E3373)
Spectra Averaged: 3 (USB2E3373)
Boxcar Smoothing: 0 (USB2E3373)
Correct for Electrical Dark: No (USB2E3373)
Strobe/Lamp Enabled: No (USB2E3373)
Correct for Detector Non-linearity: No (USB2E3373)
Correct for Stray Light: No (USB2E3373)
Number of Pixels in Processed Spectrum: 2048
>>>>>Begin Processed Spectral Data<<<<<
178.53	0.000
178.91	0.000
179.29	112.500
179.67	-200.000
180.04	-0.000
180.42	0.000
180.80	-100.000
181.18	-166.667
181.56	150.000
181.94	-100.000
182.31	-200.000
182.69	80.000
183.07	-166.667
183.45	-40.000
183.83	116.667
184.20	45.455
184.58	111.111
184.96	-100.000
185.34	66.667
185.72	100.000
186.09	76.923
186.47	0.000
186.85	133.333
187.23	133.333
187.61	500.000
187.98	166.667
188.36	33.333
188.74	100.000
189.12	35.294
189.49	16.667
189.87	0.000
190.25	92.857
190.63	350.000
191.00	-200.000
191.38	57.895
191.76	50.000
192.14	25.000
192.51	250.000
192.89	-100.000
193.27	-157.143
193.65	50.000
194.02	200.000
194.40	-40.000
194.78	-125.000
195.15	0.000
195.53	-137.500
195.91	125.000
196.29	100.000
196.66	100.000
197.04	-100.000
197.42	11.111
197.79	-400.000
198.17	-115.385
198.55	300.000
198.92	-400.000
199.30	-400.000
199.68	0.000
200.05	-166.667
200.43	0.000
200.81	233.333
201.18	0.000
201.56	400.000
201.94	-200.000
202.31	333.333
202.69	-160.000
203.07	225.000
203.44	100.000
203.82	0.000
204.19	14.286
204.57	-133.333
204.95	137.500
205.32	30.000
205.70	-14.286
206.08	0.000
206.45	200.000
206.83	92.857
207.20	42.857
207.58	1500.000
207.96	-333.333
208.33	-80.000
208.71	25.000
209.08	-100.000
209.46	-1100.000
209.84	40.000
210.21	-800.000
210.59	100.000
210.96	33.333
211.34	-50.000
211.71	80.000
212.09	28.571
212.46	-1400.000
212.84	0.000
213.22	10.000
213.59	400.000
213.97	76.923
214.34	9.091
214.72	16.667
215.09	225.000
215.47	38.462
215.84	18.182
216.22	133.333
216.59	-62.500
216.97	-50.000
217.34	-25.000
217.72	-120.000
218.09	-12.500
218.47	50.000
218.84	1200.000
219.22	-66.667
219.59	-60.000
219.97	300.000
220.34	175.000
220.72	-14.286
221.09	-50.000
221.47	-100.000
221.84	-650.000
222.22	-500.000
222.59	27.273
222.97	41.667
223.34	-100.000
223.72	28.571
224.09	19.048
224.46	17.857
224.84	233.333
225.21	30.000
225.59	66.667
225.96	-50.000
226.34	225.000
226.71	-57.143
227.08	-83.333
227.46	-12.500
227.83	-300.000
228.21	-22.222
228.58	-27.273
228.95	-50.000
229.33	90.000
229.70	31.250
230.08	-125.000
230.45	-85.714
230.82	-57.143
231.20	-40.000
231.57	78.571
231.95	0.000
232.32	-150.000
232.69	-28.571
233.07	66.667
233.44	120.000
233.81	-50.000
234.19	-33.333
234.56	-35.294
234.93	600.000
235.31	-50.000
235.68	-120.000
236.05	-7.692
236.43	-25.000
236.80	5.882
237.17	15.625
237.55	-50.000
237.92	-11.111
238.29	8.333
238.67	13.333
239.04	20.588
239.41	-17.073
239.79	-10.000
240.16	36.585
240.53	-2.632
240.91	-2.174
241.28	7.937
241.65	19.643
242.02	20.548
242.40	0.000
242.77	6.780
243.14	10.606
243.51	13.750
243.89	27.586
244.26	12.644
244.63	22.619
245.00	14.433
245.38	17.526
245.75	11.236
246.12	3.448
246.49	9.917
246.87	16.346
247.24	16.807
247.61	5.263
247.98	4.878
248.36	13.125
248.73	14.474
249.10	11.688
249.47	16.456
249.84	12.418
250.22	20.588
250.59	16.993
250.96	14.554
251.33	13.372
251.70	21.765
252.08	11.168
252.45	17.327
252.82	10.050
253.19	17.051
253.56	10.748
253.94	16.667
254.31	18.696
254.68	13.596
255.05	7.087
255.42	15.284
255.79	11.197
256.16	15.953
256.54	15.299
256.91	15.970
257.28	20.818
257.65	13.858
258.02	10.638
258.39	15.152
258.76	17.216
259.14	20.930
259.51	13.916
259.88	17.182
260.25	14.052
260.62	17.361
260.99	16.610
261.36	14.726
261.73	16.139
262.10	17.629
262.47	15.337
262.85	16.614
263.22	11.692
263.59	17.445
263.96	20.186
264.33	18.182
264.70	13.988
265.07	15.476
265.44	19.547
265.81	16.384
266.18	20.219
266.55	17.481
266.92	18.912
267.29	19.060
267.66	14.322
268.03	15.183
268.40	13.577
268.77	17.112
269.14	16.787
269.51	15.167
269.88	15.212
270.25	17.092
270.62	13.415
270.99	16.880
271.36	16.626
271.73	18.075
272.10	15.572
272.47	17.967
272.84	15.099
273.21	16.241
273.58	15.904
273.95	13.730
274.32	16.166
274.69	13.348
275.06	14.732
275.43	16.780
275.80	16.777
276.17	13.103
276.54	18.415
276.91	17.763
277.28	13.974
277.65	14.876
278.02	14.681
278.39	15.536
278.76	15.723
279.13	14.108
279.50	18.908
279.87	15.119
280.23	13.763
280.60	17.349
280.97	14.747
281.34	14.615
281.71	17.454
282.08	12.474
282.45	13.699
282.82	15.830
283.19	15.280
283.56	15.607
283.92	13.472
284.29	14.231
284.66	14.147
285.03	14.145
285.40	13.611
285.77	14.236
286.14	15.704
286.51	16.974
286.87	13.711
287.24	14.365
287.61	13.757
287.98	14.912
288.35	15.425
288.72	14.711
289.08	14.583
289.45	14.411
289.82	13.811
290.19	14.334
290.56	12.350
290.93	12.626
291.29	11.556
291.66	13.701
292.03	12.121
292.40	15.323
292.77	12.440
293.13	12.013
293.50	11.836
293.87	14.351
294.24	13.138
294.60	11.624
294.97	13.839
295.34	12.883
295.71	12.221
296.08	13.004
296.44	10.526
296.81	12.639
297.18	14.493
297.55	13.821
297.91	12.740
298.28	14.908
298.65	11.669
299.02	12.668
299.38	11.491
299.75	13.517
300.12	11.387
300.48	11.067
300.85	12.548
301.22	11.948
301.59	12.500
301.95	13.038
302.32	13.878
302.69	12.189
303.05	12.995
303.42	12.827
303.79	13.084
304.15	12.784
304.52	12.604
304.89	12.749
305.25	12.107
305.62	11.785
305.99	12.632
306.35	11.098
306.72	13.161
307.09	13.569
307.45	14.007
307.82	13.889
308.19	14.286
308.55	13.522
308.92	15.033
309.29	13.631
309.65	14.855
310.02	14.631
310.38	15.697
310.75	14.208
311.12	14.101
311.48	14.528
311.85	14.241
312.22	14.346
312.58	13.694
312.95	15.155
313.31	16.149
313.68	15.183
314.05	15.408
314.41	17.423
314.78	15.361
315.14	17.883
315.51	17.495
315.87	17.008
316.24	18.908
316.61	18.406
316.97	18.353
317.34	18.262
317.70	18.069
318.07	19.038
318.43	17.549
318.80	19.129
319.16	20.605
319.53	20.703
319.89	19.488
320.26	20.951
320.62	21.464
320.99	19.729
321.35	19.938
321.72	23.988
322.08	23.364
322.45	24.467
322.81	22.986
323.18	24.338
323.54	24.710
323.91	25.511
324.27	26.758
324.64	26.030
325.00	27.737
325.37	29.109
325.73	28.015
326.10	30.518
326.46	29.417
326.83	31.759
327.19	31.037
327.56	32.667
327.92	33.715
328.29	32.679
328.65	33.868
329.01	34.007
329.38	34.378
329.74	33.994
330.11	34.662
330.47	36.920
330.84	36.731
331.20	38.973
331.56	36.111
331.93	37.169
332.29	37.764
332.66	37.919
333.02	38.104
333.38	37.672
333.75	40.476
334.11	37.243
334.48	38.894
334.84	38.645
335.20	38.518
335.57	38.441
335.93	40.470
336.29	38.490
336.66	39.510
337.02	40.335
337.38	38.796
337.75	39.000
338.11	41.118
338.47	41.332
338.84	40.018
339.20	40.494
339.56	41.743
339.93	40.107
340.29	40.275
340.65	41.577
341.02	40.603
341.38	41.062
341.74	38.958
342.11	39.861
342.47	41.103
342.83	41.869
343.20	40.418
343.56	41.739
343.92	41.098
344.28	41.247
344.65	41.105
345.01	40.795
345.37	40.454
345.73	42.594
346.10	41.933
346.46	42.473
346.82	42.308
347.19	40.233
347.55	40.852
347.91	41.667
348.27	41.714
348.63	42.334
349.00	41.181
349.36	42.394
349.72	43.367
350.08	42.787
350.45	41.500
350.81	41.611
351.17	40.961
351.53	42.204
351.89	42.609
352.26	42.400
352.62	43.468
352.98	41.365
353.34	41.143
353.70	43.204
354.07	42.903
354.43	43.074
354.79	43.600
355.15	43.254
355.51	43.513
355.87	43.528
356.24	42.007
356.60	42.765
356.96	42.143
357.32	43.291
357.68	42.064
358.04	42.730
358.40	42.283
358.77	43.381
359.13	43.155
359.49	41.988
359.85	42.590
360.21	43.620
360.57	42.770
360.93	43.268
361.29	41.465
361.66	44.357
362.02	43.258
362.38	44.021
362.74	43.301
363.10	44.394
363.46	44.403
363.82	43.501
364.18	44.428
364.54	43.529
364.90	43.297
365.26	43.959
365.62	45.109
365.98	43.915
366.35	43.700
366.71	45.455
367.07	44.267
367.43	44.716
367.79	43.180
368.15	43.790
368.51	44.865
368.87	44.508
369.23	44.043
369.59	45.991
369.95	45.015
370.31	44.870
370.67	45.522
371.03	44.212
371.39	45.150
371.75	45.788
372.11	44.151
372.47	46.006
372.83	44.784
373.19	46.148
373.55	43.827
373.91	44.996
374.27	45.571
374.63	45.657
374.99	43.972
375.35	46.866
375.71	47.762
376.07	45.506
376.42	44.830
376.78	46.980
377.14	45.633
377.50	47.012
377.86	45.582
378.22	45.629
378.58	46.987
378.94	45.558
379.30	46.413
379.66	46.395
380.02	46.291
380.38	45.405
380.74	45.721
381.09	46.748
381.45	45.382
381.81	46.268
382.17	45.431
382.53	46.096
382.89	46.642
383.25	46.920
383.61	47.012
383.97	44.762
384.32	46.779
384.68	46.625
385.04	45.650
385.40	46.484
385.76	48.113
386.12	47.348
386.48	47.318
386.83	46.481
387.19	45.971
387.55	47.114
387.91	46.271
388.27	46.093
388.62	47.703
388.98	45.918
389.34	46.096
389.70	47.296
390.06	44.808
390.42	46.179
390.77	47.547
391.13	46.217
391.49	47.219
391.85	47.953
392.20	46.579
392.56	46.154
392.92	47.211
393.28	45.578
393.64	45.766
393.99	47.335
394.35	46.363
394.71	45.977
395.07	45.757
395.42	45.841
395.78	45.993
396.14	46.784
396.50	47.051
396.85	46.941
397.21	46.429
397.57	46.144
397.92	45.416
398.28	45.747
398.64	45.542
399.00	45.711
399.35	45.260
399.71	45.089
400.07	46.735
400.42	46.267
400.78	45.560
401.14	45.554
401.49	46.456
401.85	44.485
402.21	46.205
402.57	46.812
402.92	44.166
403.28	45.990
403.63	46.847
403.99	45.344
404.35	46.159
404.70	44.643
405.06	44.125
405.42	45.121
405.77	44.567
406.13	44.994
406.49	44.287
406.84	45.844
407.20	44.551
407.55	44.237
407.91	45.388
408.27	45.061
408.62	45.231
408.98	43.993
409.34	44.362
409.69	43.669
410.05	44.150
410.40	44.136
410.76	44.994
411.11	44.312
411.47	44.970
411.83	42.938
412.18	44.144
412.54	43.633
412.89	43.719
413.25	45.006
413.60	43.851
413.96	42.699
414.31	43.598
414.67	44.195
415.03	44.341
415.38	44.386
415.74	44.560
416.09	44.873
416.45	43.619
416.80	43.688
417.16	44.475
417.51	44.237
417.87	43.807
418.22	44.754
418.58	45.017
418.93	43.386
419.29	44.174
419.64	44.264
420.00	45.025
420.35	43.642
420.71	45.200
421.06	44.076
421.42	43.089
421.77	44.220
422.12	43.587
422.48	43.530
422.83	44.084
423.19	44.808
423.54	44.268
423.90	42.815
424.25	44.604
424.61	46.022
424.96	43.728
425.31	45.118
425.67	44.953
426.02	44.935
426.38	46.525
426.73	46.308
427.09	46.076
427.44	46.118
427.79	45.669
428.15	45.631
428.50	45.185
428.85	44.717
429.21	45.954
429.56	45.283
429.92	45.352
430.27	44.612
430.62	43.858
430.98	45.329
431.33	45.110
431.68	44.741
432.04	46.115
432.39	45.408
432.74	43.055
433.10	47.184
433.45	45.699
433.80	46.953
434.16	45.596
434.51	45.914
434.86	46.574
435.22	47.448
435.57	46.226
435.92	47.485
436.28	45.915
436.63	46.149
436.98	46.582
437.34	46.763
437.69	47.585
438.04	48.091
438.39	47.037
438.75	49.180
439.10	47.425
439.45	49.300
439.81	48.135
440.16	48.931
440.51	48.299
440.86	49.245
441.22	48.586
441.57	48.013
441.92	49.948
442.27	48.947
442.63	49.839
442.98	48.708
443.33	48.191
443.68	49.072
444.03	50.472
444.39	48.893
444.74	51.059
445.09	50.000
445.44	50.598
445.79	50.490
446.15	50.606
446.50	49.861
446.85	50.744
447.20	51.043
447.55	51.339
447.91	51.495
448.26	51.167
448.61	51.238
448.96	51.348
449.31	51.214
449.66	50.697
450.02	51.169
450.37	51.986
450.72	51.947
451.07	51.139
451.42	52.060
451.77	53.044
452.12	50.718
452.47	51.900
452.83	52.120
453.18	53.194
453.53	53.603
453.88	54.402
454.23	51.936
454.58	54.345
454.93	53.351
455.28	51.429
455.63	52.883
455.98	52.135
456.34	53.321
456.69	54.130
457.04	53.497
457.39	52.734
457.74	53.990
458.09	52.089
458.44	53.482
458.79	52.437
459.14	52.346
459.49	53.672
459.84	52.679
460.19	52.852
460.54	52.017
460.89	53.807
461.24	53.416
461.59	53.147
461.94	51.447
462.29	53.016
462.64	53.754
462.99	53.758
463.34	53.268
463.69	53.282
464.04	54.116
464.39	52.941
464.74	52.331
465.09	54.148
465.44	52.683
465.79	53.005
466.14	52.052
466.49	53.939
466.84	52.945
467.19	53.379
467.54	54.215
467.89	53.190
468.24	52.433
468.59	54.857
468.94	52.063
469.29	54.295
469.64	53.725
469.99	54.940
470.34	52.969
470.68	56.227
471.03	55.343
471.38	54.636
471.73	55.462
472.08	53.867
472.43	55.436
472.78	54.215
473.13	55.170
473.48	54.593
473.83	54.483
474.17	54.339
474.52	53.478
474.87	55.152
475.22	54.423
475.57	54.037
475.92	54.471
476.27	55.530
476.61	54.803
476.96	53.486
477.31	53.651
477.66	53.427
478.01	54.857
478.36	53.431
478.70	54.812
479.05	54.560
479.40	55.061
479.75	53.128
480.10	54.685
480.45	54.150
480.79	55.086
481.14	54.764
481.49	53.005
481.84	54.006
482.19	53.789
482.53	55.252
482.88	53.986
483.23	53.695
483.58	53.491
483.92	54.163
484.27	53.099
484.62	53.743
484.97	53.441
485.31	51.084
485.66	49.812
486.01	49.656
486.36	49.825
486.70	49.784
487.05	49.989
487.40	50.776
487.75	50.845
488.09	51.112
488.44	52.201
488.79	53.194
489.13	53.606
489.48	53.655
489.83	53.408
490.17	52.899
490.52	53.580
490.87	53.725
491.22	55.253
491.56	54.507
491.91	54.302
492.26	55.275
492.60	53.455
492.95	55.386
493.30	54.226
493.64	55.354
493.99	54.783
494.34	53.204
494.68	54.143
495.03	54.161
495.37	54.073
495.72	55.679
496.07	54.049
496.41	53.255
496.76	54.169
497.11	52.911
497.45	54.749
497.80	55.096
498.14	54.148
498.49	55.155
498.84	52.994
499.18	55.773
499.53	54.415
499.87	53.696
500.22	54.105
500.56	54.362
500.91	54.468
501.26	53.089
501.60	53.812
501.95	53.954
502.29	54.334
502.64	54.971
502.98	55.402
503.33	53.698
503.67	52.867
504.02	54.545
504.36	53.934
504.71	53.737
505.06	54.706
505.40	53.909
505.75	54.588
506.09	54.486
506.44	54.261
506.78	55.051
507.13	54.292
507.47	54.935
507.82	53.472
508.16	54.464
508.51	54.774
508.85	55.730
509.19	55.349
509.54	55.657
509.88	55.124
510.23	55.299
510.57	55.265
510.92	52.665
511.26	54.283
511.61	56.381
511.95	55.452
512.30	54.656
512.64	54.257
512.98	55.531
513.33	55.512
513.67	55.429
514.02	56.121
514.36	55.314
514.70	56.410
515.05	55.875
515.39	55.785
515.74	56.467
516.08	55.888
516.42	56.066
516.77	55.530
517.11	56.142
517.46	55.595
517.80	55.781
518.14	57.073
518.49	56.130
518.83	55.468
519.17	55.246
519.52	55.358
519.86	54.982
520.20	57.108
520.55	55.285
520.89	57.340
521.23	56.428
521.58	56.467
521.92	56.410
522.26	55.237
522.61	57.078
522.95	58.146
523.29	56.480
523.64	56.480
523.98	57.161
524.32	56.637
524.66	56.978
525.01	56.039
525.35	56.513
525.69	56.364
526.04	55.688
526.38	57.263
526.72	55.265
527.06	55.058
527.41	55.607
527.75	56.836
528.09	55.548
528.43	58.001
528.78	55.908
529.12	55.806
529.46	56.400
529.80	54.528
530.15	56.898
530.49	55.421
530.83	56.361
531.17	54.466
531.51	55.677
531.86	55.812
532.20	54.767
532.54	54.935
532.88	56.537
533.22	54.637
533.57	56.225
533.91	53.460
534.25	55.013
534.59	54.330
534.93	53.870
535.27	52.348
535.62	53.662
535.96	54.403
536.30	54.090
536.64	55.824
536.98	54.634
537.32	56.117
537.66	55.961
538.01	55.105
538.35	54.022
538.69	53.129
539.03	53.725
539.37	54.374
539.71	53.647
540.05	52.478
540.39	54.986
540.73	53.766
541.07	55.732
541.42	52.823
541.76	54.233
542.10	54.164
542.44	53.857
542.78	50.791
543.12	53.709
543.46	53.338
543.80	54.962
544.14	51.802
544.48	52.432
544.82	53.589
545.16	52.459
545.50	52.537
545.84	54.249
546.18	53.262
546.52	54.650
546.86	52.912
547.20	54.149
547.54	52.297
547.88	51.970
548.22	51.611
548.56	51.715
548.90	52.358
549.24	51.309
549.58	52.186
549.92	50.822
550.26	52.015
550.60	53.160
550.94	53.846
551.28	53.246
551.62	53.231
551.96	53.985
552.30	52.120
552.64	50.987
552.98	53.235
553.32	51.498
553.66	51.742
554.00	52.190
554.34	52.290
554.68	52.802
555.02	52.753
555.36	53.104
555.69	52.381
556.03	51.178
556.37	51.317
556.71	51.769
557.05	52.498
557.39	51.970
557.73	52.549
558.07	51.659
558.41	53.063
558.75	53.157
559.08	52.955
559.42	53.810
559.76	54.524
560.10	52.829
560.44	51.452
560.78	51.958
561.12	52.327
561.45	51.862
561.79	51.120
562.13	51.668
562.47	52.014
562.81	50.793
563.15	50.917
563.48	50.424
563.82	50.927
564.16	51.671
564.50	49.662
564.84	50.134
565.17	50.570
565.51	50.683
565.85	51.029
566.19	51.194
566.52	52.480
566.86	50.386
567.20	49.875
567.54	49.635
567.88	49.443
568.21	49.265
568.55	48.533
568.89	47.947
569.23	46.750
569.56	46.848
569.90	46.935
570.24	44.399
570.57	44.982
570.91	45.382
571.25	44.064
571.59	43.538
571.92	43.526
572.26	42.603
572.60	43.225
572.93	43.709
573.27	42.571
573.61	42.900
573.95	43.583
574.28	42.108
574.62	41.622
574.96	41.486
575.29	42.251
575.63	40.166
575.97	41.258
576.30	41.608
576.64	41.748
576.98	42.008
577.31	41.165
577.65	41.468
577.98	40.723
578.32	40.792
578.66	39.867
578.99	40.945
579.33	40.819
579.67	40.222
580.00	40.785
580.34	40.846
580.67	40.851
581.01	40.562
581.35	39.772
581.68	40.110
582.02	39.567
582.35	40.130
582.69	40.612
583.02	40.333
583.36	40.620
583.70	41.147
584.03	42.285
584.37	42.772
584.70	41.593
585.04	39.974
585.37	40.319
585.71	40.286
586.04	40.822
586.38	40.624
586.72	41.176
587.05	41.392
587.39	41.683
587.72	41.225
588.06	41.517
588.39	40.929
588.73	41.606
589.06	42.433
589.40	42.032
589.73	43.008
590.07	42.560
590.40	42.376
590.73	42.957
591.07	43.003
591.40	42.876
591.74	43.937
592.07	43.135
592.41	44.214
592.74	41.896
593.08	41.250
593.41	41.647
593.75	40.857
594.08	41.092
594.41	41.776
594.75	41.412
595.08	41.960
595.42	41.958
595.75	41.645
596.09	41.673
596.42	41.918
596.75	43.339
597.09	42.870
597.42	42.547
597.75	42.831
598.09	42.372
598.42	42.735
598.76	42.171
599.09	41.026
599.42	41.076
599.76	41.196
600.09	40.799
600.42	41.016
600.76	41.048
601.09	40.649
601.42	40.266
601.76	41.286
602.09	41.625
602.42	42.081
602.76	42.360
603.09	42.525
603.42	41.973
603.76	41.411
604.09	41.960
604.42	41.878
604.76	42.991
605.09	41.865
605.42	41.896
605.75	40.981
606.09	40.764
606.42	40.742
606.75	41.558
607.09	42.022
607.42	40.629
607.75	40.986
608.08	40.925
608.42	41.023
608.75	41.831
609.08	42.402
609.41	42.284
609.75	42.288
610.08	42.436
610.41	40.918
610.74	42.613
611.07	42.119
611.41	42.553
611.74	43.337
612.07	42.934
612.40	43.381
612.73	43.446
613.07	41.676
613.40	43.545
613.73	42.977
614.06	43.795
614.39	42.470
614.72	41.849
615.06	43.296
615.39	40.830
615.72	41.335
616.05	41.341
616.38	41.425
616.71	42.202
617.05	41.939
617.38	43.118
617.71	42.704
618.04	43.556
618.37	44.073
618.70	44.224
619.03	45.069
619.36	44.428
619.69	46.247
620.03	45.362
620.36	44.993
620.69	43.469
621.02	44.190
621.35	46.058
621.68	46.939
622.01	46.833
622.34	45.730
622.67	46.215
623.00	44.334
623.33	43.445
623.66	43.680
623.99	44.402
624.32	45.019
624.65	43.835
624.99	45.297
625.32	42.456
625.65	45.797
625.98	45.608
626.31	44.722
626.64	46.187
626.97	46.510
627.30	45.972
627.63	45.667
627.96	46.181
628.29	46.623
628.62	47.001
628.95	46.092
629.28	47.984
629.61	45.962
629.94	46.921
630.26	47.826
630.59	50.156
630.92	48.205
631.25	46.872
631.58	48.348
631.91	46.382
632.24	49.771
632.57	48.977
632.90	49.585
633.23	49.647
633.56	50.378
633.89	50.555
634.22	50.741
634.55	48.539
634.88	48.276
635.20	49.744
635.53	50.267
635.86	50.585
636.19	51.100
636.52	48.087
636.85	49.380
637.18	46.289
637.51	49.308
637.83	51.380
638.16	51.160
638.49	48.093
638.82	51.711
639.15	50.746
639.48	50.069
639.81	50.767
640.13	50.505
640.46	48.688
640.79	50.810
641.12	50.665
641.45	53.003
641.77	49.926
642.10	51.343
642.43	52.090
642.76	52.310
643.09	52.827
643.41	50.000
643.74	49.588
644.07	50.411
644.40	51.689
644.73	51.489
645.05	50.839
645.38	51.675
645.71	51.596
646.04	52.962
646.36	52.660
646.69	53.058
647.02	54.820
647.35	52.612
647.67	53.016
648.00	54.104
648.33	50.000
648.66	50.000
648.98	47.404
649.31	49.256
649.64	47.410
649.96	48.298
650.29	51.448
650.62	48.547
650.94	52.407
651.27	49.348
651.60	49.730
651.92	50.175
652.25	50.977
652.58	50.333
652.90	52.830
653.23	48.908
653.56	48.223
653.88	49.656
654.21	48.161
654.54	47.029
654.86	49.915
655.19	45.760
655.52	42.957
655.84	33.918
656.17	36.822
656.49	48.917
656.82	50.102
657.15	38.834
657.47	28.916
657.80	21.447
658.13	21.367
658.45	33.340
658.78	33.465
659.10	33.838
659.43	34.575
659.75	36.162
660.08	37.241
660.41	41.062
660.73	44.061
661.06	47.660
661.38	47.554
661.71	49.692
662.03	53.004
662.36	50.549
662.68	52.655
663.01	55.895
663.33	52.436
663.66	50.698
663.98	49.767
664.31	47.335
664.63	51.152
664.96	50.435
665.28	48.344
665.61	50.649
665.93	50.870
666.26	50.759
666.58	49.217
666.91	49.882
667.23	52.830
667.56	51.896
667.88	54.676
668.21	53.699
668.53	52.246
668.86	51.651
669.18	50.472
669.50	45.521
669.83	48.372
670.15	52.448
670.48	50.239
670.80	51.382
671.13	47.651
671.45	47.489
671.77	51.502
672.10	49.109
672.42	47.378
672.75	46.714
673.07	49.553
673.39	47.156
673.72	45.957
674.04	48.125
674.37	50.424
674.69	47.966
675.01	50.222
675.34	49.775
675.66	51.620
675.98	49.446
676.31	50.917
676.63	51.544
676.95	47.045
677.28	51.059
677.60	50.361
677.92	49.312
678.25	46.608
678.57	46.104
678.89	45.378
679.22	47.875
679.54	46.185
679.86	44.334
680.18	44.854
680.51	45.833
680.83	40.755
681.15	48.200
681.48	47.131
681.80	46.488
682.12	46.371
682.44	46.862
682.77	47.682
683.09	47.140
683.41	46.364
683.73	48.157
684.06	48.673
684.38	45.591
684.70	46.623
685.02	43.983
685.34	40.711
685.67	42.214
685.99	42.857
686.31	42.301
686.63	43.785
686.96	41.825
687.28	43.232
687.60	41.445
687.92	45.253
688.24	43.952
688.56	44.541
688.89	45.982
689.21	44.667
689.53	45.012
689.85	48.605
690.17	45.313
690.49	44.208
690.82	43.932
691.14	45.952
691.46	45.794
691.78	45.045
692.10	45.161
692.42	41.342
692.74	41.453
693.06	42.568
693.39	42.308
693.71	40.950
694.03	41.339
694.35	42.757
694.67	47.727
694.99	47.258
695.31	48.825
695.63	44.000
695.95	43.687
696.27	45.337
696.59	46.944
696.91	43.417
697.23	42.674
697.56	41.584
697.88	46.022
698.20	44.647
698.52	43.529
698.84	41.148
699.16	42.000
699.48	45.865
699.80	42.928
700.12	44.205
700.44	46.499
700.76	45.058
701.08	46.667
701.40	45.181
701.72	50.309
702.04	47.525
702.36	45.485
702.68	45.045
703.00	44.545
703.32	43.109
703.64	42.090
703.96	40.000
704.28	42.638
704.60	48.889
704.91	44.164
705.23	43.522
705.55	50.530
705.87	44.043
706.19	48.889
706.51	46.392
706.83	51.768
707.15	42.368
707.47	43.137
707.79	38.542
708.11	39.500
708.43	37.750
708.74	40.568
709.06	44.789
709.38	46.483
709.70	44.083
710.02	43.631
710.34	45.511
710.66	42.949
710.98	41.722
711.29	41.311
711.61	46.780
711.93	43.322
712.25	47.079
712.57	42.125
712.89	44.776
713.20	48.097
713.52	39.721
713.84	44.710
714.16	42.268
714.48	43.548
714.80	42.949
715.11	44.073
715.43	42.006
715.75	43.000
716.07	38.206
716.39	42.282
716.70	44.280
717.02	41.603
717.34	48.178
717.66	51.770
717.97	44.348
718.29	46.444
718.61	46.063
718.93	44.186
719.24	41.825
719.56	47.390
719.88	37.457
720.20	39.015
720.51	38.697
720.83	43.243
721.15	45.378
721.46	43.145
721.78	42.688
722.10	42.007
722.42	42.739
722.73	44.082
723.05	44.490
723.37	40.678
723.68	50.000
724.00	41.880
724.32	37.333
724.63	44.545
724.95	42.358
725.27	45.622
725.58	45.763
725.90	38.095
726.22	44.015
726.53	38.644
726.85	40.449
727.16	43.019
727.48	35.223
727.80	41.296
728.11	43.644
728.43	40.784
728.74	38.710
729.06	45.600
729.38	43.609
729.69	41.036
730.01	35.385
730.32	34.701
730.64	37.809
730.96	41.132
731.27	38.667
731.59	37.966
731.90	40.764
732.22	39.432
732.53	42.193
732.85	39.362
733.16	37.710
733.48	41.367
733.80	32.971
734.11	37.288
734.43	41.581
734.74	35.152
735.06	38.436
735.37	37.764
735.69	37.037
736.00	34.495
736.32	33.893
736.63	35.563
736.95	41.980
737.26	31.317
737.58	36.577
737.89	37.729
738.21	40.226
738.52	37.037
738.83	42.358
739.15	41.921
739.46	40.551
739.78	34.432
740.09	38.562
740.41	39.130
740.72	38.189
741.04	42.510
741.35	38.723
741.66	40.284
741.98	42.347
742.29	37.624
742.61	38.743
742.92	35.545
743.23	36.574
743.55	42.534
743.86	41.627
744.18	42.584
744.49	38.830
744.80	42.391
745.12	48.128
745.43	38.537
745.74	45.312
746.06	42.927
746.37	41.361
746.68	43.602
747.00	39.362
747.31	39.303
747.62	36.893
747.94	42.105
748.25	38.614
748.56	38.798
748.88	42.932
749.19	42.021
749.50	39.409
749.82	37.264
750.13	34.862
750.44	39.474
750.75	38.060
751.07	41.606
751.38	39.847
751.69	36.078
752.01	40.698
752.32	37.849
752.63	35.573
752.94	36.207
753.26	43.515
753.57	36.199
753.88	39.823
754.19	33.750
754.51	28.926
754.82	36.032
755.13	42.500
755.44	35.887
755.75	42.187
756.07	38.911
756.38	32.453
756.69	32.567
757.00	36.667
757.31	35.621
757.63	31.707
757.94	33.056
758.25	29.041
758.56	31.383
758.87	29.745
759.18	31.153
759.50	32.364
759.81	34.783
760.12	36.129
760.43	33.939
760.74	30.247
761.05	34.769
761.36	32.955
761.67	35.152
761.99	31.973
762.30	33.455
762.61	35.968
762.92	38.914
763.23	40.991
763.54	38.318
763.85	34.746
764.16	35.270
764.47	34.677
764.78	30.403
765.10	34.680
765.41	33.123
765.72	32.698
766.03	28.195
766.34	35.401
766.65	37.450
766.96	32.828
767.27	39.362
767.58	34.483
767.89	37.589
768.20	42.045
768.51	37.363
768.82	35.468
769.13	29.493
769.44	36.052
769.75	28.311
770.06	36.207
770.37	36.058
770.68	35.025
770.99	30.769
771.30	36.765
771.61	33.032
771.92	35.345
772.23	42.365
772.54	35.484
772.85	33.333
773.16	36.517
773.47	46.405
773.78	40.523
774.09	37.725
774.39	38.667
774.70	38.217
775.01	51.034
775.32	36.429
775.63	35.537
775.94	37.405
776.25	36.220
776.56	30.833
776.87	43.269
777.18	30.769
777.48	39.655
777.79	36.522
778.10	37.143
778.41	30.631
778.72	36.508
779.03	39.850
779.34	38.298
779.65	39.041
779.95	26.712
780.26	35.172
780.57	32.520
780.88	40.157
781.19	31.034
781.50	32.558
781.80	29.586
782.11	28.931
782.42	33.846
782.73	35.971
783.04	33.333
783.34	31.250
783.65	32.479
783.96	31.967
784.27	36.552
784.57	34.146
784.88	35.156
785.19	40.000
785.50	47.000
785.81	32.759
786.11	30.172
786.42	30.097
786.73	39.091
787.04	21.429
787.34	33.036
787.65	35.238
787.96	38.938
788.26	34.545
788.57	26.496
788.88	34.375
789.19	25.397
789.49	35.652
789.80	30.612
790.11	28.283
790.41	36.364
790.72	31.522
791.03	37.500
791.33	46.250
791.64	42.500
791.95	45.349
792.25	32.979
792.56	47.191
792.87	32.877
793.17	24.638
793.48	16.000
793.79	37.500
794.09	36.250
794.40	37.736
794.70	34.951
795.01	30.081
795.32	31.624
795.62	30.476
795.93	31.373
796.23	33.962
796.54	33.333
796.85	32.353
797.15	22.535
797.46	38.889
797.76	40.909
798.07	20.930
798.37	30.263
798.68	33.333
798.99	28.395
799.29	34.286
799.60	43.478
799.90	44.000
800.21	21.311
800.51	26.154
800.82	33.898
801.12	47.826
801.43	39.344
801.73	36.508
802.04	34.000
802.34	38.806
802.65	48.077
802.95	26.786
803.26	32.692
803.56	41.176
803.87	13.043
804.17	29.333
804.48	17.460
804.78	18.519
805.09	26.087
805.39	33.333
805.70	46.296
806.00	22.807
806.30	28.169
806.61	32.857
806.91	36.111
807.22	48.684
807.52	26.667
807.83	29.091
808.13	18.056
808.43	39.706
808.74	26.866
809.04	30.508
809.35	15.385
809.65	29.688
809.95	48.649
810.26	25.000
810.56	27.397
810.86	30.952
811.17	40.000
811.47	51.020
811.77	23.684
812.08	13.636
812.38	45.283
812.69	45.000
812.99	3.030
813.29	23.684
813.59	22.857
813.90	18.182
814.20	15.385
814.50	26.923
814.81	45.283
815.11	12.766
815.41	28.814
815.72	23.810
816.02	29.412
816.32	27.083
816.62	19.512
816.93	2.703
817.23	31.429
817.53	33.333
817.84	17.391
818.14	26.923
818.44	-2.632
818.74	32.609
819.04	-2.500
819.35	29.730
819.65	8.824
819.95	33.333
820.25	40.476
820.56	62.500
820.86	-58.621
821.16	42.500
821.46	42.553
821.76	20.000
822.07	30.233
822.37	10.811
822.67	37.500
822.97	47.619
823.27	-25.000
823.57	0.000
823.88	-7.407
824.18	-10.714
824.48	20.588
824.78	29.032
825.08	17.391
825.38	6.061
825.69	12.500
825.99	34.211
826.29	11.111
826.59	13.333
826.89	-9.524
827.19	47.826
827.49	27.500
827.79	42.857
828.09	42.857
828.39	30.303
828.70	70.270
829.00	46.429
829.30	19.048
829.60	10.000
829.90	46.875
830.20	7.895
830.50	29.630
830.80	0.000
831.10	0.000
831.40	57.576
831.70	32.258
832.00	47.619
832.30	-9.524
832.60	75.000
832.90	-3.448
833.20	45.000
833.50	18.182
833.80	37.037
834.10	46.154
834.40	25.000
834.70	77.778
835.00	-15.789
835.30	50.000
835.60	40.000
835.90	61.290
836.20	40.909
836.50	21.429
836.80	-30.769
837.10	46.429
837.40	0.000
837.70	18.182
838.00	9.091
838.30	0.000
838.60	23.077
838.90	18.182
839.19	39.286
839.49	56.667
839.79	15.385
840.09	-33.333
840.39	57.143
840.69	53.571
840.99	19.231
841.29	-15.789
841.59	30.000
841.88	36.364
842.18	60.000
842.48	-6.250
842.78	53.333
843.08	37.037
843.38	-80.000
843.68	43.478
843.97	80.000
844.27	-46.667
844.57	20.000
844.87	11.111
845.17	-28.571
845.47	80.000
845.76	19.048
846.06	5.882
846.36	110.000
846.66	64.286
846.96	33.333
847.25	-137.500
847.55	71.429
847.85	37.500
848.15	-22.727
848.44	-166.667
848.74	-10.000
849.04	62.963
849.34	63.636
849.63	-66.667
849.93	-140.000
850.23	-38.889
850.53	30.000
850.82	-23.077
851.12	22.222
851.42	73.333
851.71	15.385
852.01	50.000
852.31	50.000
852.61	0.000
852.90	-25.000
853.20	-10.526
853.50	-25.000
853.79	26.087
854.09	54.167
854.39	-36.842
854.68	-16.667
854.98	35.484
855.28	19.231
855.57	5.000
855.87	27.778
856.17	44.444
856.46	-14.286
856.76	-13.333
857.05	-44.444
857.35	48.000
857.65	33.333
857.94	23.077
858.24	31.034
858.53	5.556
858.83	51.852
859.13	4.545
859.42	26.087
859.72	125.000
860.01	-66.667
860.31	32.000
860.60	23.810
860.90	266.667
861.20	-33.333
861.49	-400.000
861.79	-73.333
862.08	25.000
862.38	13.333
862.67	-60.000
862.97	50.000
863.26	41.667
863.56	50.000
863.85	-200.000
864.15	-11.111
864.44	-20.000
864.74	71.429
865.03	200.000
865.33	-160.000
865.62	150.000
865.92	-8.333
866.21	-50.000
866.51	12.500
866.80	-36.364
867.10	-300.000
867.39	75.000
867.69	0.000
867.98	84.615
868.27	33.333
868.57	33.333
868.86	50.000
869.16	7.692
869.45	26.667
869.75	-1000.000
870.04	0.000
870.33	-157.143
870.63	23.810
870.92	133.333
871.22	20.000
871.51	-300.000
871.80	66.667
872.10	366.667
>>>>>End Processed Spectral Data<<<<<
