SpectraSuite Data File
++++++++++++++++++++++++++++++++++++
Date: Fri May 15 20:59:46 PDT 2015
User: schluterlab
Dark Spectrum Present: Yes
Reference Spectrum Present: Yes
Number of Sampled Component Spectra: 1
Spectrometers: USB2E3373
Integration Time (usec): 3000 (USB2E3373)
Spectra Averaged: 3 (USB2E3373)
Boxcar Smoothing: 0 (USB2E3373)
Correct for Electrical Dark: No (USB2E3373)
Strobe/Lamp Enabled: No (USB2E3373)
Correct for Detector Non-linearity: No (USB2E3373)
Correct for Stray Light: No (USB2E3373)
Number of Pixels in Processed Spectrum: 2048
>>>>>Begin Processed Spectral Data<<<<<
178.53	0.000
178.91	0.000
179.29	137.500
179.67	-150.000
180.04	114.286
180.42	-200.000
180.80	-800.000
181.18	166.667
181.56	200.000
181.94	200.000
182.31	900.000
182.69	-100.000
183.07	-133.333
183.45	-200.000
183.83	116.667
184.20	-63.636
184.58	177.778
184.96	-150.000
185.34	133.333
185.72	-600.000
186.09	69.231
186.47	-700.000
186.85	283.333
187.23	255.556
187.61	700.000
187.98	-33.333
188.36	0.000
188.74	-200.000
189.12	-5.882
189.49	38.889
189.87	0.000
190.25	-57.143
190.63	0.000
191.00	-500.000
191.38	-5.263
191.76	150.000
192.14	-25.000
192.51	-300.000
192.89	-33.333
193.27	-100.000
193.65	233.333
194.02	190.909
194.40	-100.000
194.78	-187.500
195.15	-75.000
195.53	-75.000
195.91	475.000
196.29	0.000
196.66	92.308
197.04	185.714
197.42	22.222
197.79	-833.333
198.17	-146.154
198.55	1300.000
198.92	-33.333
199.30	-400.000
199.68	-220.000
200.05	-366.667
200.43	0.000
200.81	-100.000
201.18	-133.333
201.56	1000.000
201.94	-450.000
202.31	-66.667
202.69	-520.000
203.07	150.000
203.44	-400.000
203.82	0.000
204.19	7.143
204.57	-733.333
204.95	150.000
205.32	20.000
205.70	-28.571
206.08	-425.000
206.45	88.889
206.83	128.571
207.20	-57.143
207.58	-300.000
207.96	-466.667
208.33	-120.000
208.71	-75.000
209.08	-350.000
209.46	-600.000
209.84	-240.000
210.21	-300.000
210.59	14.286
210.96	-33.333
211.34	0.000
211.71	6.667
212.09	-114.286
212.46	-1400.000
212.84	0.000
213.22	-30.000
213.59	550.000
213.97	69.231
214.34	-36.364
214.72	-16.667
215.09	275.000
215.47	-69.231
215.84	-127.273
216.22	-300.000
216.59	-162.500
216.97	-150.000
217.34	-125.000
217.72	-440.000
218.09	-12.500
218.47	137.500
218.84	-400.000
219.22	-155.556
219.59	-140.000
219.97	366.667
220.34	350.000
220.72	-171.429
221.09	-150.000
221.47	-550.000
221.84	-550.000
222.22	-950.000
222.59	27.273
222.97	50.000
223.34	-133.333
223.72	-35.714
224.09	33.333
224.46	-25.000
224.84	300.000
225.21	-110.000
225.59	-60.000
225.96	100.000
226.34	425.000
226.71	-171.429
227.08	-100.000
227.46	-137.500
227.83	-550.000
228.21	22.222
228.58	-18.182
228.95	-50.000
229.33	170.000
229.70	-50.000
230.08	-112.500
230.45	-85.714
230.82	28.571
231.20	-6.667
231.57	14.286
231.95	-128.571
232.32	-120.000
232.69	35.714
233.07	66.667
233.44	-240.000
233.81	-40.000
234.19	-44.444
234.56	-17.647
234.93	500.000
235.31	25.000
235.68	-460.000
236.05	-107.692
236.43	-50.000
236.80	-29.412
237.17	-28.125
237.55	-20.000
237.92	-29.630
238.29	0.000
238.67	10.000
239.04	5.882
239.41	-29.268
239.79	-16.667
240.16	-12.195
240.53	5.263
240.91	-34.783
241.28	7.937
241.65	1.786
242.02	1.370
242.40	-6.667
242.77	-3.390
243.14	4.545
243.51	8.750
243.89	16.092
244.26	-5.747
244.63	-8.333
245.00	13.402
245.38	0.000
245.75	4.494
246.12	7.759
246.49	6.612
246.87	12.500
247.24	-4.202
247.61	-10.526
247.98	1.626
248.36	2.500
248.73	9.868
249.10	1.299
249.47	3.797
249.84	2.614
250.22	5.294
250.59	7.843
250.96	10.329
251.33	2.326
251.70	-0.588
252.08	5.076
252.45	4.455
252.82	6.533
253.19	9.677
253.56	0.935
253.94	9.910
254.31	10.435
254.68	11.404
255.05	10.236
255.42	5.240
255.79	5.792
256.16	6.226
256.54	7.836
256.91	7.985
257.28	7.063
257.65	3.371
258.02	4.610
258.39	13.805
258.76	10.623
259.14	6.645
259.51	7.767
259.88	7.904
260.25	7.190
260.62	8.333
260.99	5.763
261.36	2.055
261.73	6.646
262.10	8.511
262.47	6.748
262.85	8.464
263.22	7.692
263.59	7.165
263.96	9.006
264.33	9.091
264.70	4.464
265.07	6.845
265.44	10.482
265.81	7.062
266.18	7.923
266.55	10.283
266.92	9.845
267.29	9.922
267.66	7.673
268.03	5.236
268.40	6.005
268.77	14.439
269.14	7.914
269.51	6.941
269.88	9.476
270.25	7.143
270.62	7.561
270.99	6.138
271.36	6.601
271.73	10.329
272.10	6.813
272.47	9.929
272.84	7.673
273.21	9.745
273.58	8.193
273.95	8.924
274.32	8.083
274.69	7.919
275.06	7.589
275.43	7.937
275.80	5.740
276.17	4.368
276.54	7.495
276.91	9.649
277.28	7.424
277.65	9.298
278.02	7.447
278.39	7.440
278.76	8.176
279.13	6.017
279.50	9.034
279.87	8.207
280.23	8.817
280.60	7.602
280.97	8.081
281.34	5.769
281.71	8.419
282.08	7.362
282.45	5.675
282.82	6.757
283.19	9.284
283.56	8.671
283.92	7.400
284.29	5.769
284.66	6.783
285.03	7.859
285.40	8.129
285.77	7.557
286.14	9.567
286.51	7.934
286.87	7.861
287.24	7.919
287.61	6.878
287.98	10.351
288.35	7.972
288.72	7.881
289.08	7.812
289.45	7.733
289.82	9.266
290.19	6.485
290.56	7.547
290.93	5.387
291.29	7.550
291.66	8.031
292.03	5.742
292.40	6.452
292.77	8.612
293.13	3.734
293.50	5.463
293.87	6.412
294.24	7.419
294.60	7.303
294.97	6.548
295.34	5.521
295.71	6.110
296.08	5.680
296.44	6.543
296.81	5.972
297.18	6.957
297.55	6.775
297.91	5.205
298.28	9.894
298.65	6.649
299.02	6.604
299.38	4.104
299.75	6.897
300.12	6.806
300.48	4.743
300.85	7.478
301.22	7.273
301.59	5.789
301.95	5.696
302.32	7.134
302.69	6.841
303.05	3.837
303.42	5.479
303.79	5.841
304.15	6.810
304.52	4.875
304.89	6.082
305.25	5.811
305.62	5.368
305.99	5.614
306.35	4.971
306.72	5.849
307.09	6.043
307.45	5.166
307.82	5.324
308.19	7.085
308.55	6.870
308.92	7.407
309.29	6.145
309.65	5.705
310.02	5.831
310.38	6.367
310.75	5.902
311.12	5.382
311.48	6.575
311.85	6.492
312.22	6.646
312.58	6.263
312.95	6.510
313.31	6.832
313.68	5.759
314.05	5.714
314.41	8.144
314.78	6.598
315.14	9.250
315.51	8.696
315.87	7.992
316.24	10.415
316.61	8.366
316.97	8.135
317.34	7.617
317.70	8.413
318.07	8.654
318.43	9.412
318.80	10.133
319.16	8.789
319.53	10.826
319.89	8.957
320.26	10.223
320.62	11.936
320.99	9.081
321.35	11.100
321.72	11.630
322.08	12.085
322.45	11.472
322.81	11.493
323.18	11.678
323.54	12.066
323.91	12.269
324.27	14.160
324.64	14.326
325.00	13.321
325.37	14.601
325.73	12.511
326.10	14.805
326.46	14.619
326.83	15.048
327.19	14.996
327.56	15.639
327.92	16.285
328.29	15.000
328.65	15.283
329.01	15.901
329.38	16.313
329.74	14.920
330.11	15.292
330.47	14.842
330.84	15.577
331.20	16.350
331.56	16.574
331.93	15.160
332.29	17.415
332.66	16.471
333.02	15.149
333.38	15.765
333.75	17.216
334.11	15.219
334.48	16.500
334.84	17.857
335.20	15.096
335.57	16.772
335.93	16.712
336.29	17.035
336.66	15.895
337.02	15.428
337.38	16.667
337.75	17.182
338.11	16.862
338.47	16.515
338.84	16.081
339.20	16.362
339.56	17.431
339.93	17.905
340.29	15.780
340.65	18.011
341.02	17.021
341.38	15.841
341.74	17.138
342.11	16.984
342.47	17.171
342.83	17.561
343.20	16.202
343.56	15.913
343.92	16.209
344.28	17.421
344.65	16.408
345.01	15.990
345.37	17.410
345.73	16.402
346.10	16.911
346.46	16.905
346.82	16.039
347.19	15.295
347.55	16.374
347.91	18.123
348.27	16.734
348.63	17.036
349.00	16.161
349.36	16.126
349.72	17.496
350.08	16.475
350.45	16.919
350.81	15.698
351.17	16.287
351.53	16.245
351.89	14.699
352.26	15.680
352.62	16.129
352.98	16.386
353.34	16.103
353.70	16.181
354.07	16.210
354.43	17.454
354.79	16.020
355.15	16.111
355.51	16.456
355.87	17.557
356.24	14.845
356.60	16.168
356.96	16.429
357.32	16.374
357.68	15.246
358.04	16.155
358.40	15.836
358.77	16.188
359.13	16.333
359.49	15.639
359.85	16.069
360.21	15.789
360.57	16.756
360.93	16.036
361.29	15.257
361.66	16.223
362.02	16.439
362.38	15.765
362.74	15.594
363.10	16.328
363.46	16.308
363.82	18.257
364.18	16.310
364.54	15.074
364.90	15.412
365.26	16.303
365.62	16.934
365.98	15.689
366.35	16.315
366.71	16.630
367.07	16.183
367.43	15.528
367.79	16.184
368.15	15.793
368.51	16.169
368.87	15.219
369.23	15.018
369.59	15.087
369.95	15.689
370.31	15.968
370.67	15.149
371.03	15.235
371.39	15.974
371.75	16.484
372.11	15.977
372.47	15.754
372.83	16.324
373.19	15.692
373.55	15.235
373.91	16.055
374.27	15.237
374.63	16.009
374.99	14.539
375.35	16.156
375.71	16.503
376.07	16.222
376.42	15.986
376.78	15.436
377.14	16.046
377.50	15.339
377.86	15.730
378.22	15.380
378.58	15.897
378.94	15.942
379.30	15.783
379.66	16.928
380.02	15.389
380.38	15.460
380.74	15.919
381.09	16.442
381.45	15.291
381.81	16.225
382.17	14.657
382.53	14.678
382.89	15.756
383.25	16.366
383.61	16.341
383.97	15.238
384.32	15.822
384.68	16.471
385.04	15.135
385.40	15.557
385.76	16.604
386.12	15.136
386.48	16.284
386.83	15.980
387.19	15.446
387.55	15.245
387.91	15.037
388.27	15.507
388.62	15.985
388.98	16.268
389.34	15.928
389.70	16.221
390.06	15.104
390.42	15.479
390.77	15.173
391.13	15.952
391.49	14.877
391.85	15.919
392.20	15.129
392.56	15.257
392.92	15.443
393.28	14.917
393.64	14.535
393.99	16.364
394.35	14.548
394.71	15.964
395.07	15.965
395.42	14.572
395.78	15.309
396.14	14.943
396.50	15.726
396.85	15.905
397.21	15.288
397.57	15.361
397.92	15.039
398.28	15.345
398.64	15.000
399.00	15.406
399.35	15.124
399.71	14.819
400.07	15.115
400.42	14.933
400.78	15.615
401.14	15.366
401.49	15.426
401.85	15.052
402.21	15.181
402.57	15.375
402.92	13.676
403.28	15.414
403.63	14.754
403.99	14.031
404.35	14.678
404.70	14.107
405.06	13.866
405.42	13.984
405.77	13.945
406.13	13.504
406.49	13.854
406.84	14.731
407.20	13.967
407.55	14.295
407.91	13.636
408.27	13.958
408.62	15.138
408.98	14.048
409.34	14.188
409.69	13.760
410.05	13.424
410.40	14.198
410.76	14.355
411.11	13.750
411.47	14.070
411.83	13.622
412.18	13.449
412.54	14.357
412.89	13.054
413.25	14.862
413.60	13.354
413.96	13.988
414.31	14.207
414.67	13.534
415.03	13.116
415.38	13.120
415.74	14.332
416.09	13.717
416.45	15.192
416.80	12.954
417.16	14.088
417.51	14.257
417.87	12.777
418.22	13.795
418.58	12.776
418.93	13.856
419.29	13.060
419.64	13.610
420.00	15.176
420.35	13.433
420.71	13.730
421.06	13.198
421.42	14.603
421.77	13.121
422.12	13.337
422.48	13.481
422.83	12.993
423.19	13.995
423.54	12.934
423.90	12.485
424.25	13.777
424.61	13.892
424.96	13.879
425.31	14.385
425.67	13.908
426.02	13.781
426.38	13.651
426.73	13.196
427.09	14.304
427.44	13.353
427.79	13.730
428.15	14.867
428.50	12.780
428.85	14.005
429.21	14.148
429.56	13.423
429.92	13.765
430.27	12.982
430.62	13.068
430.98	13.163
431.33	13.933
431.68	13.501
432.04	13.359
432.39	13.691
432.74	12.989
433.10	13.793
433.45	13.023
433.80	13.291
434.16	13.684
434.51	13.333
434.86	14.053
435.22	13.517
435.57	13.974
435.92	13.653
436.28	13.238
436.63	13.577
436.98	12.746
437.34	13.551
437.69	13.417
438.04	13.333
438.39	12.706
438.75	12.750
439.10	13.696
439.45	13.268
439.81	12.416
440.16	13.539
440.51	13.612
440.86	13.897
441.22	13.914
441.57	13.079
441.92	13.589
442.27	13.359
442.63	14.400
442.98	13.843
443.33	13.189
443.68	13.422
444.03	13.711
444.39	13.084
444.74	13.935
445.09	12.416
445.44	13.675
445.79	14.234
446.15	13.546
446.50	13.256
446.85	13.762
447.20	13.295
447.55	13.839
447.91	13.198
448.26	13.660
448.61	14.335
448.96	13.138
449.31	12.601
449.66	13.124
450.02	13.748
450.37	13.693
450.72	13.517
451.07	13.354
451.42	12.984
451.77	13.080
452.12	12.799
452.47	12.814
452.83	13.369
453.18	13.915
453.53	13.338
453.88	13.358
454.23	13.337
454.58	13.854
454.93	13.209
455.28	12.635
455.63	12.957
455.98	13.650
456.34	12.963
456.69	12.834
457.04	14.052
457.39	13.123
457.74	13.059
458.09	12.537
458.44	13.341
458.79	12.997
459.14	13.673
459.49	13.731
459.84	12.803
460.19	13.410
460.54	13.447
460.89	12.557
461.24	12.298
461.59	13.064
461.94	11.887
462.29	13.631
462.64	12.824
462.99	12.864
463.34	12.239
463.69	13.514
464.04	12.470
464.39	13.341
464.74	12.638
465.09	12.601
465.44	12.464
465.79	12.755
466.14	12.771
466.49	12.133
466.84	13.385
467.19	13.830
467.54	12.452
467.89	12.255
468.24	11.922
468.59	12.381
468.94	12.127
469.29	13.508
469.64	13.465
469.99	13.385
470.34	11.126
470.68	12.901
471.03	14.154
471.38	12.910
471.73	13.585
472.08	12.890
472.43	11.745
472.78	12.680
473.13	12.653
473.48	12.964
473.83	11.955
474.17	12.824
474.52	12.827
474.87	12.485
475.22	11.897
475.57	12.648
475.92	12.891
476.27	12.980
476.61	12.674
476.96	11.935
477.31	12.169
477.66	12.640
478.01	12.353
478.36	11.983
478.70	13.105
479.05	12.692
479.40	12.030
479.75	12.252
480.10	12.545
480.45	12.300
480.79	12.236
481.14	12.346
481.49	12.069
481.84	12.162
482.19	12.956
482.53	12.758
482.88	11.933
483.23	12.428
483.58	12.170
483.92	12.246
484.27	12.261
484.62	12.506
484.97	11.899
485.31	11.452
485.66	11.338
486.01	11.471
486.36	11.634
486.70	12.252
487.05	12.084
487.40	11.634
487.75	11.859
488.09	11.650
488.44	12.139
488.79	12.327
489.13	11.939
489.48	12.398
489.83	12.197
490.17	12.315
490.52	11.824
490.87	11.754
491.22	11.939
491.56	12.192
491.91	11.616
492.26	11.570
492.60	12.044
492.95	12.248
493.30	11.627
493.64	11.739
493.99	11.836
494.34	11.602
494.68	11.857
495.03	11.727
495.37	11.973
495.72	11.964
496.07	11.659
496.41	12.264
496.76	11.193
497.11	11.178
497.45	11.981
497.80	11.403
498.14	11.674
498.49	11.478
498.84	11.677
499.18	11.797
499.53	12.004
499.87	11.284
500.22	10.930
500.56	11.498
500.91	11.596
501.26	11.073
501.60	11.313
501.95	11.257
502.29	11.186
502.64	11.873
502.98	11.396
503.33	10.903
503.67	10.988
504.02	11.877
504.36	11.677
504.71	10.606
505.06	11.726
505.40	11.117
505.75	11.546
506.09	11.860
506.44	11.602
506.78	11.327
507.13	11.479
507.47	11.070
507.82	10.470
508.16	11.146
508.51	11.018
508.85	11.722
509.19	11.016
509.54	11.528
509.88	10.356
510.23	11.619
510.57	11.064
510.92	9.915
511.26	10.857
511.61	11.441
511.95	11.123
512.30	11.308
512.64	11.519
512.98	10.780
513.33	11.360
513.67	11.029
514.02	11.957
514.36	12.057
514.70	11.772
515.05	11.163
515.39	11.275
515.74	12.036
516.08	10.699
516.42	11.602
516.77	11.293
517.11	10.742
517.46	11.251
517.80	10.965
518.14	11.023
518.49	10.457
518.83	10.753
519.17	10.552
519.52	11.190
519.86	11.285
520.20	10.450
520.55	10.694
520.89	11.920
521.23	10.956
521.58	11.483
521.92	11.410
522.26	11.451
522.61	10.974
522.95	11.987
523.29	10.991
523.64	11.690
523.98	11.860
524.32	10.116
524.66	11.716
525.01	11.623
525.35	11.536
525.69	10.505
526.04	10.516
526.38	12.127
526.72	10.399
527.06	11.349
527.41	11.478
527.75	10.590
528.09	11.561
528.43	11.816
528.78	11.287
529.12	11.290
529.46	10.591
529.80	11.400
530.15	11.551
530.49	11.717
530.83	11.012
531.17	11.216
531.51	12.380
531.86	10.877
532.20	10.786
532.54	11.300
532.88	11.362
533.22	11.358
533.57	11.468
533.91	9.791
534.25	11.914
534.59	11.802
534.93	11.202
535.27	10.216
535.62	10.305
535.96	11.024
536.30	11.939
536.64	10.613
536.98	10.244
537.32	11.522
537.66	11.781
538.01	11.189
538.35	10.402
538.69	11.718
539.03	11.210
539.37	10.834
539.71	10.975
540.05	10.726
540.39	11.842
540.73	10.879
541.07	10.843
541.42	12.500
541.76	11.493
542.10	11.218
542.44	10.980
542.78	10.255
543.12	10.577
543.46	12.170
543.80	11.312
544.14	10.147
544.48	11.659
544.82	11.141
545.16	10.929
545.50	11.015
545.84	11.756
546.18	11.135
546.52	10.526
546.86	10.927
547.20	10.587
547.54	9.329
547.88	10.462
548.22	11.045
548.56	11.016
548.90	10.782
549.24	10.606
549.58	10.719
549.92	10.079
550.26	10.916
550.60	11.004
550.94	11.202
551.28	9.815
551.62	10.769
551.96	10.376
552.30	9.722
552.64	10.790
552.98	10.970
553.32	9.986
553.66	9.724
554.00	10.219
554.34	11.152
554.68	10.472
555.02	10.565
555.36	10.247
555.69	9.817
556.03	9.993
556.37	9.751
556.71	10.325
557.05	10.962
557.39	10.483
557.73	9.520
558.07	9.879
558.41	10.490
558.75	10.834
559.08	10.402
559.42	10.238
559.76	9.688
560.10	9.939
560.44	9.903
560.78	10.629
561.12	10.578
561.45	10.190
561.79	10.294
562.13	10.433
562.47	8.849
562.81	9.942
563.15	10.367
563.48	10.396
563.82	10.089
564.16	9.749
564.50	10.270
564.84	10.910
565.17	9.658
565.51	9.699
565.85	11.111
566.19	10.544
566.52	10.054
566.86	11.568
567.20	9.651
567.54	10.280
567.88	10.603
568.21	10.860
568.55	9.946
568.89	10.883
569.23	10.255
569.56	9.676
569.90	10.150
570.24	10.160
570.57	10.073
570.91	10.631
571.25	9.767
571.59	9.997
571.92	9.689
572.26	9.511
572.60	10.016
572.93	10.260
573.27	9.718
573.61	9.875
573.95	9.885
574.28	9.799
574.62	9.764
574.96	9.948
575.29	9.844
575.63	9.432
575.97	9.650
576.30	9.643
576.64	9.510
576.98	9.704
577.31	9.708
577.65	9.679
577.98	9.890
578.32	9.531
578.66	9.478
578.99	9.897
579.33	9.793
579.67	9.967
580.00	9.696
580.34	9.776
580.67	9.224
581.01	9.966
581.35	9.690
581.68	9.722
582.02	9.378
582.35	9.842
582.69	9.739
583.02	9.763
583.36	10.078
583.70	9.839
584.03	9.953
584.37	10.390
584.70	9.780
585.04	9.275
585.37	9.926
585.71	9.405
586.04	9.708
586.38	9.389
586.72	9.957
587.05	10.110
587.39	10.092
587.72	10.224
588.06	9.687
588.39	9.940
588.73	10.195
589.06	10.241
589.40	9.955
589.73	10.004
590.07	9.856
590.40	9.946
590.73	9.926
591.07	9.796
591.40	9.840
591.74	10.226
592.07	9.833
592.41	10.247
592.74	9.837
593.08	9.046
593.41	9.885
593.75	9.585
594.08	9.543
594.41	10.153
594.75	9.580
595.08	9.459
595.42	9.974
595.75	9.989
596.09	9.734
596.42	9.673
596.75	9.991
597.09	10.478
597.42	10.117
597.75	10.124
598.09	9.507
598.42	9.477
598.76	9.481
599.09	9.976
599.42	9.663
599.76	9.556
600.09	10.030
600.42	9.856
600.76	9.881
601.09	9.542
601.42	9.597
601.76	9.726
602.09	8.952
602.42	9.646
602.76	9.465
603.09	9.219
603.42	10.033
603.76	9.113
604.09	9.883
604.42	9.349
604.76	9.969
605.09	9.963
605.42	9.842
605.75	9.370
606.09	9.639
606.42	9.425
606.75	9.740
607.09	10.198
607.42	9.304
607.75	9.281
608.08	9.659
608.42	9.548
608.75	9.590
609.08	9.367
609.41	9.848
609.75	9.829
610.08	9.785
610.41	9.517
610.74	9.556
611.07	9.716
611.41	9.497
611.74	10.288
612.07	8.887
612.40	9.300
612.73	9.153
613.07	9.055
613.40	9.902
613.73	8.394
614.06	10.128
614.39	9.475
614.72	9.524
615.06	10.056
615.39	9.662
615.72	9.526
616.05	9.553
616.38	8.889
616.71	8.807
617.05	10.006
617.38	9.742
617.71	8.742
618.04	9.460
618.37	10.530
618.70	9.307
619.03	11.319
619.36	8.828
619.69	10.235
620.03	9.569
620.36	9.514
620.69	9.422
621.02	9.404
621.35	10.041
621.68	9.949
622.01	9.417
622.34	9.896
622.67	10.647
623.00	9.571
623.33	9.527
623.66	9.349
623.99	8.623
624.32	9.354
624.65	9.398
624.99	9.330
625.32	9.325
625.65	10.291
625.98	9.428
626.31	9.310
626.64	10.919
626.97	10.995
627.30	9.895
627.63	9.012
627.96	9.704
628.29	9.436
628.62	10.914
628.95	11.122
629.28	9.778
629.61	9.970
629.94	9.971
630.26	9.585
630.59	10.302
630.92	9.744
631.25	10.359
631.58	10.683
631.91	7.566
632.24	9.060
632.57	10.341
632.90	9.015
633.23	9.882
633.56	9.950
633.89	8.508
634.22	10.741
634.55	10.165
634.88	9.834
635.20	8.974
635.53	9.600
635.86	8.192
636.19	9.314
636.52	9.566
636.85	8.809
637.18	8.176
637.51	9.057
637.83	9.330
638.16	9.823
638.49	8.856
638.82	11.579
639.15	8.141
639.48	10.316
639.81	9.623
640.13	7.215
640.46	10.350
640.79	9.426
641.12	9.453
641.45	11.712
641.77	9.481
642.10	11.058
642.43	8.199
642.76	8.251
643.09	10.985
643.41	11.812
643.74	9.885
644.07	10.181
644.40	11.824
644.73	9.282
645.05	8.725
645.38	10.406
645.71	9.043
646.04	9.515
646.36	10.284
646.69	9.353
647.02	10.964
647.35	8.769
647.67	9.689
648.00	8.582
648.33	10.410
648.66	11.017
648.98	8.208
649.31	7.273
649.64	9.419
649.96	7.942
650.29	9.370
650.62	10.427
650.94	9.815
651.27	6.704
651.60	12.072
651.92	9.091
652.25	8.348
652.58	8.667
652.90	9.777
653.23	9.412
653.56	9.814
653.88	8.935
654.21	8.231
654.54	9.677
654.86	9.847
655.19	8.480
655.52	9.598
655.84	8.591
656.17	9.495
656.49	12.773
656.82	13.782
657.15	10.889
657.47	8.194
657.80	6.058
658.13	6.052
658.45	9.190
658.78	9.893
659.10	9.596
659.43	9.042
659.75	9.127
660.08	9.448
660.41	10.010
660.73	11.326
661.06	9.532
661.38	7.045
661.71	8.830
662.03	10.300
662.36	8.791
662.68	9.292
663.01	10.480
663.33	4.872
663.66	8.372
663.98	9.070
664.31	9.382
664.63	6.682
664.96	6.522
665.28	5.077
665.61	7.792
665.93	9.130
666.26	8.894
666.58	9.620
666.91	5.882
667.23	10.377
667.56	7.820
667.88	10.072
668.21	10.979
668.53	8.747
668.86	9.198
669.18	8.726
669.50	10.169
669.83	10.465
670.15	9.091
670.48	6.459
670.80	10.599
671.13	9.172
671.45	7.763
671.77	11.373
672.10	10.495
672.42	8.989
672.75	9.591
673.07	11.270
673.39	10.092
673.72	5.917
674.04	9.167
674.37	7.627
674.69	7.709
675.01	11.778
675.34	8.784
675.66	10.185
675.98	9.534
676.31	8.716
676.63	7.363
676.95	6.818
677.28	11.765
677.60	9.639
677.92	8.486
678.25	9.628
678.57	8.225
678.89	8.613
679.22	7.830
679.54	10.040
679.86	7.555
680.18	7.184
680.51	8.523
680.83	8.946
681.15	11.000
681.48	10.861
681.80	9.711
682.12	11.290
682.44	7.113
682.77	12.583
683.09	9.153
683.41	7.955
683.73	8.986
684.06	8.407
684.38	5.591
684.70	11.329
685.02	8.091
685.34	7.708
685.67	8.068
685.99	8.318
686.31	8.319
686.63	9.462
686.96	7.985
687.28	5.051
687.60	8.555
687.92	9.697
688.24	8.669
688.56	8.079
688.89	9.821
689.21	11.333
689.53	9.281
689.85	8.140
690.17	11.384
690.49	9.456
690.82	7.282
691.14	5.238
691.46	7.710
691.78	9.910
692.10	10.108
692.42	6.277
692.74	7.692
693.06	6.081
693.39	6.109
693.71	7.240
694.03	5.543
694.35	9.112
694.67	7.071
694.99	7.833
695.31	10.966
695.63	8.250
695.95	6.566
696.27	8.549
696.59	10.000
696.91	5.602
697.23	5.398
697.56	7.673
697.88	10.323
698.20	7.973
698.52	9.882
698.84	6.938
699.16	5.250
699.48	9.273
699.80	8.685
700.12	7.547
700.44	6.723
700.76	6.395
701.08	6.364
701.40	6.627
701.72	10.494
702.04	10.891
702.36	10.033
702.68	10.210
703.00	9.091
703.32	8.211
703.64	5.932
703.96	8.406
704.28	10.429
704.60	7.619
704.91	5.678
705.23	6.645
705.55	11.307
705.87	10.469
706.19	9.630
706.51	9.622
706.83	8.682
707.15	4.673
707.47	9.804
707.79	9.115
708.11	8.750
708.43	10.500
708.74	11.628
709.06	9.577
709.38	10.398
709.70	13.018
710.02	9.236
710.34	10.217
710.66	5.769
710.98	7.616
711.29	9.508
711.61	7.458
711.93	9.446
712.25	9.966
712.57	9.890
712.89	5.970
713.20	8.304
713.52	4.878
713.84	7.167
714.16	7.560
714.48	6.129
714.80	10.897
715.11	10.638
715.43	5.016
715.75	5.667
716.07	8.638
716.39	4.027
716.70	9.963
717.02	4.198
717.34	10.526
717.66	6.637
717.97	9.130
718.29	6.695
718.61	11.024
718.93	10.465
719.24	9.886
719.56	8.032
719.88	6.529
720.20	8.712
720.51	4.981
720.83	6.178
721.15	7.563
721.46	4.435
721.78	5.534
722.10	5.576
722.42	6.639
722.73	6.939
723.05	10.612
723.37	8.475
723.68	9.910
724.00	8.120
724.32	8.889
724.63	5.909
724.95	2.183
725.27	5.530
725.58	10.593
725.90	5.556
726.22	6.950
726.53	8.475
726.85	11.236
727.16	10.566
727.48	2.024
727.80	6.478
728.11	8.898
728.43	7.451
728.74	-1.613
729.06	10.800
729.38	16.917
729.69	6.773
730.01	3.462
730.32	10.821
730.64	13.074
730.96	9.434
731.27	7.667
731.59	7.119
731.90	9.236
732.22	9.779
732.53	8.306
732.85	9.929
733.16	13.131
733.48	2.518
733.80	6.522
734.11	8.136
734.43	5.155
734.74	9.394
735.06	2.280
735.37	9.970
735.69	8.418
736.00	7.317
736.32	8.725
736.63	10.915
736.95	9.898
737.26	5.338
737.58	7.718
737.89	6.593
738.21	7.143
738.52	7.819
738.83	6.550
739.15	3.493
739.46	9.449
739.78	2.198
740.09	6.863
740.41	4.710
740.72	6.299
741.04	10.121
741.35	6.383
741.66	6.161
741.98	6.122
742.29	6.436
742.61	3.141
742.92	-1.896
743.23	0.000
743.55	7.240
743.86	6.220
744.18	4.785
744.49	5.851
744.80	5.978
745.12	13.369
745.43	7.317
745.74	5.729
746.06	0.488
746.37	1.571
746.68	9.953
747.00	1.596
747.31	10.448
747.62	5.825
747.94	8.134
748.25	5.446
748.56	3.279
748.88	8.377
749.19	6.383
749.50	4.926
749.82	0.472
750.13	1.835
750.44	12.030
750.75	11.567
751.07	10.219
751.38	8.046
751.69	3.529
752.01	9.302
752.32	7.968
752.63	5.138
752.94	2.586
753.26	10.879
753.57	4.525
753.88	7.965
754.19	5.417
754.51	8.264
754.82	3.239
755.13	11.667
755.44	8.468
755.75	11.328
756.07	6.226
756.38	6.415
756.69	4.598
757.00	8.000
757.31	7.516
757.63	3.354
757.94	8.611
758.25	3.014
758.56	7.181
758.87	6.232
759.18	8.723
759.50	7.273
759.81	9.699
760.12	8.710
760.43	9.394
760.74	8.333
761.05	7.077
761.36	6.534
761.67	9.091
761.99	8.503
762.30	6.545
762.61	5.929
762.92	7.692
763.23	6.757
763.54	5.140
763.85	2.542
764.16	6.639
764.47	6.452
764.78	8.425
765.10	10.101
765.41	7.571
765.72	8.889
766.03	3.759
766.34	6.569
766.65	11.155
766.96	9.596
767.27	11.702
767.58	6.322
767.89	0.000
768.20	7.386
768.51	1.648
768.82	5.911
769.13	2.304
769.44	7.725
769.75	3.196
770.06	5.172
770.37	13.942
770.68	1.015
770.99	4.525
771.30	14.706
771.61	9.502
771.92	10.345
772.23	12.315
772.54	9.677
772.85	4.321
773.16	6.180
773.47	6.536
773.78	2.614
774.09	4.192
774.39	7.333
774.70	3.185
775.01	13.103
775.32	11.429
775.63	1.653
775.94	9.160
776.25	10.236
776.56	2.500
776.87	8.654
777.18	-6.838
777.48	11.207
777.79	6.087
778.10	-13.333
778.41	-9.910
778.72	6.349
779.03	0.000
779.34	9.929
779.65	6.164
779.95	4.795
780.26	-1.379
780.57	-3.252
780.88	0.787
781.19	0.000
781.50	10.078
781.80	9.467
782.11	-1.258
782.42	4.615
782.73	-4.317
783.04	8.148
783.34	4.167
783.65	-5.983
783.96	9.016
784.27	8.276
784.57	-2.439
784.88	5.469
785.19	8.000
785.50	9.000
785.81	18.103
786.11	3.448
786.42	3.883
786.73	7.273
787.04	4.082
787.34	7.143
787.65	3.810
787.96	4.425
788.26	0.909
788.57	6.838
788.88	0.781
789.19	-1.587
789.49	9.565
789.80	1.020
790.11	9.091
790.41	3.636
790.72	16.304
791.03	5.682
791.33	10.000
791.64	-7.500
791.95	2.326
792.25	10.638
792.56	-4.494
792.87	8.219
793.17	-4.348
793.48	-6.667
793.79	-11.250
794.09	11.250
794.40	1.887
794.70	-7.767
795.01	6.504
795.32	-4.274
795.62	-2.857
795.93	2.941
796.23	9.434
796.54	5.208
796.85	-7.353
797.15	1.408
797.46	5.556
797.76	10.606
798.07	-9.302
798.37	0.000
798.68	-4.545
798.99	3.704
799.29	10.000
799.60	-7.246
799.90	9.333
800.21	9.836
800.51	7.692
800.82	-3.390
801.12	7.246
801.43	-4.918
801.73	-3.175
802.04	6.000
802.34	-7.463
802.65	0.000
802.95	-3.571
803.26	-17.308
803.56	15.686
803.87	-10.870
804.17	5.333
804.48	-4.762
804.78	-5.556
805.09	-15.217
805.39	-11.111
805.70	0.000
806.00	-40.351
806.30	5.634
806.61	2.857
806.91	-20.833
807.22	5.263
807.52	5.333
807.83	-14.545
808.13	9.722
808.43	14.706
808.74	4.478
809.04	-15.254
809.35	-21.154
809.65	-1.562
809.95	-35.135
810.26	-15.909
810.56	4.110
810.86	9.524
811.17	-18.000
811.47	8.163
811.77	-7.895
812.08	-25.000
812.38	11.321
812.69	-2.500
812.99	-33.333
813.29	-10.526
813.59	-42.857
813.90	-6.818
814.20	-33.333
814.50	9.615
814.81	15.094
815.11	-14.894
815.41	6.780
815.72	-28.571
816.02	19.608
816.32	16.667
816.62	-24.390
816.93	-24.324
817.23	-31.429
817.53	12.500
817.84	-15.217
818.14	5.769
818.44	-39.474
818.74	-2.174
819.04	-37.500
819.35	-10.811
819.65	8.824
819.95	-27.778
820.25	-11.905
820.56	0.000
820.86	-34.483
821.16	22.500
821.46	6.383
821.76	-12.500
822.07	-18.605
822.37	-5.405
822.67	-25.000
822.97	-4.762
823.27	-32.143
823.57	-20.000
823.88	-51.852
824.18	-32.143
824.48	-14.706
824.78	-16.129
825.08	-4.348
825.38	-27.273
825.69	-62.500
825.99	-7.895
826.29	-25.000
826.59	-26.667
826.89	-114.286
827.19	-2.174
827.49	-10.000
827.79	-5.714
828.09	-39.286
828.39	21.212
828.70	16.216
829.00	-35.714
829.30	-61.905
829.60	-26.667
829.90	0.000
830.20	0.000
830.50	-37.037
830.80	0.000
831.10	-27.273
831.40	6.061
831.70	25.806
832.00	-23.810
832.30	-28.571
832.60	-100.000
832.90	-20.690
833.20	-55.000
833.50	-9.091
833.80	3.704
834.10	-19.231
834.40	31.250
834.70	-188.889
835.00	-26.316
835.30	46.154
835.60	-53.333
835.90	-16.129
836.20	-18.182
836.50	3.571
836.80	-26.923
837.10	-10.714
837.40	-733.333
837.70	-31.818
838.00	-136.364
838.30	-52.174
838.60	0.000
838.90	27.273
839.19	21.429
839.49	-6.667
839.79	-76.923
840.09	-83.333
840.39	35.714
840.69	-28.571
840.99	-65.385
841.29	-26.316
841.59	-80.000
841.88	-9.091
842.18	-40.000
842.48	-50.000
842.78	-40.000
843.08	18.519
843.38	-100.000
843.68	-21.739
843.97	-60.000
844.27	-53.333
844.57	-85.000
844.87	-66.667
845.17	-9.524
845.47	-53.333
845.76	-19.048
846.06	-5.882
846.36	-60.000
846.66	-50.000
846.96	20.000
847.25	-162.500
847.55	7.143
847.85	-162.500
848.15	-22.727
848.44	-900.000
848.74	-10.000
849.04	22.222
849.34	-90.909
849.63	-250.000
849.93	0.000
850.23	0.000
850.53	20.000
850.82	15.385
851.12	-77.778
851.42	-6.667
851.71	-46.154
852.01	35.714
852.31	-175.000
852.61	-81.818
852.90	-10.000
853.20	-15.789
853.50	25.000
853.79	-13.043
854.09	12.500
854.39	-26.316
854.68	-12.500
854.98	0.000
855.28	-30.769
855.57	-10.000
855.87	-16.667
856.17	3.704
856.46	-42.857
856.76	-60.000
857.05	11.111
857.35	12.000
857.65	-27.778
857.94	-69.231
858.24	-3.448
858.53	-11.111
858.83	0.000
859.13	-50.000
859.42	-17.391
859.72	-150.000
860.01	-433.333
860.31	16.000
860.60	-14.286
860.90	-133.333
861.20	-53.333
861.49	-350.000
861.79	-46.667
862.08	-70.000
862.38	66.667
862.67	-280.000
862.97	-133.333
863.26	-33.333
863.56	0.000
863.85	-666.667
864.15	-27.778
864.44	-40.000
864.74	114.286
865.03	150.000
865.33	-280.000
865.62	-166.667
865.92	0.000
866.21	-200.000
866.51	25.000
866.80	-72.727
867.10	-400.000
867.39	25.000
867.69	0.000
867.98	15.385
868.27	-166.667
868.57	-20.000
868.86	-11.111
869.16	-46.154
869.45	0.000
869.75	-1300.000
870.04	0.000
870.33	-128.571
870.63	23.810
870.92	366.667
871.22	-60.000
871.51	0.000
871.80	66.667
872.10	266.667
>>>>>End Processed Spectral Data<<<<<
