SpectraSuite Data File
++++++++++++++++++++++++++++++++++++
Date: Fri May 15 20:41:25 PDT 2015
User: schluterlab
Dark Spectrum Present: Yes
Reference Spectrum Present: Yes
Number of Sampled Component Spectra: 1
Spectrometers: USB2E3373
Integration Time (usec): 3000 (USB2E3373)
Spectra Averaged: 3 (USB2E3373)
Boxcar Smoothing: 0 (USB2E3373)
Correct for Electrical Dark: No (USB2E3373)
Strobe/Lamp Enabled: No (USB2E3373)
Correct for Detector Non-linearity: No (USB2E3373)
Correct for Stray Light: No (USB2E3373)
Number of Pixels in Processed Spectrum: 2048
>>>>>Begin Processed Spectral Data<<<<<
178.53	0.000
178.91	0.000
179.29	50.000
179.67	-250.000
180.04	-57.143
180.42	25.000
180.80	-400.000
181.18	66.667
181.56	450.000
181.94	450.000
182.31	200.000
182.69	60.000
183.07	-33.333
183.45	60.000
183.83	216.667
184.20	-36.364
184.58	100.000
184.96	-0.000
185.34	-100.000
185.72	-100.000
186.09	130.769
186.47	-1700.000
186.85	216.667
187.23	166.667
187.61	-700.000
187.98	33.333
188.36	0.000
188.74	-233.333
189.12	29.412
189.49	27.778
189.87	0.000
190.25	85.714
190.63	100.000
191.00	-233.333
191.38	-5.263
191.76	250.000
192.14	75.000
192.51	-50.000
192.89	-66.667
193.27	-42.857
193.65	166.667
194.02	100.000
194.40	20.000
194.78	37.500
195.15	0.000
195.53	-137.500
195.91	250.000
196.29	100.000
196.66	123.077
197.04	-71.429
197.42	-77.778
197.79	-500.000
198.17	-123.077
198.55	500.000
198.92	-333.333
199.30	400.000
199.68	-100.000
200.05	-200.000
200.43	0.000
200.81	-100.000
201.18	-200.000
201.56	800.000
201.94	-500.000
202.31	-100.000
202.69	-160.000
203.07	125.000
203.44	200.000
203.82	0.000
204.19	28.571
204.57	-433.333
204.95	100.000
205.32	-30.000
205.70	0.000
206.08	-150.000
206.45	166.667
206.83	121.429
207.20	-114.286
207.58	900.000
207.96	66.667
208.33	-80.000
208.71	-100.000
209.08	-216.667
209.46	200.000
209.84	-260.000
210.21	-200.000
210.59	-28.571
210.96	16.667
211.34	125.000
211.71	-20.000
212.09	-100.000
212.46	-2000.000
212.84	0.000
213.22	50.000
213.59	950.000
213.97	7.692
214.34	109.091
214.72	-33.333
215.09	450.000
215.47	-46.154
215.84	-9.091
216.22	-100.000
216.59	-62.500
216.97	150.000
217.34	100.000
217.72	-140.000
218.09	0.000
218.47	212.500
218.84	-1300.000
219.22	-44.444
219.59	40.000
219.97	500.000
220.34	75.000
220.72	142.857
221.09	0.000
221.47	-350.000
221.84	-750.000
222.22	-300.000
222.59	18.182
222.97	41.667
223.34	-133.333
223.72	-14.286
224.09	19.048
224.46	10.714
224.84	233.333
225.21	-20.000
225.59	26.667
225.96	300.000
226.34	325.000
226.71	14.286
227.08	-133.333
227.46	-25.000
227.83	-650.000
228.21	88.889
228.58	54.545
228.95	-100.000
229.33	100.000
229.70	6.250
230.08	-50.000
230.45	-71.429
230.82	42.857
231.20	6.667
231.57	50.000
231.95	42.857
232.32	-100.000
232.69	50.000
233.07	66.667
233.44	-60.000
233.81	-50.000
234.19	-33.333
234.56	-47.059
234.93	450.000
235.31	125.000
235.68	-180.000
236.05	-7.692
236.43	20.000
236.80	-5.882
237.17	18.750
237.55	-25.000
237.92	33.333
238.29	13.889
238.67	3.333
239.04	2.941
239.41	7.317
239.79	6.667
240.16	31.707
240.53	18.421
240.91	8.696
241.28	12.698
241.65	26.786
242.02	31.507
242.40	25.000
242.77	20.339
243.14	25.758
243.51	17.500
243.89	33.333
244.26	12.644
244.63	15.476
245.00	17.526
245.38	22.680
245.75	19.101
246.12	23.276
246.49	16.529
246.87	18.269
247.24	24.370
247.61	20.175
247.98	26.829
248.36	24.375
248.73	30.263
249.10	29.870
249.47	20.253
249.84	24.183
250.22	27.647
250.59	16.993
250.96	26.761
251.33	14.535
251.70	28.824
252.08	21.827
252.45	23.267
252.82	18.593
253.19	25.806
253.56	18.224
253.94	28.378
254.31	23.478
254.68	28.070
255.05	21.654
255.42	21.397
255.79	26.255
256.16	25.292
256.54	26.866
256.91	23.954
257.28	20.446
257.65	20.225
258.02	23.759
258.39	23.569
258.76	22.344
259.14	24.917
259.51	26.861
259.88	21.993
260.25	25.490
260.62	26.736
260.99	22.034
261.36	22.260
261.73	23.418
262.10	22.492
262.47	21.166
262.85	22.257
263.22	22.462
263.59	23.053
263.96	27.950
264.33	23.636
264.70	22.917
265.07	22.619
265.44	23.229
265.81	27.684
266.18	21.585
266.55	25.707
266.92	26.166
267.29	20.888
267.66	23.274
268.03	24.084
268.40	25.587
268.77	25.936
269.14	25.180
269.51	23.650
269.88	25.686
270.25	23.724
270.62	24.878
270.99	23.018
271.36	20.538
271.73	22.066
272.10	24.574
272.47	25.059
272.84	25.000
273.21	25.290
273.58	26.265
273.95	24.485
274.32	23.095
274.69	20.814
275.06	24.330
275.43	22.902
275.80	23.400
276.17	21.609
276.54	21.199
276.91	24.123
277.28	21.397
277.65	26.653
278.02	24.894
278.39	22.976
278.76	24.528
279.13	21.369
279.50	21.008
279.87	22.462
280.23	21.505
280.60	23.197
280.97	22.020
281.34	21.731
281.71	25.873
282.08	21.268
282.45	22.701
282.82	20.656
283.19	22.631
283.56	23.699
283.92	20.304
284.29	21.154
284.66	21.899
285.03	21.611
285.40	19.849
285.77	21.090
286.14	22.924
286.51	24.354
286.87	20.110
287.24	22.836
287.61	21.869
287.98	23.509
288.35	21.664
288.72	20.665
289.08	21.181
289.45	21.265
289.82	19.930
290.19	19.966
290.56	21.955
290.93	21.044
291.29	18.644
291.66	22.047
292.03	20.574
292.40	18.871
292.77	20.255
293.13	17.208
293.50	19.879
293.87	19.084
294.24	21.020
294.60	18.182
294.97	19.792
295.34	21.472
295.71	18.778
296.08	18.685
296.44	15.932
296.81	18.611
297.18	18.841
297.55	20.325
297.91	20.822
298.28	19.789
298.65	18.996
299.02	18.329
299.38	16.689
299.75	18.069
300.12	18.063
300.48	18.841
300.85	18.758
301.22	17.532
301.59	17.237
301.95	17.215
302.32	18.029
302.69	18.657
303.05	17.203
303.42	19.178
303.79	18.107
304.15	18.757
304.52	16.647
304.89	17.895
305.25	15.981
305.62	17.153
305.99	17.661
306.35	18.150
306.72	16.760
307.09	17.446
307.45	17.681
307.82	17.361
308.19	18.699
308.55	17.230
308.92	18.519
309.29	18.659
309.65	18.084
310.02	17.712
310.38	18.661
310.75	19.016
311.12	18.837
311.48	17.815
311.85	19.895
312.22	17.932
312.58	19.108
312.95	18.250
313.31	18.841
313.68	18.848
314.05	20.408
314.41	20.515
314.78	20.412
315.14	20.863
315.51	21.532
315.87	20.594
316.24	21.234
316.61	21.260
316.97	21.825
317.34	21.484
317.70	21.893
318.07	21.538
318.43	22.745
318.80	22.064
319.16	23.633
319.53	24.501
319.89	23.228
320.26	23.887
320.62	24.473
320.99	24.217
321.35	24.872
321.72	25.234
322.08	25.076
322.45	25.279
322.81	25.540
323.18	24.730
323.54	26.931
323.91	26.388
324.27	28.125
324.64	26.217
325.00	27.372
325.37	28.650
325.73	27.924
326.10	28.883
326.46	29.148
326.83	29.134
327.19	30.340
327.56	30.669
327.92	31.250
328.29	30.714
328.65	31.698
329.01	30.790
329.38	31.521
329.74	32.483
330.11	32.252
330.47	31.354
330.84	30.865
331.20	32.510
331.56	31.296
331.93	33.059
332.29	32.081
332.66	31.765
333.02	32.156
333.38	31.989
333.75	33.608
334.11	32.229
334.48	32.820
334.84	32.326
335.20	33.211
335.57	31.913
335.93	33.695
336.29	33.057
336.66	32.970
337.02	32.342
337.38	31.944
337.75	32.273
338.11	33.363
338.47	33.577
338.84	35.120
339.20	32.084
339.56	33.211
339.93	33.035
340.29	33.486
340.65	33.961
341.02	34.220
341.38	33.009
341.74	32.420
342.11	33.362
342.47	34.609
342.83	34.170
343.20	33.449
343.56	33.043
343.92	33.215
344.28	33.903
344.65	32.297
345.01	33.708
345.37	33.726
345.73	33.138
346.10	35.030
346.46	33.053
346.82	33.552
347.19	33.583
347.55	33.751
347.91	33.981
348.27	33.064
348.63	34.157
349.00	32.240
349.36	34.331
349.72	34.328
350.08	32.787
350.45	33.839
350.81	33.887
351.17	32.410
351.53	34.857
351.89	33.196
352.26	33.120
352.62	35.161
352.98	33.735
353.34	32.770
353.70	34.385
354.07	33.871
354.43	32.426
354.79	35.012
355.15	35.397
355.51	34.256
355.87	34.304
356.24	33.524
356.60	34.196
356.96	34.524
357.32	34.026
357.68	33.151
358.04	34.006
358.40	33.601
358.77	35.008
359.13	34.027
359.49	33.051
359.85	35.413
360.21	35.885
360.57	34.583
360.93	34.115
361.29	33.308
361.66	34.561
362.02	33.788
362.38	34.882
362.74	34.595
363.10	36.042
363.46	35.878
363.82	36.814
364.18	35.498
364.54	36.324
364.90	34.910
365.26	35.226
365.62	36.350
365.98	36.070
366.35	36.781
366.71	35.920
367.07	34.978
367.43	35.298
367.79	34.346
368.15	36.253
368.51	35.980
368.87	34.817
369.23	35.596
369.59	35.787
369.95	36.364
370.31	35.549
370.67	35.746
371.03	36.445
371.39	35.813
371.75	36.777
372.11	36.733
372.47	37.944
372.83	37.828
373.19	36.519
373.55	36.462
373.91	37.005
374.27	36.074
374.63	37.258
374.99	36.950
375.35	36.908
375.71	36.923
376.07	37.079
376.42	36.667
376.78	37.919
377.14	36.222
377.50	37.716
377.86	37.751
378.22	37.269
378.58	36.923
378.94	37.429
379.30	36.432
379.66	37.743
380.02	37.768
380.38	37.066
380.74	37.223
381.09	37.853
381.45	37.554
381.81	37.878
382.17	36.294
382.53	38.164
382.89	37.916
383.25	37.834
383.61	38.476
383.97	38.286
384.32	37.961
384.68	37.895
385.04	37.623
385.40	37.523
385.76	39.182
386.12	38.551
386.48	40.102
386.83	37.793
387.19	38.034
387.55	39.962
387.91	37.836
388.27	37.485
388.62	38.074
388.98	38.060
389.34	37.726
389.70	38.347
390.06	37.697
390.42	38.018
390.77	38.391
391.13	38.777
391.49	38.357
391.85	39.701
392.20	38.293
392.56	38.017
392.92	39.166
393.28	38.561
393.64	38.559
393.99	39.875
394.35	39.279
394.71	39.847
395.07	37.775
395.42	38.373
395.78	38.502
396.14	38.272
396.50	39.315
396.85	38.571
397.21	39.662
397.57	38.370
397.92	39.185
398.28	39.138
398.64	38.133
399.00	40.068
399.35	37.867
399.71	37.679
400.07	39.480
400.42	37.821
400.78	39.314
401.14	38.899
401.49	39.011
401.85	38.574
402.21	39.518
402.57	38.750
402.92	38.331
403.28	39.536
403.63	38.966
403.99	39.413
404.35	38.726
404.70	38.155
405.06	38.367
405.42	39.093
405.77	38.466
406.13	38.999
406.49	38.603
406.84	39.853
407.20	39.554
407.55	38.313
407.91	39.439
408.27	37.922
408.62	39.938
408.98	38.817
409.34	38.786
409.69	37.984
410.05	37.993
410.40	40.062
410.76	39.988
411.11	39.562
411.47	39.908
411.83	39.360
412.18	39.511
412.54	38.390
412.89	37.931
413.25	39.531
413.60	39.503
413.96	38.344
414.31	38.720
414.67	39.128
415.03	38.815
415.38	38.838
415.74	39.674
416.09	37.949
416.45	38.420
416.80	39.128
417.16	40.401
417.51	39.174
417.87	39.374
418.22	40.155
418.58	39.866
418.93	41.003
419.29	38.284
419.64	40.700
420.00	41.688
420.35	38.806
420.71	40.340
421.06	39.779
421.42	39.844
421.77	39.942
422.12	38.365
422.48	39.090
422.83	39.327
423.19	40.293
423.54	39.800
423.90	39.399
424.25	40.126
424.61	39.780
424.96	39.547
425.31	40.728
425.67	41.138
426.02	41.755
426.38	42.204
426.73	41.344
427.09	41.835
427.44	41.353
427.79	41.603
428.15	41.080
428.50	41.066
428.85	40.541
429.21	40.238
429.56	41.509
429.92	41.037
430.27	41.053
430.62	40.565
430.98	41.454
431.33	41.746
431.68	40.869
432.04	42.370
432.39	40.958
432.74	42.093
433.10	41.897
433.45	41.995
433.80	42.484
434.16	41.717
434.51	40.806
434.86	42.973
435.22	41.279
435.57	42.795
435.92	42.335
436.28	41.920
436.63	41.928
436.98	41.425
437.34	41.258
437.69	42.039
438.04	42.393
438.39	41.967
438.75	44.019
439.10	42.558
439.45	42.179
439.81	42.263
440.16	43.112
440.51	43.104
440.86	44.894
441.22	43.326
441.57	42.715
441.92	42.865
442.27	43.071
442.63	42.934
442.98	42.447
443.33	42.126
443.68	43.501
444.03	43.368
444.39	42.892
444.74	44.147
445.09	43.931
445.44	45.014
445.79	44.198
446.15	44.548
446.50	44.093
446.85	44.474
447.20	42.961
447.55	43.973
447.91	43.824
448.26	44.394
448.61	43.063
448.96	44.578
449.31	43.526
449.66	44.657
450.02	43.697
450.37	45.050
450.72	43.872
451.07	45.063
451.42	44.195
451.77	44.063
452.12	43.122
452.47	45.589
452.83	45.171
453.18	43.960
453.53	44.753
453.88	44.991
454.23	44.438
454.58	45.844
454.93	45.361
455.28	42.349
455.63	45.443
455.98	45.400
456.34	42.912
456.69	44.854
457.04	44.865
457.39	44.897
457.74	44.075
458.09	43.732
458.44	44.822
458.79	44.426
459.14	44.680
459.49	44.299
459.84	43.486
460.19	44.842
460.54	43.826
460.89	44.545
461.24	45.652
461.59	45.368
461.94	43.585
462.29	43.727
462.64	45.183
462.99	44.821
463.34	42.907
463.69	44.981
464.04	44.007
464.39	44.209
464.74	43.988
465.09	44.292
465.44	44.662
465.79	43.991
466.14	44.356
466.49	44.048
466.84	44.081
467.19	44.493
467.54	44.189
467.89	44.852
468.24	44.586
468.59	46.095
468.94	44.635
469.29	44.984
469.64	43.814
469.99	46.111
470.34	46.143
470.68	45.712
471.03	45.648
471.38	46.291
471.73	44.468
472.08	44.640
472.43	44.497
472.78	44.825
473.13	45.102
473.48	45.928
473.83	45.766
474.17	45.920
474.52	44.161
474.87	44.970
475.22	44.112
475.57	43.478
475.92	45.255
476.27	44.994
476.61	46.586
476.96	42.666
477.31	44.889
477.66	43.483
478.01	45.705
478.36	44.499
478.70	45.786
479.05	45.385
479.40	44.939
479.75	43.743
480.10	45.059
480.45	43.950
480.79	46.022
481.14	45.441
481.49	43.005
481.84	45.319
482.19	43.732
482.53	44.748
482.88	43.580
483.23	44.242
483.58	43.726
483.92	43.804
484.27	43.482
484.62	43.926
484.97	43.408
485.31	43.172
485.66	41.698
486.01	40.915
486.36	40.527
486.70	41.532
487.05	41.836
487.40	43.020
487.75	43.239
488.09	42.583
488.44	43.707
488.79	44.229
489.13	43.870
489.48	44.207
489.83	43.767
490.17	44.674
490.52	44.758
490.87	43.591
491.22	43.075
491.56	43.975
491.91	43.117
492.26	45.211
492.60	44.962
492.95	45.893
493.30	43.820
493.64	44.204
493.99	44.251
494.34	43.786
494.68	43.905
495.03	44.526
495.37	43.916
495.72	44.573
496.07	44.439
496.41	44.104
496.76	44.265
497.11	43.922
497.45	44.296
497.80	44.248
498.14	44.014
498.49	42.966
498.84	43.513
499.18	45.030
499.53	44.196
499.87	43.482
500.22	42.928
500.56	44.175
500.91	44.880
501.26	43.599
501.60	43.581
501.95	44.493
502.29	43.680
502.64	44.064
502.98	44.894
503.33	43.276
503.67	43.904
504.02	44.184
504.36	44.879
504.71	43.535
505.06	44.238
505.40	42.944
505.75	44.742
506.09	43.588
506.44	44.918
506.78	44.541
507.13	44.674
507.47	42.977
507.82	43.910
508.16	44.532
508.51	44.858
508.85	44.165
509.19	43.640
509.54	44.021
509.88	43.312
510.23	45.024
510.57	44.468
510.92	43.230
511.26	44.463
511.61	44.389
511.95	44.603
512.30	45.233
512.64	44.519
512.98	43.571
513.33	44.432
513.67	44.969
514.02	45.309
514.36	46.629
514.70	45.513
515.05	45.652
515.39	44.746
515.74	45.569
516.08	45.188
516.42	45.289
516.77	45.699
517.11	44.985
517.46	45.661
517.80	45.352
518.14	44.887
518.49	45.553
518.83	44.957
519.17	44.391
519.52	44.227
519.86	45.018
520.20	45.504
520.55	45.654
520.89	45.922
521.23	44.649
521.58	46.625
521.92	46.795
522.26	44.828
522.61	46.039
522.95	46.755
523.29	45.870
523.64	46.379
523.98	46.792
524.32	46.070
524.66	45.775
525.01	46.364
525.35	46.857
525.69	45.589
526.04	45.966
526.38	46.693
526.72	44.931
527.06	45.785
527.41	46.240
527.75	44.839
528.09	45.515
528.43	47.130
528.78	45.611
529.12	45.871
529.46	45.809
529.80	45.155
530.15	46.073
530.49	46.061
530.83	46.375
531.17	44.795
531.51	46.375
531.86	45.887
532.20	45.303
532.54	44.384
532.88	46.064
533.22	46.909
533.57	45.216
533.91	45.431
534.25	46.094
534.59	44.387
534.93	44.997
535.27	44.607
535.62	43.746
535.96	44.879
536.30	44.459
536.64	45.417
536.98	44.878
537.32	47.084
537.66	45.792
538.01	45.175
538.35	46.047
538.69	44.075
539.03	44.566
539.37	45.491
539.71	43.899
540.05	43.924
540.39	45.706
540.73	44.561
541.07	45.235
541.42	44.825
541.76	44.804
542.10	45.010
542.44	43.919
542.78	43.014
543.12	44.299
543.46	44.854
543.80	44.344
544.14	42.323
544.48	45.170
544.82	44.224
545.16	44.604
545.50	44.459
545.84	45.680
546.18	44.539
546.52	44.917
546.86	44.213
547.20	44.063
547.54	44.028
547.88	44.022
548.22	43.327
548.56	43.140
548.90	44.879
549.24	42.975
549.58	43.794
549.92	42.888
550.26	43.516
550.60	44.833
550.94	45.631
551.28	45.054
551.62	45.692
551.96	45.940
552.30	44.664
552.64	42.736
552.98	43.601
553.32	43.795
553.66	44.485
554.00	45.182
554.34	45.052
554.68	45.206
555.02	45.164
555.36	44.503
555.69	44.029
556.03	43.754
556.37	44.555
556.71	43.827
557.05	43.922
557.39	42.900
557.73	44.153
558.07	45.098
558.41	43.798
558.75	44.973
559.08	44.208
559.42	45.079
559.76	44.836
560.10	44.954
560.44	43.634
560.78	43.916
561.12	42.877
561.45	43.710
561.79	42.997
562.13	43.364
562.47	42.374
562.81	43.588
563.15	42.454
563.48	43.281
563.82	43.720
564.16	42.897
564.50	42.027
564.84	42.704
565.17	41.382
565.51	43.852
565.85	43.553
566.19	42.175
566.52	42.158
566.86	43.509
567.20	42.279
567.54	41.727
567.88	41.242
568.21	41.346
568.55	41.793
568.89	40.862
569.23	40.732
569.56	38.967
569.90	40.235
570.24	38.444
570.57	38.255
570.91	38.829
571.25	37.422
571.59	37.372
571.92	36.474
572.26	37.168
572.60	36.651
572.93	36.963
573.27	36.834
573.61	36.844
573.95	36.701
574.28	35.752
574.62	35.952
574.96	36.051
575.29	35.563
575.63	35.061
575.97	36.243
576.30	36.632
576.64	35.682
576.98	36.088
577.31	36.323
577.65	36.491
577.98	35.482
578.32	34.640
578.66	34.494
578.99	35.283
579.33	35.498
579.67	34.797
580.00	35.392
580.34	35.597
580.67	35.287
581.01	35.399
581.35	35.594
581.68	34.501
582.02	34.777
582.35	35.227
582.69	34.807
583.02	34.715
583.36	35.037
583.70	35.826
584.03	36.364
584.37	36.815
584.70	35.247
585.04	35.363
585.37	35.160
585.71	35.102
586.04	34.745
586.38	34.916
586.72	35.667
587.05	35.124
587.39	35.588
587.72	36.085
588.06	35.843
588.39	35.830
588.73	35.012
589.06	36.562
589.40	35.154
589.73	36.656
590.07	36.292
590.40	37.268
590.73	37.603
591.07	36.387
591.40	37.133
591.74	36.742
592.07	37.477
592.41	37.235
592.74	36.121
593.08	34.404
593.41	35.387
593.75	34.805
594.08	35.153
594.41	35.626
594.75	35.573
595.08	35.301
595.42	35.039
595.75	36.275
596.09	35.457
596.42	36.503
596.75	36.057
597.09	35.718
597.42	36.992
597.75	36.555
598.09	35.446
598.42	35.650
598.76	35.521
599.09	35.296
599.42	33.649
599.76	34.876
600.09	35.030
600.42	34.989
600.76	34.547
601.09	34.427
601.42	33.921
601.76	35.451
602.09	35.644
602.42	35.594
602.76	36.036
603.09	36.171
603.42	36.413
603.76	34.960
604.09	34.994
604.42	36.210
604.76	35.648
605.09	36.335
605.42	35.395
605.75	34.807
606.09	35.626
606.42	33.903
606.75	34.675
607.09	34.549
607.42	34.736
607.75	34.858
608.08	34.097
608.42	35.085
608.75	35.470
609.08	35.725
609.41	35.178
609.75	35.534
610.08	35.996
610.41	34.396
610.74	35.300
611.07	35.969
611.41	35.132
611.74	36.247
612.07	35.011
612.40	35.996
612.73	35.028
613.07	34.196
613.40	35.722
613.73	36.038
614.06	35.615
614.39	35.025
614.72	34.790
615.06	35.531
615.39	33.734
615.72	34.661
616.05	35.140
616.38	33.960
616.71	36.269
617.05	35.392
617.38	34.758
617.71	35.786
618.04	36.698
618.37	36.003
618.70	36.370
619.03	37.083
619.36	37.120
619.69	36.240
620.03	37.253
620.36	36.838
620.69	36.831
621.02	37.615
621.35	37.676
621.68	38.520
622.01	37.917
622.34	37.749
622.67	36.435
623.00	36.830
623.33	35.823
623.66	35.826
623.99	36.233
624.32	36.350
624.65	36.165
624.99	36.719
625.32	35.785
625.65	37.863
625.98	37.550
626.31	36.076
626.64	35.875
626.97	36.649
627.30	37.566
627.63	37.782
627.96	37.646
628.29	36.078
628.62	38.348
628.95	38.377
629.28	38.810
629.61	36.690
629.94	39.198
630.26	38.933
630.59	38.710
630.92	37.436
631.25	37.436
631.58	37.335
631.91	38.596
632.24	37.844
632.57	38.977
632.90	37.960
633.23	40.118
633.56	39.421
633.89	38.841
634.22	40.988
634.55	38.755
634.88	37.676
635.20	38.846
635.53	40.800
635.86	38.101
636.19	39.198
636.52	39.541
636.85	38.213
637.18	38.365
637.51	37.736
637.83	38.108
638.16	41.337
638.49	38.147
638.82	40.000
639.15	40.027
639.48	40.165
639.81	39.191
640.13	40.548
640.46	40.525
640.79	39.175
641.12	40.620
641.45	38.739
641.77	41.185
642.10	40.758
642.43	40.032
642.76	40.594
643.09	40.872
643.41	40.129
643.74	40.857
644.07	40.394
644.40	45.101
644.73	40.806
645.05	37.919
645.38	39.683
645.71	39.362
646.04	42.370
646.36	40.426
646.69	42.446
647.02	41.966
647.35	42.724
647.67	39.671
648.00	40.858
648.33	39.420
648.66	38.983
648.98	39.698
649.31	37.521
649.64	37.520
649.96	40.194
650.29	38.671
650.62	40.513
650.94	40.000
651.27	37.244
651.60	41.441
651.92	39.860
652.25	39.254
652.58	38.500
652.90	40.652
653.23	36.639
653.56	37.902
653.88	39.003
654.21	35.552
654.54	38.540
654.86	38.031
655.19	39.035
655.52	35.139
655.84	28.406
656.17	30.231
656.49	40.629
656.82	42.198
657.15	32.410
657.47	24.495
657.80	18.388
658.13	18.251
658.45	28.506
658.78	28.890
659.10	29.293
659.43	30.235
659.75	31.130
660.08	32.000
660.41	36.159
660.73	36.878
661.06	37.955
661.38	36.204
661.71	37.988
662.03	39.700
662.36	40.220
662.68	37.832
663.01	41.048
663.33	38.979
663.66	36.047
663.98	40.233
664.31	39.019
664.63	37.097
664.96	38.043
665.28	38.631
665.61	37.229
665.93	38.696
666.26	40.781
666.58	36.242
666.91	37.647
667.23	40.330
667.56	37.441
667.88	37.650
668.21	39.618
668.53	40.189
668.86	37.264
669.18	36.085
669.50	41.162
669.83	37.674
670.15	38.695
670.48	40.431
670.80	36.636
671.13	37.808
671.45	35.160
671.77	38.412
672.10	33.663
672.42	34.457
672.75	37.478
673.07	36.673
673.39	36.330
673.72	34.320
674.04	37.708
674.37	36.229
674.69	37.045
675.01	41.778
675.34	39.189
675.66	42.824
675.98	37.029
676.31	38.303
676.63	33.729
676.95	35.000
677.28	40.471
677.60	36.386
677.92	35.321
678.25	38.731
678.57	36.147
678.89	35.714
679.22	35.347
679.54	37.149
679.86	31.014
680.18	37.087
680.51	33.902
680.83	33.201
681.15	36.600
681.48	34.016
681.80	37.397
682.12	37.702
682.44	35.774
682.77	38.852
683.09	36.384
683.41	35.909
683.73	36.636
684.06	35.841
684.38	33.118
684.70	35.512
685.02	32.158
685.34	33.794
685.67	34.334
685.99	33.635
686.31	33.097
686.63	33.024
686.96	32.700
687.28	33.535
687.60	31.749
687.92	34.949
688.24	35.685
688.56	34.716
688.89	32.366
689.21	36.000
689.53	35.731
689.85	35.581
690.17	36.384
690.49	35.934
690.82	32.039
691.14	31.667
691.46	37.383
691.78	34.685
692.10	34.624
692.42	31.602
692.74	33.974
693.06	32.658
693.39	30.090
693.71	30.769
694.03	30.485
694.35	32.944
694.67	34.596
694.99	33.681
695.31	34.726
695.63	32.500
695.95	31.313
696.27	32.642
696.59	36.111
696.91	36.134
697.23	32.648
697.56	31.931
697.88	33.548
698.20	34.624
698.52	34.353
698.84	32.057
699.16	34.000
699.48	30.075
699.80	35.484
700.12	32.884
700.44	35.574
700.76	31.977
701.08	33.030
701.40	34.639
701.72	36.111
702.04	33.993
702.36	39.465
702.68	30.631
703.00	37.879
703.32	36.657
703.64	33.898
703.96	31.884
704.28	33.436
704.60	34.921
704.91	34.069
705.23	36.213
705.55	36.042
705.87	36.101
706.19	38.889
706.51	34.364
706.83	36.977
707.15	36.137
707.47	34.454
707.79	29.167
708.11	29.500
708.43	33.000
708.74	32.041
709.06	34.648
709.38	34.251
709.70	29.586
710.02	29.299
710.34	35.913
710.66	27.885
710.98	29.139
711.29	35.410
711.61	34.576
711.93	35.831
712.25	37.457
712.57	33.333
712.89	30.970
713.20	33.218
713.52	33.101
713.84	35.495
714.16	31.615
714.48	29.677
714.80	34.295
715.11	31.307
715.43	28.213
715.75	34.333
716.07	30.565
716.39	36.242
716.70	28.782
717.02	29.389
717.34	37.652
717.66	38.053
717.97	35.652
718.29	33.891
718.61	29.134
718.93	27.132
719.24	31.939
719.56	34.137
719.88	31.615
720.20	30.303
720.51	31.801
720.83	37.066
721.15	32.353
721.46	32.258
721.78	28.458
722.10	30.483
722.42	31.535
722.73	32.653
723.05	40.000
723.37	35.593
723.68	35.135
724.00	34.188
724.32	28.889
724.63	32.273
724.95	31.004
725.27	36.406
725.58	31.780
725.90	29.762
726.22	30.888
726.53	31.186
726.85	31.835
727.16	34.340
727.48	29.960
727.80	32.389
728.11	30.932
728.43	27.843
728.74	25.403
729.06	38.800
729.38	40.226
729.69	25.896
730.01	24.615
730.32	32.463
730.64	30.389
730.96	30.189
731.27	28.000
731.59	30.508
731.90	26.433
732.22	29.968
732.53	30.565
732.85	29.078
733.16	33.333
733.48	24.820
733.80	27.899
734.11	23.390
734.43	30.928
734.74	26.364
735.06	29.642
735.37	28.701
735.69	31.650
736.00	25.784
736.32	27.517
736.63	28.873
736.95	26.621
737.26	29.893
737.58	27.517
737.89	27.106
738.21	24.436
738.52	30.864
738.83	28.821
739.15	25.328
739.46	28.346
739.78	24.542
740.09	25.817
740.41	30.072
740.72	25.984
741.04	25.506
741.35	31.915
741.66	34.123
741.98	31.633
742.29	32.178
742.61	27.225
742.92	25.592
743.23	27.778
743.55	27.149
743.86	35.407
744.18	30.144
744.49	28.191
744.80	31.522
745.12	35.829
745.43	26.341
745.74	32.292
746.06	31.707
746.37	34.031
746.68	33.649
747.00	25.000
747.31	31.841
747.62	28.641
747.94	24.880
748.25	31.188
748.56	34.426
748.88	29.843
749.19	32.979
749.50	33.005
749.82	29.717
750.13	30.275
750.44	29.699
750.75	30.597
751.07	26.642
751.38	32.184
751.69	26.667
752.01	26.744
752.32	29.084
752.63	28.854
752.94	31.466
753.26	32.636
753.57	29.412
753.88	31.858
754.19	26.667
754.51	29.752
754.82	25.506
755.13	31.250
755.44	29.839
755.75	28.906
756.07	28.794
756.38	24.151
756.69	27.586
757.00	28.333
757.31	27.778
757.63	29.268
757.94	25.833
758.25	24.384
758.56	23.670
758.87	26.346
759.18	25.234
759.50	27.273
759.81	22.742
760.12	26.129
760.43	26.364
760.74	25.926
761.05	26.769
761.36	23.295
761.67	26.061
761.99	27.211
762.30	25.818
762.61	28.854
762.92	23.982
763.23	31.081
763.54	23.364
763.85	28.814
764.16	29.461
764.47	28.226
764.78	25.641
765.10	24.579
765.41	27.445
765.72	25.714
766.03	20.677
766.34	25.912
766.65	30.279
766.96	28.283
767.27	29.787
767.58	27.011
767.89	29.787
768.20	24.432
768.51	29.670
768.82	27.094
769.13	24.885
769.44	26.609
769.75	24.201
770.06	25.862
770.37	26.923
770.68	21.827
770.99	23.529
771.30	32.353
771.61	27.602
771.92	27.155
772.23	30.049
772.54	27.419
772.85	25.309
773.16	28.652
773.47	33.333
773.78	21.569
774.09	26.946
774.39	25.333
774.70	31.847
775.01	28.276
775.32	29.286
775.63	23.140
775.94	22.901
776.25	29.921
776.56	17.500
776.87	22.115
777.18	26.496
777.48	25.862
777.79	23.478
778.10	12.381
778.41	26.126
778.72	23.810
779.03	30.827
779.34	28.369
779.65	30.822
779.95	23.973
780.26	36.552
780.57	20.325
780.88	25.984
781.19	27.586
781.50	31.783
781.80	20.710
782.11	19.497
782.42	30.000
782.73	17.266
783.04	34.074
783.34	20.139
783.65	14.530
783.96	27.869
784.27	32.414
784.57	25.203
784.88	31.250
785.19	36.000
785.50	37.000
785.81	26.724
786.11	22.414
786.42	27.184
786.73	24.545
787.04	20.408
787.34	24.107
787.65	27.619
787.96	30.973
788.26	28.182
788.57	23.932
788.88	25.000
789.19	26.984
789.49	25.217
789.80	15.306
790.11	21.212
790.41	18.182
790.72	25.000
791.03	35.227
791.33	23.750
791.64	17.500
791.95	25.581
792.25	31.915
792.56	37.079
792.87	21.918
793.17	11.594
793.48	20.000
793.79	8.750
794.09	37.500
794.40	27.358
794.70	19.417
795.01	18.699
795.32	23.932
795.62	21.905
795.93	23.529
796.23	25.472
796.54	21.875
796.85	36.765
797.15	18.310
797.46	34.722
797.76	33.333
798.07	24.419
798.37	26.316
798.68	3.030
798.99	18.519
799.29	31.429
799.60	17.391
799.90	22.667
800.21	40.984
800.51	24.615
800.82	8.475
801.12	26.087
801.43	34.426
801.73	22.222
802.04	20.000
802.34	26.866
802.65	38.462
802.95	30.357
803.26	11.538
803.56	13.725
803.87	-17.391
804.17	29.333
804.48	41.270
804.78	18.519
805.09	21.739
805.39	28.889
805.70	51.852
806.00	19.298
806.30	23.944
806.61	20.000
806.91	13.889
807.22	42.105
807.52	32.000
807.83	30.909
808.13	33.333
808.43	14.706
808.74	20.896
809.04	23.729
809.35	13.462
809.65	32.812
809.95	8.108
810.26	-11.364
810.56	24.658
810.86	40.476
811.17	20.000
811.47	34.694
811.77	-18.421
812.08	15.909
812.38	18.868
812.69	22.500
812.99	15.152
813.29	28.947
813.59	-11.429
813.90	43.182
814.20	0.000
814.50	19.231
814.81	24.528
815.11	8.511
815.41	47.458
815.72	19.048
816.02	29.412
816.32	27.083
816.62	29.268
816.93	0.000
817.23	17.143
817.53	25.000
817.84	-4.348
818.14	28.846
818.44	18.421
818.74	36.957
819.04	5.000
819.35	51.351
819.65	23.529
819.95	25.000
820.25	16.667
820.56	40.000
820.86	-3.448
821.16	42.500
821.46	27.660
821.76	22.500
822.07	44.186
822.37	5.405
822.67	9.375
822.97	40.476
823.27	10.714
823.57	-12.000
823.88	22.222
824.18	35.714
824.48	11.765
824.78	32.258
825.08	34.783
825.38	0.000
825.69	-29.167
825.99	23.684
826.29	25.000
826.59	6.667
826.89	-42.857
827.19	19.565
827.49	10.000
827.79	31.429
828.09	35.714
828.39	36.364
828.70	43.243
829.00	-14.286
829.30	-4.762
829.60	26.667
829.90	-9.375
830.20	31.579
830.50	3.704
830.80	13.043
831.10	-13.636
831.40	30.303
831.70	9.677
832.00	19.048
832.30	-9.524
832.60	-16.667
832.90	24.138
833.20	10.000
833.50	63.636
833.80	7.407
834.10	23.077
834.40	18.750
834.70	22.222
835.00	57.895
835.30	34.615
835.60	73.333
835.90	-6.452
836.20	0.000
836.50	17.857
836.80	-19.231
837.10	32.143
837.40	-66.667
837.70	36.364
838.00	-18.182
838.30	17.391
838.60	-46.154
838.90	18.182
839.19	21.429
839.49	36.667
839.79	7.692
840.09	-108.333
840.39	60.714
840.69	32.143
840.99	-34.615
841.29	-52.632
841.59	10.000
841.88	27.273
842.18	50.000
842.48	37.500
842.78	0.000
843.08	25.926
843.38	20.000
843.68	21.739
843.97	33.333
844.27	6.667
844.57	-10.000
844.87	33.333
845.17	4.762
845.47	120.000
845.76	42.857
846.06	29.412
846.36	-60.000
846.66	-7.143
846.96	6.667
847.25	-100.000
847.55	28.571
847.85	-50.000
848.15	-31.818
848.44	-300.000
848.74	10.000
849.04	51.852
849.34	81.818
849.63	-183.333
849.93	-260.000
850.23	-22.222
850.53	20.000
850.82	-69.231
851.12	-100.000
851.42	60.000
851.71	0.000
852.01	-7.143
852.31	-250.000
852.61	-36.364
852.90	30.000
853.20	26.316
853.50	-66.667
853.79	13.043
854.09	12.500
854.39	-26.316
854.68	29.167
854.98	6.452
855.28	15.385
855.57	0.000
855.87	-44.444
856.17	66.667
856.46	14.286
856.76	-33.333
857.05	-55.556
857.35	28.000
857.65	11.111
857.94	-61.538
858.24	44.828
858.53	50.000
858.83	51.852
859.13	72.727
859.42	17.391
859.72	-175.000
860.01	66.667
860.31	32.000
860.60	28.571
860.90	-100.000
861.20	-53.333
861.49	-100.000
861.79	26.667
862.08	25.000
862.38	53.333
862.67	-20.000
862.97	-33.333
863.26	0.000
863.56	61.111
863.85	-566.667
864.15	-38.889
864.44	20.000
864.74	57.143
865.03	450.000
865.33	-160.000
865.62	-33.333
865.92	8.333
866.21	-150.000
866.51	12.500
866.80	-27.273
867.10	-100.000
867.39	91.667
867.69	0.000
867.98	53.846
868.27	-100.000
868.57	-26.667
868.86	0.000
869.16	-30.769
869.45	13.333
869.75	-500.000
870.04	0.000
870.33	-128.571
870.63	52.381
870.92	133.333
871.22	-340.000
871.51	-700.000
871.80	-100.000
872.10	333.333
>>>>>End Processed Spectral Data<<<<<
