SpectraSuite Data File
++++++++++++++++++++++++++++++++++++
Date: Fri May 15 20:55:15 PDT 2015
User: schluterlab
Dark Spectrum Present: Yes
Reference Spectrum Present: Yes
Number of Sampled Component Spectra: 1
Spectrometers: USB2E3373
Integration Time (usec): 3000 (USB2E3373)
Spectra Averaged: 3 (USB2E3373)
Boxcar Smoothing: 0 (USB2E3373)
Correct for Electrical Dark: No (USB2E3373)
Strobe/Lamp Enabled: No (USB2E3373)
Correct for Detector Non-linearity: No (USB2E3373)
Correct for Stray Light: No (USB2E3373)
Number of Pixels in Processed Spectrum: 2048
>>>>>Begin Processed Spectral Data<<<<<
178.53	0.000
178.91	0.000
179.29	112.500
179.67	-350.000
180.04	28.571
180.42	75.000
180.80	200.000
181.18	-0.000
181.56	300.000
181.94	-100.000
182.31	100.000
182.69	120.000
183.07	-100.000
183.45	20.000
183.83	83.333
184.20	63.636
184.58	122.222
184.96	175.000
185.34	200.000
185.72	-250.000
186.09	53.846
186.47	-200.000
186.85	-0.000
187.23	188.889
187.61	-100.000
187.98	133.333
188.36	-55.556
188.74	-433.333
189.12	17.647
189.49	16.667
189.87	0.000
190.25	35.714
190.63	150.000
191.00	366.667
191.38	26.316
191.76	350.000
192.14	25.000
192.51	500.000
192.89	-111.111
193.27	-185.714
193.65	200.000
194.02	109.091
194.40	10.000
194.78	-225.000
195.15	41.667
195.53	12.500
195.91	200.000
196.29	-275.000
196.66	61.538
197.04	142.857
197.42	-44.444
197.79	-500.000
198.17	-100.000
198.55	1300.000
198.92	-200.000
199.30	-900.000
199.68	-180.000
200.05	200.000
200.43	0.000
200.81	-200.000
201.18	466.667
201.56	400.000
201.94	-200.000
202.31	-100.000
202.69	-240.000
203.07	350.000
203.44	1000.000
203.82	0.000
204.19	35.714
204.57	-333.333
204.95	187.500
205.32	30.000
205.70	14.286
206.08	-125.000
206.45	33.333
206.83	35.714
207.20	-157.143
207.58	700.000
207.96	-233.333
208.33	-110.000
208.71	-50.000
209.08	-316.667
209.46	300.000
209.84	-260.000
210.21	-1100.000
210.59	28.571
210.96	166.667
211.34	125.000
211.71	0.000
212.09	-157.143
212.46	-1000.000
212.84	0.000
213.22	50.000
213.59	300.000
213.97	-15.385
214.34	72.727
214.72	-66.667
215.09	275.000
215.47	30.769
215.84	-27.273
216.22	-33.333
216.59	-100.000
216.97	-100.000
217.34	-100.000
217.72	-40.000
218.09	-50.000
218.47	75.000
218.84	-1000.000
219.22	-55.556
219.59	80.000
219.97	266.667
220.34	-0.000
220.72	-28.571
221.09	-175.000
221.47	-300.000
221.84	-850.000
222.22	-150.000
222.59	18.182
222.97	25.000
223.34	-233.333
223.72	-35.714
224.09	23.810
224.46	-3.571
224.84	233.333
225.21	-80.000
225.59	0.000
225.96	150.000
226.34	400.000
226.71	57.143
227.08	-150.000
227.46	75.000
227.83	-300.000
228.21	11.111
228.58	0.000
228.95	-100.000
229.33	60.000
229.70	37.500
230.08	-62.500
230.45	-71.429
230.82	85.714
231.20	46.667
231.57	35.714
231.95	114.286
232.32	-80.000
232.69	28.571
233.07	33.333
233.44	-100.000
233.81	-100.000
234.19	166.667
234.56	-23.529
234.93	250.000
235.31	0.000
235.68	-420.000
236.05	-46.154
236.43	0.000
236.80	-11.765
237.17	28.125
237.55	-25.000
237.92	-11.111
238.29	5.556
238.67	16.667
239.04	-8.824
239.41	-29.268
239.79	26.667
240.16	29.268
240.53	-10.526
240.91	-8.696
241.28	20.635
241.65	7.143
242.02	17.808
242.40	1.667
242.77	10.169
243.14	12.121
243.51	5.000
243.89	20.690
244.26	-1.149
244.63	7.143
245.00	16.495
245.38	6.186
245.75	-1.124
246.12	11.207
246.49	14.876
246.87	11.538
247.24	12.605
247.61	5.263
247.98	5.691
248.36	6.875
248.73	6.579
249.10	9.740
249.47	18.987
249.84	18.954
250.22	10.588
250.59	9.150
250.96	15.493
251.33	12.209
251.70	16.471
252.08	11.168
252.45	14.851
252.82	14.070
253.19	13.364
253.56	7.944
253.94	16.216
254.31	12.174
254.68	21.053
255.05	10.236
255.42	14.410
255.79	16.602
256.16	12.451
256.54	11.567
256.91	15.589
257.28	8.922
257.65	10.487
258.02	12.766
258.39	16.498
258.76	12.454
259.14	14.618
259.51	13.592
259.88	14.433
260.25	8.170
260.62	17.708
260.99	5.424
261.36	9.589
261.73	16.139
262.10	13.982
262.47	12.883
262.85	13.793
263.22	14.769
263.59	11.838
263.96	16.460
264.33	13.939
264.70	11.607
265.07	11.310
265.44	15.014
265.81	10.734
266.18	13.661
266.55	12.853
266.92	12.953
267.29	11.749
267.66	13.555
268.03	13.874
268.40	12.010
268.77	15.775
269.14	14.868
269.51	18.252
269.88	13.965
270.25	12.500
270.62	14.390
270.99	12.788
271.36	12.225
271.73	15.023
272.10	12.165
272.47	14.421
272.84	13.366
273.21	13.689
273.58	13.735
273.95	15.789
274.32	10.162
274.69	12.670
275.06	14.732
275.43	14.739
275.80	12.362
276.17	11.034
276.54	14.133
276.91	12.719
277.28	14.847
277.65	14.463
278.02	10.000
278.39	13.786
278.76	15.723
279.13	9.959
279.50	13.655
279.87	12.311
280.23	12.688
280.60	13.450
280.97	11.919
281.34	10.962
281.71	13.963
282.08	13.088
282.45	12.524
282.82	13.127
283.19	11.799
283.56	12.139
283.92	11.954
284.29	13.462
284.66	12.016
285.03	13.360
285.40	12.287
285.77	13.708
286.14	11.552
286.51	12.546
286.87	10.786
287.24	12.339
287.61	11.464
287.98	14.035
288.35	11.612
288.72	12.785
289.08	11.458
289.45	13.005
289.82	11.538
290.19	10.410
290.56	11.664
290.93	9.428
291.29	11.248
291.66	13.858
292.03	12.281
292.40	10.323
292.77	9.729
293.13	9.416
293.50	8.953
293.87	10.382
294.24	10.819
294.60	11.475
294.97	11.458
295.34	10.890
295.71	11.326
296.08	10.314
296.44	8.250
296.81	10.694
297.18	10.580
297.55	10.976
297.91	10.137
298.28	11.609
298.65	9.905
299.02	9.704
299.38	7.524
299.75	8.690
300.12	9.293
300.48	8.696
300.85	11.027
301.22	10.649
301.59	10.132
301.95	10.000
302.32	12.581
302.69	10.697
303.05	10.396
303.42	10.087
303.79	9.463
304.15	10.394
304.52	9.631
304.89	9.825
305.25	8.354
305.62	7.468
305.99	8.538
306.35	8.324
306.72	8.436
307.09	9.236
307.45	9.874
307.82	9.259
308.19	10.569
308.55	9.487
308.92	9.368
309.29	8.492
309.65	9.042
310.02	9.021
310.38	9.769
310.75	9.945
311.12	10.334
311.48	9.332
311.85	9.529
312.22	10.127
312.58	10.722
312.95	10.245
313.31	9.317
313.68	10.576
314.05	10.612
314.41	10.825
314.78	10.000
315.14	11.922
315.51	12.215
315.87	12.193
316.24	14.156
316.61	13.484
316.97	13.194
317.34	12.500
317.70	13.193
318.07	13.077
318.43	15.098
318.80	14.773
319.16	15.430
319.53	17.284
319.89	16.437
320.26	16.397
320.62	17.854
320.99	16.806
321.35	18.602
321.72	19.418
322.08	19.637
322.45	19.898
322.81	21.906
323.18	22.866
323.54	22.394
323.91	22.298
324.27	23.438
324.64	24.906
325.00	26.095
325.37	26.905
325.73	26.020
326.10	26.249
326.46	27.623
326.83	28.521
327.19	29.643
327.56	30.061
327.92	31.162
328.29	30.714
328.65	31.698
329.01	32.445
329.38	32.811
329.74	34.183
330.11	33.735
330.47	34.323
330.84	36.154
331.20	37.262
331.56	33.426
331.93	37.169
332.29	36.755
332.66	37.557
333.02	36.245
333.38	37.305
333.75	37.912
334.11	37.422
334.48	39.347
334.84	39.744
335.20	39.707
335.57	36.990
335.93	39.115
336.29	41.160
336.66	41.054
337.02	41.636
337.38	41.574
337.75	42.000
338.11	42.831
338.47	42.062
338.84	41.590
339.20	41.773
339.56	42.110
339.93	42.614
340.29	42.202
340.65	43.190
341.02	43.262
341.38	42.478
341.74	42.138
342.11	41.421
342.47	42.705
342.83	43.945
343.20	43.554
343.56	42.870
343.92	44.464
344.28	44.321
344.65	43.869
345.01	44.771
345.37	43.902
345.73	43.515
346.10	45.125
346.46	46.173
346.82	44.763
347.19	43.807
347.55	45.865
347.91	45.227
348.27	45.190
348.63	45.911
349.00	46.021
349.36	45.553
349.72	45.937
350.08	45.328
350.45	44.932
350.81	45.017
351.17	44.463
351.53	46.939
351.89	44.261
352.26	45.120
352.62	46.855
352.98	46.506
353.34	46.296
353.70	46.440
354.07	45.403
354.43	47.238
354.79	45.830
355.15	48.413
355.51	47.468
355.87	47.168
356.24	46.085
356.60	46.807
356.96	47.143
357.32	48.083
357.68	46.208
358.04	47.981
358.40	47.508
358.77	48.325
359.13	48.999
359.49	45.994
359.85	48.596
360.21	48.884
360.57	47.360
360.93	48.109
361.29	46.677
361.66	47.962
362.02	48.182
362.38	48.515
362.74	49.508
363.10	48.533
363.46	49.073
363.82	49.962
364.18	48.856
364.54	48.015
364.90	48.961
365.26	50.073
365.62	49.489
365.98	50.000
366.35	50.619
366.71	51.441
367.07	49.855
367.43	49.605
367.79	49.470
368.15	49.174
368.51	49.891
368.87	49.031
369.23	49.747
369.59	50.000
369.95	49.633
370.31	49.928
370.67	50.448
371.03	50.485
371.39	50.036
371.75	50.256
372.11	48.716
372.47	51.553
372.83	50.248
373.19	51.355
373.55	50.108
373.91	50.972
374.27	51.382
374.63	52.692
374.99	50.071
375.35	50.139
375.71	51.958
376.07	51.756
376.42	50.816
376.78	52.416
377.14	51.997
377.50	50.332
377.86	52.209
378.22	51.883
378.58	51.346
378.94	51.418
379.30	52.714
379.66	52.226
380.02	51.441
380.38	52.282
380.74	52.304
381.09	52.577
381.45	51.376
381.81	51.511
382.17	51.904
382.53	50.906
382.89	53.170
383.25	54.014
383.61	52.683
383.97	51.746
384.32	52.408
384.68	51.765
385.04	52.757
385.40	53.267
385.76	54.969
386.12	54.010
386.48	53.704
386.83	53.202
387.19	52.930
387.55	54.517
387.91	53.117
388.27	52.198
388.62	53.933
388.98	52.793
389.34	52.904
389.70	54.319
390.06	53.115
390.42	54.145
390.77	53.303
391.13	53.783
391.49	53.493
391.85	53.411
392.20	52.793
392.56	54.100
392.92	54.022
393.28	53.833
393.64	55.015
393.99	54.734
394.35	52.435
394.71	54.342
395.07	52.860
395.42	52.641
395.78	53.746
396.14	53.783
396.50	53.583
396.85	53.574
397.21	52.694
397.57	53.856
397.92	52.846
398.28	53.678
398.64	52.349
399.00	54.571
399.35	52.257
399.71	52.211
400.07	53.204
400.42	53.488
400.78	53.766
401.14	53.600
401.49	53.246
401.85	53.077
402.21	53.133
402.57	53.125
402.92	51.694
403.28	53.571
403.63	52.648
403.99	53.189
404.35	53.966
404.70	51.429
405.06	52.644
405.42	53.076
405.77	51.772
406.13	52.270
406.49	51.332
406.84	53.851
407.20	52.800
407.55	52.222
407.91	52.206
408.27	51.880
408.62	52.554
408.98	51.571
409.34	52.850
409.69	50.129
410.05	52.217
410.40	51.173
410.76	52.774
411.11	52.000
411.47	51.940
411.83	51.412
412.18	51.094
412.54	51.748
412.89	50.246
413.25	50.903
413.60	51.988
413.96	49.632
414.31	50.488
414.67	50.353
415.03	50.533
415.38	49.674
415.74	51.205
416.09	51.143
416.45	50.169
416.80	50.826
417.16	51.312
417.51	49.900
417.87	50.000
418.22	51.749
418.58	51.037
418.93	51.285
419.29	49.936
419.64	50.680
420.00	52.519
420.35	50.627
420.71	50.972
421.06	49.417
421.42	50.180
421.77	50.694
422.12	50.057
422.48	49.486
422.83	49.304
423.19	49.774
423.54	49.971
423.90	48.704
424.25	49.483
424.61	50.367
424.96	48.606
425.31	50.953
425.67	49.707
426.02	49.823
426.38	49.906
426.73	49.213
427.09	50.316
427.44	48.706
427.79	49.617
428.15	48.847
428.50	49.303
428.85	48.342
429.21	48.613
429.56	49.919
429.92	48.279
430.27	47.920
430.62	48.144
430.98	48.567
431.33	47.424
431.68	46.729
432.04	48.351
432.39	48.032
432.74	46.903
433.10	48.333
433.45	47.491
433.80	48.694
434.16	47.368
434.51	46.720
434.86	48.374
435.22	48.626
435.57	47.473
435.92	48.743
436.28	47.645
436.63	47.576
436.98	46.871
437.34	46.279
437.69	47.406
438.04	46.268
438.39	46.671
438.75	47.541
439.10	47.312
439.45	46.805
439.81	46.728
440.16	47.803
440.51	47.045
440.86	47.915
441.22	46.493
441.57	46.744
441.92	47.639
442.27	48.337
442.63	46.734
442.98	46.870
443.33	45.019
443.68	45.676
444.03	45.554
444.39	45.696
444.74	46.433
445.09	47.105
445.44	45.128
445.79	47.241
446.15	45.760
446.50	44.870
446.85	45.643
447.20	46.403
447.55	45.145
447.91	45.742
448.26	45.931
448.61	44.905
448.96	45.439
449.31	45.202
449.66	44.948
450.02	45.066
450.37	45.228
450.72	44.559
451.07	44.873
451.42	44.195
451.77	45.268
452.12	44.139
452.47	44.430
452.83	44.229
453.18	44.719
453.53	45.070
453.88	44.869
454.23	43.639
454.58	44.144
454.93	44.394
455.28	42.349
455.63	44.885
455.98	44.618
456.34	43.550
456.69	44.091
457.04	45.180
457.39	43.682
457.74	42.866
458.09	42.437
458.44	43.008
458.79	41.849
459.14	41.934
459.49	42.687
459.84	42.696
460.19	43.083
460.54	42.971
460.89	41.818
461.24	42.795
461.59	42.162
461.94	41.635
462.29	42.461
462.64	42.724
462.99	41.435
463.34	41.168
463.69	41.570
464.04	41.041
464.39	40.691
464.74	41.043
465.09	41.298
465.44	41.546
465.79	39.796
466.14	41.847
466.49	39.448
466.84	39.798
467.19	40.864
467.54	39.783
467.89	40.303
468.24	40.207
468.59	40.825
468.94	40.254
469.29	39.344
469.64	39.713
469.99	40.434
470.34	38.498
470.68	40.418
471.03	39.632
471.38	39.444
471.73	39.356
472.08	37.788
472.43	39.396
472.78	38.862
473.13	39.252
473.48	39.739
473.83	38.730
474.17	40.026
474.52	37.843
474.87	38.303
475.22	38.438
475.57	37.154
475.92	38.618
476.27	37.893
476.61	38.426
476.96	36.419
477.31	37.804
477.66	37.697
478.01	37.395
478.36	37.146
478.70	38.499
479.05	36.978
479.40	37.944
479.75	36.861
480.10	36.815
480.45	36.950
480.79	37.160
481.14	36.936
481.49	35.567
481.84	36.680
482.19	35.921
482.53	36.739
482.88	35.561
483.23	36.180
483.58	36.226
483.92	36.205
484.27	34.686
484.62	35.545
484.97	35.116
485.31	35.043
485.66	34.202
486.01	34.846
486.36	34.702
486.70	34.919
487.05	35.291
487.40	34.669
487.75	34.113
488.09	33.622
488.44	34.354
488.79	34.143
489.13	34.736
489.48	33.519
489.83	34.395
490.17	34.562
490.52	35.058
490.87	34.105
491.22	34.670
491.56	33.729
491.91	33.556
492.26	33.884
492.60	33.685
492.95	34.530
493.30	33.659
493.64	34.872
493.99	33.430
494.34	33.932
494.68	33.381
495.03	32.895
495.37	32.434
495.72	33.468
496.07	33.024
496.41	32.830
496.76	32.658
497.11	33.023
497.45	33.317
497.80	33.602
498.14	32.290
498.49	33.164
498.84	33.034
499.18	32.580
499.53	33.036
499.87	31.566
500.22	32.394
500.56	33.232
500.91	32.229
501.26	31.389
501.60	31.677
501.95	32.460
502.29	31.671
502.64	31.902
502.98	31.278
503.33	32.517
503.67	32.000
504.02	31.769
504.36	31.766
504.71	31.313
505.06	31.203
505.40	31.218
505.75	31.392
506.09	30.816
506.44	31.776
506.78	31.837
507.13	31.541
507.47	29.817
507.82	30.823
508.16	30.692
508.51	31.217
508.85	31.136
509.19	30.016
509.54	30.402
509.88	30.313
510.23	31.092
510.57	31.427
510.92	29.104
511.26	30.005
511.61	30.308
511.95	30.466
512.30	30.266
512.64	30.328
512.98	28.860
513.33	30.050
513.67	30.188
514.02	31.293
514.36	30.743
514.70	30.245
515.05	30.670
515.39	29.516
515.74	30.778
516.08	29.707
516.42	29.859
516.77	30.837
517.11	29.970
517.46	29.743
517.80	29.380
518.14	29.455
518.49	29.627
518.83	29.708
519.17	29.290
519.52	28.952
519.86	29.052
520.20	29.405
520.55	29.206
520.89	30.427
521.23	29.259
521.58	29.211
521.92	28.846
522.26	29.473
522.61	28.312
522.95	29.735
523.29	28.526
523.64	28.717
523.98	29.942
524.32	28.544
524.66	29.321
525.01	29.286
525.35	28.516
525.69	28.620
526.04	27.646
526.38	29.313
526.72	28.385
527.06	28.080
527.41	29.485
527.75	28.619
528.09	28.505
528.43	28.967
528.78	27.591
529.12	28.581
529.46	27.355
529.80	27.929
530.15	29.307
530.49	27.879
530.83	28.386
531.17	27.401
531.51	27.907
531.86	28.824
532.20	27.766
532.54	28.931
532.88	27.858
533.22	28.763
533.57	27.785
533.91	27.415
534.25	27.930
534.59	26.684
534.93	26.809
535.27	27.094
535.62	27.349
535.96	27.136
536.30	27.111
536.64	26.878
536.98	27.456
537.32	28.378
537.66	28.121
538.01	27.063
538.35	26.630
538.69	26.232
539.03	25.496
539.37	26.447
539.71	26.312
540.05	26.680
540.39	27.632
540.73	26.987
541.07	26.796
541.42	27.688
541.76	26.497
542.10	26.084
542.44	26.824
542.78	24.983
543.12	25.687
543.46	27.051
543.80	26.856
544.14	25.367
544.48	25.916
544.82	26.042
545.16	26.503
545.50	26.836
545.84	26.275
546.18	26.099
546.52	25.595
546.86	26.168
547.20	25.680
547.54	25.018
547.88	26.223
548.22	25.312
548.56	24.802
548.90	25.943
549.24	24.931
549.58	25.599
549.92	25.089
550.26	25.641
550.60	25.576
550.94	25.467
551.28	24.807
551.62	25.846
551.96	24.812
552.30	25.073
552.64	23.766
552.98	24.824
553.32	24.679
553.66	25.472
554.00	24.672
554.34	24.742
554.68	23.894
555.02	24.851
555.36	25.131
555.69	24.249
556.03	23.697
556.37	24.199
556.71	24.982
557.05	24.609
557.39	23.346
557.73	25.037
558.07	24.811
558.41	25.574
558.75	25.331
559.08	24.823
559.42	24.603
559.76	25.380
560.10	24.083
560.44	23.976
560.78	23.217
561.12	24.612
561.45	24.807
561.79	24.090
562.13	23.776
562.47	23.813
562.81	24.135
563.15	23.977
563.48	25.530
563.82	24.091
564.16	23.747
564.50	23.649
564.84	23.494
565.17	23.005
565.51	24.180
565.85	24.280
566.19	24.469
566.52	23.794
566.86	24.100
567.20	23.474
567.54	23.723
567.88	23.902
568.21	23.643
568.55	22.935
568.89	24.281
569.23	23.592
569.56	23.205
569.90	23.143
570.24	22.479
570.57	23.091
570.91	23.074
571.25	22.854
571.59	22.236
571.92	22.430
572.26	22.373
572.60	22.078
572.93	22.152
573.27	22.226
573.61	22.226
573.95	22.392
574.28	21.716
574.62	21.943
574.96	21.640
575.29	21.984
575.63	21.353
575.97	21.605
576.30	21.872
576.64	21.934
576.98	22.548
577.31	22.045
577.65	22.110
577.98	22.506
578.32	21.814
578.66	21.599
578.99	21.479
579.33	21.559
579.67	21.423
580.00	21.924
580.34	21.692
580.67	21.884
581.01	21.638
581.35	21.447
581.68	21.649
582.02	21.435
582.35	21.281
582.69	21.582
583.02	21.641
583.36	21.481
583.70	22.015
584.03	21.963
584.37	21.852
584.70	21.951
585.04	20.881
585.37	21.622
585.71	21.180
586.04	20.903
586.38	21.046
586.72	21.349
587.05	22.039
587.39	21.722
587.72	21.897
588.06	21.506
588.39	21.048
588.73	21.245
589.06	22.016
589.40	21.535
589.73	22.125
590.07	21.979
590.40	21.943
590.73	22.035
591.07	21.544
591.40	21.149
591.74	21.584
592.07	21.475
592.41	21.422
592.74	21.386
593.08	21.132
593.41	21.647
593.75	20.707
594.08	20.735
594.41	21.143
594.75	20.573
595.08	20.999
595.42	20.648
595.75	20.766
596.09	21.306
596.42	21.290
596.75	21.625
597.09	21.595
597.42	21.003
597.75	21.164
598.09	21.277
598.42	20.352
598.76	20.721
599.09	21.114
599.42	20.576
599.76	20.241
600.09	20.852
600.42	20.622
600.76	20.394
601.09	20.267
601.42	20.525
601.76	20.524
602.09	20.586
602.42	20.935
602.76	20.628
603.09	20.681
603.42	21.363
603.76	19.919
604.09	20.008
604.42	20.643
604.76	20.694
605.09	21.298
605.42	20.497
605.75	20.053
606.09	20.382
606.42	20.475
606.75	20.130
607.09	21.055
607.42	20.115
607.75	20.115
608.08	20.261
608.42	19.872
608.75	20.386
609.08	21.226
609.41	20.355
609.75	20.010
610.08	20.569
610.41	19.614
610.74	20.575
611.07	19.897
611.41	20.758
611.74	20.362
612.07	19.433
612.40	20.842
612.73	19.548
613.07	20.191
613.40	20.460
613.73	19.978
614.06	20.033
614.39	21.263
614.72	19.440
615.06	20.112
615.39	19.214
615.72	19.860
616.05	20.168
616.38	19.031
616.71	20.428
617.05	19.580
617.38	20.867
617.71	19.686
618.04	20.825
618.37	20.996
618.70	21.254
619.03	20.833
619.36	19.899
619.69	21.304
620.03	20.672
620.36	20.959
620.69	20.057
621.02	20.031
621.35	20.996
621.68	21.259
622.01	20.667
622.34	20.511
622.67	21.057
623.00	21.133
623.33	20.351
623.66	20.120
623.99	19.743
624.32	20.760
624.65	19.699
624.99	20.692
625.32	20.167
625.65	21.524
625.98	20.709
626.31	20.200
626.64	21.577
626.97	20.244
627.30	20.753
627.63	20.537
627.96	21.114
628.29	20.352
628.62	19.764
628.95	20.541
629.28	20.766
629.61	19.541
629.94	20.919
630.26	20.257
630.59	20.916
630.92	21.026
631.25	20.513
631.58	21.586
631.91	19.079
632.24	20.298
632.57	20.909
632.90	19.692
633.23	20.118
633.56	20.529
633.89	20.592
634.22	20.741
634.55	21.347
634.88	20.051
635.20	20.385
635.53	20.800
635.86	18.466
636.19	22.768
636.52	20.408
636.85	19.479
637.18	18.616
637.51	19.623
637.83	20.762
638.16	21.828
638.49	18.665
638.82	20.921
639.15	20.353
639.48	20.220
639.81	21.897
640.13	20.202
640.46	18.950
640.79	20.913
641.12	22.157
641.45	21.321
641.77	20.741
642.10	21.643
642.43	19.936
642.76	20.132
643.09	20.840
643.41	19.903
643.74	20.923
644.07	19.869
644.40	20.101
644.73	21.891
645.05	21.141
645.38	19.577
645.71	19.681
646.04	21.185
646.36	18.972
646.69	21.223
647.02	20.605
647.35	20.336
647.67	21.755
648.00	20.896
648.33	20.648
648.66	21.186
648.98	18.425
649.31	19.174
649.64	20.408
649.96	18.963
650.29	21.806
650.62	19.487
650.94	19.815
651.27	21.229
651.60	21.622
651.92	18.531
652.25	18.295
652.58	20.000
652.90	20.926
653.23	20.000
653.56	19.459
653.88	19.072
654.21	18.739
654.54	21.053
654.86	18.846
655.19	18.713
655.52	20.666
655.84	17.829
656.17	19.918
656.49	26.867
656.82	28.135
657.15	21.394
657.47	15.706
657.80	11.887
658.13	11.840
658.45	18.102
658.78	18.137
659.10	17.957
659.43	18.843
659.75	18.402
660.08	18.138
660.41	18.795
660.73	17.265
661.06	20.451
661.38	18.982
661.71	17.659
662.03	20.601
662.36	18.901
662.68	17.478
663.01	20.961
663.33	17.169
663.66	17.907
663.98	20.233
664.31	21.322
664.63	15.668
664.96	17.609
665.28	20.971
665.61	19.697
665.93	18.913
666.26	19.306
666.58	18.568
666.91	18.353
667.23	19.104
667.56	20.853
667.88	19.904
668.21	20.764
668.53	19.149
668.86	20.519
669.18	21.698
669.50	17.918
669.83	18.837
670.15	21.445
670.48	19.378
670.80	16.820
671.13	18.568
671.45	16.210
671.77	22.532
672.10	20.792
672.42	19.663
672.75	18.828
673.07	20.394
673.39	18.899
673.72	16.371
674.04	17.708
674.37	17.373
674.69	16.274
675.01	20.000
675.34	15.991
675.66	20.833
675.98	20.621
676.31	17.890
676.63	20.190
676.95	19.318
677.28	20.000
677.60	21.928
677.92	15.138
678.25	18.600
678.57	16.234
678.89	16.597
679.22	17.897
679.54	16.064
679.86	16.501
680.18	20.777
680.51	17.614
680.83	15.308
681.15	19.400
681.48	19.057
681.80	19.421
682.12	21.371
682.44	18.410
682.77	20.088
683.09	17.620
683.41	16.818
683.73	18.894
684.06	17.478
684.38	18.925
684.70	18.519
685.02	18.050
685.34	19.170
685.67	16.886
685.99	18.987
686.31	18.230
686.63	18.924
686.96	15.970
687.28	12.727
687.60	16.920
687.92	19.798
688.24	18.952
688.56	18.777
688.89	18.304
689.21	19.111
689.53	17.633
689.85	18.605
690.17	18.304
690.49	16.785
690.82	17.233
691.14	15.952
691.46	17.056
691.78	19.820
692.10	20.860
692.42	19.048
692.74	18.803
693.06	19.369
693.39	16.516
693.71	16.063
694.03	15.012
694.35	16.589
694.67	19.444
694.99	15.144
695.31	17.493
695.63	18.250
695.95	14.899
696.27	17.617
696.59	17.778
696.91	15.686
697.23	19.794
697.56	17.079
697.88	20.645
698.20	18.679
698.52	16.941
698.84	17.464
699.16	15.500
699.48	18.797
699.80	16.873
700.12	17.520
700.44	17.087
700.76	16.860
701.08	16.970
701.40	18.072
701.72	18.210
702.04	18.152
702.36	16.054
702.68	16.817
703.00	15.758
703.32	17.009
703.64	18.079
703.96	15.942
704.28	16.258
704.60	18.730
704.91	15.457
705.23	16.279
705.55	18.021
705.87	18.773
706.19	17.778
706.51	21.649
706.83	18.650
707.15	14.642
707.47	15.686
707.79	17.448
708.11	16.250
708.43	18.250
708.74	18.088
709.06	20.563
709.38	16.820
709.70	16.568
710.02	18.153
710.34	18.266
710.66	14.103
710.98	15.563
711.29	18.033
711.61	15.254
711.93	19.544
712.25	20.275
712.57	18.681
712.89	18.284
713.20	18.685
713.52	16.376
713.84	19.113
714.16	14.433
714.48	16.129
714.80	17.308
715.11	17.629
715.43	12.226
715.75	15.667
716.07	12.957
716.39	17.114
716.70	16.605
717.02	16.794
717.34	17.004
717.66	18.142
717.97	16.522
718.29	21.339
718.61	20.472
718.93	18.605
719.24	18.631
719.56	20.080
719.88	18.213
720.20	15.909
720.51	14.559
720.83	16.216
721.15	15.966
721.46	18.952
721.78	17.787
722.10	13.755
722.42	14.523
722.73	19.184
723.05	18.367
723.37	17.797
723.68	20.270
724.00	16.239
724.32	12.889
724.63	15.455
724.95	14.847
725.27	20.276
725.58	16.102
725.90	13.492
726.22	18.533
726.53	19.661
726.85	17.603
727.16	18.113
727.48	14.170
727.80	17.004
728.11	13.559
728.43	17.647
728.74	12.097
729.06	13.600
729.38	22.556
729.69	19.920
730.01	11.538
730.32	16.791
730.64	18.375
730.96	18.491
731.27	13.000
731.59	15.593
731.90	14.968
732.22	17.981
732.53	18.937
732.85	13.121
733.16	19.192
733.48	10.432
733.80	12.681
734.11	16.271
734.43	19.244
734.74	17.273
735.06	14.007
735.37	16.314
735.69	17.508
736.00	13.937
736.32	15.436
736.63	15.493
736.95	17.406
737.26	19.573
737.58	10.403
737.89	15.018
738.21	12.406
738.52	14.403
738.83	13.100
739.15	14.847
739.46	16.929
739.78	13.919
740.09	16.340
740.41	17.029
740.72	11.024
741.04	17.004
741.35	14.043
741.66	12.796
741.98	18.878
742.29	15.842
742.61	12.042
742.92	7.583
743.23	15.741
743.55	14.932
743.86	11.962
744.18	15.789
744.49	11.170
744.80	17.391
745.12	17.112
745.43	7.805
745.74	16.146
746.06	14.634
746.37	14.660
746.68	22.749
747.00	10.106
747.31	13.433
747.62	16.505
747.94	16.746
748.25	15.842
748.56	18.579
748.88	9.948
749.19	19.149
749.50	19.212
749.82	12.264
750.13	13.303
750.44	16.917
750.75	14.925
751.07	17.883
751.38	18.391
751.69	15.294
752.01	18.992
752.32	11.952
752.63	17.391
752.94	12.931
753.26	25.523
753.57	14.932
753.88	18.142
754.19	14.583
754.51	16.529
754.82	10.121
755.13	16.250
755.44	17.339
755.75	12.891
756.07	13.619
756.38	14.340
756.69	11.494
757.00	11.333
757.31	16.340
757.63	14.634
757.94	15.556
758.25	12.329
758.56	13.564
758.87	11.048
759.18	14.642
759.50	13.818
759.81	17.726
760.12	14.194
760.43	15.152
760.74	16.975
761.05	15.077
761.36	14.489
761.67	13.333
761.99	19.728
762.30	13.818
762.61	13.043
762.92	10.407
763.23	9.459
763.54	12.150
763.85	12.288
764.16	14.938
764.47	14.113
764.78	16.850
765.10	20.875
765.41	15.142
765.72	15.238
766.03	10.902
766.34	17.518
766.65	17.928
766.96	13.131
767.27	20.213
767.58	6.897
767.89	7.801
768.20	18.182
768.51	9.341
768.82	15.271
769.13	15.207
769.44	13.734
769.75	13.699
770.06	11.207
770.37	20.192
770.68	13.706
770.99	13.575
771.30	17.157
771.61	11.312
771.92	19.828
772.23	18.227
772.54	17.204
772.85	12.346
773.16	15.169
773.47	18.954
773.78	14.379
774.09	10.778
774.39	11.333
774.70	14.650
775.01	15.172
775.32	15.000
775.63	10.744
775.94	14.504
776.25	14.173
776.56	8.333
776.87	11.538
777.18	15.385
777.48	0.862
777.79	6.087
778.10	16.190
778.41	1.802
778.72	15.873
779.03	20.301
779.34	16.312
779.65	17.123
779.95	7.534
780.26	20.000
780.57	18.699
780.88	6.299
781.19	10.345
781.50	13.953
781.80	14.201
782.11	7.547
782.42	20.769
782.73	8.633
783.04	11.852
783.34	8.333
783.65	6.838
783.96	12.295
784.27	15.172
784.57	7.317
784.88	12.500
785.19	8.000
785.50	22.000
785.81	20.690
786.11	10.345
786.42	8.738
786.73	20.909
787.04	3.061
787.34	13.393
787.65	6.667
787.96	19.469
788.26	20.909
788.57	13.675
788.88	13.281
789.19	16.667
789.49	1.739
789.80	2.041
790.11	1.010
790.41	20.000
790.72	11.957
791.03	28.409
791.33	26.250
791.64	15.000
791.95	17.442
792.25	5.319
792.56	21.348
792.87	4.110
793.17	5.797
793.48	16.000
793.79	2.500
794.09	20.000
794.40	7.547
794.70	0.971
795.01	9.756
795.32	8.547
795.62	8.571
795.93	11.765
796.23	11.321
796.54	10.417
796.85	20.588
797.15	18.310
797.46	20.833
797.76	24.242
798.07	8.140
798.37	7.895
798.68	10.606
798.99	14.815
799.29	14.286
799.60	13.043
799.90	26.667
800.21	18.033
800.51	4.615
800.82	5.085
801.12	7.246
801.43	9.836
801.73	12.698
802.04	6.000
802.34	23.881
802.65	23.077
802.95	-3.571
803.26	21.154
803.56	17.647
803.87	-32.609
804.17	16.000
804.48	11.111
804.78	11.111
805.09	-2.174
805.39	-2.222
805.70	12.963
806.00	-8.772
806.30	9.859
806.61	21.429
806.91	-16.667
807.22	14.474
807.52	22.667
807.83	-3.636
808.13	0.000
808.43	7.353
808.74	17.910
809.04	-6.780
809.35	0.000
809.65	14.062
809.95	-29.730
810.26	-11.364
810.56	10.959
810.86	11.905
811.17	-16.000
811.47	18.367
811.77	13.158
812.08	0.000
812.38	3.774
812.69	5.000
812.99	-15.152
813.29	-13.158
813.59	-5.714
813.90	-15.909
814.20	-2.564
814.50	15.385
814.81	11.321
815.11	-2.128
815.41	22.034
815.72	11.905
816.02	23.529
816.32	22.917
816.62	7.317
816.93	16.216
817.23	14.286
817.53	25.000
817.84	-21.739
818.14	34.615
818.44	-13.158
818.74	10.870
819.04	-12.500
819.35	21.622
819.65	20.588
819.95	0.000
820.25	11.905
820.56	15.000
820.86	-41.379
821.16	42.500
821.46	27.660
821.76	15.000
822.07	-6.977
822.37	-2.703
822.67	3.125
822.97	38.095
823.27	-35.714
823.57	4.000
823.88	-14.815
824.18	3.571
824.48	11.765
824.78	-22.581
825.08	-43.478
825.38	3.030
825.69	-16.667
825.99	28.947
826.29	8.333
826.59	-86.667
826.89	-38.095
827.19	23.913
827.49	2.500
827.79	25.714
828.09	-7.143
828.39	3.030
828.70	24.324
829.00	0.000
829.30	-23.810
829.60	-3.333
829.90	40.625
830.20	-10.526
830.50	-7.407
830.80	-30.435
831.10	18.182
831.40	33.333
831.70	9.677
832.00	80.952
832.30	-19.048
832.60	-33.333
832.90	3.448
833.20	-15.000
833.50	-3.030
833.80	-22.222
834.10	-30.769
834.40	56.250
834.70	-66.667
835.00	-57.895
835.30	50.000
835.60	6.667
835.90	16.129
836.20	18.182
836.50	17.857
836.80	-34.615
837.10	7.143
837.40	-200.000
837.70	9.091
838.00	-63.636
838.30	4.348
838.60	-15.385
838.90	-13.636
839.19	3.571
839.49	0.000
839.79	-46.154
840.09	-100.000
840.39	42.857
840.69	10.714
840.99	-38.462
841.29	-26.316
841.59	-130.000
841.88	-27.273
842.18	-30.000
842.48	6.250
842.78	-13.333
843.08	-3.704
843.38	-150.000
843.68	-8.696
843.97	-20.000
844.27	-73.333
844.57	20.000
844.87	-5.556
845.17	9.524
845.47	33.333
845.76	19.048
846.06	11.765
846.36	-60.000
846.66	-50.000
846.96	40.000
847.25	-150.000
847.55	57.143
847.85	-75.000
848.15	-40.909
848.44	-400.000
848.74	-20.000
849.04	25.926
849.34	-36.364
849.63	-50.000
849.93	-360.000
850.23	22.222
850.53	-10.000
850.82	-7.692
851.12	-100.000
851.42	-26.667
851.71	-3.846
852.01	35.714
852.31	-400.000
852.61	36.364
852.90	-15.000
853.20	-10.526
853.50	-33.333
853.79	-13.043
854.09	-25.000
854.39	36.842
854.68	12.500
854.98	45.161
855.28	15.385
855.57	-10.000
855.87	50.000
856.17	7.407
856.46	35.714
856.76	6.667
857.05	44.444
857.35	4.000
857.65	11.111
857.94	15.385
858.24	37.931
858.53	22.222
858.83	37.037
859.13	18.182
859.42	21.739
859.72	50.000
860.01	-333.333
860.31	20.000
860.60	14.286
860.90	-333.333
861.20	-13.333
861.49	-400.000
861.79	-100.000
862.08	35.000
862.38	26.667
862.67	-140.000
862.97	-116.667
863.26	-75.000
863.56	11.111
863.85	-466.667
864.15	50.000
864.44	-20.000
864.74	21.429
865.03	225.000
865.33	-260.000
865.62	-33.333
865.92	0.000
866.21	-350.000
866.51	25.000
866.80	-63.636
867.10	-400.000
867.39	125.000
867.69	0.000
867.98	61.538
868.27	-100.000
868.57	0.000
868.86	27.778
869.16	-76.923
869.45	46.667
869.75	-100.000
870.04	0.000
870.33	-85.714
870.63	57.143
870.92	466.667
871.22	-260.000
871.51	-600.000
871.80	144.444
872.10	500.000
>>>>>End Processed Spectral Data<<<<<
