SpectraSuite Data File
++++++++++++++++++++++++++++++++++++
Date: Fri May 15 20:37:08 PDT 2015
User: schluterlab
Dark Spectrum Present: Yes
Reference Spectrum Present: Yes
Number of Sampled Component Spectra: 1
Spectrometers: USB2E3373
Integration Time (usec): 3000 (USB2E3373)
Spectra Averaged: 3 (USB2E3373)
Boxcar Smoothing: 0 (USB2E3373)
Correct for Electrical Dark: No (USB2E3373)
Strobe/Lamp Enabled: No (USB2E3373)
Correct for Detector Non-linearity: No (USB2E3373)
Correct for Stray Light: No (USB2E3373)
Number of Pixels in Processed Spectrum: 2048
>>>>>Begin Processed Spectral Data<<<<<
178.53	0.000
178.91	0.000
179.29	87.500
179.67	-800.000
180.04	-14.286
180.42	50.000
180.80	-1000.000
181.18	-266.667
181.56	550.000
181.94	-50.000
182.31	300.000
182.69	-100.000
183.07	-200.000
183.45	-20.000
183.83	150.000
184.20	-36.364
184.58	166.667
184.96	-75.000
185.34	166.667
185.72	-750.000
186.09	53.846
186.47	-900.000
186.85	116.667
187.23	-33.333
187.61	-0.000
187.98	-266.667
188.36	-11.111
188.74	-66.667
189.12	17.647
189.49	11.111
189.87	0.000
190.25	28.571
190.63	-250.000
191.00	-166.667
191.38	57.895
191.76	250.000
192.14	75.000
192.51	-50.000
192.89	-77.778
193.27	42.857
193.65	150.000
194.02	181.818
194.40	50.000
194.78	-87.500
195.15	0.000
195.53	-100.000
195.91	425.000
196.29	-175.000
196.66	115.385
197.04	100.000
197.42	0.000
197.79	-800.000
198.17	-123.077
198.55	900.000
198.92	-133.333
199.30	-400.000
199.68	-160.000
200.05	-133.333
200.43	0.000
200.81	-300.000
201.18	-233.333
201.56	1000.000
201.94	0.000
202.31	-266.667
202.69	-100.000
203.07	125.000
203.44	-300.000
203.82	0.000
204.19	28.571
204.57	-333.333
204.95	100.000
205.32	60.000
205.70	42.857
206.08	-100.000
206.45	144.444
206.83	85.714
207.20	-128.571
207.58	-400.000
207.96	-366.667
208.33	-40.000
208.71	125.000
209.08	-66.667
209.46	-1300.000
209.84	-160.000
210.21	-400.000
210.59	14.286
210.96	-66.667
211.34	-25.000
211.71	60.000
212.09	-71.429
212.46	-1100.000
212.84	0.000
213.22	80.000
213.59	600.000
213.97	61.538
214.34	18.182
214.72	-83.333
215.09	325.000
215.47	46.154
215.84	-90.909
216.22	-400.000
216.59	37.500
216.97	350.000
217.34	-25.000
217.72	-280.000
218.09	62.500
218.47	212.500
218.84	-800.000
219.22	-55.556
219.59	-60.000
219.97	566.667
220.34	75.000
220.72	71.429
221.09	-350.000
221.47	-150.000
221.84	-550.000
222.22	-300.000
222.59	-27.273
222.97	8.333
223.34	-333.333
223.72	-7.143
224.09	52.381
224.46	10.714
224.84	566.667
225.21	-30.000
225.59	93.333
225.96	-700.000
226.34	450.000
226.71	-100.000
227.08	-33.333
227.46	-37.500
227.83	-300.000
228.21	-33.333
228.58	18.182
228.95	-50.000
229.33	100.000
229.70	-37.500
230.08	-112.500
230.45	-142.857
230.82	-42.857
231.20	-66.667
231.57	0.000
231.95	-85.714
232.32	-120.000
232.69	21.429
233.07	-66.667
233.44	-140.000
233.81	-40.000
234.19	55.556
234.56	-29.412
234.93	100.000
235.31	100.000
235.68	-60.000
236.05	-69.231
236.43	-55.000
236.80	17.647
237.17	9.375
237.55	5.000
237.92	0.000
238.29	47.222
238.67	53.333
239.04	14.706
239.41	12.195
239.79	20.000
240.16	19.512
240.53	10.526
240.91	2.174
241.28	15.873
241.65	35.714
242.02	41.096
242.40	18.333
242.77	20.339
243.14	24.242
243.51	21.250
243.89	39.080
244.26	12.644
244.63	33.333
245.00	21.649
245.38	34.021
245.75	4.494
246.12	21.552
246.49	27.273
246.87	45.192
247.24	21.849
247.61	24.561
247.98	26.829
248.36	25.000
248.73	31.579
249.10	24.675
249.47	26.582
249.84	30.065
250.22	22.353
250.59	32.680
250.96	27.230
251.33	25.000
251.70	28.824
252.08	29.442
252.45	29.703
252.82	29.146
253.19	33.180
253.56	24.299
253.94	35.586
254.31	29.565
254.68	31.579
255.05	31.496
255.42	27.511
255.79	28.958
256.16	30.739
256.54	32.463
256.91	26.236
257.28	29.740
257.65	28.464
258.02	30.496
258.39	32.997
258.76	35.531
259.14	31.229
259.51	30.097
259.88	28.866
260.25	30.392
260.62	31.250
260.99	28.136
261.36	27.397
261.73	30.696
262.10	31.611
262.47	28.528
262.85	30.721
263.22	32.923
263.59	31.464
263.96	34.783
264.33	31.515
264.70	32.440
265.07	24.405
265.44	31.161
265.81	30.226
266.18	33.333
266.55	33.162
266.92	30.829
267.29	30.026
267.66	30.946
268.03	30.890
268.40	29.243
268.77	33.957
269.14	28.537
269.51	31.877
269.88	29.426
270.25	30.867
270.62	28.049
270.99	28.133
271.36	31.296
271.73	29.812
272.10	31.387
272.47	31.442
272.84	28.465
273.21	29.234
273.58	30.602
273.95	28.833
274.32	28.868
274.69	26.697
275.06	32.813
275.43	28.345
275.80	32.009
276.17	28.506
276.54	29.764
276.91	28.947
277.28	28.821
277.65	29.339
278.02	29.149
278.39	31.947
278.76	29.769
279.13	25.934
279.50	32.563
279.87	28.942
280.23	29.032
280.60	30.604
280.97	29.899
281.34	28.269
281.71	31.828
282.08	29.857
282.45	26.419
282.82	27.027
283.19	29.594
283.56	28.324
283.92	29.222
284.29	26.731
284.66	27.519
285.03	27.308
285.40	27.410
285.77	27.241
286.14	27.617
286.51	30.258
286.87	27.605
287.24	29.282
287.61	25.573
287.98	29.474
288.35	26.690
288.72	29.072
289.08	27.083
289.45	26.362
289.82	26.923
290.19	25.597
290.56	24.871
290.93	26.431
291.29	24.807
291.66	25.354
292.03	25.997
292.40	24.194
292.77	25.518
293.13	22.890
293.50	23.672
293.87	25.038
294.24	22.875
294.60	24.292
294.97	24.851
295.34	24.847
295.71	23.696
296.08	21.674
296.44	22.475
296.81	21.528
297.18	22.754
297.55	22.629
297.91	20.685
298.28	22.164
298.65	21.303
299.02	21.698
299.38	20.383
299.75	21.517
300.12	21.859
300.48	22.003
300.85	22.433
301.22	21.688
301.59	21.447
301.95	22.278
302.32	23.865
302.69	20.274
303.05	19.678
303.42	22.540
303.79	20.444
304.15	22.222
304.52	19.382
304.89	19.415
305.25	20.702
305.62	19.487
305.99	19.883
306.35	20.578
306.72	19.460
307.09	19.954
307.45	20.781
307.82	20.602
308.19	20.441
308.55	18.103
308.92	19.390
309.29	19.888
309.65	19.160
310.02	18.482
310.38	21.076
310.75	20.437
311.12	19.914
311.48	20.467
311.85	19.791
312.22	18.776
312.58	18.896
312.95	20.064
313.31	18.841
313.68	20.524
314.05	19.490
314.41	20.722
314.78	19.588
315.14	21.686
315.51	21.636
315.87	20.902
316.24	21.941
316.61	22.539
316.97	21.528
317.34	21.094
317.70	22.753
318.07	22.885
318.43	21.569
318.80	21.686
319.16	23.535
319.53	24.217
319.89	22.539
320.26	23.583
320.62	25.276
320.99	23.173
321.35	24.563
321.72	25.026
322.08	24.673
322.45	26.904
322.81	28.094
323.18	27.282
323.54	26.544
323.91	26.972
324.27	28.711
324.64	30.243
325.00	29.562
325.37	29.660
325.73	29.374
326.10	30.336
326.46	31.121
326.83	31.584
327.19	32.520
327.56	33.449
327.92	33.715
328.29	33.125
328.65	33.774
329.01	33.915
329.38	35.023
329.74	34.561
330.11	35.218
330.47	35.900
330.84	35.096
331.20	38.118
331.56	35.000
331.93	36.438
332.29	36.022
332.66	37.285
333.02	37.268
333.38	37.305
333.75	37.454
334.11	35.721
334.48	37.625
334.84	35.897
335.20	38.701
335.57	36.446
335.93	39.295
336.29	38.582
336.66	37.421
337.02	38.011
337.38	37.500
337.75	39.091
338.11	38.233
338.47	38.869
338.84	38.170
339.20	38.848
339.56	40.642
339.93	38.854
340.29	40.367
340.65	40.771
341.02	40.337
341.38	39.735
341.74	39.046
342.11	37.955
342.47	40.302
342.83	39.965
343.20	38.850
343.56	40.435
343.92	39.238
344.28	41.503
344.65	39.724
345.01	39.931
345.37	39.529
345.73	39.749
346.10	40.207
346.46	40.622
346.82	39.771
347.19	39.235
347.55	40.602
347.91	39.968
348.27	39.693
348.63	41.312
349.00	39.951
349.36	41.646
349.72	42.371
350.08	40.000
350.45	40.463
350.81	39.867
351.17	39.251
351.53	40.000
351.89	39.472
352.26	41.200
352.62	41.129
352.98	39.679
353.34	41.707
353.70	41.828
354.07	41.048
354.43	39.872
354.79	40.132
355.15	41.905
355.51	41.772
355.87	41.990
356.24	41.272
356.60	40.663
356.96	40.714
357.32	41.933
357.68	42.768
358.04	41.599
358.40	41.399
358.77	40.032
359.13	40.833
359.49	41.294
359.85	41.264
360.21	42.265
360.57	41.546
360.93	41.906
361.29	40.710
361.66	42.790
362.02	43.030
362.38	41.965
362.74	42.468
363.10	42.588
363.46	42.624
363.82	44.328
364.18	42.362
364.54	43.088
364.90	41.577
365.26	41.921
365.62	43.796
365.98	43.109
366.35	43.263
366.71	44.420
367.07	44.630
367.43	42.559
367.79	43.958
368.15	43.288
368.51	43.263
368.87	43.862
369.23	42.383
369.59	45.335
369.95	44.428
370.31	44.581
370.67	44.776
371.03	43.913
371.39	44.274
371.75	44.469
372.11	44.579
372.47	46.672
372.83	45.209
373.19	45.578
373.55	43.610
373.91	44.780
374.27	46.917
374.63	45.872
374.99	44.965
375.35	46.031
375.71	46.434
376.07	46.419
376.42	45.510
376.78	45.906
377.14	46.039
377.50	46.481
377.86	47.925
378.22	46.139
378.58	46.987
378.94	46.251
379.30	46.850
379.66	46.395
380.02	46.536
380.38	47.109
380.74	46.200
381.09	47.975
381.45	46.544
381.81	47.995
382.17	47.398
382.53	47.096
382.89	49.090
383.25	48.849
383.61	48.537
383.97	48.762
384.32	48.093
384.68	48.050
385.04	47.426
385.40	48.164
385.76	49.371
386.12	50.259
386.48	49.872
386.83	49.017
387.19	50.733
387.55	49.749
387.91	49.022
388.27	49.389
388.62	50.535
388.98	49.724
389.34	48.907
389.70	50.218
390.06	48.962
390.42	49.288
390.77	50.360
391.13	50.441
391.49	50.129
391.85	50.487
392.20	50.722
392.56	50.159
392.92	51.086
393.28	50.413
393.64	50.450
393.99	52.100
394.35	50.221
394.71	50.319
395.07	49.403
395.42	50.213
395.78	51.140
396.14	51.072
396.50	51.490
396.85	51.900
397.21	52.256
397.57	51.348
397.92	51.108
398.28	51.609
398.64	50.482
399.00	51.298
399.35	50.113
399.71	50.431
400.07	51.632
400.42	50.490
400.78	51.255
401.14	51.059
401.49	50.923
401.85	51.188
402.21	50.723
402.57	51.250
402.92	50.941
403.28	53.258
403.63	51.576
403.99	52.487
404.35	51.843
404.70	50.060
405.06	50.529
405.42	50.963
405.77	50.320
406.13	50.873
406.49	50.977
406.84	51.161
407.20	51.716
407.55	51.062
407.91	50.735
408.27	51.243
408.62	50.892
408.98	50.277
409.34	51.487
409.69	51.486
410.05	50.985
410.40	51.420
410.76	51.146
411.11	51.625
411.47	52.268
411.83	51.099
412.18	51.995
412.54	50.187
412.89	50.677
413.25	51.564
413.60	51.615
413.96	49.939
414.31	51.037
414.67	50.032
415.03	50.466
415.38	50.131
415.74	50.749
416.09	51.600
416.45	52.194
416.80	49.967
417.16	51.657
417.51	50.966
417.87	51.043
418.22	51.813
418.58	51.438
418.93	51.097
419.29	48.720
419.64	51.717
420.00	51.511
420.35	51.045
420.71	51.094
421.06	50.522
421.42	50.841
421.77	51.098
422.12	50.511
422.48	51.489
422.83	50.348
423.19	50.169
423.54	50.382
423.90	50.412
424.25	50.631
424.61	50.367
424.96	49.535
425.31	52.686
425.67	51.643
426.02	51.472
426.38	50.407
426.73	51.816
427.09	51.519
427.44	50.176
427.79	50.913
428.15	50.850
428.50	50.939
428.85	48.894
429.21	51.783
429.56	50.728
429.92	49.820
430.27	49.273
430.62	50.235
430.98	50.743
431.33	50.053
431.68	49.608
432.04	50.140
432.39	49.800
432.74	48.888
433.10	50.747
433.45	50.060
433.80	49.913
434.16	49.640
434.51	49.839
434.86	50.523
435.22	50.196
435.57	50.905
435.92	49.401
436.28	48.897
436.63	50.257
436.98	49.131
437.34	49.183
437.69	51.103
438.04	49.573
438.39	49.664
438.75	50.334
439.10	49.236
439.45	51.187
439.81	48.685
440.16	50.238
440.51	49.373
440.86	50.816
441.22	49.038
441.57	49.448
441.92	49.370
442.27	49.612
442.63	49.625
442.98	50.144
443.33	49.026
443.68	49.443
444.03	50.323
444.39	49.385
444.74	50.892
445.09	49.944
445.44	48.661
445.79	49.923
446.15	48.568
446.50	48.142
446.85	49.097
447.20	48.592
447.55	48.940
447.91	48.618
448.26	49.175
448.61	48.647
448.96	48.996
449.31	48.324
449.66	48.490
450.02	49.230
450.37	48.429
450.72	47.480
451.07	49.241
451.42	48.627
451.77	48.945
452.12	46.651
452.47	48.294
452.83	47.350
453.18	48.767
453.53	48.546
453.88	49.423
454.23	47.449
454.58	48.866
454.93	48.518
455.28	47.048
455.63	48.047
455.98	47.505
456.34	48.531
456.69	48.793
457.04	48.141
457.39	48.299
457.74	48.065
458.09	45.674
458.44	47.396
458.79	46.779
459.14	47.254
459.49	48.418
459.84	47.377
460.19	46.663
460.54	47.861
460.89	47.330
461.24	47.019
461.59	46.734
461.94	45.472
462.29	47.407
462.64	48.439
462.99	46.852
463.34	47.079
463.69	46.396
464.04	46.852
464.39	46.574
464.74	46.564
465.09	46.725
465.44	45.990
465.79	45.238
466.14	45.895
466.49	45.428
466.84	45.747
467.19	46.496
467.54	44.955
467.89	45.736
468.24	44.891
468.59	45.206
468.94	45.079
469.29	46.426
469.64	45.113
469.99	47.022
470.34	44.983
470.68	46.234
471.03	45.931
471.38	45.506
471.73	45.588
472.08	44.640
472.43	45.369
472.78	44.688
473.13	45.510
473.48	44.560
473.83	45.019
474.17	45.920
474.52	44.735
474.87	45.455
475.22	45.333
475.57	44.438
475.92	45.420
476.27	44.529
476.61	43.750
476.96	43.224
477.31	44.132
477.66	43.483
478.01	44.245
478.36	44.662
478.70	43.774
479.05	43.187
479.40	44.621
479.75	43.431
480.10	43.625
480.45	42.600
480.79	44.058
481.14	44.314
481.49	43.547
481.84	44.208
482.19	42.563
482.53	43.885
482.88	42.912
483.23	43.522
483.58	42.642
483.92	42.401
484.27	41.431
484.62	41.327
484.97	40.796
485.31	41.510
485.66	40.005
486.01	40.601
486.36	40.427
486.70	40.721
487.05	41.523
487.40	40.977
487.75	41.662
488.09	40.791
488.44	41.059
488.79	41.091
489.13	41.306
489.48	41.513
489.83	40.762
490.17	41.213
490.52	41.293
490.87	40.907
491.22	41.834
491.56	41.319
491.91	41.396
492.26	41.711
492.60	41.795
492.95	41.859
493.30	40.743
493.64	41.012
493.99	40.048
494.34	40.631
494.68	40.667
495.03	40.535
495.37	40.481
495.72	40.535
496.07	41.024
496.41	39.528
496.76	39.475
497.11	38.379
497.45	40.000
497.80	40.262
498.14	39.642
498.49	39.868
498.84	40.120
499.18	40.663
499.53	40.625
499.87	39.251
500.22	39.466
500.56	39.385
500.91	39.859
501.26	39.496
501.60	39.203
501.95	39.495
502.29	39.709
502.64	38.996
502.98	39.221
503.33	37.944
503.67	38.458
504.02	39.589
504.36	39.634
504.71	38.232
505.06	38.500
505.40	39.492
505.75	39.381
506.09	38.723
506.44	38.706
506.78	38.265
507.13	38.987
507.47	37.911
507.82	37.981
508.16	37.190
508.51	38.510
508.85	38.200
509.19	37.307
509.54	38.391
509.88	38.619
510.23	38.031
510.57	38.268
510.92	36.674
511.26	37.752
511.61	38.174
511.95	37.699
512.30	37.306
512.64	37.730
512.98	38.012
513.33	37.549
513.67	37.464
514.02	38.043
514.36	38.229
514.70	38.578
515.05	38.954
515.39	37.898
515.74	39.042
516.08	38.852
516.42	38.693
516.77	36.161
517.11	38.754
517.46	37.882
517.80	37.962
518.14	37.293
518.49	36.839
518.83	37.789
519.17	37.053
519.52	36.886
519.86	36.315
520.20	38.396
520.55	36.335
520.89	36.888
521.23	35.972
521.58	38.297
521.92	37.372
522.26	37.345
522.61	37.857
522.95	38.146
523.29	36.976
523.64	36.722
523.98	38.043
524.32	36.791
524.66	36.748
525.01	36.753
525.35	37.006
525.69	36.027
526.04	35.780
526.38	37.873
526.72	36.429
527.06	35.798
527.41	36.741
527.75	35.791
528.09	36.611
528.43	37.205
528.78	35.974
529.12	35.484
529.46	36.322
529.80	35.592
530.15	36.700
530.49	36.296
530.83	36.320
531.17	35.662
531.51	35.705
531.86	35.418
532.20	35.073
532.54	36.419
532.88	36.277
533.22	35.954
533.57	35.976
533.91	34.856
534.25	35.938
534.59	34.317
534.93	34.235
535.27	34.708
535.62	34.932
535.96	35.225
536.30	36.082
536.64	35.355
536.98	34.286
537.32	36.202
537.66	35.344
538.01	35.315
538.35	34.674
538.69	35.353
539.03	34.040
539.37	35.061
539.71	35.515
540.05	34.827
540.39	34.834
540.73	34.658
541.07	36.533
541.42	34.946
541.76	35.306
542.10	34.756
542.44	34.816
542.78	32.278
543.12	34.203
543.46	33.588
543.80	34.559
544.14	33.845
544.48	33.111
544.82	34.108
545.16	34.699
545.50	33.244
545.84	34.986
546.18	35.390
546.52	33.526
546.86	33.214
547.20	33.333
547.54	33.074
547.88	34.103
548.22	33.070
548.56	33.707
548.90	32.817
549.24	32.231
549.58	32.793
549.92	33.024
550.26	33.553
550.60	32.937
550.94	33.383
551.28	33.230
551.62	34.462
551.96	33.459
552.30	32.895
552.64	32.652
552.98	33.826
553.32	32.882
553.66	31.713
554.00	33.358
554.34	33.456
554.68	32.522
555.02	32.813
555.36	32.236
555.69	31.868
556.03	32.049
556.37	32.527
556.71	31.913
557.05	32.289
557.39	32.119
557.73	32.759
558.07	33.409
558.41	32.466
558.75	33.671
559.08	32.309
559.42	31.825
559.76	32.186
560.10	32.187
560.44	31.794
560.78	32.168
561.12	32.581
561.45	32.045
561.79	31.653
562.13	32.221
562.47	31.511
562.81	32.061
563.15	31.594
563.48	30.481
563.82	32.327
564.16	31.685
564.50	32.365
564.84	30.991
565.17	30.718
565.51	31.899
565.85	31.756
566.19	31.233
566.52	31.166
566.86	32.519
567.20	31.133
567.54	30.961
567.88	31.459
568.21	31.222
568.55	30.924
568.89	30.390
569.23	31.295
569.56	30.648
569.90	31.263
570.24	30.182
570.57	30.764
570.91	31.753
571.25	30.155
571.59	29.212
571.92	29.778
572.26	30.072
572.60	29.798
572.93	29.338
573.27	29.279
573.61	29.863
573.95	29.847
574.28	28.999
574.62	29.545
574.96	28.896
575.29	28.723
575.63	29.075
575.97	28.843
576.30	29.154
576.64	28.768
576.98	29.730
577.31	29.639
577.65	29.427
577.98	29.269
578.32	29.301
578.66	28.347
578.99	28.779
579.33	28.479
579.67	28.741
580.00	28.937
580.34	28.731
580.67	28.759
581.01	28.722
581.35	28.273
581.68	28.735
582.02	28.592
582.35	28.969
582.69	28.496
583.02	28.669
583.36	29.264
583.70	29.335
584.03	29.024
584.37	29.701
584.70	29.505
585.04	28.342
585.37	28.256
585.71	28.487
586.04	28.618
586.38	28.354
586.72	28.407
587.05	29.376
587.39	28.404
587.72	28.923
588.06	29.145
588.39	28.283
588.73	28.297
589.06	29.191
589.40	29.139
589.73	29.171
590.07	29.532
590.40	29.605
590.73	29.077
591.07	29.304
591.40	29.118
591.74	29.367
592.07	29.267
592.41	29.064
592.74	29.072
593.08	28.257
593.41	28.633
593.75	27.903
594.08	27.875
594.41	28.967
594.75	28.130
595.08	28.377
595.42	28.561
595.75	28.990
596.09	28.812
596.42	28.193
596.75	29.218
597.09	29.112
597.42	28.094
597.75	28.859
598.09	28.112
598.42	28.023
598.76	27.284
599.09	28.205
599.42	28.117
599.76	27.916
600.09	28.281
600.42	27.938
600.76	27.600
601.09	27.366
601.42	27.693
601.76	28.384
602.09	28.177
602.42	29.360
602.76	28.480
603.09	28.198
603.42	28.177
603.76	27.339
604.09	26.934
604.42	27.707
604.76	29.061
605.09	28.245
605.42	27.946
605.75	27.715
606.09	27.771
606.42	27.273
606.75	26.710
607.09	28.220
607.42	26.761
607.75	27.487
608.08	27.134
608.42	27.775
608.75	27.952
609.08	27.853
609.41	27.766
609.75	26.714
610.08	27.958
610.41	27.295
610.74	27.889
611.07	28.010
611.41	27.763
611.74	27.772
612.07	26.660
612.40	27.516
612.73	27.853
613.07	28.290
613.40	28.392
613.73	27.029
614.06	27.824
614.39	28.314
614.72	27.619
615.06	27.263
615.39	27.129
615.72	27.341
616.05	27.207
616.38	26.724
616.71	27.645
617.05	27.733
617.38	27.656
617.71	27.987
618.04	28.063
618.37	28.815
618.70	27.393
619.03	29.306
619.36	27.496
619.69	27.293
620.03	27.977
620.36	28.469
620.69	27.837
621.02	28.746
621.35	28.382
621.68	27.466
622.01	28.083
622.34	27.294
622.67	28.470
623.00	27.106
623.33	27.439
623.66	27.150
623.99	27.761
624.32	28.061
624.65	27.143
624.99	28.894
625.32	27.521
625.65	28.358
625.98	27.881
626.31	28.346
626.64	28.423
626.97	28.185
627.30	28.546
627.63	27.990
627.96	28.122
628.29	27.475
628.62	29.007
628.95	28.056
629.28	29.234
629.61	28.016
629.94	28.152
630.26	27.174
630.59	29.761
630.92	29.333
631.25	28.308
631.58	29.075
631.91	29.057
632.24	30.505
632.57	27.727
632.90	29.775
633.23	27.647
633.56	27.960
633.89	27.127
634.22	27.901
634.55	27.192
634.88	26.437
635.20	26.923
635.53	28.800
635.86	27.568
636.19	28.331
636.52	28.061
636.85	27.792
637.18	26.541
637.51	28.805
637.83	26.544
638.16	29.468
638.49	26.567
638.82	29.605
639.15	28.087
639.48	26.960
639.81	28.312
640.13	28.571
640.46	27.843
640.79	27.099
641.12	27.326
641.45	26.877
641.77	28.889
642.10	27.488
642.43	29.260
642.76	28.218
643.09	28.756
643.41	30.097
643.74	30.478
644.07	28.407
644.40	29.223
644.73	29.247
645.05	28.188
645.38	31.922
645.71	28.191
646.04	28.366
646.36	29.078
646.69	30.396
647.02	29.490
647.35	29.851
647.67	27.605
648.00	27.239
648.33	27.304
648.66	26.271
648.98	26.466
649.31	24.132
649.64	25.903
649.96	26.904
650.29	28.620
650.62	28.034
650.94	27.407
651.27	26.816
651.60	28.108
651.92	29.545
652.25	27.886
652.58	25.667
652.90	28.645
653.23	26.723
653.56	27.411
653.88	25.601
654.21	25.569
654.54	27.334
654.86	27.844
655.19	27.047
655.52	25.851
655.84	24.357
656.17	27.106
656.49	37.133
656.82	38.918
657.15	30.187
657.47	22.511
657.80	16.590
658.13	16.244
658.45	25.582
658.78	25.871
659.10	25.196
659.43	26.329
659.75	26.394
660.08	26.000
660.41	27.171
660.73	25.691
661.06	28.596
661.38	25.832
661.71	23.409
662.03	29.185
662.36	26.154
662.68	27.434
663.01	29.039
663.33	25.986
663.66	28.140
663.98	25.814
664.31	29.424
664.63	25.346
664.96	25.435
665.28	22.517
665.61	26.407
665.93	26.739
666.26	27.332
666.58	22.595
666.91	24.941
667.23	30.896
667.56	27.962
667.88	27.818
668.21	28.162
668.53	29.314
668.86	26.179
669.18	25.708
669.50	26.392
669.83	26.279
670.15	28.904
670.48	26.316
670.80	27.419
671.13	25.727
671.45	25.342
671.77	28.112
672.10	26.139
672.42	26.217
672.75	24.334
673.07	28.086
673.39	27.339
673.72	24.852
674.04	27.708
674.37	26.483
674.69	25.910
675.01	25.778
675.34	26.351
675.66	24.769
675.98	25.277
676.31	27.294
676.63	22.803
676.95	25.455
677.28	28.235
677.60	26.988
677.92	26.606
678.25	25.602
678.57	24.026
678.89	27.521
679.22	26.846
679.54	22.088
679.86	24.254
680.18	26.408
680.51	26.136
680.83	26.441
681.15	26.400
681.48	28.279
681.80	28.099
682.12	25.605
682.44	24.686
682.77	24.283
683.09	25.629
683.41	25.455
683.73	27.189
684.06	26.991
684.38	21.935
684.70	25.272
685.02	23.651
685.34	22.727
685.67	26.454
685.99	27.848
686.31	25.133
686.63	27.087
686.96	22.243
687.28	24.242
687.60	24.905
687.92	27.273
688.24	24.798
688.56	25.546
688.89	27.902
689.21	25.333
689.53	27.378
689.85	26.512
690.17	26.116
690.49	24.586
690.82	26.214
691.14	23.333
691.46	23.364
691.78	22.748
692.10	26.237
692.42	24.459
692.74	26.709
693.06	26.802
693.39	19.910
693.71	24.887
694.03	25.404
694.35	22.196
694.67	23.232
694.99	25.849
695.31	29.504
695.63	27.000
695.95	25.000
696.27	23.316
696.59	23.889
696.91	26.050
697.23	21.080
697.56	22.277
697.88	25.591
698.20	23.690
698.52	26.118
698.84	23.684
699.16	24.250
699.48	26.316
699.80	24.069
700.12	26.146
700.44	25.210
700.76	24.128
701.08	24.545
701.40	23.494
701.72	27.469
702.04	27.393
702.36	26.087
702.68	24.625
703.00	25.455
703.32	24.340
703.64	19.774
703.96	24.638
704.28	23.006
704.60	26.984
704.91	22.397
705.23	24.585
705.55	25.442
705.87	23.105
706.19	28.148
706.51	21.306
706.83	22.508
707.15	22.741
707.47	25.210
707.79	23.958
708.11	24.000
708.43	23.500
708.74	23.514
709.06	23.380
709.38	25.994
709.70	23.669
710.02	21.975
710.34	26.316
710.66	20.513
710.98	22.517
711.29	25.902
711.61	24.746
711.93	25.407
712.25	25.430
712.57	23.810
712.89	22.015
713.20	27.682
713.52	24.042
713.84	20.478
714.16	20.962
714.48	23.871
714.80	22.756
715.11	22.188
715.43	23.511
715.75	22.667
716.07	22.924
716.39	21.477
716.70	20.664
717.02	23.664
717.34	25.101
717.66	23.894
717.97	22.609
718.29	23.013
718.61	23.622
718.93	24.419
719.24	26.996
719.56	21.687
719.88	27.491
720.20	20.455
720.51	22.989
720.83	26.641
721.15	26.471
721.46	20.968
721.78	16.996
722.10	21.561
722.42	21.577
722.73	27.347
723.05	24.490
723.37	22.881
723.68	29.730
724.00	26.068
724.32	20.000
724.63	20.000
724.95	20.524
725.27	23.963
725.58	23.729
725.90	21.429
726.22	27.027
726.53	26.780
726.85	26.966
727.16	27.925
727.48	17.814
727.80	25.911
728.11	23.305
728.43	24.314
728.74	19.355
729.06	23.200
729.38	27.820
729.69	17.530
730.01	21.538
730.32	25.746
730.64	25.442
730.96	27.170
731.27	20.000
731.59	21.356
731.90	22.930
732.22	26.183
732.53	24.252
732.85	25.177
733.16	26.936
733.48	19.784
733.80	18.116
734.11	22.034
734.43	24.055
734.74	23.333
735.06	21.173
735.37	26.284
735.69	24.916
736.00	18.815
736.32	24.497
736.63	22.887
736.95	23.549
737.26	20.285
737.58	23.826
737.89	21.612
738.21	19.925
738.52	25.514
738.83	26.201
739.15	19.214
739.46	21.654
739.78	20.147
740.09	21.569
740.41	21.014
740.72	23.228
741.04	20.243
741.35	22.979
741.66	20.379
741.98	18.367
742.29	20.297
742.61	22.513
742.92	11.848
743.23	14.815
743.55	22.624
743.86	22.967
744.18	21.531
744.49	18.617
744.80	20.109
745.12	27.807
745.43	17.561
745.74	29.167
746.06	21.463
746.37	25.131
746.68	27.014
747.00	19.149
747.31	25.373
747.62	15.534
747.94	29.665
748.25	14.851
748.56	22.404
748.88	21.990
749.19	26.064
749.50	23.645
749.82	15.566
750.13	21.101
750.44	22.556
750.75	23.507
751.07	26.277
751.38	21.073
751.69	18.824
752.01	21.318
752.32	18.327
752.63	21.344
752.94	18.966
753.26	26.360
753.57	20.362
753.88	23.894
754.19	20.000
754.51	19.421
754.82	21.053
755.13	25.000
755.44	22.984
755.75	25.391
756.07	22.957
756.38	22.642
756.69	15.326
757.00	22.000
757.31	20.915
757.63	21.037
757.94	21.111
758.25	20.822
758.56	21.011
758.87	17.280
759.18	21.807
759.50	24.364
759.81	24.080
760.12	17.742
760.43	18.788
760.74	23.765
761.05	23.692
761.36	18.182
761.67	22.424
761.99	25.170
762.30	17.818
762.61	22.925
762.92	22.624
763.23	23.423
763.54	20.093
763.85	19.915
764.16	20.332
764.47	17.742
764.78	17.582
765.10	22.896
765.41	22.082
765.72	22.857
766.03	21.805
766.34	19.708
766.65	24.701
766.96	24.242
767.27	21.277
767.58	17.816
767.89	14.894
768.20	18.182
768.51	20.330
768.82	18.227
769.13	19.816
769.44	20.601
769.75	19.178
770.06	21.121
770.37	22.596
770.68	22.843
770.99	20.362
771.30	19.608
771.61	19.457
771.92	23.707
772.23	26.601
772.54	19.355
772.85	22.840
773.16	22.472
773.47	20.915
773.78	20.915
774.09	16.766
774.39	11.333
774.70	13.376
775.01	18.621
775.32	21.429
775.63	4.132
775.94	19.847
776.25	20.472
776.56	17.500
776.87	19.231
777.18	13.675
777.48	24.138
777.79	13.043
778.10	9.524
778.41	14.414
778.72	20.635
779.03	17.293
779.34	19.858
779.65	15.753
779.95	17.123
780.26	17.241
780.57	25.203
780.88	17.323
781.19	15.517
781.50	26.357
781.80	15.385
782.11	16.352
782.42	21.538
782.73	17.266
783.04	17.778
783.34	15.278
783.65	5.983
783.96	14.754
784.27	26.207
784.57	17.073
784.88	26.563
785.19	17.000
785.50	17.000
785.81	22.414
786.11	16.379
786.42	18.447
786.73	24.545
787.04	18.367
787.34	14.286
787.65	6.667
787.96	16.814
788.26	20.000
788.57	27.350
788.88	25.781
789.19	14.286
789.49	18.261
789.80	20.408
790.11	12.121
790.41	7.273
790.72	22.826
791.03	32.955
791.33	21.250
791.64	10.000
791.95	8.140
792.25	8.511
792.56	15.730
792.87	17.808
793.17	8.696
793.48	14.667
793.79	35.000
794.09	16.250
794.40	27.358
794.70	14.563
795.01	11.382
795.32	15.385
795.62	20.000
795.93	0.000
796.23	17.925
796.54	29.167
796.85	11.765
797.15	30.986
797.46	20.833
797.76	12.121
798.07	12.791
798.37	10.526
798.68	16.667
798.99	14.815
799.29	28.571
799.60	18.841
799.90	34.667
800.21	13.115
800.51	9.231
800.82	10.169
801.12	31.884
801.43	9.836
801.73	14.286
802.04	10.000
802.34	22.388
802.65	7.692
802.95	23.214
803.26	0.000
803.56	13.725
803.87	6.522
804.17	13.333
804.48	22.222
804.78	0.000
805.09	0.000
805.39	-4.444
805.70	18.519
806.00	-10.526
806.30	18.310
806.61	12.857
806.91	1.389
807.22	21.053
807.52	33.333
807.83	-18.182
808.13	19.444
808.43	13.235
808.74	13.433
809.04	8.475
809.35	3.846
809.65	28.125
809.95	-8.108
810.26	9.091
810.56	12.329
810.86	0.000
811.17	24.000
811.47	-2.041
811.77	10.526
812.08	13.636
812.38	9.434
812.69	2.500
812.99	-9.091
813.29	-2.632
813.59	-5.714
813.90	11.364
814.20	-23.077
814.50	13.462
814.81	22.642
815.11	-14.894
815.41	11.864
815.72	23.810
816.02	17.647
816.32	14.583
816.62	14.634
816.93	-16.216
817.23	-11.429
817.53	12.500
817.84	15.217
818.14	-5.769
818.44	21.053
818.74	23.913
819.04	-30.000
819.35	24.324
819.65	17.647
819.95	-11.111
820.25	26.190
820.56	37.500
820.86	-48.276
821.16	30.000
821.46	10.638
821.76	15.000
822.07	6.977
822.37	10.811
822.67	-12.500
822.97	16.667
823.27	-39.286
823.57	4.000
823.88	-18.519
824.18	-17.857
824.48	-2.941
824.78	0.000
825.08	8.696
825.38	0.000
825.69	-62.500
825.99	-13.158
826.29	11.111
826.59	13.333
826.89	-42.857
827.19	8.696
827.49	22.500
827.79	31.429
828.09	14.286
828.39	6.061
828.70	27.027
829.00	-35.714
829.30	0.000
829.60	0.000
829.90	28.125
830.20	-15.789
830.50	-40.741
830.80	-30.435
831.10	-13.636
831.40	21.212
831.70	22.581
832.00	9.524
832.30	-33.333
832.60	-141.667
832.90	0.000
833.20	-10.000
833.50	21.212
833.80	18.519
834.10	-23.077
834.40	43.750
834.70	-44.444
835.00	26.316
835.30	34.615
835.60	26.667
835.90	19.355
836.20	-9.091
836.50	-21.429
836.80	-50.000
837.10	10.714
837.40	-100.000
837.70	0.000
838.00	-27.273
838.30	-13.043
838.60	23.077
838.90	45.455
839.19	17.857
839.49	6.667
839.79	61.538
840.09	-125.000
840.39	7.143
840.69	3.571
840.99	-26.923
841.29	-5.263
841.59	-110.000
841.88	-45.455
842.18	-10.000
842.48	56.250
842.78	-13.333
843.08	-3.704
843.38	-170.000
843.68	21.739
843.97	6.667
844.27	-73.333
844.57	-15.000
844.87	-38.889
845.17	9.524
845.47	6.667
845.76	-9.524
846.06	17.647
846.36	50.000
846.66	-35.714
846.96	-66.667
847.25	-100.000
847.55	21.429
847.85	0.000
848.15	4.545
848.44	-500.000
848.74	40.000
849.04	29.630
849.34	-54.545
849.63	-200.000
849.93	-240.000
850.23	-22.222
850.53	20.000
850.82	30.769
851.12	-55.556
851.42	106.667
851.71	19.231
852.01	21.429
852.31	-25.000
852.61	-45.455
852.90	-25.000
853.20	15.789
853.50	-66.667
853.79	26.087
854.09	20.833
854.39	0.000
854.68	20.833
854.98	29.032
855.28	-11.538
855.57	10.000
855.87	-33.333
856.17	44.444
856.46	0.000
856.76	-26.667
857.05	11.111
857.35	12.000
857.65	38.889
857.94	0.000
858.24	41.379
858.53	0.000
858.83	22.222
859.13	22.727
859.42	-4.348
859.72	-125.000
860.01	-400.000
860.31	-8.000
860.60	38.095
860.90	-100.000
861.20	-46.667
861.49	-500.000
861.79	-20.000
862.08	-15.000
862.38	26.667
862.67	-100.000
862.97	-66.667
863.26	-8.333
863.56	22.222
863.85	-333.333
864.15	-61.111
864.44	-70.000
864.74	-28.571
865.03	-0.000
865.33	-140.000
865.62	-100.000
865.92	-75.000
866.21	-283.333
866.51	-18.750
866.80	-18.182
867.10	-300.000
867.39	66.667
867.69	0.000
867.98	-30.769
868.27	-66.667
868.57	66.667
868.86	27.778
869.16	0.000
869.45	33.333
869.75	-1300.000
870.04	0.000
870.33	42.857
870.63	19.048
870.92	200.000
871.22	-200.000
871.51	200.000
871.80	-66.667
872.10	66.667
>>>>>End Processed Spectral Data<<<<<
