SpectraSuite Data File
++++++++++++++++++++++++++++++++++++
Date: Fri May 15 20:36:58 PDT 2015
User: schluterlab
Dark Spectrum Present: Yes
Reference Spectrum Present: Yes
Number of Sampled Component Spectra: 1
Spectrometers: USB2E3373
Integration Time (usec): 3000 (USB2E3373)
Spectra Averaged: 3 (USB2E3373)
Boxcar Smoothing: 0 (USB2E3373)
Correct for Electrical Dark: No (USB2E3373)
Strobe/Lamp Enabled: No (USB2E3373)
Correct for Detector Non-linearity: No (USB2E3373)
Correct for Stray Light: No (USB2E3373)
Number of Pixels in Processed Spectrum: 2048
>>>>>Begin Processed Spectral Data<<<<<
178.53	0.000
178.91	0.000
179.29	137.500
179.67	-250.000
180.04	157.143
180.42	50.000
180.80	0.000
181.18	66.667
181.56	750.000
181.94	600.000
182.31	400.000
182.69	-180.000
183.07	-333.333
183.45	-380.000
183.83	233.333
184.20	0.000
184.58	100.000
184.96	100.000
185.34	33.333
185.72	-600.000
186.09	38.462
186.47	-600.000
186.85	83.333
187.23	144.444
187.61	-600.000
187.98	-433.333
188.36	11.111
188.74	0.000
189.12	5.882
189.49	72.222
189.87	0.000
190.25	0.000
190.63	250.000
191.00	-66.667
191.38	42.105
191.76	500.000
192.14	-125.000
192.51	-450.000
192.89	-11.111
193.27	-171.429
193.65	283.333
194.02	154.545
194.40	20.000
194.78	-212.500
195.15	-75.000
195.53	25.000
195.91	300.000
196.29	-325.000
196.66	69.231
197.04	85.714
197.42	22.222
197.79	-466.667
198.17	-61.538
198.55	1200.000
198.92	-400.000
199.30	-300.000
199.68	-40.000
200.05	-133.333
200.43	0.000
200.81	-166.667
201.18	-66.667
201.56	1000.000
201.94	-250.000
202.31	66.667
202.69	0.000
203.07	200.000
203.44	700.000
203.82	0.000
204.19	42.857
204.57	-300.000
204.95	112.500
205.32	100.000
205.70	28.571
206.08	50.000
206.45	222.222
206.83	57.143
207.20	-128.571
207.58	400.000
207.96	-100.000
208.33	-100.000
208.71	-200.000
209.08	-50.000
209.46	-300.000
209.84	0.000
210.21	0.000
210.59	14.286
210.96	-150.000
211.34	50.000
211.71	46.667
212.09	-171.429
212.46	-1000.000
212.84	0.000
213.22	40.000
213.59	250.000
213.97	-38.462
214.34	18.182
214.72	-33.333
215.09	225.000
215.47	-38.462
215.84	9.091
216.22	0.000
216.59	37.500
216.97	-200.000
217.34	-50.000
217.72	-120.000
218.09	37.500
218.47	37.500
218.84	-400.000
219.22	-33.333
219.59	-100.000
219.97	300.000
220.34	225.000
220.72	-28.571
221.09	-50.000
221.47	200.000
221.84	-600.000
222.22	-650.000
222.59	-18.182
222.97	0.000
223.34	66.667
223.72	-85.714
224.09	9.524
224.46	71.429
224.84	333.333
225.21	50.000
225.59	-20.000
225.96	-350.000
226.34	275.000
226.71	-71.429
227.08	16.667
227.46	25.000
227.83	-350.000
228.21	-55.556
228.58	100.000
228.95	12.500
229.33	90.000
229.70	6.250
230.08	-37.500
230.45	-71.429
230.82	28.571
231.20	-46.667
231.57	64.286
231.95	0.000
232.32	-100.000
232.69	64.286
233.07	-100.000
233.44	20.000
233.81	-60.000
234.19	33.333
234.56	29.412
234.93	200.000
235.31	75.000
235.68	-80.000
236.05	-38.462
236.43	-25.000
236.80	17.647
237.17	34.375
237.55	5.000
237.92	-3.704
238.29	41.667
238.67	53.333
239.04	2.941
239.41	-2.439
239.79	20.000
240.16	48.780
240.53	-10.526
240.91	19.565
241.28	15.873
241.65	39.286
242.02	36.986
242.40	31.667
242.77	30.508
243.14	24.242
243.51	41.250
243.89	33.333
244.26	13.793
244.63	40.476
245.00	31.959
245.38	38.144
245.75	31.461
246.12	28.448
246.49	40.496
246.87	35.577
247.24	28.571
247.61	30.702
247.98	30.894
248.36	28.750
248.73	32.237
249.10	33.117
249.47	39.241
249.84	34.641
250.22	37.059
250.59	43.791
250.96	30.516
251.33	31.395
251.70	41.765
252.08	29.949
252.45	35.644
252.82	36.683
253.19	33.641
253.56	32.243
253.94	36.036
254.31	31.739
254.68	35.526
255.05	35.433
255.42	33.188
255.79	32.046
256.16	35.798
256.54	34.328
256.91	30.038
257.28	32.342
257.65	33.708
258.02	28.723
258.39	32.323
258.76	34.066
259.14	36.545
259.51	34.304
259.88	32.990
260.25	33.660
260.62	36.458
260.99	32.881
261.36	31.849
261.73	37.025
262.10	37.994
262.47	31.902
262.85	33.856
263.22	35.077
263.59	37.072
263.96	37.578
264.33	34.545
264.70	36.607
265.07	32.143
265.44	35.411
265.81	36.158
266.18	33.880
266.55	35.733
266.92	34.197
267.29	34.987
267.66	32.225
268.03	35.340
268.40	32.115
268.77	35.027
269.14	35.731
269.51	36.761
269.88	32.170
270.25	31.122
270.62	31.463
270.99	30.179
271.36	31.296
271.73	34.038
272.10	33.820
272.47	35.934
272.84	31.436
273.21	35.499
273.58	31.084
273.95	34.554
274.32	31.871
274.69	34.163
275.06	32.813
275.43	34.014
275.80	33.775
276.17	30.805
276.54	30.407
276.91	34.211
277.28	31.223
277.65	30.372
278.02	29.574
278.39	34.792
278.76	31.866
279.13	32.573
279.50	32.983
279.87	36.285
280.23	33.333
280.60	31.384
280.97	34.141
281.34	29.808
281.71	31.828
282.08	33.129
282.45	31.115
282.82	28.958
283.19	32.882
283.56	32.755
283.92	31.309
284.29	29.231
284.66	28.295
285.03	31.434
285.40	29.868
285.77	30.404
286.14	27.617
286.51	34.133
286.87	30.347
287.24	30.203
287.61	28.571
287.98	31.930
288.35	29.809
288.72	30.998
289.08	30.208
289.45	28.822
289.82	29.371
290.19	27.986
290.56	30.360
290.93	28.283
291.29	26.194
291.66	28.346
292.03	27.273
292.40	27.903
292.77	27.911
293.13	24.513
293.50	25.190
293.87	26.870
294.24	27.512
294.60	24.441
294.97	26.339
295.34	24.387
295.71	26.230
296.08	23.767
296.44	24.609
296.81	25.972
297.18	25.652
297.55	24.255
297.91	24.384
298.28	26.385
298.65	22.388
299.02	24.259
299.38	22.982
299.75	24.828
300.12	24.215
300.48	24.242
300.85	24.842
301.22	23.377
301.59	23.158
301.95	23.038
302.32	24.125
302.69	23.881
303.05	23.639
303.42	23.537
303.79	22.897
304.15	24.253
304.52	22.711
304.89	22.222
305.25	22.276
305.62	21.354
305.99	22.573
306.35	23.699
306.72	22.835
307.09	23.831
307.45	23.766
307.82	22.106
308.19	22.880
308.55	22.574
308.92	23.638
309.29	21.899
309.65	23.789
310.02	24.422
310.38	23.820
310.75	23.060
311.12	23.681
311.48	22.587
311.85	23.665
312.22	22.996
312.58	23.248
312.95	24.013
313.31	24.224
313.68	24.921
314.05	24.184
314.41	25.361
314.78	25.567
315.14	25.694
315.51	26.190
315.87	26.947
316.24	26.087
316.61	26.575
316.97	25.595
317.34	26.172
317.70	26.960
318.07	27.019
318.43	28.824
318.80	29.451
319.16	29.004
319.53	29.060
319.89	27.953
320.26	30.061
320.62	31.494
320.99	29.958
321.35	30.113
321.72	33.229
322.08	31.521
322.45	32.995
322.81	31.729
323.18	31.600
323.54	33.012
323.91	32.522
324.27	34.180
324.64	33.521
325.00	35.036
325.37	36.088
325.73	36.174
326.10	36.331
326.46	37.937
326.83	39.108
327.19	38.099
327.56	38.662
327.92	39.701
328.29	37.589
328.65	40.943
329.01	39.798
329.38	39.631
329.74	41.643
330.11	41.427
330.47	39.889
330.84	41.250
331.20	44.011
331.56	42.593
331.93	40.457
332.29	44.271
332.66	44.253
333.02	43.123
333.38	43.446
333.75	43.498
334.11	42.704
334.48	44.243
334.84	43.864
335.20	44.190
335.57	44.243
335.93	43.541
336.29	43.278
336.66	43.052
337.02	43.401
337.38	44.907
337.75	44.818
338.11	44.274
338.47	45.255
338.84	44.362
339.20	44.059
339.56	45.321
339.93	44.315
340.29	44.679
340.65	45.878
341.02	44.149
341.38	44.867
341.74	44.876
342.11	44.541
342.47	44.573
342.83	43.945
343.20	44.686
343.56	45.304
343.92	46.944
344.28	46.285
344.65	44.819
345.01	44.512
345.37	44.659
345.73	45.105
346.10	45.039
346.46	45.164
346.82	44.763
347.19	44.223
347.55	44.695
347.91	45.227
348.27	45.271
348.63	45.571
349.00	46.021
349.36	46.384
349.72	48.176
350.08	45.000
350.45	46.209
350.81	46.013
351.17	44.625
351.53	46.367
351.89	44.922
352.26	46.160
352.62	46.613
352.98	45.221
353.34	45.008
353.70	46.926
354.07	44.839
354.43	46.277
354.79	45.417
355.15	47.619
355.51	45.649
355.87	46.845
356.24	47.064
356.60	45.432
356.96	46.587
357.32	47.125
357.68	44.957
358.04	46.365
358.40	46.383
358.77	47.448
359.13	46.437
359.49	46.071
359.85	45.788
360.21	46.970
360.57	46.519
360.93	47.655
361.29	45.997
361.66	48.197
362.02	47.652
362.38	47.601
362.74	47.237
363.10	48.533
363.46	47.665
363.82	47.934
364.18	46.494
364.54	47.721
364.90	47.885
365.26	48.399
365.62	48.321
365.98	49.194
366.35	48.944
366.71	48.633
367.07	48.113
367.43	48.670
367.79	49.187
368.15	48.457
368.51	49.235
368.87	48.887
369.23	48.014
369.59	49.490
369.95	49.487
370.31	50.434
370.67	49.552
371.03	48.768
371.39	48.724
371.75	49.744
372.11	49.144
372.47	50.222
372.83	50.177
373.19	49.643
373.55	50.181
373.91	50.108
374.27	51.595
374.63	52.046
374.99	49.929
375.35	49.721
375.71	51.538
376.07	51.334
376.42	51.973
376.78	51.946
377.14	51.726
377.50	52.258
377.86	51.138
378.22	51.883
378.58	51.795
378.94	52.111
379.30	51.653
379.66	52.351
380.02	51.993
380.38	51.735
380.74	52.124
381.09	52.638
381.45	52.966
381.81	53.300
382.17	52.475
382.53	52.592
382.89	54.112
383.25	54.512
383.61	54.146
383.97	54.476
384.32	52.595
384.68	55.046
385.04	54.167
385.40	54.636
385.76	55.472
386.12	55.692
386.48	55.875
386.83	54.914
387.19	55.006
387.55	55.897
387.91	55.501
388.27	55.983
388.62	56.765
388.98	55.678
389.34	56.152
389.70	57.116
390.06	55.758
390.42	55.570
390.77	57.031
391.13	56.179
391.49	56.921
391.85	57.830
392.20	57.188
392.56	58.551
392.92	57.546
393.28	57.488
393.64	56.456
393.99	59.373
394.35	57.559
394.71	57.918
395.07	58.391
395.42	57.438
395.78	59.088
396.14	58.575
396.50	59.417
396.85	59.433
397.21	58.584
397.57	59.185
397.92	58.298
398.28	59.425
398.64	58.675
399.00	59.594
399.35	59.481
399.71	59.334
400.07	60.036
400.42	60.098
400.78	60.502
401.14	60.496
401.49	59.559
401.85	60.024
402.21	60.482
402.57	61.875
402.92	60.602
403.28	63.221
403.63	63.052
403.99	62.819
404.35	61.711
404.70	62.024
405.06	60.811
405.42	61.342
405.77	62.289
406.13	63.620
406.49	61.634
406.84	64.242
407.20	64.419
407.55	65.293
407.91	64.639
408.27	63.607
408.62	62.585
408.98	62.847
409.34	65.056
409.69	63.307
410.05	63.670
410.40	65.741
410.76	65.923
411.11	65.250
411.47	65.746
411.83	64.532
412.18	65.830
412.54	64.295
412.89	64.778
413.25	66.486
413.60	65.901
413.96	64.540
414.31	65.793
414.67	65.491
415.03	65.912
415.38	67.037
415.74	66.254
416.09	66.819
416.45	66.239
416.80	66.689
417.16	68.508
417.51	67.888
417.87	67.405
418.22	69.948
418.58	69.565
418.93	68.903
419.29	66.645
419.64	68.697
420.00	71.033
420.35	67.522
420.71	68.651
421.06	68.815
421.42	70.132
421.77	69.538
422.12	68.161
422.48	69.139
422.83	68.619
423.19	69.582
423.54	68.430
423.90	68.669
424.25	71.125
424.61	70.563
424.96	70.325
425.31	71.924
425.67	72.535
426.02	71.260
426.38	73.575
426.73	71.368
427.09	73.354
427.44	72.588
427.79	72.717
428.15	72.633
428.50	72.199
428.85	71.806
429.21	71.420
429.56	73.693
429.92	72.727
430.27	70.977
430.62	72.086
430.98	71.868
431.33	72.660
431.68	72.998
432.04	73.281
432.39	74.843
432.74	72.038
433.10	74.770
433.45	73.895
433.80	73.651
434.16	72.022
434.51	73.978
434.86	74.681
435.22	74.089
435.57	74.111
435.92	75.509
436.28	75.075
436.63	74.444
436.98	74.044
437.34	74.108
437.69	77.460
438.04	75.499
438.39	75.504
438.75	77.838
439.10	76.118
439.45	76.385
439.81	74.618
440.16	77.435
440.51	77.015
440.86	77.946
441.22	75.735
441.57	76.656
441.92	76.390
442.27	76.940
442.63	76.927
442.98	77.082
443.33	76.071
443.68	76.393
444.03	76.105
444.39	75.209
444.74	78.094
445.09	77.171
445.44	77.892
445.79	78.958
446.15	77.037
446.50	77.038
446.85	77.896
447.20	77.894
447.55	77.679
447.91	77.270
448.26	79.169
448.61	77.778
448.96	78.084
449.31	79.942
449.66	78.165
450.02	78.494
450.37	80.557
450.72	79.324
451.07	79.494
451.42	77.341
451.77	79.265
452.12	78.648
452.47	79.073
452.83	79.152
453.18	79.380
453.53	81.226
453.88	79.296
454.23	80.148
454.58	80.164
454.93	80.155
455.28	78.222
455.63	80.161
455.98	80.096
456.34	80.460
456.69	80.813
457.04	81.033
457.39	82.017
457.74	79.927
458.09	78.752
458.44	80.222
458.79	80.616
459.14	80.320
459.49	80.060
459.84	78.737
460.19	80.947
460.54	80.746
460.89	81.023
461.24	80.497
461.59	80.582
461.94	79.937
462.29	81.785
462.64	83.389
462.99	82.261
463.34	83.310
463.69	81.853
464.04	81.114
464.39	80.049
464.74	81.288
465.09	80.474
465.44	81.016
465.79	78.855
466.14	80.730
466.49	79.758
466.84	81.083
467.19	81.039
467.54	80.907
467.89	81.807
468.24	81.509
468.59	83.111
468.94	82.095
469.29	83.869
469.64	83.117
469.99	84.163
470.34	83.481
470.68	84.638
471.03	83.935
471.38	84.950
471.73	84.174
472.08	82.564
472.43	84.899
472.78	84.716
473.13	85.306
473.48	83.713
473.83	82.503
474.17	85.168
474.52	82.961
474.87	82.727
475.22	84.015
475.57	82.270
475.92	83.708
476.27	83.818
476.61	84.028
476.96	82.989
477.31	83.937
477.66	82.865
478.01	85.626
478.36	83.224
478.70	85.046
479.05	84.011
479.40	84.844
479.75	82.534
480.10	83.359
480.45	82.750
480.79	84.844
481.14	84.836
481.49	83.990
481.84	84.846
482.19	82.133
482.53	84.365
482.88	83.389
483.23	83.493
483.58	82.736
483.92	84.269
484.27	83.683
484.62	82.967
484.97	81.551
485.31	80.600
485.66	76.169
486.01	73.993
486.36	73.827
486.70	74.919
487.05	76.413
487.40	77.844
487.75	79.183
488.09	79.265
488.44	80.365
488.79	80.874
489.13	83.894
489.48	84.096
489.83	83.318
490.17	84.674
490.52	84.296
490.87	84.405
491.22	85.864
491.56	85.247
491.91	83.126
492.26	86.048
492.60	84.933
492.95	85.489
493.30	85.002
493.64	87.819
493.99	85.652
494.34	85.000
494.68	84.952
495.03	85.255
495.37	87.046
495.72	86.522
496.07	85.707
496.41	85.896
496.76	85.168
497.11	84.537
497.45	86.110
497.80	86.983
498.14	86.488
498.49	86.897
498.84	85.479
499.18	86.948
499.53	87.252
499.87	84.339
500.22	86.251
500.56	87.141
500.91	86.647
501.26	85.912
501.60	85.981
501.95	86.463
502.29	86.053
502.64	86.680
502.98	86.532
503.33	85.879
503.67	84.482
504.02	86.901
504.36	86.343
504.71	85.505
505.06	85.606
505.40	86.497
505.75	87.938
506.09	87.937
506.44	87.834
506.78	87.755
507.13	88.159
507.47	87.676
507.82	88.515
508.16	89.223
508.51	89.192
508.85	88.017
509.19	87.174
509.54	88.740
509.88	88.835
510.23	89.242
510.57	88.402
510.92	88.166
511.26	90.289
511.61	90.264
511.95	90.630
512.30	89.967
512.64	88.536
512.98	90.343
513.33	89.312
513.67	90.506
514.02	91.934
514.36	91.371
514.70	92.366
515.05	92.127
515.39	91.854
515.74	93.353
516.08	92.528
516.42	93.404
516.77	91.808
517.11	93.056
517.46	94.255
517.80	92.014
518.14	93.448
518.49	91.707
518.83	93.803
519.17	91.692
519.52	92.303
519.86	92.737
520.20	95.261
520.55	94.497
520.89	94.479
521.23	94.997
521.58	94.069
521.92	95.705
522.26	95.641
522.61	97.792
522.95	96.954
523.29	95.362
523.64	95.489
523.98	95.917
524.32	94.781
524.66	97.183
525.01	95.844
525.35	94.815
525.69	96.700
526.04	95.304
526.38	96.368
526.72	94.833
527.06	95.979
527.41	95.976
527.75	96.180
528.09	95.880
528.43	98.109
528.78	95.776
529.12	94.452
529.46	95.841
529.80	94.300
530.15	95.380
530.49	97.037
530.83	97.196
531.17	95.232
531.51	97.059
531.86	96.193
532.20	95.616
532.54	95.507
532.88	96.646
533.22	95.430
533.57	93.185
533.91	94.452
534.25	95.964
534.59	92.688
534.93	92.070
535.27	93.464
535.62	93.390
535.96	95.042
536.30	93.338
536.64	95.934
536.98	94.843
537.32	96.444
537.66	95.722
538.01	95.524
538.35	95.631
538.69	90.613
539.03	92.071
539.37	93.809
539.71	94.547
540.05	92.125
540.39	93.283
540.73	95.607
541.07	94.199
541.42	92.944
541.76	93.944
542.10	93.531
542.44	95.136
542.78	91.191
543.12	94.299
543.46	93.533
543.80	93.616
544.14	90.788
544.48	91.672
544.82	92.139
545.16	94.194
545.50	90.387
545.84	94.193
546.18	94.255
546.52	93.223
546.86	91.733
547.20	91.917
547.54	90.247
547.88	91.168
548.22	89.152
548.56	90.040
548.90	91.981
549.24	90.978
549.58	90.621
549.92	91.923
550.26	92.601
550.60	94.647
550.94	95.594
551.28	93.818
551.62	96.308
551.96	94.286
552.30	94.079
552.64	90.903
552.98	90.506
553.32	90.371
553.66	91.872
554.00	93.796
554.34	92.171
554.68	91.445
555.02	93.824
555.36	91.847
555.69	92.894
556.03	90.507
556.37	90.605
556.71	92.202
557.05	91.872
557.39	90.929
557.73	92.879
558.07	93.816
558.41	93.262
558.75	93.219
559.08	94.247
559.42	95.238
559.76	96.157
560.10	93.119
560.44	92.107
560.78	89.720
561.12	90.832
561.45	91.216
561.79	91.597
562.13	91.838
562.47	91.799
562.81	90.706
563.15	90.621
563.48	90.948
563.82	89.293
564.16	90.111
564.50	88.784
564.84	89.090
565.17	87.056
565.51	90.642
565.85	90.055
566.19	88.594
566.52	89.410
566.86	87.339
567.20	87.547
567.54	88.139
567.88	85.823
568.21	85.577
568.55	83.315
568.89	82.854
569.23	80.790
569.56	79.247
569.90	77.507
570.24	74.209
570.57	75.964
570.91	75.427
571.25	72.476
571.59	72.220
571.92	70.844
572.26	71.286
572.60	70.667
572.93	71.258
573.27	71.411
573.61	71.092
573.95	70.208
574.28	69.465
574.62	68.675
574.96	67.689
575.29	68.324
575.63	67.219
575.97	68.013
576.30	69.216
576.64	67.947
576.98	68.417
577.31	68.297
577.65	68.234
577.98	67.012
578.32	66.048
578.66	66.194
578.99	66.940
579.33	67.325
579.67	66.616
580.00	67.797
580.34	67.761
580.67	66.741
581.01	67.363
581.35	65.439
581.68	65.184
582.02	64.874
582.35	64.810
582.69	65.076
583.02	65.627
583.36	66.927
583.70	67.004
584.03	69.030
584.37	69.255
584.70	67.363
585.04	66.839
585.37	66.732
585.71	66.724
586.04	66.868
586.38	66.898
586.72	67.260
587.05	67.649
587.39	68.549
587.72	68.261
588.06	67.229
588.39	67.502
588.73	68.803
589.06	71.005
589.40	69.789
589.73	70.464
590.07	71.375
590.40	71.633
590.73	73.147
591.07	72.265
591.40	72.885
591.74	73.710
592.07	74.861
592.41	73.763
592.74	70.769
593.08	68.041
593.41	68.007
593.75	68.499
594.08	68.898
594.41	68.268
594.75	69.656
595.08	70.261
595.42	69.378
595.75	69.095
596.09	72.166
596.42	71.310
596.75	73.357
597.09	71.481
597.42	72.629
597.75	72.332
598.09	70.484
598.42	70.262
598.76	70.399
599.09	68.470
599.42	67.488
599.76	67.494
600.09	66.667
600.42	68.613
600.76	67.756
601.09	68.664
601.42	67.842
601.76	68.559
602.09	68.936
602.42	70.556
602.76	69.694
603.09	70.806
603.42	70.360
603.76	69.556
604.09	68.368
604.42	69.459
604.76	71.295
605.09	69.927
605.42	69.752
605.75	69.746
606.09	68.577
606.42	69.266
606.75	68.874
607.09	68.791
607.42	69.207
607.75	68.206
608.08	69.048
608.42	69.164
608.75	71.084
609.08	72.745
609.41	72.183
609.75	71.925
610.08	72.092
610.41	69.130
610.74	70.258
611.07	72.506
611.41	71.614
611.74	72.175
612.07	71.467
612.40	72.429
612.73	72.825
613.07	72.947
613.40	72.702
613.73	73.755
614.06	72.732
614.39	73.040
614.72	71.821
615.06	71.117
615.39	70.906
615.72	70.506
616.05	71.788
616.38	70.142
616.71	73.639
617.05	73.626
617.38	73.727
617.71	74.843
618.04	75.683
618.37	75.914
618.70	74.851
619.03	76.875
619.36	78.003
619.69	80.136
620.03	78.086
620.36	77.396
620.69	78.230
621.02	78.746
621.35	82.075
621.68	81.973
622.01	81.333
622.34	80.447
622.67	79.180
623.00	78.867
623.33	78.735
623.66	77.487
623.99	77.231
624.32	79.240
624.65	76.917
624.99	77.953
625.32	77.104
625.65	78.476
625.98	78.646
626.31	79.717
626.64	82.582
626.97	82.548
627.30	81.261
627.63	82.149
627.96	82.120
628.29	84.089
628.62	84.366
628.95	84.168
629.28	86.996
629.61	85.842
629.94	84.360
630.26	85.079
630.59	86.160
630.92	86.667
631.25	82.667
631.58	87.335
631.91	88.048
632.24	87.271
632.57	87.955
632.90	90.273
633.23	89.412
633.56	93.577
633.89	92.232
634.22	92.716
634.55	92.249
634.88	91.060
635.20	91.795
635.53	95.333
635.86	92.198
636.19	92.885
636.52	90.306
636.85	89.454
637.18	88.679
637.51	88.931
637.83	92.904
638.16	93.997
638.49	91.553
638.82	92.105
639.15	90.366
639.48	92.572
639.81	91.632
640.13	93.506
640.46	93.878
640.79	96.318
641.12	92.319
641.45	93.994
641.77	95.259
642.10	97.156
642.43	95.177
642.76	99.175
643.09	96.607
643.41	95.146
643.74	96.540
644.07	94.581
644.40	100.169
644.73	99.825
645.05	97.315
645.38	98.413
645.71	98.582
646.04	101.616
646.36	100.000
646.69	99.101
647.02	101.134
647.35	100.746
647.67	101.280
648.00	102.052
648.33	92.662
648.66	94.407
648.98	94.640
649.31	90.248
649.64	89.482
649.96	89.303
650.29	94.719
650.62	90.256
650.94	94.444
651.27	96.834
651.60	95.495
651.92	92.483
652.25	91.119
652.58	88.833
652.90	92.796
653.23	89.580
653.56	89.848
653.88	88.832
654.21	89.142
654.54	88.625
654.86	92.530
655.19	82.749
655.52	69.040
655.84	52.086
656.17	55.565
656.49	74.113
656.82	76.601
657.15	59.513
657.47	44.988
657.80	33.938
658.13	33.587
658.45	53.054
658.78	54.018
659.10	54.994
659.43	56.383
659.75	60.681
660.08	64.276
660.41	71.399
660.73	80.110
661.06	89.775
661.38	91.977
661.71	93.429
662.03	96.996
662.36	95.824
662.68	96.460
663.01	96.507
663.33	102.320
663.66	96.279
663.98	98.372
664.31	93.603
664.63	96.774
664.96	91.957
665.28	93.157
665.61	93.074
665.93	93.696
666.26	93.926
666.58	91.946
666.91	96.235
667.23	95.755
667.56	97.867
667.88	97.122
668.21	96.897
668.53	99.054
668.86	95.283
669.18	93.160
669.50	94.915
669.83	93.256
670.15	91.375
670.48	95.933
670.80	96.774
671.13	89.262
671.45	86.758
671.77	87.983
672.10	84.158
672.42	84.082
672.75	83.481
673.07	82.826
673.39	84.037
673.72	83.037
674.04	81.875
674.37	87.500
674.69	87.794
675.01	87.778
675.34	86.261
675.66	91.667
675.98	90.022
676.31	90.826
676.63	90.974
676.95	87.273
677.28	91.529
677.60	93.735
677.92	86.468
678.25	88.840
678.57	88.961
678.89	84.874
679.22	88.367
679.54	80.723
679.86	83.499
680.18	78.058
680.51	81.250
680.83	80.716
681.15	82.600
681.48	81.557
681.80	82.851
682.12	80.242
682.44	81.799
682.77	89.845
683.09	86.957
683.41	84.773
683.73	87.327
684.06	83.628
684.38	78.280
684.70	83.224
685.02	80.913
685.34	78.854
685.67	77.298
685.99	77.215
686.31	75.752
686.63	78.293
686.96	74.905
687.28	81.616
687.60	77.757
687.92	81.818
688.24	79.839
688.56	83.624
688.89	85.268
689.21	82.667
689.53	81.439
689.85	80.698
690.17	79.464
690.49	81.797
690.82	84.223
691.14	82.381
691.46	82.243
691.78	78.604
692.10	80.430
692.42	79.221
692.74	75.641
693.06	80.405
693.39	76.018
693.71	80.995
694.03	78.060
694.35	78.972
694.67	80.556
694.99	83.551
695.31	85.901
695.63	80.250
695.95	80.303
696.27	84.456
696.59	85.278
696.91	86.555
697.23	79.434
697.56	79.208
697.88	75.054
698.20	76.082
698.52	75.529
698.84	72.967
699.16	76.500
699.48	80.201
699.80	72.208
700.12	77.898
700.44	82.073
700.76	83.140
701.08	85.455
701.40	82.530
701.72	87.346
702.04	87.459
702.36	92.642
702.68	83.483
703.00	83.030
703.32	77.126
703.64	76.271
703.96	79.420
704.28	82.209
704.60	84.127
704.91	76.341
705.23	84.718
705.55	92.580
705.87	89.892
706.19	87.037
706.51	87.285
706.83	81.350
707.15	79.439
707.47	73.950
707.79	72.656
708.11	72.000
708.43	73.000
708.74	71.059
709.06	76.901
709.38	80.428
709.70	76.627
710.02	77.389
710.34	81.424
710.66	77.885
710.98	77.815
711.29	80.984
711.61	78.644
711.93	76.221
712.25	80.756
712.57	80.952
712.89	84.328
713.20	81.661
713.52	79.443
713.84	75.768
714.16	78.694
714.48	77.742
714.80	77.244
715.11	75.380
715.43	73.981
715.75	73.000
716.07	74.419
716.39	71.812
716.70	83.395
717.02	79.008
717.34	82.591
717.66	87.168
717.97	76.957
718.29	82.008
718.61	76.772
718.93	79.845
719.24	77.186
719.56	76.707
719.88	71.821
720.20	78.030
720.51	73.180
720.83	78.378
721.15	85.714
721.46	76.210
721.78	75.099
722.10	70.260
722.42	78.838
722.73	73.469
723.05	78.367
723.37	74.576
723.68	78.829
724.00	82.051
724.32	74.667
724.63	75.909
724.95	77.293
725.27	82.028
725.58	78.390
725.90	68.254
726.22	70.270
726.53	63.729
726.85	70.412
727.16	74.717
727.48	73.684
727.80	74.899
728.11	72.881
728.43	69.020
728.74	70.968
729.06	73.600
729.38	73.308
729.69	74.104
730.01	71.923
730.32	64.552
730.64	73.145
730.96	70.943
731.27	62.667
731.59	66.102
731.90	64.331
732.22	66.877
732.53	64.120
732.85	69.504
733.16	67.677
733.48	65.108
733.80	67.391
734.11	60.678
734.43	65.292
734.74	60.606
735.06	63.518
735.37	62.538
735.69	64.310
736.00	62.021
736.32	61.745
736.63	66.549
736.95	63.823
737.26	65.836
737.58	60.403
737.89	61.538
738.21	62.030
738.52	68.724
738.83	69.869
739.15	67.686
739.46	61.811
739.78	65.934
740.09	58.170
740.41	60.870
740.72	62.598
741.04	66.802
741.35	62.128
741.66	70.616
741.98	75.000
742.29	66.337
742.61	73.822
742.92	67.773
743.23	55.556
743.55	66.968
743.86	68.900
744.18	68.900
744.49	69.149
744.80	71.196
745.12	80.214
745.43	66.341
745.74	72.396
746.06	70.732
746.37	71.204
746.68	68.720
747.00	75.000
747.31	73.632
747.62	61.650
747.94	73.206
748.25	69.802
748.56	78.142
748.88	74.869
749.19	74.468
749.50	74.877
749.82	65.566
750.13	70.642
750.44	66.541
750.75	66.791
751.07	63.504
751.38	58.621
751.69	66.275
752.01	64.341
752.32	61.355
752.63	64.032
752.94	61.638
753.26	72.385
753.57	62.896
753.88	61.504
754.19	65.417
754.51	64.050
754.82	59.514
755.13	69.583
755.44	68.548
755.75	61.328
756.07	63.035
756.38	53.962
756.69	57.471
757.00	60.000
757.31	58.170
757.63	54.573
757.94	53.333
758.25	52.329
758.56	51.596
758.87	50.708
759.18	51.402
759.50	54.182
759.81	57.191
760.12	56.129
760.43	54.242
760.74	57.716
761.05	57.846
761.36	51.989
761.67	52.727
761.99	56.463
762.30	51.636
762.61	58.103
762.92	57.919
763.23	63.063
763.54	58.879
763.85	61.864
764.16	60.996
764.47	59.677
764.78	52.015
765.10	58.249
765.41	51.420
765.72	52.381
766.03	53.759
766.34	52.555
766.65	60.956
766.96	58.586
767.27	62.766
767.58	57.471
767.89	65.248
768.20	64.205
768.51	59.890
768.82	54.187
769.13	52.995
769.44	51.931
769.75	57.078
770.06	54.310
770.37	52.404
770.68	64.467
770.99	53.394
771.30	58.824
771.61	52.036
771.92	60.776
772.23	58.621
772.54	60.753
772.85	65.432
773.16	57.303
773.47	71.242
773.78	64.706
774.09	58.683
774.39	64.000
774.70	52.229
775.01	62.069
775.32	51.429
775.63	66.942
775.94	55.725
776.25	63.780
776.56	63.333
776.87	73.077
777.18	64.103
777.48	59.483
777.79	57.391
778.10	59.048
778.41	63.063
778.72	61.111
779.03	63.910
779.34	70.922
779.65	60.274
779.95	47.945
780.26	57.241
780.57	55.285
780.88	52.756
781.19	62.931
781.50	59.690
781.80	48.521
782.11	52.201
782.42	58.462
782.73	54.676
783.04	52.593
783.34	48.611
783.65	40.171
783.96	59.836
784.27	58.621
784.57	60.163
784.88	46.094
785.19	64.000
785.50	73.000
785.81	51.724
786.11	58.621
786.42	51.456
786.73	60.909
787.04	56.122
787.34	41.964
787.65	54.286
787.96	49.558
788.26	61.818
788.57	42.735
788.88	50.000
789.19	52.381
789.49	40.870
789.80	56.122
790.11	54.545
790.41	44.545
790.72	54.348
791.03	47.727
791.33	70.000
791.64	68.750
791.95	58.140
792.25	50.000
792.56	52.809
792.87	68.493
793.17	75.362
793.48	58.667
793.79	52.500
794.09	62.500
794.40	46.226
794.70	53.398
795.01	45.528
795.32	52.991
795.62	54.286
795.93	56.863
796.23	47.170
796.54	61.458
796.85	67.647
797.15	63.380
797.46	72.222
797.76	65.152
798.07	44.186
798.37	51.316
798.68	51.515
798.99	44.444
799.29	55.714
799.60	46.377
799.90	54.667
800.21	45.902
800.51	50.769
800.82	62.712
801.12	50.725
801.43	63.934
801.73	66.667
802.04	50.000
802.34	55.224
802.65	50.000
802.95	50.000
803.26	55.769
803.56	64.706
803.87	43.478
804.17	60.000
804.48	58.730
804.78	59.259
805.09	52.174
805.39	44.444
805.70	66.667
806.00	31.579
806.30	40.845
806.61	35.714
806.91	34.722
807.22	44.737
807.52	50.667
807.83	41.818
808.13	51.389
808.43	63.235
808.74	46.269
809.04	38.983
809.35	44.231
809.65	40.625
809.95	21.622
810.26	38.636
810.56	52.055
810.86	50.000
811.17	60.000
811.47	61.224
811.77	63.158
812.08	61.364
812.38	41.509
812.69	40.000
812.99	72.727
813.29	68.421
813.59	28.571
813.90	20.455
814.20	28.205
814.50	48.077
814.81	62.264
815.11	27.660
815.41	61.017
815.72	73.810
816.02	50.980
816.32	45.833
816.62	43.902
816.93	37.838
817.23	68.571
817.53	54.167
817.84	50.000
818.14	55.769
818.44	23.684
818.74	54.348
819.04	22.500
819.35	48.649
819.65	47.059
819.95	47.222
820.25	69.048
820.56	77.500
820.86	17.241
821.16	45.000
821.46	40.426
821.76	80.000
822.07	51.163
822.37	16.216
822.67	71.875
822.97	85.714
823.27	50.000
823.57	36.000
823.88	18.519
824.18	60.714
824.48	41.176
824.78	77.419
825.08	13.043
825.38	51.515
825.69	12.500
825.99	23.684
826.29	72.222
826.59	26.667
826.89	38.095
827.19	19.565
827.49	70.000
827.79	77.143
828.09	67.857
828.39	54.545
828.70	78.378
829.00	28.571
829.30	23.810
829.60	43.333
829.90	43.750
830.20	26.316
830.50	22.222
830.80	21.739
831.10	59.091
831.40	69.697
831.70	54.839
832.00	90.476
832.30	42.857
832.60	75.000
832.90	24.138
833.20	20.000
833.50	63.636
833.80	59.259
834.10	46.154
834.40	68.750
834.70	66.667
835.00	47.368
835.30	84.615
835.60	93.333
835.90	22.581
836.20	77.273
836.50	121.429
836.80	-11.538
837.10	42.857
837.40	166.667
837.70	72.727
838.00	81.818
838.30	30.435
838.60	23.077
838.90	27.273
839.19	3.571
839.49	30.000
839.79	61.538
840.09	-83.333
840.39	35.714
840.69	32.143
840.99	-19.231
841.29	26.316
841.59	80.000
841.88	18.182
842.18	80.000
842.48	100.000
842.78	40.000
843.08	48.148
843.38	-30.000
843.68	34.783
843.97	66.667
844.27	-13.333
844.57	30.000
844.87	33.333
845.17	-9.524
845.47	33.333
845.76	28.571
846.06	23.529
846.36	160.000
846.66	135.714
846.96	0.000
847.25	-112.500
847.55	85.714
847.85	-37.500
848.15	9.091
848.44	-400.000
848.74	75.000
849.04	62.963
849.34	109.091
849.63	50.000
849.93	-280.000
850.23	-11.111
850.53	60.000
850.82	38.462
851.12	-33.333
851.42	53.333
851.71	26.923
852.01	57.143
852.31	-200.000
852.61	54.545
852.90	30.000
853.20	21.053
853.50	41.667
853.79	34.783
854.09	75.000
854.39	5.263
854.68	12.500
854.98	32.258
855.28	61.538
855.57	70.000
855.87	55.556
856.17	33.333
856.46	64.286
856.76	26.667
857.05	122.222
857.35	40.000
857.65	11.111
857.94	7.692
858.24	48.276
858.53	5.556
858.83	40.741
859.13	-4.545
859.42	17.391
859.72	50.000
860.01	-266.667
860.31	32.000
860.60	33.333
860.90	0.000
861.20	-20.000
861.49	-350.000
861.79	20.000
862.08	-5.000
862.38	133.333
862.67	-80.000
862.97	-33.333
863.26	33.333
863.56	100.000
863.85	-333.333
864.15	50.000
864.44	20.000
864.74	64.286
865.03	250.000
865.33	-120.000
865.62	33.333
865.92	16.667
866.21	-100.000
866.51	31.250
866.80	-54.545
867.10	-200.000
867.39	41.667
867.69	0.000
867.98	-38.462
868.27	33.333
868.57	26.667
868.86	33.333
869.16	30.769
869.45	106.667
869.75	700.000
870.04	0.000
870.33	-42.857
870.63	9.524
870.92	300.000
871.22	-220.000
871.51	-200.000
871.80	11.111
872.10	133.333
>>>>>End Processed Spectral Data<<<<<
