SpectraSuite Data File
++++++++++++++++++++++++++++++++++++
Date: Fri May 15 20:45:04 PDT 2015
User: schluterlab
Dark Spectrum Present: Yes
Reference Spectrum Present: Yes
Number of Sampled Component Spectra: 1
Spectrometers: USB2E3373
Integration Time (usec): 3000 (USB2E3373)
Spectra Averaged: 3 (USB2E3373)
Boxcar Smoothing: 0 (USB2E3373)
Correct for Electrical Dark: No (USB2E3373)
Strobe/Lamp Enabled: No (USB2E3373)
Correct for Detector Non-linearity: No (USB2E3373)
Correct for Stray Light: No (USB2E3373)
Number of Pixels in Processed Spectrum: 2048
>>>>>Begin Processed Spectral Data<<<<<
178.53	0.000
178.91	0.000
179.29	25.000
179.67	-400.000
180.04	14.286
180.42	175.000
180.80	-1400.000
181.18	166.667
181.56	750.000
181.94	-200.000
182.31	-300.000
182.69	-160.000
183.07	-66.667
183.45	-140.000
183.83	133.333
184.20	-36.364
184.58	88.889
184.96	300.000
185.34	-200.000
185.72	-250.000
186.09	84.615
186.47	-100.000
186.85	83.333
187.23	88.889
187.61	-100.000
187.98	-166.667
188.36	-55.556
188.74	-500.000
189.12	23.529
189.49	5.556
189.87	0.000
190.25	78.571
190.63	100.000
191.00	-100.000
191.38	-21.053
191.76	-50.000
192.14	275.000
192.51	-50.000
192.89	11.111
193.27	-85.714
193.65	266.667
194.02	154.545
194.40	-40.000
194.78	-125.000
195.15	-8.333
195.53	-112.500
195.91	150.000
196.29	75.000
196.66	84.615
197.04	100.000
197.42	-66.667
197.79	-500.000
198.17	-61.538
198.55	1000.000
198.92	-333.333
199.30	400.000
199.68	40.000
200.05	-233.333
200.43	0.000
200.81	-400.000
201.18	-33.333
201.56	700.000
201.94	-550.000
202.31	-66.667
202.69	-60.000
203.07	100.000
203.44	700.000
203.82	0.000
204.19	21.429
204.57	-466.667
204.95	125.000
205.32	-40.000
205.70	-14.286
206.08	-50.000
206.45	277.778
206.83	57.143
207.20	-14.286
207.58	-100.000
207.96	-266.667
208.33	-100.000
208.71	25.000
209.08	-33.333
209.46	-600.000
209.84	-140.000
210.21	-1300.000
210.59	-14.286
210.96	-50.000
211.34	-275.000
211.71	-33.333
212.09	-214.286
212.46	-2700.000
212.84	0.000
213.22	30.000
213.59	400.000
213.97	-23.077
214.34	136.364
214.72	-50.000
215.09	500.000
215.47	-23.077
215.84	-27.273
216.22	-466.667
216.59	0.000
216.97	-250.000
217.34	-275.000
217.72	-260.000
218.09	-12.500
218.47	37.500
218.84	-700.000
219.22	-111.111
219.59	-100.000
219.97	300.000
220.34	300.000
220.72	28.571
221.09	-100.000
221.47	100.000
221.84	-150.000
222.22	-550.000
222.59	-9.091
222.97	50.000
223.34	-200.000
223.72	-35.714
224.09	-9.524
224.46	14.286
224.84	400.000
225.21	-40.000
225.59	26.667
225.96	-300.000
226.34	375.000
226.71	-85.714
227.08	-16.667
227.46	-62.500
227.83	-450.000
228.21	88.889
228.58	54.545
228.95	25.000
229.33	70.000
229.70	18.750
230.08	-62.500
230.45	-42.857
230.82	0.000
231.20	-20.000
231.57	28.571
231.95	-157.143
232.32	-50.000
232.69	0.000
233.07	433.333
233.44	120.000
233.81	-40.000
234.19	-55.556
234.56	64.706
234.93	-0.000
235.31	-200.000
235.68	-220.000
236.05	-69.231
236.43	60.000
236.80	35.294
237.17	40.625
237.55	15.000
237.92	37.037
238.29	22.222
238.67	56.667
239.04	32.353
239.41	26.829
239.79	86.667
240.16	34.146
240.53	26.316
240.91	26.087
241.28	47.619
241.65	55.357
242.02	65.753
242.40	60.000
242.77	55.932
243.14	39.394
243.51	42.500
243.89	56.322
244.26	44.828
244.63	53.571
245.00	41.237
245.38	57.732
245.75	34.831
246.12	47.414
246.49	49.587
246.87	63.462
247.24	36.975
247.61	41.228
247.98	69.919
248.36	42.500
248.73	53.947
249.10	51.299
249.47	61.392
249.84	50.980
250.22	52.353
250.59	53.595
250.96	53.521
251.33	61.047
251.70	50.588
252.08	54.315
252.45	52.970
252.82	63.317
253.19	51.152
253.56	54.673
253.94	55.856
254.31	53.913
254.68	56.579
255.05	51.969
255.42	51.528
255.79	56.757
256.16	50.973
256.54	57.836
256.91	55.513
257.28	50.558
257.65	54.682
258.02	51.418
258.39	51.852
258.76	55.678
259.14	58.804
259.51	49.838
259.88	51.203
260.25	54.248
260.62	61.458
260.99	55.593
261.36	53.425
261.73	53.481
262.10	54.103
262.47	57.055
262.85	55.486
263.22	52.308
263.59	54.517
263.96	56.522
264.33	57.879
264.70	52.381
265.07	58.631
265.44	60.340
265.81	56.780
266.18	60.109
266.55	54.242
266.92	55.699
267.29	58.225
267.66	53.708
268.03	55.759
268.40	56.658
268.77	56.952
269.14	54.436
269.51	53.985
269.88	51.621
270.25	55.357
270.62	53.902
270.99	56.522
271.36	53.790
271.73	54.460
272.10	54.015
272.47	57.683
272.84	50.990
273.21	55.220
273.58	54.940
273.95	51.945
274.32	55.196
274.69	52.036
275.06	59.375
275.43	52.381
275.80	55.629
276.17	55.172
276.54	51.606
276.91	52.851
277.28	51.310
277.65	54.132
278.02	53.404
278.39	55.799
278.76	55.975
279.13	50.415
279.50	55.252
279.87	53.564
280.23	52.258
280.60	49.903
280.97	53.131
281.34	51.731
281.71	51.745
282.08	51.125
282.45	52.838
282.82	50.000
283.19	49.710
283.56	53.757
283.92	51.044
284.29	51.346
284.66	50.581
285.03	51.081
285.40	51.985
285.77	50.615
286.14	50.722
286.51	52.399
286.87	46.801
287.24	50.645
287.61	50.265
287.98	47.895
288.35	47.487
288.72	50.788
289.08	48.438
289.45	50.264
289.82	46.853
290.19	46.416
290.56	48.027
290.93	47.980
291.29	42.373
291.66	43.622
292.03	44.817
292.40	45.000
292.77	42.743
293.13	41.721
293.50	42.185
293.87	41.221
294.24	42.504
294.60	41.729
294.97	42.708
295.34	44.172
295.71	40.537
296.08	40.957
296.44	37.127
296.81	40.694
297.18	39.420
297.55	40.379
297.91	38.767
298.28	40.501
298.65	37.856
299.02	37.601
299.38	37.483
299.75	37.517
300.12	37.173
300.48	36.891
300.85	35.615
301.22	37.013
301.59	37.105
301.95	38.354
302.32	38.651
302.69	37.438
303.05	36.634
303.42	36.364
303.79	36.565
304.15	36.918
304.52	35.434
304.89	36.257
305.25	35.351
305.62	34.072
305.99	35.322
306.35	36.185
306.72	33.408
307.09	36.716
307.45	34.902
307.82	35.069
308.19	36.237
308.55	31.843
308.92	36.492
309.29	34.190
309.65	34.446
310.02	33.443
310.38	32.931
310.75	37.158
311.12	33.907
311.48	35.101
311.85	32.356
312.22	34.283
312.58	35.563
312.95	31.910
313.31	33.540
313.68	32.251
314.05	33.571
314.41	32.784
314.78	33.918
315.14	34.841
315.51	33.230
315.87	34.016
316.24	34.884
316.61	33.858
316.97	33.929
317.34	32.715
317.70	33.461
318.07	32.212
318.43	32.647
318.80	33.239
319.16	34.766
319.53	33.618
319.89	33.465
320.26	34.008
320.62	33.601
320.99	31.733
321.35	31.449
321.72	33.333
322.08	34.542
322.45	34.213
322.81	33.202
323.18	33.955
323.54	33.205
323.91	33.301
324.27	34.766
324.64	32.397
325.00	32.847
325.37	33.425
325.73	30.916
326.10	31.244
326.46	32.556
326.83	32.283
327.19	32.694
327.56	33.536
327.92	33.363
328.29	32.589
328.65	33.302
329.01	32.813
329.38	33.088
329.74	32.483
330.11	32.994
330.47	31.169
330.84	32.404
331.20	34.125
331.56	32.407
331.93	32.055
332.29	31.347
332.66	31.222
333.02	32.249
333.38	30.431
333.75	31.777
334.11	31.603
334.48	32.276
334.84	32.784
335.20	31.290
335.57	31.732
335.93	31.165
336.29	30.847
336.66	31.880
337.02	31.413
337.38	30.463
337.75	32.000
338.11	31.740
338.47	32.299
338.84	31.885
339.20	31.444
339.56	31.193
339.93	31.513
340.29	31.927
340.65	32.527
341.02	31.117
341.38	30.265
341.74	30.742
342.11	29.463
342.47	30.160
342.83	31.315
343.20	30.401
343.56	29.913
343.92	30.381
344.28	30.999
344.65	29.706
345.01	30.683
345.37	30.782
345.73	31.967
346.10	30.889
346.46	30.530
346.82	30.933
347.19	29.426
347.55	30.827
347.91	30.178
348.27	30.477
348.63	31.942
349.00	28.958
349.36	28.928
349.72	30.514
350.08	29.426
350.45	29.769
350.81	28.821
351.17	29.316
351.53	31.265
351.89	29.149
352.26	30.320
352.62	29.516
352.98	28.835
353.34	28.341
353.70	30.178
354.07	28.226
354.43	28.183
354.79	29.893
355.15	31.111
355.51	29.509
355.87	30.340
356.24	27.896
356.60	27.890
356.96	28.492
357.32	28.355
357.68	29.242
358.04	27.787
358.40	29.582
358.77	28.708
359.13	28.743
359.49	28.043
359.85	28.237
360.21	28.070
360.57	27.621
360.93	28.669
361.29	27.341
361.66	28.683
362.02	28.485
362.38	27.342
362.74	28.236
363.10	29.270
363.46	27.650
363.82	29.376
364.18	27.897
364.54	26.985
364.90	27.742
365.26	26.346
365.62	28.248
365.98	28.372
366.35	29.643
366.71	28.160
367.07	28.157
367.43	26.887
367.79	27.845
368.15	28.571
368.51	27.895
368.87	27.064
369.23	28.231
369.59	28.061
369.95	27.859
370.31	28.107
370.67	28.134
371.03	26.662
371.39	27.206
371.75	27.179
372.11	27.461
372.47	27.145
372.83	28.105
373.19	28.531
373.55	26.426
373.91	27.286
374.27	28.207
374.63	27.782
374.99	27.163
375.35	27.646
375.71	27.343
376.07	26.966
376.42	26.599
376.78	28.121
377.14	27.420
377.50	28.021
377.86	27.711
378.22	27.313
378.58	28.526
378.94	27.473
379.30	26.263
379.66	27.273
380.02	26.487
380.38	26.598
380.74	26.810
381.09	27.791
381.45	26.972
381.81	26.342
382.17	26.713
382.53	26.858
382.89	26.428
383.25	27.256
383.61	26.524
383.97	25.905
384.32	27.017
384.68	26.625
385.04	25.245
385.40	25.949
385.76	27.044
386.12	27.555
386.48	26.948
386.83	25.872
387.19	26.129
387.55	27.164
387.91	26.284
388.27	26.313
388.62	27.124
388.98	25.967
389.34	25.859
389.70	25.855
390.06	25.739
390.42	25.777
390.77	26.619
391.13	26.293
391.49	26.067
391.85	25.471
392.20	26.240
392.56	27.146
392.92	26.718
393.28	26.297
393.64	26.607
393.99	26.583
394.35	25.870
394.71	26.309
395.07	25.770
395.42	25.926
395.78	26.254
396.14	26.482
396.50	26.316
396.85	26.143
397.21	26.504
397.57	26.332
397.92	25.404
398.28	25.920
398.64	25.241
399.00	26.411
399.35	25.621
399.71	25.215
400.07	26.602
400.42	25.704
400.78	25.536
401.14	25.832
401.49	26.563
401.85	26.264
402.21	26.145
402.57	26.375
402.92	25.408
403.28	27.005
403.63	26.734
403.99	25.383
404.35	26.171
404.70	25.417
405.06	25.499
405.42	25.730
405.77	24.811
406.13	26.542
406.49	25.281
406.84	25.244
407.20	25.888
407.55	25.113
407.91	25.869
408.27	24.474
408.62	26.277
408.98	25.940
409.34	25.589
409.69	25.581
410.05	25.862
410.40	25.494
410.76	26.478
411.11	26.125
411.47	26.824
411.83	25.800
412.18	26.577
412.54	25.718
412.89	24.507
413.25	26.173
413.60	24.969
413.96	25.767
414.31	25.671
414.67	25.850
415.03	25.366
415.38	26.305
415.74	26.710
416.09	25.539
416.45	25.928
416.80	25.446
417.16	26.381
417.51	26.782
417.87	26.662
418.22	26.554
418.58	25.953
418.93	27.335
419.29	25.608
419.64	26.053
420.00	26.448
420.35	25.851
420.71	26.185
421.06	25.905
421.42	26.142
421.77	25.780
422.12	25.085
422.48	25.988
422.83	25.870
423.19	25.621
423.54	25.279
423.90	25.795
424.25	26.751
424.61	26.255
424.96	25.842
425.31	26.690
425.67	26.819
426.02	27.032
426.38	25.798
426.73	26.695
427.09	27.152
427.44	26.647
427.79	25.987
428.15	27.124
428.50	26.711
428.85	25.553
429.21	26.033
429.56	26.146
429.92	27.016
430.27	25.915
430.62	24.935
430.98	26.486
431.33	26.709
431.68	26.845
432.04	26.831
432.39	25.214
432.74	26.037
433.10	26.839
433.45	26.404
433.80	26.291
434.16	25.042
434.51	27.043
434.86	26.190
435.22	26.080
435.57	25.889
435.92	26.048
436.28	26.058
436.63	27.210
436.98	26.188
437.34	26.013
437.69	27.191
438.04	26.154
438.39	25.962
438.75	27.140
439.10	27.278
439.45	26.841
439.81	26.972
440.16	26.603
440.51	26.985
440.86	28.097
441.22	25.962
441.57	26.545
441.92	27.020
442.27	27.051
442.63	27.677
442.98	26.307
443.33	26.322
443.68	25.782
444.03	27.173
444.39	26.562
444.74	27.592
445.09	27.060
445.44	26.553
445.79	27.385
446.15	26.762
446.50	26.179
446.85	26.621
447.20	27.059
447.55	27.232
447.91	27.411
448.26	27.376
448.61	26.828
448.96	27.596
449.31	26.416
449.66	27.236
450.02	27.382
450.37	27.149
450.72	27.721
451.07	27.975
451.42	26.467
451.77	27.125
452.12	26.376
452.47	26.336
452.83	26.620
453.18	27.135
453.53	27.686
453.88	27.565
454.23	28.150
454.58	27.708
454.93	27.706
455.28	26.222
455.63	26.968
455.98	27.962
456.34	27.395
456.69	27.001
457.04	27.977
457.39	26.549
457.74	27.993
458.09	26.604
458.44	27.501
458.79	27.283
459.14	27.746
459.49	27.821
459.84	27.186
460.19	27.913
460.54	27.751
460.89	27.330
461.24	28.261
461.59	27.316
461.94	28.050
462.29	28.830
462.64	28.306
462.99	28.097
463.34	26.843
463.69	26.255
464.04	28.269
464.39	27.289
464.74	28.221
465.09	27.573
465.44	27.986
465.79	28.005
466.14	27.936
466.49	27.372
466.84	27.067
467.19	27.847
467.54	27.905
467.89	27.543
468.24	26.460
468.59	28.063
468.94	28.190
469.29	27.869
469.64	27.956
469.99	28.521
470.34	27.986
470.68	27.964
471.03	28.096
471.38	29.244
471.73	29.972
472.08	27.476
472.43	28.859
472.78	29.061
473.13	27.755
473.48	29.381
473.83	28.207
474.17	28.303
474.52	29.355
474.87	28.121
475.22	28.371
475.57	28.176
475.92	28.963
476.27	28.580
476.61	28.819
476.96	27.273
477.31	29.151
477.66	28.315
478.01	29.085
478.36	28.922
478.70	28.657
479.05	29.451
479.40	29.253
479.75	27.842
480.10	28.111
480.45	27.800
480.79	29.104
481.14	28.637
481.49	27.833
481.84	29.537
482.19	27.502
482.53	29.065
482.88	28.687
483.23	27.687
483.58	29.151
483.92	28.412
484.27	28.897
484.62	28.642
484.97	28.234
485.31	27.854
485.66	26.411
486.01	26.714
486.36	26.206
486.70	26.649
487.05	27.496
487.40	27.327
487.75	28.254
488.09	28.368
488.44	28.198
488.79	28.502
489.13	28.766
489.48	28.431
489.83	28.700
490.17	29.258
490.52	29.238
490.87	28.598
491.22	29.179
491.56	28.463
491.91	28.059
492.26	29.849
492.60	28.311
492.95	30.251
493.30	29.800
493.64	29.371
493.99	29.614
494.34	28.689
494.68	29.048
495.03	29.002
495.37	29.342
495.72	29.531
496.07	30.049
496.41	28.821
496.76	29.710
497.11	29.530
497.45	30.263
497.80	30.676
498.14	29.260
498.49	29.101
498.84	29.641
499.18	30.321
499.53	29.812
499.87	28.551
500.22	28.882
500.56	29.501
500.91	29.819
501.26	29.857
501.60	29.267
501.95	29.452
502.29	30.266
502.64	30.116
502.98	29.206
503.33	28.770
503.67	29.060
504.02	30.059
504.36	30.480
504.71	29.596
505.06	29.240
505.40	29.898
505.75	30.103
506.09	29.042
506.44	29.979
506.78	30.714
507.13	30.300
507.47	29.713
507.82	29.220
508.16	30.269
508.51	30.168
508.85	31.136
509.19	29.963
509.54	30.295
509.88	29.720
510.23	30.554
510.57	30.144
510.92	29.691
511.26	30.005
511.61	30.253
511.95	31.068
512.30	30.155
512.64	30.495
512.98	30.657
513.33	31.449
513.67	30.756
514.02	31.064
514.36	32.686
514.70	31.469
515.05	31.434
515.39	30.992
515.74	32.275
516.08	32.277
516.42	31.920
516.77	31.597
517.11	31.632
517.46	31.358
517.80	31.824
518.14	31.231
518.49	31.370
518.83	31.652
519.17	30.685
519.52	31.202
519.86	31.032
520.20	31.835
520.55	30.832
520.89	32.936
521.23	32.426
521.58	31.987
521.92	32.692
522.26	32.075
522.61	32.013
522.95	32.914
523.29	31.893
523.64	32.846
523.98	32.728
524.32	31.637
524.66	32.971
525.01	32.338
525.35	32.469
525.69	32.121
526.04	32.209
526.38	33.398
526.72	32.374
527.06	31.582
527.41	32.718
527.75	32.239
528.09	31.429
528.43	33.896
528.78	31.815
529.12	32.194
529.46	31.904
529.80	32.109
530.15	32.937
530.49	32.458
530.83	31.737
531.17	32.236
531.51	32.969
531.86	32.291
532.20	32.707
532.54	32.743
532.88	32.307
533.22	33.065
533.57	33.814
533.91	31.070
534.25	31.510
534.59	32.457
534.93	30.522
535.27	31.091
535.62	31.497
535.96	33.594
536.30	33.641
536.64	32.598
536.98	32.822
537.32	33.001
537.66	34.502
538.01	33.357
538.35	31.692
538.69	31.957
539.03	31.647
539.37	32.840
539.71	31.561
540.05	32.451
540.39	33.726
540.73	32.915
541.07	33.080
541.42	32.728
541.76	33.035
542.10	32.829
542.44	33.565
542.78	31.452
543.12	31.456
543.46	33.171
543.80	32.408
544.14	31.575
544.48	32.179
544.82	32.673
545.16	32.787
545.50	32.510
545.84	33.215
546.18	34.113
546.52	33.814
546.86	32.566
547.20	33.262
547.54	31.731
547.88	32.473
548.22	30.835
548.56	32.256
548.90	32.278
549.24	32.576
549.58	33.145
549.92	32.952
550.26	32.674
550.60	31.970
550.94	33.234
551.28	33.539
551.62	34.154
551.96	33.308
552.30	33.918
552.64	32.299
552.98	31.857
553.32	32.382
553.66	33.019
554.00	32.263
554.34	33.235
554.68	32.743
555.02	34.226
555.36	33.059
555.69	32.601
556.03	31.906
556.37	33.096
556.71	32.563
557.05	33.035
557.39	32.937
557.73	33.733
558.07	33.409
558.41	32.542
558.75	34.217
559.08	32.782
559.42	33.571
559.76	34.668
560.10	33.563
560.44	31.794
560.78	31.399
561.12	32.722
561.45	32.818
561.79	34.034
562.13	32.150
562.47	32.518
562.81	32.709
563.15	32.934
563.48	33.168
563.82	33.288
564.16	32.591
564.50	31.892
564.84	32.999
565.17	31.657
565.51	33.538
565.85	32.647
566.19	32.825
566.52	33.177
566.86	32.648
567.20	32.130
567.54	31.630
567.88	33.040
568.21	31.674
568.55	31.630
568.89	32.290
569.23	32.210
569.56	29.729
569.90	31.100
570.24	29.996
570.57	30.291
570.91	30.115
571.25	28.741
571.59	28.496
571.92	28.948
572.26	29.016
572.60	29.364
572.93	29.150
573.27	28.621
573.61	29.475
573.95	29.110
574.28	28.602
574.62	28.223
574.96	27.948
575.29	28.496
575.63	27.857
575.97	27.948
576.30	28.816
576.64	27.762
576.98	28.571
577.31	28.459
577.65	27.821
577.98	28.487
578.32	27.570
578.66	27.488
578.99	27.656
579.33	28.129
579.67	27.908
580.00	28.228
580.34	28.109
580.67	28.066
581.01	28.314
581.35	27.907
581.68	27.160
582.02	27.234
582.35	27.985
582.69	27.892
583.02	28.135
583.36	28.815
583.70	29.647
584.03	29.358
584.37	29.588
584.70	28.626
585.04	27.850
585.37	27.592
585.71	27.820
586.04	28.240
586.38	28.007
586.72	29.154
587.05	28.827
587.39	28.711
587.72	28.814
588.06	29.089
588.39	28.567
588.73	29.121
589.06	29.028
589.40	29.070
589.73	29.390
590.07	29.569
590.40	29.760
590.73	30.478
591.07	30.450
591.40	30.098
591.74	29.638
592.07	30.380
592.41	29.859
592.74	28.753
593.08	29.095
593.41	28.369
593.75	28.067
594.08	28.012
594.41	29.039
594.75	29.008
595.08	29.512
595.42	29.555
595.75	30.079
596.09	28.968
596.42	29.930
596.75	29.263
597.09	29.476
597.42	29.494
597.75	29.776
598.09	29.470
598.42	29.919
598.76	28.915
599.09	29.127
599.42	29.026
599.76	28.819
600.09	28.431
600.42	28.582
600.76	28.789
601.09	28.435
601.42	29.064
601.76	29.297
602.09	29.579
602.42	29.612
602.76	29.924
603.09	29.236
603.42	30.142
603.76	28.952
604.09	28.919
604.42	29.949
604.76	29.907
605.09	29.799
605.42	29.165
605.75	28.984
606.09	29.597
606.42	29.149
606.75	28.745
607.09	29.802
607.42	28.533
607.75	28.996
608.08	29.021
608.42	29.100
608.75	29.783
609.08	29.696
609.41	30.102
609.75	29.990
610.08	29.805
610.41	28.406
610.74	29.742
611.07	30.646
611.41	29.787
611.74	30.437
612.07	29.818
612.40	30.635
612.73	30.226
613.07	29.921
613.40	29.705
613.73	29.547
614.06	31.052
614.39	30.852
614.72	29.524
615.06	29.665
615.39	29.039
615.72	29.817
616.05	30.279
616.38	29.231
616.71	30.031
617.05	31.069
617.38	31.364
617.71	30.692
618.04	30.476
618.37	30.769
618.70	31.221
619.03	31.250
619.36	31.259
619.69	32.676
620.03	31.921
620.36	30.258
620.69	31.121
621.02	32.263
621.35	31.701
621.68	32.993
622.01	33.167
622.34	32.163
622.67	32.256
623.00	31.853
623.33	30.945
623.66	31.638
623.99	31.241
624.32	32.167
624.65	31.278
624.99	32.355
625.32	30.705
625.65	33.229
625.98	31.507
626.31	31.089
626.64	32.062
626.97	33.246
627.30	32.750
627.63	33.536
627.96	33.423
628.29	32.470
628.62	33.825
628.95	34.068
629.28	34.173
629.61	32.602
629.94	34.409
630.26	34.091
630.59	34.027
630.92	34.256
631.25	33.128
631.58	34.251
631.91	33.662
632.24	35.206
632.57	35.114
632.90	34.401
633.23	34.353
633.56	35.642
633.89	35.388
634.22	35.802
634.55	35.705
634.88	36.398
635.20	31.795
635.53	35.867
635.86	34.720
636.19	35.834
636.52	33.801
636.85	35.112
637.18	34.591
637.51	36.226
637.83	34.823
638.16	37.790
638.49	35.286
638.82	35.526
639.15	33.786
639.48	34.525
639.81	35.844
640.13	36.652
640.46	35.277
640.79	35.641
641.12	34.417
641.45	36.787
641.77	36.000
642.10	38.073
642.43	35.048
642.76	36.799
643.09	37.480
643.41	35.275
643.74	34.596
644.07	36.125
644.40	36.149
644.73	38.354
645.05	36.242
645.38	37.566
645.71	38.652
646.04	39.138
646.36	40.426
646.69	40.108
647.02	35.917
647.35	38.433
647.67	36.015
648.00	40.299
648.33	37.201
648.66	36.102
648.98	35.343
649.31	35.041
649.64	34.380
649.96	33.387
650.29	33.901
650.62	34.359
650.94	39.815
651.27	37.989
651.60	35.495
651.92	35.664
652.25	36.412
652.58	34.500
652.90	37.393
653.23	34.958
653.56	32.995
653.88	34.880
654.21	36.778
654.54	35.993
654.86	36.333
655.19	32.602
655.52	32.043
655.84	26.005
656.17	28.068
656.49	38.617
656.82	40.204
657.15	31.626
657.47	23.720
657.80	17.851
658.13	17.987
658.45	27.770
658.78	28.309
659.10	27.918
659.43	28.391
659.75	29.502
660.08	29.379
660.41	31.665
660.73	31.906
661.06	37.088
661.38	35.421
661.71	34.908
662.03	36.481
662.36	36.264
662.68	34.956
663.01	41.485
663.33	36.195
663.66	38.605
663.98	39.767
664.31	36.034
664.63	36.636
664.96	32.609
665.28	38.411
665.61	36.797
665.93	37.609
666.26	36.443
666.58	35.347
666.91	39.765
667.23	37.500
667.56	37.204
667.88	37.650
668.21	38.425
668.53	40.426
668.86	39.858
669.18	37.264
669.50	39.225
669.83	36.047
670.15	37.063
670.48	37.081
670.80	38.479
671.13	38.031
671.45	37.443
671.77	38.197
672.10	35.446
672.42	34.270
672.75	36.234
673.07	34.168
673.39	34.312
673.72	32.347
674.04	37.292
674.37	36.229
674.69	36.403
675.01	37.778
675.34	36.261
675.66	37.731
675.98	37.472
676.31	35.550
676.63	34.917
676.95	36.818
677.28	40.235
677.60	40.241
677.92	36.697
678.25	37.637
678.57	35.281
678.89	32.563
679.22	36.689
679.54	33.735
679.86	34.195
680.18	34.563
680.51	36.364
680.83	33.996
681.15	35.800
681.48	36.885
681.80	37.810
682.12	34.677
682.44	35.356
682.77	39.514
683.09	34.554
683.41	37.955
683.73	38.710
684.06	33.407
684.38	34.409
684.70	33.769
685.02	34.025
685.34	33.004
685.67	35.084
685.99	31.284
686.31	32.743
686.63	33.210
686.96	32.319
687.28	30.707
687.60	32.700
687.92	35.556
688.24	32.863
688.56	34.061
688.89	36.607
689.21	36.444
689.53	32.947
689.85	33.488
690.17	34.152
690.49	34.988
690.82	35.194
691.14	34.762
691.46	34.346
691.78	31.982
692.10	33.548
692.42	30.519
692.74	33.761
693.06	33.559
693.39	33.032
693.71	30.317
694.03	31.178
694.35	35.280
694.67	35.101
694.99	33.943
695.31	36.815
695.63	33.000
695.95	32.323
696.27	37.565
696.59	34.444
696.91	33.613
697.23	32.648
697.56	33.416
697.88	33.978
698.20	32.118
698.52	33.882
698.84	30.622
699.16	33.500
699.48	33.584
699.80	33.747
700.12	33.693
700.44	35.854
700.76	32.267
701.08	34.545
701.40	35.241
701.72	40.123
702.04	36.304
702.36	40.134
702.68	36.036
703.00	35.455
703.32	32.551
703.64	31.356
703.96	35.942
704.28	33.436
704.60	36.190
704.91	33.754
705.23	34.884
705.55	39.223
705.87	39.350
706.19	38.889
706.51	36.426
706.83	32.476
707.15	29.907
707.47	31.933
707.79	32.813
708.11	31.500
708.43	32.500
708.74	29.457
709.06	36.901
709.38	37.920
709.70	34.615
710.02	36.306
710.34	33.437
710.66	34.295
710.98	33.775
711.29	36.393
711.61	35.932
711.93	31.922
712.25	37.113
712.57	38.462
712.89	32.836
713.20	39.100
713.52	34.146
713.84	32.082
714.16	34.364
714.48	30.968
714.80	35.577
715.11	34.043
715.43	26.646
715.75	33.000
716.07	32.890
716.39	31.544
716.70	33.948
717.02	32.824
717.34	39.271
717.66	32.743
717.97	30.870
718.29	35.983
718.61	32.677
718.93	30.620
719.24	34.601
719.56	37.751
719.88	31.615
720.20	29.545
720.51	34.483
720.83	30.888
721.15	35.294
721.46	37.097
721.78	32.411
722.10	31.970
722.42	33.195
722.73	30.204
723.05	38.776
723.37	36.017
723.68	38.288
724.00	33.761
724.32	30.222
724.63	34.091
724.95	32.751
725.27	32.719
725.58	28.814
725.90	32.143
726.22	33.591
726.53	32.203
726.85	31.461
727.16	35.849
727.48	27.935
727.80	34.818
728.11	31.780
728.43	29.804
728.74	30.645
729.06	34.000
729.38	37.970
729.69	29.482
730.01	26.923
730.32	31.716
730.64	29.682
730.96	33.208
731.27	27.667
731.59	31.186
731.90	29.299
732.22	35.647
732.53	33.555
732.85	30.496
733.16	34.343
733.48	30.935
733.80	34.058
734.11	28.814
734.43	29.553
734.74	29.697
735.06	29.642
735.37	32.024
735.69	33.333
736.00	29.268
736.32	29.530
736.63	32.042
736.95	34.130
737.26	30.249
737.58	30.872
737.89	32.601
738.21	31.203
738.52	37.449
738.83	32.314
739.15	27.074
739.46	33.071
739.78	30.769
740.09	30.065
740.41	30.797
740.72	24.803
741.04	32.389
741.35	31.064
741.66	37.441
741.98	30.102
742.29	32.178
742.61	37.173
742.92	24.171
743.23	31.019
743.55	30.769
743.86	35.407
744.18	31.100
744.49	28.723
744.80	30.978
745.12	40.642
745.43	31.220
745.74	34.375
746.06	32.195
746.37	30.890
746.68	33.649
747.00	33.511
747.31	40.299
747.62	27.670
747.94	32.536
748.25	32.178
748.56	30.601
748.88	32.984
749.19	37.766
749.50	33.005
749.82	28.302
750.13	30.275
750.44	33.835
750.75	32.836
751.07	31.387
751.38	32.567
751.69	25.490
752.01	32.946
752.32	33.865
752.63	30.830
752.94	28.879
753.26	38.494
753.57	29.864
753.88	34.956
754.19	25.000
754.51	26.033
754.82	31.174
755.13	37.500
755.44	31.452
755.75	32.812
756.07	33.852
756.38	26.792
756.69	29.502
757.00	30.667
757.31	30.065
757.63	27.744
757.94	27.778
758.25	25.205
758.56	23.936
758.87	24.929
759.18	25.857
759.50	30.545
759.81	28.763
760.12	29.677
760.43	28.182
760.74	29.630
761.05	28.308
761.36	24.716
761.67	29.394
761.99	30.272
762.30	27.636
762.61	32.806
762.92	28.507
763.23	31.081
763.54	27.103
763.85	33.898
764.16	29.046
764.47	24.194
764.78	30.037
765.10	29.966
765.41	26.498
765.72	26.349
766.03	25.564
766.34	32.847
766.65	30.677
766.96	30.808
767.27	30.851
767.58	24.713
767.89	26.241
768.20	23.864
768.51	35.714
768.82	28.571
769.13	25.346
769.44	28.326
769.75	25.571
770.06	32.759
770.37	32.212
770.68	26.396
770.99	29.412
771.30	27.451
771.61	26.697
771.92	31.034
772.23	30.049
772.54	29.570
772.85	33.951
773.16	25.843
773.47	33.987
773.78	31.373
774.09	32.934
774.39	32.667
774.70	28.662
775.01	29.655
775.32	27.143
775.63	23.140
775.94	31.298
776.25	22.047
776.56	26.667
776.87	27.885
777.18	29.915
777.48	31.034
777.79	26.087
778.10	16.190
778.41	28.829
778.72	26.984
779.03	39.850
779.34	29.787
779.65	23.288
779.95	21.918
780.26	36.552
780.57	26.016
780.88	25.197
781.19	33.621
781.50	31.008
781.80	23.077
782.11	25.786
782.42	25.385
782.73	35.252
783.04	24.444
783.34	20.139
783.65	19.658
783.96	23.770
784.27	32.414
784.57	29.268
784.88	25.000
785.19	37.000
785.50	22.000
785.81	34.483
786.11	24.138
786.42	35.922
786.73	34.545
787.04	23.469
787.34	22.321
787.65	28.571
787.96	31.858
788.26	26.364
788.57	19.658
788.88	24.219
789.19	21.429
789.49	25.217
789.80	21.429
790.11	24.242
790.41	36.364
790.72	34.783
791.03	32.955
791.33	41.250
791.64	18.750
791.95	23.256
792.25	28.723
792.56	29.213
792.87	13.699
793.17	28.986
793.48	29.333
793.79	37.500
794.09	32.500
794.40	20.755
794.70	17.476
795.01	17.886
795.32	23.932
795.62	23.810
795.93	20.588
796.23	26.415
796.54	20.833
796.85	26.471
797.15	19.718
797.46	25.000
797.76	51.515
798.07	13.953
798.37	22.368
798.68	25.758
798.99	30.864
799.29	27.143
799.60	31.884
799.90	40.000
800.21	27.869
800.51	26.154
800.82	27.119
801.12	31.884
801.43	24.590
801.73	15.873
802.04	30.000
802.34	14.925
802.65	42.308
802.95	16.071
803.26	15.385
803.56	37.255
803.87	2.174
804.17	21.333
804.48	39.683
804.78	18.519
805.09	43.478
805.39	28.889
805.70	31.481
806.00	7.018
806.30	18.310
806.61	20.000
806.91	12.500
807.22	30.263
807.52	26.667
807.83	20.000
808.13	23.611
808.43	29.412
808.74	23.881
809.04	10.169
809.35	25.000
809.65	28.125
809.95	-8.108
810.26	18.182
810.56	17.808
810.86	9.524
811.17	14.000
811.47	26.531
811.77	21.053
812.08	25.000
812.38	15.094
812.69	5.000
812.99	6.061
813.29	23.684
813.59	0.000
813.90	11.364
814.20	2.564
814.50	28.846
814.81	24.528
815.11	4.255
815.41	27.119
815.72	40.476
816.02	45.098
816.32	20.833
816.62	9.756
816.93	18.919
817.23	25.714
817.53	33.333
817.84	30.435
818.14	32.692
818.44	15.789
818.74	39.130
819.04	12.500
819.35	18.919
819.65	23.529
819.95	8.333
820.25	11.905
820.56	40.000
820.86	6.897
821.16	47.500
821.46	23.404
821.76	20.000
822.07	4.651
822.37	-16.216
822.67	-15.625
822.97	30.952
823.27	-3.571
823.57	-12.000
823.88	-18.519
824.18	-10.714
824.48	29.412
824.78	-6.452
825.08	30.435
825.38	33.333
825.69	16.667
825.99	-2.632
826.29	30.556
826.59	0.000
826.89	-23.810
827.19	30.435
827.49	15.000
827.79	31.429
828.09	39.286
828.39	27.273
828.70	35.135
829.00	7.143
829.30	-14.286
829.60	3.333
829.90	-15.625
830.20	10.526
830.50	-7.407
830.80	21.739
831.10	31.818
831.40	24.242
831.70	16.129
832.00	14.286
832.30	-23.810
832.60	-25.000
832.90	24.138
833.20	-20.000
833.50	51.515
833.80	-11.111
834.10	-19.231
834.40	18.750
834.70	-144.444
835.00	42.105
835.30	53.846
835.60	26.667
835.90	25.806
836.20	50.000
836.50	28.571
836.80	0.000
837.10	17.857
837.40	-200.000
837.70	18.182
838.00	27.273
838.30	-8.696
838.60	61.538
838.90	9.091
839.19	57.143
839.49	33.333
839.79	7.692
840.09	-8.333
840.39	57.143
840.69	3.571
840.99	0.000
841.29	-36.842
841.59	-170.000
841.88	-18.182
842.18	-80.000
842.48	-12.500
842.78	-33.333
843.08	3.704
843.38	-50.000
843.68	47.826
843.97	-33.333
844.27	26.667
844.57	50.000
844.87	0.000
845.17	-19.048
845.47	60.000
845.76	-14.286
846.06	-29.412
846.36	-30.000
846.66	-35.714
846.96	-33.333
847.25	-175.000
847.55	-57.143
847.85	-75.000
848.15	-54.545
848.44	-333.333
848.74	10.000
849.04	48.148
849.34	-9.091
849.63	66.667
849.93	-220.000
850.23	0.000
850.53	40.000
850.82	-61.538
851.12	-44.444
851.42	13.333
851.71	26.923
852.01	7.143
852.31	-25.000
852.61	-63.636
852.90	-5.000
853.20	47.368
853.50	0.000
853.79	-4.348
854.09	41.667
854.39	-21.053
854.68	-16.667
854.98	25.806
855.28	34.615
855.57	15.000
855.87	-16.667
856.17	22.222
856.46	-7.143
856.76	-66.667
857.05	100.000
857.35	24.000
857.65	11.111
857.94	-15.385
858.24	20.690
858.53	22.222
858.83	33.333
859.13	13.636
859.42	-13.043
859.72	-150.000
860.01	-433.333
860.31	-4.000
860.60	4.762
860.90	-300.000
861.20	-26.667
861.49	-500.000
861.79	40.000
862.08	0.000
862.38	40.000
862.67	-120.000
862.97	-33.333
863.26	-25.000
863.56	22.222
863.85	-66.667
864.15	27.778
864.44	-40.000
864.74	64.286
865.03	475.000
865.33	-100.000
865.62	116.667
865.92	16.667
866.21	-283.333
866.51	18.750
866.80	-90.909
867.10	-450.000
867.39	50.000
867.69	0.000
867.98	7.692
868.27	-466.667
868.57	40.000
868.86	-5.556
869.16	-7.692
869.45	26.667
869.75	-300.000
870.04	0.000
870.33	-28.571
870.63	23.810
870.92	233.333
871.22	-140.000
871.51	-1800.000
871.80	22.222
872.10	266.667
>>>>>End Processed Spectral Data<<<<<
