SpectraSuite Data File
++++++++++++++++++++++++++++++++++++
Date: Fri May 15 20:53:23 PDT 2015
User: schluterlab
Dark Spectrum Present: Yes
Reference Spectrum Present: Yes
Number of Sampled Component Spectra: 1
Spectrometers: USB2E3373
Integration Time (usec): 3000 (USB2E3373)
Spectra Averaged: 3 (USB2E3373)
Boxcar Smoothing: 0 (USB2E3373)
Correct for Electrical Dark: No (USB2E3373)
Strobe/Lamp Enabled: No (USB2E3373)
Correct for Detector Non-linearity: No (USB2E3373)
Correct for Stray Light: No (USB2E3373)
Number of Pixels in Processed Spectrum: 2048
>>>>>Begin Processed Spectral Data<<<<<
178.53	0.000
178.91	0.000
179.29	-12.500
179.67	-650.000
180.04	71.429
180.42	50.000
180.80	0.000
181.18	-66.667
181.56	650.000
181.94	-50.000
182.31	-600.000
182.69	-60.000
183.07	-166.667
183.45	-100.000
183.83	200.000
184.20	-9.091
184.58	100.000
184.96	100.000
185.34	-66.667
185.72	-100.000
186.09	53.846
186.47	-200.000
186.85	166.667
187.23	11.111
187.61	300.000
187.98	-166.667
188.36	-22.222
188.74	-133.333
189.12	23.529
189.49	5.556
189.87	0.000
190.25	-78.571
190.63	-400.000
191.00	100.000
191.38	-5.263
191.76	-150.000
192.14	-0.000
192.51	-50.000
192.89	-100.000
193.27	128.571
193.65	200.000
194.02	172.727
194.40	0.000
194.78	-150.000
195.15	8.333
195.53	-37.500
195.91	-25.000
196.29	-100.000
196.66	92.308
197.04	85.714
197.42	-111.111
197.79	-400.000
198.17	-100.000
198.55	1800.000
198.92	-133.333
199.30	300.000
199.68	100.000
200.05	-200.000
200.43	0.000
200.81	166.667
201.18	300.000
201.56	600.000
201.94	-450.000
202.31	100.000
202.69	0.000
203.07	-0.000
203.44	0.000
203.82	0.000
204.19	0.000
204.57	-500.000
204.95	175.000
205.32	-110.000
205.70	57.143
206.08	-25.000
206.45	166.667
206.83	-7.143
207.20	-85.714
207.58	-0.000
207.96	-266.667
208.33	-120.000
208.71	25.000
209.08	-83.333
209.46	-1400.000
209.84	0.000
210.21	-200.000
210.59	28.571
210.96	16.667
211.34	-75.000
211.71	40.000
212.09	-57.143
212.46	-1100.000
212.84	0.000
213.22	50.000
213.59	550.000
213.97	0.000
214.34	127.273
214.72	-83.333
215.09	425.000
215.47	0.000
215.84	27.273
216.22	100.000
216.59	62.500
216.97	50.000
217.34	-250.000
217.72	-340.000
218.09	12.500
218.47	125.000
218.84	-200.000
219.22	-111.111
219.59	-140.000
219.97	466.667
220.34	250.000
220.72	14.286
221.09	-150.000
221.47	200.000
221.84	-700.000
222.22	-450.000
222.59	-27.273
222.97	-8.333
223.34	-166.667
223.72	0.000
224.09	23.810
224.46	28.571
224.84	400.000
225.21	-30.000
225.59	60.000
225.96	-100.000
226.34	225.000
226.71	14.286
227.08	-66.667
227.46	-12.500
227.83	-600.000
228.21	-55.556
228.58	18.182
228.95	-62.500
229.33	160.000
229.70	12.500
230.08	-125.000
230.45	-28.571
230.82	14.286
231.20	-53.333
231.57	42.857
231.95	-71.429
232.32	-80.000
232.69	85.714
233.07	33.333
233.44	-20.000
233.81	-50.000
234.19	-11.111
234.56	11.765
234.93	50.000
235.31	150.000
235.68	0.000
236.05	15.385
236.43	-15.000
236.80	52.941
237.17	62.500
237.55	45.000
237.92	44.444
238.29	61.111
238.67	53.333
239.04	76.471
239.41	-2.439
239.79	46.667
240.16	46.341
240.53	44.737
240.91	45.652
241.28	52.381
241.65	55.357
242.02	58.904
242.40	61.667
242.77	42.373
243.14	57.576
243.51	50.000
243.89	60.920
244.26	45.977
244.63	60.714
245.00	41.237
245.38	60.825
245.75	61.798
246.12	55.172
246.49	57.851
246.87	66.346
247.24	58.824
247.61	68.421
247.98	52.846
248.36	52.500
248.73	53.289
249.10	58.442
249.47	54.430
249.84	60.784
250.22	61.176
250.59	67.974
250.96	63.380
251.33	58.140
251.70	61.765
252.08	64.975
252.45	56.931
252.82	63.317
253.19	57.143
253.56	62.150
253.94	62.162
254.31	62.609
254.68	60.965
255.05	56.693
255.42	64.192
255.79	62.162
256.16	61.868
256.54	61.194
256.91	59.696
257.28	59.851
257.65	62.172
258.02	62.411
258.39	60.943
258.76	66.667
259.14	61.130
259.51	60.518
259.88	62.887
260.25	62.418
260.62	68.403
260.99	62.373
261.36	68.151
261.73	66.139
262.10	63.222
262.47	65.951
262.85	62.069
263.22	60.000
263.59	66.044
263.96	64.596
264.33	66.061
264.70	66.667
265.07	62.202
265.44	66.856
265.81	61.299
266.18	65.847
266.55	62.982
266.92	65.285
267.29	63.446
267.66	61.381
268.03	63.874
268.40	60.836
268.77	66.043
269.14	63.789
269.51	66.324
269.88	61.347
270.25	63.776
270.62	62.195
270.99	62.660
271.36	58.680
271.73	59.390
272.10	65.937
272.47	63.593
272.84	64.109
273.21	58.469
273.58	65.301
273.95	60.641
274.32	57.506
274.69	55.882
275.06	62.054
275.43	58.503
275.80	59.823
276.17	60.000
276.54	57.816
276.91	61.623
277.28	62.445
277.65	63.430
278.02	56.809
278.39	63.239
278.76	59.119
279.13	58.714
279.50	58.824
279.87	59.395
280.23	58.925
280.60	58.674
280.97	61.616
281.34	58.077
281.71	61.191
282.08	58.896
282.45	58.904
282.82	58.494
283.19	58.994
283.56	59.538
283.92	57.116
284.29	58.269
284.66	56.977
285.03	58.743
285.40	55.577
285.77	55.712
286.14	56.859
286.51	60.886
286.87	54.845
287.24	57.090
287.61	55.908
287.98	56.316
288.35	55.113
288.72	58.144
289.08	56.076
289.45	54.657
289.82	53.322
290.19	52.560
290.56	51.115
290.93	50.168
291.29	48.228
291.66	50.079
292.03	51.196
292.40	51.129
292.77	47.528
293.13	47.240
293.50	46.889
293.87	47.634
294.24	47.759
294.60	47.988
294.97	45.982
295.34	49.233
295.71	46.647
296.08	45.142
296.44	45.092
296.81	44.861
297.18	45.797
297.55	46.477
297.91	45.616
298.28	42.876
298.65	43.284
299.02	43.127
299.38	43.639
299.75	42.345
300.12	40.576
300.48	42.161
300.85	42.966
301.22	42.078
301.59	41.842
301.95	41.519
302.32	42.412
302.69	41.045
303.05	41.460
303.42	40.847
303.79	40.304
304.15	41.697
304.52	39.715
304.89	40.000
305.25	38.257
305.62	37.106
305.99	38.480
306.35	38.266
306.72	38.920
307.09	38.769
307.45	40.643
307.82	39.352
308.19	41.812
308.55	36.641
308.92	38.889
309.29	38.659
309.65	37.783
310.02	38.174
310.38	39.078
310.75	39.126
311.12	38.321
311.48	37.752
311.85	38.220
312.22	38.608
312.58	36.624
312.95	36.179
313.31	36.439
313.68	37.696
314.05	37.143
314.41	38.351
314.78	37.320
315.14	38.643
315.51	36.853
315.87	36.783
316.24	37.917
316.61	37.697
316.97	37.401
317.34	36.230
317.70	35.564
318.07	36.154
318.43	36.078
318.80	37.216
319.16	37.402
319.53	38.082
319.89	37.205
320.26	35.931
320.62	38.415
320.99	35.386
321.35	35.971
321.72	36.864
322.08	36.657
322.45	36.548
322.81	36.837
323.18	34.936
323.54	36.486
323.91	35.540
324.27	36.914
324.64	36.236
325.00	36.679
325.37	37.282
325.73	35.902
326.10	35.695
326.46	36.592
326.83	36.395
327.19	35.397
327.56	36.316
327.92	36.796
328.29	36.071
328.65	35.283
329.01	36.489
329.38	37.972
329.74	36.922
330.11	35.774
330.47	34.787
330.84	34.808
331.20	38.118
331.56	35.370
331.93	36.621
332.29	36.480
332.66	35.837
333.02	36.152
333.38	35.289
333.75	36.447
334.11	35.989
334.48	37.171
334.84	35.348
335.20	35.407
335.57	34.633
335.93	36.495
336.29	36.280
336.66	34.514
337.02	35.316
337.38	33.796
337.75	35.727
338.11	35.978
338.47	35.949
338.84	36.044
339.20	35.832
339.56	36.330
339.93	36.616
340.29	35.229
340.65	35.842
341.02	35.727
341.38	35.575
341.74	34.364
342.11	34.575
342.47	34.164
342.83	36.073
343.20	33.188
343.56	34.435
343.92	35.607
344.28	35.354
344.65	34.111
345.01	35.264
345.37	33.221
345.73	33.222
346.10	34.944
346.46	34.399
346.82	33.715
347.19	34.248
347.55	34.670
347.91	33.738
348.27	33.630
348.63	34.327
349.00	32.978
349.36	33.500
349.72	34.080
350.08	32.951
350.45	32.881
350.81	33.804
351.17	32.980
351.53	33.633
351.89	32.122
352.26	32.880
352.62	34.355
352.98	32.932
353.34	33.172
353.70	33.414
354.07	32.419
354.43	30.985
354.79	32.370
355.15	33.095
355.51	33.940
355.87	32.201
356.24	31.403
356.60	32.983
356.96	32.460
357.32	31.869
357.68	31.822
358.04	32.553
358.40	32.717
358.77	32.616
359.13	32.346
359.49	31.664
359.85	32.761
360.21	31.738
360.57	32.058
360.93	32.451
361.29	32.251
361.66	32.445
362.02	31.439
362.38	31.988
362.74	32.400
363.10	32.355
363.46	31.875
363.82	31.705
364.18	31.365
364.54	31.324
364.90	31.254
365.26	31.587
365.62	32.336
365.98	32.185
366.35	31.610
366.71	31.042
367.07	32.293
367.43	30.985
367.79	30.106
368.15	31.874
368.51	31.610
368.87	30.653
369.23	29.964
369.59	32.070
369.95	30.938
370.31	31.358
370.67	31.493
371.03	31.292
371.39	31.072
371.75	31.209
372.11	29.601
372.47	31.213
372.83	30.305
373.19	30.528
373.55	29.097
373.91	29.086
374.27	30.120
374.63	30.223
374.99	30.780
375.35	30.571
375.71	30.769
376.07	29.284
376.42	30.612
376.78	30.805
377.14	29.316
377.50	31.142
377.86	30.857
378.22	30.121
378.58	29.167
378.94	29.553
379.30	29.881
379.66	30.470
380.02	29.798
380.38	29.519
380.74	29.563
381.09	30.061
381.45	29.602
381.81	29.611
382.17	29.569
382.53	29.669
382.89	30.132
383.25	29.620
383.61	30.122
383.97	29.079
384.32	29.018
384.68	28.545
385.04	28.922
385.40	29.434
385.76	30.063
386.12	30.078
386.48	29.821
386.83	29.740
387.19	29.976
387.55	29.799
387.91	30.073
388.27	28.571
388.62	29.012
388.98	28.975
389.34	29.044
389.70	29.708
390.06	28.823
390.42	28.109
390.77	29.758
391.13	28.815
391.49	29.172
391.85	29.370
392.20	29.567
392.56	27.845
392.92	29.125
393.28	28.125
393.64	28.589
393.99	28.903
394.35	29.159
394.71	29.055
395.07	27.781
395.42	27.808
395.78	28.990
396.14	28.373
396.50	28.091
396.85	28.268
397.21	27.820
397.57	28.401
397.92	27.921
398.28	28.678
398.64	27.229
399.00	28.837
399.35	28.330
399.71	28.432
400.07	28.235
400.42	28.029
400.78	28.965
401.14	27.889
401.49	28.291
401.85	28.458
402.21	28.795
402.57	28.625
402.92	28.043
403.28	28.008
403.63	29.130
403.99	28.189
404.35	28.670
404.70	27.857
405.06	27.556
405.42	28.713
405.77	27.368
406.13	27.416
406.49	26.939
406.84	28.301
407.20	28.838
407.55	26.980
407.91	27.607
408.27	27.788
408.62	28.554
408.98	27.418
409.34	29.120
409.69	27.132
410.05	27.894
410.40	28.272
410.76	27.563
411.11	27.625
411.47	27.811
411.83	27.558
412.18	28.378
412.54	27.591
412.89	26.724
413.25	28.159
413.60	27.578
413.96	27.423
414.31	27.805
414.67	26.940
415.03	27.097
415.38	27.872
415.74	28.143
416.09	27.629
416.45	28.562
416.80	27.098
417.16	28.522
417.51	27.781
417.87	28.096
418.22	27.979
418.58	28.227
418.93	28.401
419.29	26.569
419.64	28.581
420.00	28.463
420.35	27.701
420.71	27.643
421.06	28.238
421.42	27.704
421.77	27.225
422.12	28.036
422.48	27.558
422.83	27.146
423.19	27.709
423.54	26.514
423.90	27.562
424.25	27.669
424.61	27.968
424.96	27.642
425.31	28.423
425.67	27.523
426.02	28.033
426.38	26.738
426.73	27.603
427.09	27.785
427.44	28.882
427.79	28.344
428.15	28.095
428.50	27.741
428.85	27.088
429.21	27.844
429.56	28.248
429.92	27.735
430.27	27.820
430.62	27.496
430.98	27.442
431.33	27.760
431.68	26.845
432.04	27.222
432.39	27.838
432.74	27.060
433.10	27.931
433.45	27.419
433.80	26.756
434.16	27.424
434.51	27.097
434.86	28.107
435.22	27.033
435.57	28.197
435.92	28.084
436.28	27.191
436.63	26.868
436.98	27.057
437.34	27.526
437.69	27.728
438.04	28.262
438.39	27.367
438.75	27.808
439.10	27.051
439.45	27.572
439.81	27.401
440.16	28.622
440.51	28.239
440.86	27.734
441.22	26.810
441.57	27.649
441.92	27.597
442.27	27.661
442.63	28.212
442.98	27.972
443.33	25.988
443.68	26.790
444.03	28.316
444.39	28.087
444.74	28.261
445.09	27.895
445.44	28.376
445.79	28.932
446.15	27.919
446.50	26.733
446.85	28.055
447.20	27.529
447.55	27.344
447.91	27.750
448.26	27.661
448.61	27.922
448.96	27.653
449.31	27.052
449.66	28.281
450.02	28.237
450.37	28.097
450.72	27.950
451.07	27.658
451.42	27.903
451.77	28.571
452.12	26.974
452.47	27.688
452.83	26.973
453.18	27.767
453.53	27.307
453.88	27.808
454.23	27.474
454.58	28.401
454.93	27.255
455.28	25.587
455.63	27.402
455.98	27.480
456.34	27.714
456.69	27.446
457.04	28.040
457.39	26.974
457.74	27.267
458.09	26.310
458.44	27.150
458.79	27.115
459.14	28.375
459.49	28.119
459.84	27.355
460.19	27.002
460.54	27.628
460.89	27.045
461.24	28.137
461.59	27.672
461.94	26.981
462.29	27.865
462.64	28.372
462.99	26.540
463.34	26.982
463.69	26.641
464.04	27.542
464.39	27.592
464.74	27.485
465.09	28.072
465.44	27.986
465.79	27.211
466.14	27.309
466.49	27.372
466.84	27.543
467.19	28.285
467.54	28.097
467.89	26.785
468.24	26.946
468.59	26.984
468.94	26.603
469.29	27.410
469.64	27.683
469.99	26.769
470.34	26.485
470.68	28.113
471.03	26.964
471.38	26.391
471.73	26.891
472.08	26.323
472.43	26.242
472.78	26.662
473.13	26.871
473.48	27.101
473.83	26.152
474.17	26.943
474.52	26.867
474.87	26.727
475.22	26.419
475.57	27.499
475.92	27.482
476.27	27.823
476.61	27.836
476.96	26.771
477.31	27.366
477.66	26.236
478.01	27.344
478.36	26.471
478.70	26.427
479.05	26.868
479.40	27.133
479.75	26.747
480.10	27.343
480.45	26.900
480.79	27.442
481.14	28.125
481.49	26.158
481.84	27.220
482.19	26.848
482.53	27.050
482.88	26.539
483.23	26.488
483.58	27.453
483.92	25.847
484.27	26.026
484.62	26.983
484.97	25.829
485.31	26.915
485.66	27.888
486.01	28.423
486.36	28.543
486.70	28.775
487.05	28.613
487.40	27.663
487.75	28.056
488.09	27.410
488.44	26.582
488.79	26.261
489.13	27.163
489.48	26.122
489.83	25.964
490.17	25.888
490.52	26.097
490.87	25.960
491.22	25.406
491.56	25.664
491.91	25.956
492.26	26.592
492.60	26.583
492.95	27.152
493.30	26.136
493.64	25.835
493.99	26.087
494.34	26.262
494.68	25.810
495.03	25.304
495.37	26.104
495.72	25.644
496.07	26.683
496.41	25.896
496.76	26.624
497.11	25.757
497.45	26.683
497.80	26.690
498.14	25.981
498.49	25.800
498.84	25.649
499.18	25.954
499.53	26.190
499.87	26.216
500.22	25.915
500.56	26.021
500.91	25.602
501.26	26.100
501.60	26.463
501.95	26.055
502.29	26.489
502.64	26.303
502.98	26.196
503.33	25.456
503.67	25.590
504.02	26.784
504.36	26.274
504.71	25.657
505.06	26.522
505.40	26.294
505.75	25.722
506.09	25.494
506.44	26.848
506.78	26.224
507.13	26.422
507.47	25.170
507.82	25.107
508.16	26.624
508.51	25.656
508.85	25.275
509.19	25.386
509.54	25.791
509.88	25.243
510.23	25.498
510.57	25.548
510.92	24.574
511.26	25.805
511.61	25.743
511.95	25.589
512.30	25.831
512.64	25.654
512.98	24.312
513.33	26.077
513.67	24.559
514.02	26.259
514.36	26.114
514.70	27.214
515.05	25.029
515.39	25.266
515.74	25.449
516.08	26.240
516.42	26.502
516.77	26.507
517.11	25.223
517.46	25.494
517.80	25.447
518.14	25.597
518.49	24.940
518.83	25.577
519.17	24.742
519.52	24.926
519.86	24.370
520.20	25.638
520.55	23.327
520.89	25.094
521.23	24.889
521.58	24.984
521.92	25.256
522.26	24.723
522.61	25.000
522.95	25.629
523.29	24.460
523.64	25.604
523.98	25.405
524.32	24.356
524.66	25.928
525.01	25.974
525.35	25.016
525.69	24.242
526.04	24.339
526.38	25.616
526.72	24.003
527.06	24.643
527.41	25.396
527.75	23.995
528.09	24.585
528.43	25.996
528.78	25.215
529.12	24.452
529.46	25.146
529.80	24.699
530.15	25.809
530.49	24.983
530.83	25.787
531.17	25.118
531.51	24.966
531.86	24.949
532.20	23.939
532.54	24.098
532.88	25.325
533.22	26.210
533.57	25.557
533.91	24.869
534.25	25.977
534.59	25.786
534.93	24.984
535.27	24.302
535.62	24.303
535.96	25.114
536.30	26.517
536.64	24.879
536.98	24.878
537.32	25.533
537.66	26.087
538.01	25.035
538.35	25.035
538.69	26.032
539.03	24.880
539.37	25.707
539.71	24.813
540.05	24.168
540.39	25.000
540.73	24.895
541.07	25.691
541.42	24.866
541.76	24.639
542.10	24.570
542.44	24.809
542.78	24.501
543.12	25.000
543.46	25.869
543.80	24.913
544.14	23.832
544.48	24.983
544.82	25.632
545.16	25.820
545.50	26.168
545.84	26.558
546.18	26.950
546.52	25.379
546.86	24.155
547.20	25.107
547.54	23.534
547.88	25.611
548.22	24.786
548.56	25.396
548.90	25.606
549.24	24.380
549.58	25.740
549.92	25.089
550.26	25.714
550.60	24.164
550.94	25.467
551.28	24.730
551.62	25.385
551.96	25.865
552.30	26.316
552.64	25.106
552.98	25.176
553.32	24.822
553.66	24.891
554.00	25.328
554.34	25.111
554.68	25.000
555.02	24.851
555.36	23.934
555.69	24.762
556.03	23.626
556.37	25.196
556.71	25.199
557.05	24.758
557.39	25.204
557.73	25.187
558.07	24.736
558.41	24.655
558.75	25.175
559.08	24.744
559.42	24.048
559.76	25.620
560.10	24.312
560.44	24.125
560.78	25.524
561.12	26.093
561.45	25.228
561.79	25.560
562.13	25.976
562.47	24.460
562.81	24.928
563.15	25.247
563.48	24.894
563.82	24.846
564.16	25.279
564.50	25.676
564.84	26.305
565.17	25.486
565.51	24.658
565.85	24.829
566.19	25.133
566.52	25.737
566.86	26.157
567.20	25.965
567.54	26.217
567.88	27.182
568.21	27.319
568.55	26.087
568.89	27.002
569.23	27.155
569.56	27.671
569.90	28.745
570.24	28.322
570.57	27.782
570.91	28.303
571.25	27.359
571.59	27.437
571.92	27.526
572.26	27.355
572.60	28.000
572.93	27.298
573.27	26.834
573.61	27.924
573.95	27.990
574.28	27.781
574.62	27.867
574.96	27.823
575.29	28.041
575.63	27.313
575.97	27.243
576.30	26.905
576.64	27.470
576.98	28.031
577.31	28.262
577.65	28.326
577.98	28.550
578.32	28.717
578.66	28.025
578.99	27.188
579.33	27.479
579.67	27.782
580.00	28.127
580.34	27.761
580.67	27.794
581.01	27.762
581.35	27.929
581.68	28.518
582.02	28.427
582.35	28.709
582.69	28.769
583.02	28.413
583.36	28.129
583.70	28.271
584.03	28.468
584.37	28.769
584.70	27.885
585.04	26.917
585.37	27.322
585.71	27.968
586.04	27.811
586.38	27.794
586.72	28.149
587.05	27.441
587.39	28.376
587.72	28.376
588.06	28.148
588.39	27.570
588.73	27.808
589.06	28.147
589.40	28.206
589.73	28.332
590.07	27.341
590.40	28.096
590.73	28.295
591.07	27.608
591.40	27.337
591.74	26.878
592.07	27.180
592.41	27.253
592.74	27.439
593.08	27.139
593.41	27.776
593.75	27.576
594.08	27.326
594.41	27.729
594.75	26.870
595.08	27.658
595.42	27.420
595.75	27.788
596.09	27.756
596.42	27.532
596.75	27.309
597.09	26.834
597.42	26.016
597.75	27.531
598.09	26.981
598.42	26.895
598.76	27.585
599.09	27.524
599.42	27.473
599.76	27.464
600.09	27.413
600.42	27.369
600.76	26.412
601.09	26.565
601.42	26.596
601.76	27.789
602.09	27.351
602.42	27.885
602.76	27.844
603.09	27.824
603.42	27.968
603.76	27.056
604.09	27.015
604.42	27.242
604.76	28.349
605.09	27.468
605.42	27.449
605.75	27.102
606.09	26.837
606.42	27.314
606.75	28.009
607.09	27.077
607.42	26.894
607.75	26.377
608.08	25.696
608.42	26.816
608.75	27.470
609.08	27.404
609.41	26.396
609.75	26.562
610.08	26.860
610.41	26.232
610.74	27.206
611.07	27.183
611.41	27.348
611.74	27.612
612.07	25.857
612.40	27.571
612.73	27.571
613.07	27.222
613.40	26.860
613.73	26.973
614.06	26.043
614.39	26.960
614.72	25.770
615.06	26.927
615.39	25.928
615.72	26.265
616.05	26.816
616.38	25.584
616.71	25.872
617.05	25.942
617.38	26.461
617.71	25.723
618.04	26.730
618.37	27.112
618.70	26.601
619.03	27.431
619.36	24.891
619.69	25.474
620.03	26.004
620.36	26.824
620.69	26.267
621.02	26.529
621.35	26.722
621.68	24.660
622.01	25.750
622.34	25.539
622.67	25.237
623.00	26.646
623.33	24.848
623.66	25.056
623.99	25.567
624.32	25.095
624.65	24.812
624.99	26.411
625.32	25.929
625.65	26.473
625.98	26.430
626.31	24.356
626.64	25.650
626.97	25.916
627.30	25.482
627.63	24.870
627.96	24.708
628.29	25.254
628.62	24.779
628.95	25.050
629.28	26.109
629.61	23.031
629.94	24.829
630.26	25.296
630.59	26.431
630.92	24.513
631.25	23.590
631.58	23.458
631.91	23.904
632.24	23.050
632.57	24.886
632.90	22.301
633.23	23.765
633.56	23.426
633.89	23.428
634.22	24.568
634.55	23.253
634.88	22.350
635.20	21.923
635.53	23.733
635.86	21.847
636.19	24.321
636.52	23.852
636.85	23.697
637.18	22.516
637.51	23.145
637.83	22.076
638.16	23.738
638.49	22.343
638.82	23.947
639.15	22.117
639.48	22.283
639.81	23.291
640.13	22.944
640.46	23.032
640.79	21.355
641.12	22.009
641.45	22.372
641.77	23.259
642.10	26.066
642.43	22.830
642.76	20.462
643.09	22.132
643.41	23.301
643.74	22.076
644.07	21.182
644.40	24.155
644.73	23.468
645.05	21.644
645.38	22.928
645.71	21.986
646.04	21.544
646.36	22.163
646.69	23.921
647.02	24.575
647.35	22.388
647.67	21.389
648.00	23.507
648.33	22.526
648.66	21.186
648.98	21.273
649.31	23.967
649.64	23.391
649.96	19.935
650.29	23.850
650.62	21.709
650.94	21.852
651.27	20.857
651.60	23.243
651.92	25.350
652.25	22.735
652.58	21.833
652.90	23.671
653.23	23.025
653.56	22.843
653.88	21.134
654.21	20.665
654.54	22.581
654.86	22.581
655.19	23.099
655.52	27.632
655.84	29.299
656.17	34.122
656.49	46.137
656.82	47.717
657.15	35.793
657.47	25.858
657.80	19.291
658.13	18.747
658.45	28.347
658.78	27.775
659.10	25.870
659.43	25.967
659.75	25.308
660.08	24.414
660.41	23.698
660.73	22.376
661.06	21.144
661.38	20.548
661.71	16.427
662.03	22.318
662.36	22.857
662.68	18.584
663.01	21.616
663.33	20.882
663.66	21.163
663.98	21.163
664.31	23.667
664.63	19.124
664.96	17.391
665.28	22.075
665.61	18.615
665.93	21.739
666.26	23.861
666.58	19.016
666.91	17.882
667.23	21.226
667.56	21.090
667.88	21.103
668.21	22.912
668.53	18.913
668.86	21.226
669.18	20.991
669.50	21.308
669.83	17.442
670.15	20.280
670.48	21.531
670.80	20.046
671.13	19.911
671.45	17.580
671.77	22.961
672.10	23.564
672.42	23.783
672.75	24.156
673.07	24.508
673.39	23.119
673.72	21.893
674.04	19.792
674.37	24.576
674.69	19.058
675.01	21.778
675.34	21.847
675.66	20.139
675.98	21.951
676.31	20.413
676.63	21.615
676.95	20.909
677.28	21.647
677.60	24.578
677.92	20.413
678.25	22.101
678.57	20.563
678.89	21.849
679.22	22.595
679.54	21.888
679.86	20.080
680.18	22.718
680.51	21.780
680.83	19.284
681.15	23.200
681.48	25.000
681.80	22.314
682.12	25.202
682.44	18.828
682.77	22.075
683.09	20.137
683.41	22.500
683.73	24.194
684.06	23.009
684.38	19.140
684.70	23.312
685.02	20.332
685.34	19.565
685.67	22.326
685.99	23.508
686.31	23.009
686.63	22.820
686.96	22.053
687.28	17.778
687.60	21.103
687.92	24.848
688.24	23.992
688.56	22.926
688.89	21.652
689.21	23.111
689.53	19.722
689.85	20.233
690.17	24.330
690.49	20.567
690.82	19.175
691.14	19.762
691.46	21.963
691.78	21.847
692.10	24.731
692.42	22.078
692.74	23.932
693.06	22.748
693.39	20.136
693.71	19.683
694.03	19.169
694.35	22.430
694.67	21.465
694.99	20.627
695.31	23.499
695.63	19.750
695.95	19.949
696.27	22.021
696.59	23.056
696.91	19.328
697.23	21.080
697.56	23.515
697.88	22.581
698.20	22.323
698.52	23.294
698.84	20.096
699.16	22.500
699.48	21.303
699.80	22.829
700.12	22.642
700.44	22.129
700.76	18.023
701.08	20.000
701.40	21.386
701.72	23.148
702.04	20.792
702.36	23.077
702.68	18.919
703.00	22.727
703.32	21.701
703.64	14.689
703.96	19.710
704.28	20.859
704.60	19.048
704.91	19.243
705.23	19.601
705.55	25.795
705.87	19.856
706.19	16.296
706.51	19.244
706.83	20.900
707.15	16.511
707.47	22.969
707.79	18.229
708.11	21.250
708.43	24.000
708.74	21.189
709.06	23.380
709.38	21.101
709.70	18.047
710.02	17.834
710.34	24.768
710.66	16.987
710.98	19.536
711.29	22.295
711.61	19.322
711.93	20.195
712.25	22.680
712.57	21.245
712.89	16.418
713.20	19.723
713.52	22.648
713.84	22.526
714.16	21.306
714.48	16.129
714.80	20.192
715.11	22.492
715.43	18.495
715.75	23.000
716.07	18.272
716.39	19.128
716.70	19.188
717.02	14.885
717.34	23.077
717.66	15.487
717.97	13.043
718.29	19.247
718.61	23.228
718.93	22.481
719.24	20.532
719.56	17.269
719.88	25.773
720.20	21.212
720.51	21.073
720.83	25.869
721.15	22.269
721.46	21.774
721.78	13.834
722.10	22.677
722.42	14.108
722.73	20.000
723.05	22.041
723.37	22.034
723.68	21.622
724.00	25.214
724.32	16.444
724.63	17.273
724.95	19.651
725.27	21.198
725.58	17.373
725.90	18.254
726.22	21.622
726.53	23.729
726.85	22.472
727.16	21.509
727.48	18.623
727.80	22.267
728.11	20.339
728.43	19.216
728.74	14.113
729.06	16.400
729.38	28.947
729.69	21.116
730.01	17.308
730.32	24.254
730.64	19.435
730.96	23.396
731.27	20.667
731.59	22.712
731.90	19.745
732.22	25.552
732.53	25.249
732.85	23.050
733.16	25.926
733.48	19.424
733.80	19.203
734.11	21.356
734.43	24.399
734.74	22.727
735.06	15.961
735.37	24.773
735.69	26.599
736.00	20.209
736.32	19.128
736.63	26.056
736.95	26.962
737.26	20.996
737.58	21.477
737.89	17.949
738.21	27.068
738.52	20.576
738.83	20.087
739.15	23.144
739.46	20.866
739.78	23.077
740.09	20.915
740.41	23.188
740.72	16.929
741.04	23.077
741.35	22.979
741.66	15.640
741.98	15.306
742.29	18.812
742.61	16.754
742.92	15.166
743.23	13.426
743.55	26.244
743.86	15.789
744.18	13.876
744.49	13.830
744.80	18.478
745.12	27.807
745.43	23.415
745.74	17.708
746.06	19.512
746.37	23.037
746.68	18.957
747.00	20.213
747.31	23.383
747.62	20.388
747.94	15.311
748.25	15.842
748.56	18.033
748.88	19.895
749.19	26.064
749.50	22.167
749.82	12.736
750.13	18.807
750.44	26.316
750.75	24.254
751.07	29.197
751.38	21.456
751.69	19.216
752.01	24.419
752.32	24.303
752.63	21.344
752.94	21.552
753.26	23.431
753.57	23.077
753.88	21.681
754.19	18.750
754.51	22.314
754.82	21.862
755.13	25.833
755.44	22.984
755.75	24.219
756.07	22.179
756.38	17.358
756.69	23.372
757.00	22.667
757.31	25.490
757.63	21.037
757.94	23.889
758.25	22.466
758.56	22.074
758.87	22.663
759.18	21.184
759.50	20.000
759.81	24.749
760.12	25.161
760.43	20.303
760.74	25.309
761.05	27.385
761.36	25.568
761.67	25.455
761.99	23.469
762.30	19.636
762.61	27.273
762.92	23.529
763.23	21.622
763.54	23.832
763.85	28.390
764.16	19.502
764.47	21.774
764.78	23.077
765.10	29.966
765.41	27.129
765.72	23.492
766.03	22.556
766.34	28.102
766.65	27.092
766.96	20.202
767.27	23.936
767.58	18.391
767.89	12.766
768.20	21.591
768.51	25.824
768.82	22.167
769.13	20.276
769.44	21.459
769.75	19.635
770.06	22.845
770.37	18.750
770.68	20.812
770.99	21.719
771.30	25.980
771.61	22.624
771.92	23.276
772.23	26.108
772.54	23.656
772.85	14.198
773.16	25.843
773.47	26.797
773.78	30.065
774.09	21.557
774.39	14.000
774.70	23.567
775.01	14.483
775.32	15.714
775.63	9.917
775.94	24.427
776.25	15.748
776.56	20.000
776.87	13.462
777.18	16.239
777.48	18.103
777.79	19.130
778.10	5.714
778.41	15.315
778.72	17.460
779.03	24.060
779.34	21.277
779.65	28.767
779.95	13.014
780.26	26.897
780.57	17.073
780.88	14.961
781.19	14.655
781.50	20.930
781.80	23.077
782.11	16.352
782.42	24.615
782.73	19.424
783.04	20.741
783.34	20.139
783.65	11.111
783.96	18.852
784.27	17.931
784.57	18.699
784.88	17.969
785.19	25.000
785.50	39.000
785.81	19.828
786.11	18.103
786.42	11.650
786.73	18.182
787.04	14.286
787.34	12.500
787.65	20.000
787.96	25.664
788.26	24.545
788.57	15.385
788.88	26.563
789.19	22.222
789.49	15.652
789.80	14.286
790.11	16.162
790.41	10.000
790.72	27.174
791.03	18.182
791.33	20.000
791.64	17.500
791.95	8.140
792.25	22.340
792.56	12.360
792.87	12.329
793.17	8.696
793.48	6.667
793.79	23.750
794.09	20.000
794.40	22.642
794.70	18.447
795.01	23.577
795.32	19.658
795.62	23.810
795.93	22.549
796.23	21.698
796.54	29.167
796.85	22.059
797.15	4.225
797.46	30.556
797.76	12.121
798.07	2.326
798.37	0.000
798.68	3.030
798.99	23.457
799.29	28.571
799.60	5.797
799.90	30.667
800.21	24.590
800.51	13.846
800.82	13.559
801.12	10.145
801.43	3.279
801.73	23.810
802.04	28.000
802.34	5.970
802.65	21.154
802.95	12.500
803.26	3.846
803.56	33.333
803.87	17.391
804.17	28.000
804.48	28.571
804.78	14.815
805.09	15.217
805.39	20.000
805.70	24.074
806.00	0.000
806.30	25.352
806.61	35.714
806.91	4.167
807.22	30.263
807.52	24.000
807.83	16.364
808.13	9.722
808.43	17.647
808.74	5.970
809.04	-3.390
809.35	17.308
809.65	15.625
809.95	-5.405
810.26	-9.091
810.56	21.918
810.86	4.762
811.17	8.000
811.47	32.653
811.77	-36.842
812.08	15.909
812.38	-7.547
812.69	-7.500
812.99	-6.061
813.29	2.632
813.59	-17.143
813.90	0.000
814.20	-7.692
814.50	13.462
814.81	18.868
815.11	-4.255
815.41	25.424
815.72	2.381
816.02	31.373
816.32	25.000
816.62	-2.439
816.93	0.000
817.23	-14.286
817.53	31.250
817.84	8.696
818.14	30.769
818.44	18.421
818.74	45.652
819.04	-2.500
819.35	35.135
819.65	-11.765
819.95	8.333
820.25	14.286
820.56	47.500
820.86	-17.241
821.16	37.500
821.46	29.787
821.76	35.000
822.07	18.605
822.37	-29.730
822.67	3.125
822.97	35.714
823.27	-14.286
823.57	12.000
823.88	0.000
824.18	0.000
824.48	-8.824
824.78	12.903
825.08	8.696
825.38	9.091
825.69	4.167
825.99	7.895
826.29	13.889
826.59	6.667
826.89	-9.524
827.19	28.261
827.49	2.500
827.79	8.571
828.09	-3.571
828.39	18.182
828.70	13.514
829.00	-10.714
829.30	-9.524
829.60	-23.333
829.90	43.750
830.20	18.421
830.50	11.111
830.80	-4.348
831.10	-9.091
831.40	36.364
831.70	35.484
832.00	-9.524
832.30	9.524
832.60	-91.667
832.90	24.138
833.20	10.000
833.50	33.333
833.80	25.926
834.10	26.923
834.40	9.375
834.70	-122.222
835.00	-10.526
835.30	26.923
835.60	0.000
835.90	29.032
836.20	-18.182
836.50	57.143
836.80	-34.615
837.10	21.429
837.40	-400.000
837.70	-4.545
838.00	-109.091
838.30	-34.783
838.60	-69.231
838.90	13.636
839.19	64.286
839.49	13.333
839.79	-23.077
840.09	-66.667
840.39	14.286
840.69	35.714
840.99	-23.077
841.29	-47.368
841.59	-70.000
841.88	-27.273
842.18	-90.000
842.48	31.250
842.78	-33.333
843.08	3.704
843.38	-170.000
843.68	13.043
843.97	60.000
844.27	-40.000
844.57	35.000
844.87	-50.000
845.17	-9.524
845.47	26.667
845.76	9.524
846.06	0.000
846.36	-30.000
846.66	35.714
846.96	20.000
847.25	-37.500
847.55	0.000
847.85	-25.000
848.15	-27.273
848.44	-566.667
848.74	15.000
849.04	29.630
849.34	-109.091
849.63	-50.000
849.93	0.000
850.23	-44.444
850.53	20.000
850.82	15.385
851.12	-122.222
851.42	-26.667
851.71	-23.077
852.01	-57.143
852.31	-100.000
852.61	-9.091
852.90	-35.000
853.20	21.053
853.50	25.000
853.79	30.435
854.09	37.500
854.39	-21.053
854.68	8.333
854.98	25.806
855.28	26.923
855.57	15.000
855.87	55.556
856.17	3.704
856.46	14.286
856.76	-20.000
857.05	77.778
857.35	-8.000
857.65	0.000
857.94	-84.615
858.24	27.586
858.53	-22.222
858.83	7.407
859.13	9.091
859.42	-4.348
859.72	-200.000
860.01	100.000
860.31	24.000
860.60	-23.810
860.90	-100.000
861.20	-73.333
861.49	-750.000
861.79	-86.667
862.08	0.000
862.38	53.333
862.67	-220.000
862.97	-33.333
863.26	-66.667
863.56	22.222
863.85	-400.000
864.15	0.000
864.44	80.000
864.74	85.714
865.03	150.000
865.33	-200.000
865.62	50.000
865.92	-8.333
866.21	-166.667
866.51	-18.750
866.80	-27.273
867.10	-50.000
867.39	16.667
867.69	0.000
867.98	15.385
868.27	-100.000
868.57	6.667
868.86	61.111
869.16	-7.692
869.45	20.000
869.75	-2300.000
870.04	0.000
870.33	-142.857
870.63	9.524
870.92	400.000
871.22	-200.000
871.51	-800.000
871.80	-33.333
872.10	566.667
>>>>>End Processed Spectral Data<<<<<
