SpectraSuite Data File
++++++++++++++++++++++++++++++++++++
Date: Fri May 15 20:35:26 PDT 2015
User: schluterlab
Dark Spectrum Present: Yes
Reference Spectrum Present: Yes
Number of Sampled Component Spectra: 1
Spectrometers: USB2E3373
Integration Time (usec): 3000 (USB2E3373)
Spectra Averaged: 3 (USB2E3373)
Boxcar Smoothing: 0 (USB2E3373)
Correct for Electrical Dark: No (USB2E3373)
Strobe/Lamp Enabled: No (USB2E3373)
Correct for Detector Non-linearity: No (USB2E3373)
Correct for Stray Light: No (USB2E3373)
Number of Pixels in Processed Spectrum: 2048
>>>>>Begin Processed Spectral Data<<<<<
178.53	0.000
178.91	0.000
179.29	100.000
179.67	-150.000
180.04	57.143
180.42	75.000
180.80	-1000.000
181.18	400.000
181.56	450.000
181.94	0.000
182.31	700.000
182.69	-200.000
183.07	-266.667
183.45	-260.000
183.83	50.000
184.20	54.545
184.58	88.889
184.96	375.000
185.34	-133.333
185.72	-600.000
186.09	92.308
186.47	-1600.000
186.85	300.000
187.23	66.667
187.61	500.000
187.98	-233.333
188.36	0.000
188.74	-200.000
189.12	11.765
189.49	55.556
189.87	0.000
190.25	21.429
190.63	100.000
191.00	-233.333
191.38	0.000
191.76	50.000
192.14	350.000
192.51	-450.000
192.89	-77.778
193.27	-142.857
193.65	233.333
194.02	181.818
194.40	-20.000
194.78	-250.000
195.15	-8.333
195.53	-25.000
195.91	200.000
196.29	-275.000
196.66	138.462
197.04	57.143
197.42	-77.778
197.79	-633.333
198.17	-100.000
198.55	1500.000
198.92	-366.667
199.30	-1100.000
199.68	-20.000
200.05	-233.333
200.43	0.000
200.81	-666.667
201.18	-500.000
201.56	700.000
201.94	-100.000
202.31	200.000
202.69	-260.000
203.07	325.000
203.44	0.000
203.82	0.000
204.19	7.143
204.57	-466.667
204.95	137.500
205.32	0.000
205.70	-71.429
206.08	-150.000
206.45	33.333
206.83	57.143
207.20	-157.143
207.58	700.000
207.96	-166.667
208.33	-100.000
208.71	-200.000
209.08	-333.333
209.46	-600.000
209.84	-20.000
210.21	-1100.000
210.59	-71.429
210.96	-83.333
211.34	0.000
211.71	60.000
212.09	-171.429
212.46	-1800.000
212.84	0.000
213.22	30.000
213.59	350.000
213.97	38.462
214.34	54.545
214.72	16.667
215.09	525.000
215.47	-38.462
215.84	-18.182
216.22	-133.333
216.59	-37.500
216.97	300.000
217.34	-100.000
217.72	-300.000
218.09	25.000
218.47	162.500
218.84	-900.000
219.22	-122.222
219.59	20.000
219.97	500.000
220.34	25.000
220.72	-100.000
221.09	-175.000
221.47	0.000
221.84	-1150.000
222.22	-950.000
222.59	0.000
222.97	16.667
223.34	-500.000
223.72	-14.286
224.09	23.810
224.46	10.714
224.84	200.000
225.21	-80.000
225.59	6.667
225.96	-250.000
226.34	425.000
226.71	-71.429
227.08	-33.333
227.46	25.000
227.83	-700.000
228.21	100.000
228.58	-45.455
228.95	-62.500
229.33	170.000
229.70	12.500
230.08	50.000
230.45	-185.714
230.82	100.000
231.20	-6.667
231.57	0.000
231.95	28.571
232.32	-90.000
232.69	85.714
233.07	-100.000
233.44	-180.000
233.81	-70.000
234.19	22.222
234.56	5.882
234.93	900.000
235.31	25.000
235.68	-160.000
236.05	-92.308
236.43	15.000
236.80	-52.941
237.17	18.750
237.55	20.000
237.92	-3.704
238.29	44.444
238.67	6.667
239.04	20.588
239.41	-2.439
239.79	53.333
240.16	19.512
240.53	7.895
240.91	30.435
241.28	14.286
241.65	21.429
242.02	28.767
242.40	28.333
242.77	25.424
243.14	13.636
243.51	42.500
243.89	24.138
244.26	18.391
244.63	26.190
245.00	22.680
245.38	21.649
245.75	10.112
246.12	20.690
246.49	33.884
246.87	42.308
247.24	18.487
247.61	30.702
247.98	22.764
248.36	29.375
248.73	30.921
249.10	24.675
249.47	32.278
249.84	21.569
250.22	32.941
250.59	24.183
250.96	31.925
251.33	29.651
251.70	31.765
252.08	32.995
252.45	31.683
252.82	36.181
253.19	29.032
253.56	29.907
253.94	32.432
254.31	33.043
254.68	29.386
255.05	30.315
255.42	29.258
255.79	35.907
256.16	33.852
256.54	36.567
256.91	24.335
257.28	28.625
257.65	32.210
258.02	29.078
258.39	31.987
258.76	37.363
259.14	32.558
259.51	31.392
259.88	35.052
260.25	29.739
260.62	31.944
260.99	30.508
261.36	31.849
261.73	32.278
262.10	36.474
262.47	31.595
262.85	31.034
263.22	30.462
263.59	32.087
263.96	31.056
264.33	34.242
264.70	30.655
265.07	27.976
265.44	33.994
265.81	29.661
266.18	31.148
266.55	32.648
266.92	32.902
267.29	34.726
267.66	30.691
268.03	29.319
268.40	29.765
268.77	35.829
269.14	30.935
269.51	31.877
269.88	29.676
270.25	30.102
270.62	31.220
270.99	32.225
271.36	31.785
271.73	32.629
272.10	29.927
272.47	32.388
272.84	32.178
273.21	33.411
273.58	37.108
273.95	32.723
274.32	31.409
274.69	29.186
275.06	31.473
275.43	32.200
275.80	32.450
276.17	31.034
276.54	31.692
276.91	31.140
277.28	28.821
277.65	28.099
278.02	30.213
278.39	28.884
278.76	30.398
279.13	31.950
279.50	32.773
279.87	30.886
280.23	29.462
280.60	31.189
280.97	32.525
281.34	29.423
281.71	31.622
282.08	31.697
282.45	30.528
282.82	28.185
283.19	29.594
283.56	31.985
283.92	29.602
284.29	30.385
284.66	29.264
285.03	30.255
285.40	30.246
285.77	28.120
286.14	28.881
286.51	33.764
286.87	29.433
287.24	31.123
287.61	28.748
287.98	31.053
288.35	28.250
288.72	29.947
289.08	28.646
289.45	30.404
289.82	28.147
290.19	28.498
290.56	27.959
290.93	27.609
291.29	25.886
291.66	27.087
292.03	25.359
292.40	28.065
292.77	26.475
293.13	22.727
293.50	24.734
293.87	27.481
294.24	26.739
294.60	25.037
294.97	25.744
295.34	24.540
295.71	25.484
296.08	25.859
296.44	22.475
296.81	25.278
297.18	26.522
297.55	28.320
297.91	22.877
298.28	25.594
298.65	23.881
299.02	23.046
299.38	22.572
299.75	24.552
300.12	25.785
300.48	23.715
300.85	23.067
301.22	24.935
301.59	23.947
301.95	23.671
302.32	24.773
302.69	24.254
303.05	24.752
303.42	25.903
303.79	23.364
304.15	24.612
304.52	24.851
304.89	24.211
305.25	23.366
305.62	21.704
305.99	23.392
306.35	21.965
306.72	23.960
307.09	23.945
307.45	23.077
307.82	22.454
308.19	24.971
308.55	24.864
308.92	23.965
309.29	22.011
309.65	23.789
310.02	23.432
310.38	24.808
310.75	25.027
311.12	24.004
311.48	24.814
311.85	23.560
312.22	22.890
312.58	24.735
312.95	23.693
313.31	24.638
313.68	25.445
314.05	24.898
314.41	25.979
314.78	25.567
315.14	24.563
315.51	25.776
315.87	25.922
316.24	25.784
316.61	24.803
316.97	25.992
317.34	25.977
317.70	27.438
318.07	25.192
318.43	26.569
318.80	26.136
319.16	27.148
319.53	26.876
319.89	27.264
320.26	28.138
320.62	27.583
320.99	26.618
321.35	27.235
321.72	26.999
322.08	27.090
322.45	28.325
322.81	27.505
323.18	27.870
323.54	27.317
323.91	27.848
324.27	28.125
324.64	28.745
325.00	28.376
325.37	29.201
325.73	27.017
326.10	28.610
326.46	27.623
326.83	28.871
327.19	29.294
327.56	30.061
327.92	29.313
328.29	29.196
328.65	28.302
329.01	27.941
329.38	29.124
329.74	28.329
330.11	29.008
330.47	27.922
330.84	28.558
331.20	30.608
331.56	27.222
331.93	29.041
332.29	30.064
332.66	28.416
333.02	28.810
333.38	28.414
333.75	29.762
334.11	27.574
334.48	29.556
334.84	28.480
335.20	27.722
335.57	28.196
335.93	29.720
336.29	28.545
336.66	27.520
337.02	28.346
337.38	27.315
337.75	28.273
338.11	28.765
338.47	29.380
338.84	28.373
339.20	27.697
339.56	28.624
339.93	29.902
340.29	27.706
340.65	29.032
341.02	27.571
341.38	28.142
341.74	27.562
342.11	27.036
342.47	28.114
342.83	27.595
343.20	27.700
343.56	28.087
343.92	27.458
344.28	28.096
344.65	26.857
345.01	26.534
345.37	26.325
345.73	28.536
346.10	27.092
346.46	28.091
346.82	27.987
347.19	27.265
347.55	28.237
347.91	27.751
348.27	27.405
348.63	28.876
349.00	25.923
349.36	27.265
349.72	27.197
350.08	28.033
350.45	27.294
350.81	27.575
351.17	26.710
351.53	28.980
351.89	26.424
352.26	26.800
352.62	27.419
352.98	27.711
353.34	26.651
353.70	26.942
354.07	26.371
354.43	25.540
354.79	26.424
355.15	26.825
355.51	26.424
355.87	25.890
356.24	26.183
356.60	27.001
356.96	26.349
357.32	27.636
357.68	25.645
358.04	25.929
358.40	27.010
358.77	27.352
359.13	26.821
359.49	26.117
359.85	25.975
360.21	27.911
360.57	26.473
360.93	27.534
361.29	25.453
361.66	26.019
362.02	26.288
362.38	26.809
362.74	27.555
363.10	28.217
363.46	27.724
363.82	27.573
364.18	27.232
364.54	27.132
364.90	27.312
365.26	25.910
365.62	28.175
365.98	26.979
366.35	26.730
366.71	26.977
367.07	26.270
367.43	26.240
367.79	27.138
368.15	27.136
368.51	27.604
368.87	26.274
369.23	26.426
369.59	26.166
369.95	27.493
370.31	27.818
370.67	27.537
371.03	27.035
371.39	27.352
371.75	27.619
372.11	26.961
372.47	27.293
372.83	27.466
373.19	27.532
373.55	25.921
373.91	26.494
374.27	27.144
374.63	28.500
374.99	27.660
375.35	26.880
375.71	27.692
376.07	28.020
376.42	28.435
376.78	28.255
377.14	26.676
377.50	28.552
377.86	27.376
378.22	27.696
378.58	26.987
378.94	27.284
379.30	27.511
379.66	28.276
380.02	27.652
380.38	28.180
380.74	27.469
381.09	29.693
381.45	28.807
381.81	28.378
382.17	28.997
382.53	28.482
382.89	28.437
383.25	29.060
383.61	28.963
383.97	29.968
384.32	28.143
384.68	29.474
385.04	29.105
385.40	27.940
385.76	30.000
386.12	29.690
386.48	29.949
386.83	28.472
387.19	29.976
387.55	29.799
387.91	29.218
388.27	28.266
388.62	30.900
388.98	30.755
389.34	30.731
389.70	31.759
390.06	29.767
390.42	30.894
390.77	30.412
391.13	30.832
391.49	31.824
391.85	31.644
392.20	31.638
392.56	31.151
392.92	30.652
393.28	31.722
393.64	31.291
393.99	32.100
394.35	32.764
394.71	32.184
395.07	31.678
395.42	31.633
395.78	32.117
396.14	33.291
396.50	33.672
396.85	33.419
397.21	32.456
397.57	32.727
397.92	33.733
398.28	32.529
398.64	32.831
399.00	33.973
399.35	32.844
399.71	31.878
400.07	33.857
400.42	33.966
400.78	34.538
401.14	33.394
401.49	33.770
401.85	34.247
402.21	34.759
402.57	34.812
402.92	34.881
403.28	35.276
403.63	36.255
403.99	35.268
404.35	36.477
404.70	34.405
405.06	34.783
405.42	35.177
405.77	35.851
406.13	35.856
406.49	36.175
406.84	36.736
407.20	38.110
407.55	36.574
407.91	37.166
408.27	36.074
408.62	37.662
408.98	37.893
409.34	37.608
409.69	37.274
410.05	37.808
410.40	37.284
410.76	38.359
411.11	37.375
411.47	39.316
411.83	38.669
412.18	39.447
412.54	38.577
412.89	38.916
413.25	39.350
413.60	39.503
413.96	38.405
414.31	39.146
414.67	39.705
415.03	39.481
415.38	40.013
415.74	39.349
416.09	40.300
416.45	40.851
416.80	40.978
417.16	42.196
417.51	40.973
417.87	39.635
418.22	42.293
418.58	42.408
418.93	42.445
419.29	41.165
419.64	42.320
420.00	43.955
420.35	42.030
420.71	42.041
421.06	41.928
421.42	42.007
421.77	42.948
422.12	42.281
422.48	42.610
422.83	42.111
423.19	43.172
423.54	42.740
423.90	43.051
424.25	43.915
424.61	44.492
424.96	42.393
425.31	43.790
425.67	44.131
426.02	45.406
426.38	44.646
426.73	46.005
427.09	43.861
427.44	45.412
427.79	44.726
428.15	44.660
428.50	44.216
428.85	44.472
429.21	45.048
429.56	45.660
429.92	45.249
430.27	44.762
430.62	44.433
430.98	45.170
431.33	44.900
431.68	44.427
432.04	46.506
432.39	44.495
432.74	45.039
433.10	45.805
433.45	45.878
433.80	46.140
434.16	46.427
434.51	46.129
434.86	46.225
435.22	47.841
435.57	46.538
435.92	47.365
436.28	46.571
436.63	46.435
436.98	46.234
437.34	46.098
437.69	46.691
438.04	46.838
438.39	47.098
438.75	47.784
439.10	47.085
439.45	47.474
439.81	46.116
440.16	47.209
440.51	47.881
440.86	48.580
441.22	46.606
441.57	46.854
441.92	47.429
442.27	47.672
442.63	48.394
442.98	48.191
443.33	47.468
443.68	47.480
444.03	46.846
444.39	48.057
444.74	49.052
445.09	48.886
445.44	49.174
445.79	49.252
446.15	48.403
446.50	47.310
446.85	48.618
447.20	47.967
447.55	48.270
447.91	48.393
448.26	48.719
448.61	48.129
448.96	48.881
449.31	49.017
449.66	47.851
450.02	48.317
450.37	48.133
450.72	48.396
451.07	50.380
451.42	48.564
451.77	48.825
452.12	47.967
452.47	49.131
452.83	48.351
453.18	48.703
453.53	49.178
453.88	47.723
454.23	48.310
454.58	49.433
454.93	49.742
455.28	47.683
455.63	48.295
455.98	48.106
456.34	48.723
456.69	49.365
457.04	50.347
457.39	49.149
457.74	49.093
458.09	48.499
458.44	49.152
458.79	48.739
459.14	49.485
459.49	48.896
459.84	49.690
460.19	48.058
460.54	50.306
460.89	49.489
461.24	49.565
461.59	49.406
461.94	50.000
462.29	49.216
462.64	50.631
462.99	50.169
463.34	49.235
463.69	49.356
464.04	49.576
464.39	49.303
464.74	50.061
465.09	50.031
465.44	49.683
465.79	47.279
466.14	49.601
466.49	49.051
466.84	49.911
467.19	48.686
467.54	49.425
467.89	50.537
468.24	48.662
468.59	50.159
468.94	48.508
469.29	50.623
469.64	50.171
469.99	51.367
470.34	49.352
470.68	50.932
471.03	50.602
471.38	50.071
471.73	50.910
472.08	50.339
472.43	50.067
472.78	49.006
473.13	50.476
473.48	49.772
473.83	49.191
474.17	49.482
474.52	49.458
474.87	50.182
475.22	48.810
475.57	49.181
475.92	49.314
476.27	50.000
476.61	50.174
476.96	48.857
477.31	49.757
477.66	48.989
478.01	48.961
478.36	49.837
478.70	50.680
479.05	49.835
479.40	48.596
479.75	47.862
480.10	49.462
480.45	49.650
480.79	51.360
481.14	50.000
481.49	49.261
481.84	50.097
482.19	48.784
482.53	50.360
482.88	48.878
483.23	49.184
483.58	48.868
483.92	48.112
484.27	48.906
484.62	49.260
484.97	47.803
485.31	47.038
485.66	45.782
486.01	46.906
486.36	46.703
486.70	46.721
487.05	47.845
487.40	47.389
487.75	47.155
488.09	47.775
488.44	47.765
488.79	47.927
489.13	48.237
489.48	47.884
489.83	48.700
490.17	49.213
490.52	49.099
490.87	48.496
491.22	48.902
491.56	48.861
491.91	48.040
492.26	49.490
492.60	48.800
492.95	49.680
493.30	49.389
493.64	49.312
493.99	49.130
494.34	48.641
494.68	49.524
495.03	48.662
495.37	49.117
495.72	49.975
496.07	49.756
496.41	49.670
496.76	48.181
497.11	47.974
497.45	48.878
497.80	49.445
498.14	49.627
498.49	49.111
498.84	48.653
499.18	49.448
499.53	50.099
499.87	49.514
500.22	49.110
500.56	48.916
500.91	49.297
501.26	48.542
501.60	49.139
501.95	49.248
502.29	49.782
502.64	48.938
502.98	49.334
503.33	48.511
503.67	49.349
504.02	49.756
504.36	49.184
504.71	48.384
505.06	49.572
505.40	49.695
505.75	49.381
506.09	48.099
506.44	50.719
506.78	50.204
507.13	48.449
507.47	48.303
507.82	49.306
508.16	49.657
508.51	49.580
508.85	50.549
509.19	49.228
509.54	49.598
509.88	49.299
510.23	49.543
510.57	49.813
510.92	48.188
511.26	50.191
511.61	50.440
511.95	49.753
512.30	49.279
512.64	50.083
512.98	49.803
513.33	50.252
513.67	50.199
514.02	50.400
514.36	50.686
514.70	50.991
515.05	51.939
515.39	50.472
515.74	50.958
516.08	50.986
516.42	51.413
516.77	51.200
517.11	50.801
517.46	52.603
517.80	50.298
518.14	52.235
518.49	51.202
518.83	51.154
519.17	50.334
519.52	50.977
519.86	50.240
520.20	51.215
520.55	51.907
520.89	51.443
521.23	52.312
521.58	51.924
521.92	51.474
522.26	51.724
522.61	51.948
522.95	53.974
523.29	51.588
523.64	52.224
523.98	52.560
524.32	53.028
524.66	51.985
525.01	52.597
525.35	51.523
525.69	52.054
526.04	51.984
526.38	52.464
526.72	51.537
527.06	52.918
527.41	52.704
527.75	50.871
528.09	52.558
528.43	53.747
528.78	51.683
529.12	52.452
529.46	52.697
529.80	51.362
530.15	52.871
530.49	52.997
530.83	53.762
531.17	51.041
531.51	52.120
531.86	52.005
532.20	51.844
532.54	52.076
532.88	53.114
533.22	51.478
533.57	52.359
533.91	52.676
534.25	53.451
534.59	51.123
534.93	50.598
535.27	50.508
535.62	51.717
535.96	52.316
536.30	52.309
536.64	53.274
536.98	52.195
537.32	53.343
537.66	53.997
538.01	50.699
538.35	51.803
538.69	51.531
539.03	52.016
539.37	51.682
539.71	51.738
540.05	51.527
540.39	51.801
540.73	51.604
541.07	53.315
541.42	51.277
541.76	53.131
542.10	50.929
542.44	50.799
542.78	49.346
543.12	51.374
543.46	51.391
543.80	52.811
544.14	49.733
544.48	50.766
544.82	51.265
545.16	52.732
545.50	51.335
545.84	51.912
546.18	51.844
546.52	52.055
546.86	51.618
547.20	51.073
547.54	50.459
547.88	50.543
548.22	50.559
548.56	50.462
548.90	49.865
549.24	49.862
549.58	50.000
549.92	49.964
550.26	50.769
550.60	51.227
550.94	50.336
551.28	51.159
551.62	50.615
551.96	52.256
552.30	50.439
552.64	51.058
552.98	50.985
553.32	50.499
553.66	51.669
554.00	51.022
554.34	52.954
554.68	50.221
555.02	51.786
555.36	50.860
555.69	50.476
556.03	50.321
556.37	50.819
556.71	49.892
557.05	50.708
557.39	50.112
557.73	51.424
558.07	51.207
558.41	51.378
558.75	51.442
559.08	50.355
559.42	51.270
559.76	51.721
560.10	50.535
560.44	50.261
560.78	49.580
561.12	50.705
561.45	52.565
561.79	50.700
562.13	49.539
562.47	50.719
562.81	50.360
563.15	49.859
563.48	49.434
563.82	50.172
564.16	50.905
564.50	50.473
564.84	49.331
565.17	49.027
565.51	51.571
565.85	50.137
566.19	50.531
566.52	50.670
566.86	49.936
567.20	49.564
567.54	48.783
567.88	49.033
568.21	48.529
568.55	47.011
568.89	48.306
569.23	47.857
569.56	47.242
569.90	46.975
570.24	46.409
570.57	46.036
570.91	46.218
571.25	45.643
571.59	44.970
571.92	44.415
572.26	44.928
572.60	45.054
572.93	44.933
573.27	44.796
573.61	44.958
573.95	43.692
574.28	43.882
574.62	43.860
574.96	43.381
575.29	43.892
575.63	42.343
575.97	43.128
576.30	43.295
576.64	43.020
576.98	44.041
577.31	43.917
577.65	43.257
577.98	42.963
578.32	42.482
578.66	42.403
578.99	42.279
579.33	42.618
579.67	42.695
580.00	42.684
580.34	42.637
580.67	41.790
581.01	43.156
581.35	42.313
581.68	42.511
582.02	42.026
582.35	42.544
582.69	42.131
583.02	42.192
583.36	42.418
583.70	43.069
584.03	43.091
584.37	43.676
584.70	42.473
585.04	42.124
585.37	42.654
585.71	42.582
586.04	42.184
586.38	41.851
586.72	42.152
587.05	41.970
587.39	42.773
587.72	43.330
588.06	43.288
588.39	42.467
588.73	42.949
589.06	43.575
589.40	43.035
589.73	43.775
590.07	44.033
590.40	44.118
590.73	45.016
591.07	44.487
591.40	44.301
591.74	44.389
592.07	43.831
592.41	43.242
592.74	42.533
593.08	41.600
593.41	41.845
593.75	41.544
594.08	41.160
594.41	42.795
594.75	42.252
595.08	42.452
595.42	42.326
595.75	42.396
596.09	42.142
596.42	42.290
596.75	42.940
597.09	43.007
597.42	42.367
597.75	43.197
598.09	42.282
598.42	41.877
598.76	42.214
599.09	41.146
599.42	41.607
599.76	40.444
600.09	40.913
600.42	41.205
600.76	40.713
601.09	41.183
601.42	41.246
601.76	40.929
602.09	41.708
602.42	41.702
602.76	41.299
603.09	42.234
603.42	42.977
603.76	41.290
604.09	41.474
604.42	42.090
604.76	42.902
605.09	41.910
605.42	41.309
605.75	41.900
606.09	41.274
606.42	40.534
606.75	40.866
607.09	41.231
607.42	40.496
607.75	41.297
608.08	40.117
608.42	40.612
608.75	42.651
609.08	41.953
609.41	42.741
609.75	42.994
610.08	41.887
610.41	41.159
610.74	42.370
611.07	42.171
611.41	42.242
611.74	43.124
612.07	42.238
612.40	42.670
612.73	42.090
613.07	41.339
613.40	41.849
613.73	41.354
614.06	41.402
614.39	42.414
614.72	41.961
615.06	41.285
615.39	39.956
615.72	40.797
616.05	41.061
616.38	40.684
616.71	41.468
617.05	41.384
617.38	41.923
617.71	41.950
618.04	42.794
618.37	42.938
618.70	42.772
619.03	42.292
619.36	41.462
619.69	44.731
620.03	44.485
620.36	42.418
620.69	42.755
621.02	43.196
621.35	44.315
621.68	43.622
622.01	43.583
622.34	42.538
622.67	44.243
623.00	42.802
623.33	41.845
623.66	42.334
623.99	42.814
624.32	44.030
624.65	42.556
624.99	42.739
625.32	41.926
625.65	43.598
625.98	44.239
626.31	41.729
626.64	43.934
626.97	44.154
627.30	42.732
627.63	44.281
627.96	43.935
628.29	43.941
628.62	45.034
628.95	43.387
629.28	43.851
629.61	43.370
629.94	44.966
630.26	42.984
630.59	45.057
630.92	45.026
631.25	44.513
631.58	45.595
631.91	44.956
632.24	45.528
632.57	46.136
632.90	45.077
633.23	43.647
633.56	47.103
633.89	45.499
634.22	46.420
634.55	45.108
634.88	46.999
635.20	46.026
635.53	47.333
635.86	45.644
636.19	46.960
636.52	45.536
636.85	46.154
637.18	44.025
637.51	44.528
637.83	44.678
638.16	47.749
638.49	45.095
638.82	47.632
639.15	45.997
639.48	46.492
639.81	44.073
640.13	46.032
640.46	46.939
640.79	46.981
641.12	46.972
641.45	48.198
641.77	44.593
642.10	50.553
642.43	46.463
642.76	48.020
643.09	46.688
643.41	45.307
643.74	48.600
644.07	44.499
644.40	48.649
644.73	46.760
645.05	45.134
645.38	47.795
645.71	47.872
646.04	49.731
646.36	48.936
646.69	49.281
647.02	49.905
647.35	49.813
647.67	46.435
648.00	48.134
648.33	46.758
648.66	46.102
648.98	46.231
649.31	44.628
649.64	45.683
649.96	45.705
650.29	48.041
650.62	45.470
650.94	46.667
651.27	46.182
651.60	47.387
651.92	43.182
652.25	44.405
652.58	44.333
652.90	46.998
653.23	44.370
653.56	46.701
653.88	42.955
654.21	43.082
654.54	43.463
654.86	45.331
655.19	41.082
655.52	41.486
655.84	34.734
656.17	38.687
656.49	51.586
656.82	53.126
657.15	40.308
657.47	30.764
657.80	22.929
658.13	22.233
658.45	34.593
658.78	34.882
659.10	34.343
659.43	35.154
659.75	36.704
660.08	38.828
660.41	40.654
660.73	40.331
661.06	43.328
661.38	45.597
661.71	41.684
662.03	48.927
662.36	47.253
662.68	43.584
663.01	49.127
663.33	47.100
663.66	46.512
663.98	46.977
664.31	44.350
664.63	43.779
664.96	42.826
665.28	42.384
665.61	44.805
665.93	47.391
666.26	46.855
666.58	42.058
666.91	44.235
667.23	44.575
667.56	46.919
667.88	47.242
668.21	46.539
668.53	47.754
668.86	42.925
669.18	42.925
669.50	43.826
669.83	43.488
670.15	46.387
670.48	44.737
670.80	44.931
671.13	44.519
671.45	41.781
671.77	44.635
672.10	41.584
672.42	42.509
672.75	44.760
673.07	44.186
673.39	44.404
673.72	40.631
674.04	41.667
674.37	43.220
674.69	43.041
675.01	46.444
675.34	41.216
675.66	44.676
675.98	43.459
676.31	46.101
676.63	42.993
676.95	42.273
677.28	45.647
677.60	47.229
677.92	46.789
678.25	45.514
678.57	40.693
678.89	44.538
679.22	43.177
679.54	43.373
679.86	38.171
680.18	38.447
680.51	41.477
680.83	39.165
681.15	41.800
681.48	43.033
681.80	42.975
682.12	41.734
682.44	41.423
682.77	41.722
683.09	41.876
683.41	41.591
683.73	41.475
684.06	42.699
684.38	40.860
684.70	40.523
685.02	38.382
685.34	39.723
685.67	39.400
685.99	38.517
686.31	40.708
686.63	41.744
686.96	36.312
687.28	36.970
687.60	38.783
687.92	43.838
688.24	39.315
688.56	40.830
688.89	39.732
689.21	41.778
689.53	44.084
689.85	44.884
690.17	42.857
690.49	42.317
690.82	39.078
691.14	40.000
691.46	40.421
691.78	43.919
692.10	43.871
692.42	40.043
692.74	40.812
693.06	38.739
693.39	37.783
693.71	41.403
694.03	39.030
694.35	41.355
694.67	43.182
694.99	39.426
695.31	44.648
695.63	43.250
695.95	40.152
696.27	38.860
696.59	40.278
696.91	42.857
697.23	39.332
697.56	39.604
697.88	35.914
698.20	37.813
698.52	37.647
698.84	37.799
699.16	37.750
699.48	38.847
699.80	39.206
700.12	38.544
700.44	41.176
700.76	40.116
701.08	39.394
701.40	40.663
701.72	47.222
702.04	43.894
702.36	44.147
702.68	41.742
703.00	42.424
703.32	41.349
703.64	38.701
703.96	37.391
704.28	42.025
704.60	43.492
704.91	34.069
705.23	37.542
705.55	42.403
705.87	49.458
706.19	43.333
706.51	40.550
706.83	42.122
707.15	40.498
707.47	37.535
707.79	35.156
708.11	38.000
708.43	38.250
708.74	39.018
709.06	42.817
709.38	40.979
709.70	40.533
710.02	40.764
710.34	34.985
710.66	39.103
710.98	39.404
711.29	39.344
711.61	37.966
711.93	37.459
712.25	44.674
712.57	41.026
712.89	44.776
713.20	39.100
713.52	44.948
713.84	40.956
714.16	39.863
714.48	35.806
714.80	43.590
715.11	36.778
715.43	37.931
715.75	34.667
716.07	38.206
716.39	38.255
716.70	36.531
717.02	33.206
717.34	44.534
717.66	42.478
717.97	39.565
718.29	32.636
718.61	42.520
718.93	41.473
719.24	36.122
719.56	41.365
719.88	37.801
720.20	38.258
720.51	31.801
720.83	38.996
721.15	37.395
721.46	44.355
721.78	39.921
722.10	31.599
722.42	34.440
722.73	34.694
723.05	45.714
723.37	40.254
723.68	46.396
724.00	38.462
724.32	40.000
724.63	34.545
724.95	42.358
725.27	40.092
725.58	38.559
725.90	38.889
726.22	40.154
726.53	36.949
726.85	36.330
727.16	41.887
727.48	32.389
727.80	38.866
728.11	38.559
728.43	40.392
728.74	27.419
729.06	38.000
729.38	42.481
729.69	41.036
730.01	34.615
730.32	39.925
730.64	36.042
730.96	36.226
731.27	32.333
731.59	33.220
731.90	36.624
732.22	37.224
732.53	35.548
732.85	37.943
733.16	35.354
733.48	32.014
733.80	35.507
734.11	34.576
734.43	38.144
734.74	36.970
735.06	32.573
735.37	35.952
735.69	33.670
736.00	30.662
736.32	33.557
736.63	34.155
736.95	33.788
737.26	37.367
737.58	30.537
737.89	30.403
738.21	36.842
738.52	35.802
738.83	35.371
739.15	31.441
739.46	38.189
739.78	31.502
740.09	35.621
740.41	33.696
740.72	35.827
741.04	42.105
741.35	33.617
741.66	36.967
741.98	36.735
742.29	35.644
742.61	41.361
742.92	33.175
743.23	31.481
743.55	34.389
743.86	38.756
744.18	33.971
744.49	27.660
744.80	36.957
745.12	44.385
745.43	31.220
745.74	46.354
746.06	33.171
746.37	36.126
746.68	37.915
747.00	31.915
747.31	42.786
747.62	34.951
747.94	37.321
748.25	36.634
748.56	39.891
748.88	40.838
749.19	42.021
749.50	39.901
749.82	35.377
750.13	32.110
750.44	39.850
750.75	35.448
751.07	36.131
751.38	37.165
751.69	31.765
752.01	36.822
752.32	31.873
752.63	28.458
752.94	34.914
753.26	40.586
753.57	32.127
753.88	32.743
754.19	28.750
754.51	36.777
754.82	34.818
755.13	43.333
755.44	35.887
755.75	34.375
756.07	37.354
756.38	30.566
756.69	34.866
757.00	31.333
757.31	37.255
757.63	28.659
757.94	31.944
758.25	29.589
758.56	29.521
758.87	30.595
759.18	30.841
759.50	28.364
759.81	38.127
760.12	31.935
760.43	31.515
760.74	32.099
761.05	30.154
761.36	31.250
761.67	33.939
761.99	36.395
762.30	36.727
762.61	35.968
762.92	38.009
763.23	30.631
763.54	29.907
763.85	38.136
764.16	31.120
764.47	31.048
764.78	30.403
765.10	34.680
765.41	28.707
765.72	28.254
766.03	31.203
766.34	25.912
766.65	34.263
766.96	31.313
767.27	34.043
767.58	27.011
767.89	38.298
768.20	34.091
768.51	32.418
768.82	30.049
769.13	26.267
769.44	35.622
769.75	25.114
770.06	32.759
770.37	32.212
770.68	31.472
770.99	25.339
771.30	40.196
771.61	35.747
771.92	38.362
772.23	38.424
772.54	33.333
772.85	32.099
773.16	30.899
773.47	38.562
773.78	31.373
774.09	31.737
774.39	33.333
774.70	31.847
775.01	37.931
775.32	32.857
775.63	35.537
775.94	35.115
776.25	28.346
776.56	25.833
776.87	27.885
777.18	29.915
777.48	32.759
777.79	34.783
778.10	25.714
778.41	27.928
778.72	34.127
779.03	34.586
779.34	35.461
779.65	36.301
779.95	23.288
780.26	37.241
780.57	26.829
780.88	37.795
781.19	27.586
781.50	31.008
781.80	30.178
782.11	30.189
782.42	31.538
782.73	28.777
783.04	31.111
783.34	27.778
783.65	23.077
783.96	32.787
784.27	25.517
784.57	30.894
784.88	30.469
785.19	33.000
785.50	37.000
785.81	42.241
786.11	33.621
786.42	27.184
786.73	30.909
787.04	20.408
787.34	26.786
787.65	28.571
787.96	35.398
788.26	30.000
788.57	31.624
788.88	29.687
789.19	24.603
789.49	30.435
789.80	24.490
790.11	33.333
790.41	24.545
790.72	29.348
791.03	28.409
791.33	31.250
791.64	23.750
791.95	31.395
792.25	30.851
792.56	40.449
792.87	32.877
793.17	20.290
793.48	25.333
793.79	26.250
794.09	36.250
794.40	21.698
794.70	25.243
795.01	13.008
795.32	14.530
795.62	26.667
795.93	15.686
796.23	23.585
796.54	26.042
796.85	29.412
797.15	30.986
797.46	40.278
797.76	39.394
798.07	24.419
798.37	17.105
798.68	28.788
798.99	19.753
799.29	21.429
799.60	18.841
799.90	50.667
800.21	39.344
800.51	29.231
800.82	32.203
801.12	31.884
801.43	27.869
801.73	36.508
802.04	8.000
802.34	29.851
802.65	36.538
802.95	5.357
803.26	32.692
803.56	17.647
803.87	32.609
804.17	24.000
804.48	53.968
804.78	12.963
805.09	28.261
805.39	24.444
805.70	25.926
806.00	-12.281
806.30	28.169
806.61	21.429
806.91	11.111
807.22	38.158
807.52	34.667
807.83	41.818
808.13	26.389
808.43	26.471
808.74	23.881
809.04	28.814
809.35	32.692
809.65	34.375
809.95	-27.027
810.26	18.182
810.56	19.178
810.86	42.857
811.17	20.000
811.47	34.694
811.77	15.789
812.08	-2.273
812.38	5.660
812.69	40.000
812.99	42.424
813.29	39.474
813.59	0.000
813.90	20.455
814.20	15.385
814.50	23.077
814.81	22.642
815.11	8.511
815.41	45.763
815.72	26.190
816.02	29.412
816.32	41.667
816.62	12.195
816.93	-8.108
817.23	2.857
817.53	12.500
817.84	-4.348
818.14	36.538
818.44	-10.526
818.74	73.913
819.04	12.500
819.35	21.622
819.65	-29.412
819.95	30.556
820.25	26.190
820.56	25.000
820.86	-6.897
821.16	45.000
821.46	40.426
821.76	52.500
822.07	2.326
822.37	2.703
822.67	12.500
822.97	21.429
823.27	3.571
823.57	-16.000
823.88	-44.444
824.18	32.143
824.48	-5.882
824.78	25.806
825.08	13.043
825.38	33.333
825.69	-8.333
825.99	21.053
826.29	25.000
826.59	13.333
826.89	-33.333
827.19	8.696
827.49	-2.500
827.79	40.000
828.09	25.000
828.39	24.242
828.70	40.541
829.00	21.429
829.30	-9.524
829.60	16.667
829.90	25.000
830.20	15.789
830.50	3.704
830.80	-21.739
831.10	0.000
831.40	39.394
831.70	19.355
832.00	19.048
832.30	-14.286
832.60	-41.667
832.90	48.276
833.20	-20.000
833.50	6.061
833.80	33.333
834.10	3.846
834.40	59.375
834.70	-55.556
835.00	0.000
835.30	38.462
835.60	0.000
835.90	38.710
836.20	9.091
836.50	17.857
836.80	-19.231
837.10	-21.429
837.40	-433.333
837.70	18.182
838.00	-36.364
838.30	30.435
838.60	-23.077
838.90	18.182
839.19	7.143
839.49	-3.333
839.79	7.692
840.09	-175.000
840.39	21.429
840.69	0.000
840.99	-15.385
841.29	52.632
841.59	30.000
841.88	-54.545
842.18	80.000
842.48	12.500
842.78	40.000
843.08	7.407
843.38	-90.000
843.68	26.087
843.97	-6.667
844.27	-66.667
844.57	-15.000
844.87	-5.556
845.17	66.667
845.47	-6.667
845.76	-19.048
846.06	17.647
846.36	50.000
846.66	7.143
846.96	-6.667
847.25	-75.000
847.55	-57.143
847.85	-37.500
848.15	-27.273
848.44	-633.333
848.74	25.000
849.04	48.148
849.34	0.000
849.63	-33.333
849.93	-380.000
850.23	-50.000
850.53	10.000
850.82	-46.154
851.12	-55.556
851.42	6.667
851.71	26.923
852.01	64.286
852.31	-150.000
852.61	-54.545
852.90	-35.000
853.20	5.263
853.50	-33.333
853.79	8.696
854.09	33.333
854.39	15.789
854.68	-12.500
854.98	0.000
855.28	-15.385
855.57	0.000
855.87	-44.444
856.17	25.926
856.46	-78.571
856.76	6.667
857.05	0.000
857.35	-8.000
857.65	-16.667
857.94	-7.692
858.24	-3.448
858.53	27.778
858.83	33.333
859.13	36.364
859.42	-4.348
859.72	50.000
860.01	-433.333
860.31	0.000
860.60	23.810
860.90	-266.667
861.20	-86.667
861.49	-400.000
861.79	60.000
862.08	5.000
862.38	33.333
862.67	-300.000
862.97	-66.667
863.26	41.667
863.56	77.778
863.85	-466.667
864.15	11.111
864.44	-20.000
864.74	35.714
865.03	75.000
865.33	-220.000
865.62	66.667
865.92	-33.333
866.21	-83.333
866.51	12.500
866.80	-54.545
867.10	-350.000
867.39	25.000
867.69	0.000
867.98	7.692
868.27	-433.333
868.57	-73.333
868.86	22.222
869.16	-84.615
869.45	-33.333
869.75	-800.000
870.04	0.000
870.33	-14.286
870.63	-9.524
870.92	466.667
871.22	-120.000
871.51	-900.000
871.80	44.444
872.10	100.000
>>>>>End Processed Spectral Data<<<<<
