SpectraSuite Data File
++++++++++++++++++++++++++++++++++++
Date: Fri May 15 20:41:36 PDT 2015
User: schluterlab
Dark Spectrum Present: Yes
Reference Spectrum Present: Yes
Number of Sampled Component Spectra: 1
Spectrometers: USB2E3373
Integration Time (usec): 3000 (USB2E3373)
Spectra Averaged: 3 (USB2E3373)
Boxcar Smoothing: 0 (USB2E3373)
Correct for Electrical Dark: No (USB2E3373)
Strobe/Lamp Enabled: No (USB2E3373)
Correct for Detector Non-linearity: No (USB2E3373)
Correct for Stray Light: No (USB2E3373)
Number of Pixels in Processed Spectrum: 2048
>>>>>Begin Processed Spectral Data<<<<<
178.53	0.000
178.91	0.000
179.29	87.500
179.67	-100.000
180.04	-28.571
180.42	225.000
180.80	100.000
181.18	66.667
181.56	450.000
181.94	-350.000
182.31	500.000
182.69	-320.000
183.07	-33.333
183.45	-20.000
183.83	33.333
184.20	81.818
184.58	100.000
184.96	100.000
185.34	-200.000
185.72	50.000
186.09	76.923
186.47	-1500.000
186.85	266.667
187.23	100.000
187.61	-600.000
187.98	33.333
188.36	-55.556
188.74	33.333
189.12	29.412
189.49	11.111
189.87	0.000
190.25	-28.571
190.63	250.000
191.00	-366.667
191.38	-21.053
191.76	150.000
192.14	-175.000
192.51	250.000
192.89	11.111
193.27	-157.143
193.65	133.333
194.02	118.182
194.40	30.000
194.78	-87.500
195.15	16.667
195.53	-100.000
195.91	275.000
196.29	-50.000
196.66	146.154
197.04	114.286
197.42	122.222
197.79	-300.000
198.17	-100.000
198.55	700.000
198.92	-233.333
199.30	-600.000
199.68	-120.000
200.05	-166.667
200.43	0.000
200.81	-300.000
201.18	100.000
201.56	1500.000
201.94	-200.000
202.31	-66.667
202.69	-120.000
203.07	325.000
203.44	-100.000
203.82	0.000
204.19	42.857
204.57	-100.000
204.95	62.500
205.32	0.000
205.70	14.286
206.08	50.000
206.45	111.111
206.83	42.857
207.20	-57.143
207.58	-700.000
207.96	-433.333
208.33	-90.000
208.71	-100.000
209.08	-83.333
209.46	-800.000
209.84	-40.000
210.21	-1000.000
210.59	-42.857
210.96	83.333
211.34	100.000
211.71	6.667
212.09	-71.429
212.46	-1900.000
212.84	0.000
213.22	30.000
213.59	650.000
213.97	15.385
214.34	-145.455
214.72	0.000
215.09	400.000
215.47	7.692
215.84	-90.909
216.22	-166.667
216.59	0.000
216.97	100.000
217.34	-75.000
217.72	-260.000
218.09	150.000
218.47	162.500
218.84	-800.000
219.22	-33.333
219.59	-140.000
219.97	433.333
220.34	300.000
220.72	14.286
221.09	-75.000
221.47	200.000
221.84	-650.000
222.22	-800.000
222.59	63.636
222.97	-33.333
223.34	-133.333
223.72	-50.000
224.09	28.571
224.46	42.857
224.84	466.667
225.21	20.000
225.59	26.667
225.96	300.000
226.34	150.000
226.71	0.000
227.08	-16.667
227.46	-25.000
227.83	-300.000
228.21	33.333
228.58	18.182
228.95	75.000
229.33	10.000
229.70	81.250
230.08	-87.500
230.45	14.286
230.82	42.857
231.20	26.667
231.57	71.429
231.95	-100.000
232.32	-110.000
232.69	92.857
233.07	266.667
233.44	-80.000
233.81	-20.000
234.19	0.000
234.56	41.176
234.93	500.000
235.31	225.000
235.68	-60.000
236.05	-23.077
236.43	-30.000
236.80	-23.529
237.17	31.250
237.55	0.000
237.92	40.741
238.29	27.778
238.67	60.000
239.04	47.059
239.41	4.878
239.79	36.667
240.16	46.341
240.53	31.579
240.91	21.739
241.28	23.810
241.65	48.214
242.02	32.877
242.40	21.667
242.77	28.814
243.14	13.636
243.51	28.750
243.89	45.977
244.26	26.437
244.63	29.762
245.00	29.897
245.38	29.897
245.75	13.483
246.12	29.310
246.49	32.231
246.87	38.462
247.24	34.454
247.61	24.561
247.98	35.772
248.36	35.625
248.73	32.895
249.10	30.519
249.47	39.241
249.84	39.869
250.22	36.471
250.59	35.294
250.96	38.028
251.33	30.233
251.70	41.176
252.08	31.472
252.45	35.644
252.82	36.683
253.19	36.866
253.56	32.710
253.94	38.288
254.31	36.957
254.68	34.649
255.05	32.283
255.42	31.878
255.79	35.521
256.16	31.907
256.54	39.179
256.91	31.179
257.28	37.175
257.65	34.457
258.02	38.298
258.39	34.343
258.76	38.828
259.14	37.874
259.51	33.657
259.88	36.426
260.25	33.333
260.62	38.542
260.99	34.237
261.36	35.616
261.73	35.443
262.10	34.347
262.47	32.822
262.85	36.991
263.22	32.000
263.59	35.514
263.96	37.888
264.33	36.667
264.70	33.631
265.07	32.143
265.44	38.810
265.81	37.571
266.18	34.973
266.55	34.704
266.92	37.047
267.29	34.465
267.66	35.550
268.03	34.555
268.40	38.120
268.77	38.235
269.14	33.333
269.51	34.704
269.88	34.663
270.25	33.673
270.62	32.439
270.99	32.481
271.36	31.785
271.73	34.977
272.10	33.577
272.47	34.043
272.84	32.673
273.21	34.339
273.58	32.289
273.95	34.554
274.32	31.178
274.69	35.294
275.06	37.054
275.43	34.240
275.80	35.320
276.17	35.402
276.54	35.760
276.91	37.061
277.28	34.279
277.65	33.058
278.02	33.404
278.39	32.823
278.76	33.753
279.13	30.705
279.50	34.244
279.87	34.773
280.23	33.333
280.60	31.189
280.97	33.535
281.34	32.500
281.71	36.756
282.08	30.266
282.45	34.442
282.82	32.046
283.19	34.429
283.56	34.104
283.92	31.689
284.29	33.654
284.66	31.589
285.03	32.417
285.40	33.081
285.77	32.513
286.14	31.408
286.51	36.900
286.87	30.165
287.24	32.044
287.61	28.571
287.98	30.877
288.35	31.542
288.72	32.925
289.08	29.514
289.45	28.471
289.82	29.720
290.19	29.181
290.56	31.389
290.93	28.620
291.29	27.427
291.66	29.449
292.03	28.708
292.40	28.548
292.77	28.230
293.13	27.435
293.50	27.618
293.87	28.550
294.24	28.130
294.60	26.230
294.97	28.125
295.34	27.607
295.71	27.869
296.08	26.756
296.44	22.760
296.81	26.389
297.18	25.362
297.55	26.016
297.91	26.027
298.28	26.781
298.65	25.780
299.02	24.394
299.38	23.940
299.75	24.690
300.12	25.524
300.48	24.901
300.85	25.222
301.22	25.714
301.59	23.947
301.95	23.291
302.32	25.811
302.69	23.383
303.05	23.267
303.42	23.537
303.79	23.014
304.15	26.045
304.52	24.376
304.89	23.392
305.25	24.455
305.62	23.687
305.99	23.860
306.35	21.850
306.72	22.497
307.09	23.375
307.45	23.077
307.82	23.264
308.19	24.623
308.55	22.356
308.92	24.074
309.29	21.006
309.65	23.466
310.02	23.762
310.38	23.381
310.75	24.699
311.12	24.650
311.48	23.648
311.85	23.141
312.22	22.257
312.58	22.930
312.95	22.946
313.31	23.810
313.68	24.398
314.05	24.898
314.41	24.948
314.78	25.670
315.14	26.002
315.51	26.501
315.87	25.717
316.24	25.885
316.61	26.378
316.97	26.885
317.34	26.758
317.70	27.342
318.07	27.500
318.43	28.333
318.80	28.220
319.16	28.613
319.53	30.104
319.89	29.528
320.26	30.061
320.62	31.896
320.99	30.793
321.35	31.860
321.72	32.191
322.08	31.722
322.45	32.386
322.81	33.595
323.18	34.347
323.54	35.135
323.91	35.735
324.27	35.352
324.64	37.453
325.00	38.777
325.37	39.578
325.73	39.075
326.10	40.145
326.46	40.179
326.83	41.382
327.19	42.284
327.56	42.745
327.92	43.574
328.29	42.857
328.65	44.340
329.01	44.301
329.38	44.516
329.74	45.609
330.11	44.856
330.47	45.362
330.84	45.962
331.20	50.095
331.56	45.741
331.93	47.671
332.29	49.404
332.66	46.697
333.02	48.234
333.38	49.679
333.75	49.359
334.11	48.075
334.48	48.957
334.84	48.535
335.20	49.863
335.57	48.323
335.93	51.039
336.29	49.355
336.66	50.045
337.02	51.115
337.38	50.648
337.75	49.636
338.11	51.307
338.47	51.916
338.84	51.479
339.20	50.640
339.56	52.294
339.93	52.193
340.29	50.917
340.65	53.047
341.02	52.216
341.38	52.832
341.74	53.799
342.11	51.300
342.47	52.135
342.83	52.855
343.20	52.700
343.56	54.261
343.92	53.942
344.28	53.459
344.65	53.800
345.01	54.365
345.37	52.986
345.73	53.556
346.10	54.616
346.46	53.070
346.82	52.864
347.19	53.699
347.55	54.804
347.91	54.288
348.27	53.759
348.63	55.877
349.00	53.486
349.36	55.278
349.72	55.887
350.08	54.754
350.45	53.951
350.81	54.817
351.17	54.072
351.53	55.184
351.89	53.840
352.26	54.160
352.62	55.161
352.98	54.458
353.34	54.992
353.70	55.906
354.07	54.274
354.43	55.885
354.79	54.666
355.15	56.190
355.51	55.222
355.87	57.120
356.24	54.812
356.60	55.457
356.96	57.222
357.32	55.511
357.68	56.059
358.04	55.170
358.40	55.707
358.77	56.459
359.13	55.084
359.49	54.931
359.85	55.694
360.21	56.300
360.57	55.930
360.93	57.337
361.29	55.514
361.66	57.210
362.02	57.045
362.38	56.893
362.74	57.078
363.10	57.788
363.46	58.043
363.82	59.955
364.18	56.458
364.54	56.765
364.90	57.491
365.26	56.405
365.62	57.883
365.98	58.944
366.35	58.776
366.71	57.132
367.07	58.055
367.43	58.591
367.79	56.113
368.15	57.645
368.51	58.995
368.87	58.650
369.23	57.184
369.59	58.819
369.95	58.944
370.31	58.309
370.67	58.433
371.03	57.506
371.39	57.330
371.75	58.535
372.11	57.061
372.47	60.355
372.83	59.049
373.19	58.488
373.55	58.339
373.91	58.531
374.27	59.674
374.63	58.794
374.99	59.149
375.35	60.724
375.71	61.049
376.07	61.587
376.42	60.612
376.78	59.128
377.14	59.783
377.50	58.300
377.86	60.107
378.22	60.562
378.58	60.833
378.94	59.231
379.30	58.952
379.66	59.436
380.02	59.350
380.38	58.734
380.74	60.622
381.09	60.429
381.45	61.651
381.81	59.963
382.17	60.914
382.53	60.712
382.89	61.770
383.25	63.037
383.61	61.890
383.97	61.397
384.32	59.787
384.68	60.619
385.04	60.294
385.40	60.548
385.76	61.887
386.12	62.160
386.48	62.261
386.83	60.621
387.19	60.745
387.55	62.171
387.91	61.247
388.27	60.134
388.62	62.744
388.98	60.958
389.34	61.524
389.70	62.772
390.06	59.220
390.42	62.435
390.77	61.347
391.13	61.160
391.49	60.414
391.85	61.404
392.20	61.331
392.56	61.983
392.92	61.715
393.28	62.500
393.64	61.261
393.99	62.508
394.35	62.239
394.71	61.814
395.07	60.654
395.42	61.263
395.78	61.173
396.14	61.412
396.50	62.714
396.85	62.009
397.21	60.589
397.57	62.257
397.92	60.455
398.28	61.782
398.64	59.880
399.00	61.456
399.35	59.481
399.71	60.482
400.07	62.213
400.42	60.465
400.78	61.543
401.14	60.980
401.49	59.678
401.85	60.390
402.21	60.904
402.57	61.437
402.92	60.414
403.28	61.090
403.63	62.421
403.99	61.097
404.35	60.775
404.70	59.702
405.06	60.517
405.42	60.162
405.77	58.977
406.13	60.186
406.49	59.147
406.84	59.597
407.20	59.542
407.55	59.884
407.91	60.495
408.27	58.955
408.62	60.246
408.98	60.628
409.34	60.781
409.69	58.269
410.05	58.436
410.40	59.136
410.76	60.193
411.11	59.562
411.47	59.566
411.83	59.134
412.18	60.489
412.54	57.803
412.89	58.128
413.25	59.326
413.60	57.391
413.96	57.178
414.31	58.537
414.67	57.986
415.03	59.121
415.38	58.225
415.74	59.479
416.09	58.654
416.45	57.529
416.80	56.510
417.16	59.254
417.51	59.360
417.87	57.757
418.22	58.031
418.58	58.796
418.93	58.056
419.29	56.274
419.64	57.680
420.00	58.627
420.35	57.134
420.71	57.837
421.06	56.476
421.42	57.151
421.77	57.341
422.12	56.186
422.48	55.766
422.83	56.961
423.19	55.982
423.54	55.791
423.90	56.360
424.25	56.831
424.61	56.610
424.96	55.401
425.31	55.690
425.67	55.282
426.02	56.419
426.38	56.481
426.73	56.295
427.09	56.139
427.44	55.588
427.79	55.745
428.15	54.976
428.50	56.451
428.85	54.423
429.21	55.405
429.56	55.580
429.92	53.980
430.27	53.083
430.62	53.633
430.98	53.981
431.33	53.470
431.68	53.741
432.04	54.220
432.39	53.394
432.74	53.397
433.10	54.598
433.45	52.987
433.80	54.498
434.16	52.909
434.51	53.548
434.86	54.820
435.22	54.066
435.57	54.398
435.92	52.874
436.28	51.819
436.63	53.508
436.98	52.781
437.34	53.660
437.69	53.011
438.04	51.681
438.39	51.680
438.75	53.977
439.10	52.688
439.45	53.013
439.81	52.599
440.16	53.088
440.51	53.493
440.86	54.804
441.22	50.962
441.57	51.435
441.92	52.833
442.27	52.605
442.63	52.837
442.98	51.867
443.33	50.807
443.68	50.769
444.03	50.422
444.39	51.746
444.74	52.341
445.09	51.169
445.44	49.630
445.79	52.140
446.15	51.046
446.50	50.582
446.85	50.213
447.20	50.626
447.55	50.446
447.91	50.028
448.26	50.541
448.61	50.144
448.96	51.291
449.31	50.173
449.66	50.465
450.02	49.743
450.37	50.682
450.72	50.573
451.07	49.937
451.42	49.064
451.77	50.332
452.12	49.462
452.47	49.710
452.83	48.763
453.18	49.652
453.53	51.391
453.88	48.998
454.23	48.679
454.58	51.008
454.93	49.613
455.28	47.302
455.63	49.411
455.98	49.128
456.34	49.106
456.69	49.238
457.04	49.023
457.39	47.570
457.74	48.670
458.09	47.852
458.44	46.870
458.79	48.459
459.14	48.627
459.49	48.060
459.84	47.152
460.19	47.512
460.54	48.594
460.89	47.159
461.24	47.702
461.59	47.565
461.94	46.981
462.29	47.527
462.64	47.575
462.99	48.003
463.34	47.218
463.69	47.812
464.04	47.034
464.39	46.695
464.74	46.074
465.09	46.600
465.44	47.374
465.79	45.578
466.14	46.237
466.49	45.083
466.84	46.996
467.19	46.245
467.54	45.722
467.89	46.431
468.24	45.925
468.59	46.794
468.94	45.016
469.29	45.902
469.64	46.343
469.99	46.251
470.34	44.573
470.68	46.682
471.03	46.001
471.38	46.148
471.73	45.448
472.08	44.301
472.43	44.966
472.78	44.071
473.13	45.238
473.48	44.300
473.83	44.770
474.17	45.725
474.52	44.799
474.87	44.121
475.22	45.210
475.57	43.196
475.92	44.542
476.27	43.597
476.61	44.097
476.96	42.499
477.31	43.699
477.66	42.416
478.01	43.739
478.36	42.102
478.70	44.046
479.05	43.297
479.40	42.819
479.75	42.388
480.10	42.652
480.45	43.050
480.79	43.907
481.14	43.135
481.49	42.512
481.84	43.147
482.19	41.347
482.53	42.062
482.88	41.718
483.23	41.651
483.58	41.415
483.92	40.900
484.27	40.611
484.62	41.416
484.97	40.796
485.31	40.499
485.66	39.898
486.01	39.815
486.36	39.776
486.70	39.820
487.05	40.429
487.40	39.685
487.75	40.141
488.09	39.246
488.44	39.374
488.79	38.737
489.13	40.545
489.48	40.188
489.83	40.493
490.17	39.775
490.52	40.277
490.87	38.963
491.22	40.783
491.56	38.805
491.91	39.197
492.26	39.815
492.60	40.163
492.95	40.236
493.30	39.082
493.64	39.735
493.99	39.662
494.34	39.660
494.68	39.333
495.03	39.075
495.37	38.813
495.72	38.970
496.07	38.829
496.41	37.689
496.76	37.725
497.11	38.193
497.45	39.093
497.80	39.556
498.14	37.556
498.49	38.497
498.84	38.573
499.18	38.906
499.53	38.591
499.87	38.035
500.22	39.070
500.56	38.074
500.91	38.253
501.26	36.876
501.60	38.072
501.95	38.331
502.29	37.918
502.64	37.500
502.98	36.655
503.33	37.176
503.67	38.120
504.02	37.146
504.36	38.199
504.71	36.515
505.06	37.141
505.40	37.107
505.75	37.423
506.09	35.479
506.44	37.628
506.78	37.755
507.13	36.556
507.47	36.136
507.82	36.859
508.16	36.186
508.51	36.674
508.85	36.316
509.19	37.307
509.54	36.086
509.88	36.084
510.23	36.955
510.57	36.451
510.92	35.768
511.26	35.243
511.61	37.129
511.95	36.712
512.30	35.976
512.64	35.559
512.98	35.430
513.33	37.661
513.67	35.532
514.02	36.785
514.36	36.286
514.70	36.946
515.05	37.015
515.39	36.128
515.74	36.168
516.08	35.565
516.42	36.278
516.77	34.874
517.11	36.202
517.46	35.727
517.80	35.101
518.14	34.966
518.49	35.337
518.83	34.994
519.17	34.566
519.52	34.991
519.86	35.654
520.20	35.055
520.55	34.459
520.89	34.567
521.23	35.275
521.58	36.215
521.92	34.551
522.26	35.133
522.61	34.935
522.95	35.828
523.29	36.023
523.64	35.006
523.98	35.126
524.32	34.278
524.66	34.635
525.01	34.610
525.35	35.450
525.69	34.478
526.04	34.722
526.38	35.344
526.72	34.140
527.06	34.760
527.41	34.894
527.75	33.981
528.09	33.555
528.43	35.989
528.78	33.729
529.12	34.581
529.46	34.048
529.80	32.932
530.15	34.719
530.49	34.747
530.83	33.926
531.17	34.184
531.51	35.363
531.86	32.631
532.20	33.125
532.54	32.948
532.88	34.702
533.22	33.602
533.57	34.469
533.91	33.616
534.25	33.984
534.59	32.713
534.93	32.347
535.27	33.249
535.62	33.830
535.96	32.877
536.30	34.828
536.64	33.356
536.98	32.822
537.32	33.499
537.66	33.380
538.01	34.126
538.35	33.079
538.69	31.425
539.03	31.716
539.37	32.773
539.71	33.129
540.05	31.976
540.39	32.825
540.73	33.264
541.07	33.494
541.42	32.594
541.76	32.829
542.10	31.727
542.44	32.523
542.78	31.727
543.12	32.555
543.46	32.476
543.80	32.686
544.14	31.509
544.48	32.378
544.82	32.331
545.16	32.445
545.50	32.377
545.84	32.507
546.18	31.844
546.52	32.444
546.86	32.351
547.20	32.475
547.54	30.742
547.88	32.677
548.22	31.032
548.56	31.135
548.90	31.604
549.24	30.647
549.58	31.312
549.92	29.664
550.26	30.330
550.60	30.409
550.94	30.993
551.28	31.917
551.62	31.308
551.96	32.707
552.30	31.506
552.64	29.690
552.98	31.716
553.32	30.599
553.66	31.350
554.00	30.584
554.34	31.905
554.68	31.047
555.02	31.548
555.36	29.843
555.69	30.476
556.03	29.265
556.37	29.039
556.71	31.047
557.05	30.276
557.39	30.335
557.73	30.885
558.07	30.769
558.41	31.087
558.75	31.255
559.08	30.812
559.42	30.476
559.76	31.145
560.10	30.657
560.44	29.635
560.78	30.000
561.12	30.748
561.45	31.272
561.79	30.182
562.13	30.660
562.47	29.209
562.81	30.476
563.15	30.395
563.48	29.420
563.82	30.542
564.16	30.014
564.50	29.324
564.84	29.518
565.17	30.047
565.51	31.284
565.85	29.492
566.19	29.443
566.52	30.161
566.86	30.206
567.20	29.888
567.54	30.170
567.88	30.873
568.21	29.355
568.55	29.783
568.89	29.723
569.23	29.947
569.56	29.991
569.90	30.410
570.24	28.805
570.57	28.982
570.91	29.662
571.25	29.398
571.59	28.932
571.92	28.089
572.26	28.019
572.60	28.589
572.93	28.114
573.27	28.307
573.61	28.878
573.95	28.454
574.28	28.337
574.62	28.324
574.96	27.998
575.29	27.739
575.63	26.691
575.97	27.975
576.30	27.804
576.64	27.417
576.98	28.134
577.31	27.746
577.65	28.326
577.98	28.804
578.32	27.737
578.66	27.638
578.99	27.843
579.33	26.830
579.67	27.252
580.00	27.392
580.34	28.060
580.67	27.275
581.01	27.786
581.35	27.304
581.68	27.613
582.02	27.712
582.35	27.577
582.69	27.717
583.02	27.537
583.36	27.206
583.70	28.063
584.03	28.079
584.37	27.894
584.70	27.610
585.04	27.358
585.37	27.297
585.71	27.253
586.04	26.727
586.38	27.581
586.72	28.207
587.05	27.643
587.39	27.733
587.72	27.939
588.06	27.069
588.39	27.599
588.73	27.625
589.06	27.560
589.40	27.791
589.73	28.039
590.07	27.870
590.40	28.212
590.73	28.295
591.07	27.820
591.40	28.094
591.74	27.421
592.07	28.200
592.41	28.180
592.74	27.200
593.08	26.755
593.41	27.446
593.75	27.184
594.08	26.914
594.41	27.183
594.75	27.290
595.08	26.977
595.42	27.273
595.75	27.676
596.09	26.896
596.42	27.945
596.75	27.753
597.09	26.925
597.42	27.868
597.75	27.348
598.09	27.478
598.42	27.347
598.76	26.298
599.09	27.324
599.42	26.715
599.76	26.599
600.09	26.735
600.42	26.573
600.76	26.560
601.09	26.870
601.42	26.165
601.76	26.439
602.09	27.186
602.42	27.211
602.76	27.122
603.09	26.993
603.42	27.550
603.76	25.968
604.09	26.205
604.42	26.988
604.76	26.836
605.09	26.828
605.42	26.546
605.75	26.620
606.09	26.582
606.42	26.272
606.75	26.710
607.09	26.637
607.42	25.964
607.75	26.465
608.08	25.606
608.42	26.725
608.75	26.458
609.08	27.653
609.41	27.259
609.75	26.159
610.08	27.009
610.41	26.957
610.74	25.987
611.07	26.667
611.41	26.310
611.74	26.652
612.07	26.338
612.40	27.352
612.73	27.119
613.07	25.872
613.40	26.805
613.73	25.741
614.06	26.600
614.39	26.791
614.72	25.266
615.06	26.089
615.39	26.037
615.72	25.942
616.05	26.760
616.38	25.413
616.71	26.667
617.05	25.757
617.38	26.838
617.71	26.226
618.04	27.429
618.37	27.680
618.70	26.601
619.03	26.667
619.36	26.194
619.69	27.521
620.03	27.904
620.36	26.824
620.69	26.767
621.02	26.453
621.35	27.054
621.68	28.061
622.01	27.000
622.34	27.773
622.67	27.050
623.00	27.106
623.33	27.058
623.66	26.552
623.99	27.383
624.32	27.224
624.65	26.316
624.99	27.163
625.32	25.019
625.65	26.630
625.98	26.994
626.31	26.101
626.64	25.737
626.97	26.702
627.30	27.408
627.63	27.036
627.96	26.954
628.29	25.809
628.62	27.139
628.95	27.054
629.28	26.008
629.61	26.520
629.94	27.566
630.26	26.285
630.59	28.512
630.92	27.282
631.25	26.769
631.58	27.533
631.91	25.768
632.24	26.261
632.57	26.932
632.90	26.453
633.23	26.235
633.56	27.456
633.89	26.264
634.22	26.790
634.55	25.921
634.88	26.309
635.20	27.564
635.53	26.800
635.86	26.268
636.19	25.614
636.52	26.658
636.85	26.427
637.18	25.535
637.51	26.667
637.83	27.858
638.16	27.831
638.49	25.749
638.82	28.684
639.15	26.052
639.48	27.923
639.81	27.476
640.13	27.128
640.46	26.676
640.79	26.804
641.12	26.440
641.45	26.126
641.77	25.926
642.10	26.382
642.43	28.296
642.76	27.228
643.09	29.241
643.41	27.994
643.74	27.348
644.07	27.258
644.40	28.547
644.73	28.897
645.05	27.013
645.38	27.337
645.71	25.532
646.04	28.007
646.36	26.064
646.69	28.777
647.02	26.276
647.35	26.866
647.67	27.239
648.00	28.172
648.33	27.304
648.66	26.441
648.98	25.796
649.31	25.124
649.64	27.002
649.96	26.256
650.29	26.065
650.62	27.179
650.94	26.481
651.27	24.767
651.60	25.586
651.92	26.049
652.25	25.933
652.58	27.167
652.90	28.473
653.23	28.067
653.56	24.535
653.88	25.773
654.21	23.292
654.54	26.146
654.86	27.674
655.19	26.170
655.52	28.251
655.84	26.451
656.17	29.430
656.49	39.026
656.82	39.259
657.15	29.088
657.47	21.668
657.80	15.917
658.13	15.473
658.45	23.195
658.78	23.177
659.10	22.671
659.43	22.893
659.75	23.631
660.08	22.828
660.41	23.187
660.73	24.862
661.06	26.343
661.38	27.789
661.71	21.971
662.03	25.966
662.36	27.033
662.68	24.558
663.01	29.258
663.33	23.898
663.66	26.047
663.98	27.674
664.31	23.881
664.63	23.502
664.96	24.348
665.28	26.269
665.61	28.139
665.93	27.391
666.26	27.332
666.58	24.385
666.91	27.059
667.23	28.774
667.56	25.118
667.88	28.058
668.21	26.014
668.53	26.241
668.86	28.538
669.18	25.708
669.50	25.666
669.83	23.488
670.15	26.807
670.48	24.641
670.80	25.806
671.13	25.280
671.45	22.831
671.77	25.966
672.10	25.545
672.42	27.154
672.75	25.755
673.07	25.581
673.39	24.771
673.72	24.063
674.04	22.708
674.37	28.602
674.69	26.552
675.01	23.556
675.34	26.351
675.66	29.398
675.98	26.829
676.31	24.771
676.63	27.078
676.95	23.864
677.28	25.647
677.60	27.470
677.92	26.835
678.25	26.477
678.57	26.407
678.89	24.370
679.22	25.280
679.54	26.707
679.86	25.050
680.18	24.466
680.51	24.621
680.83	26.441
681.15	25.000
681.48	26.025
681.80	24.793
682.12	25.806
682.44	26.360
682.77	25.607
683.09	28.375
683.41	23.636
683.73	25.346
684.06	28.319
684.38	22.796
684.70	26.362
685.02	24.689
685.34	24.111
685.67	26.266
685.99	27.306
686.31	23.186
686.63	27.458
686.96	24.525
687.28	22.626
687.60	24.144
687.92	27.677
688.24	26.008
688.56	26.201
688.89	24.777
689.21	26.000
689.53	25.754
689.85	24.884
690.17	26.786
690.49	28.369
690.82	22.087
691.14	25.476
691.46	26.168
691.78	25.225
692.10	25.376
692.42	23.160
692.74	26.496
693.06	23.649
693.39	21.719
693.71	26.018
694.03	24.480
694.35	26.168
694.67	23.990
694.99	24.021
695.31	27.676
695.63	27.000
695.95	22.222
696.27	25.389
696.59	27.500
696.91	26.050
697.23	23.393
697.56	27.228
697.88	28.602
698.20	24.374
698.52	24.941
698.84	21.053
699.16	24.250
699.48	26.316
699.80	25.558
700.12	27.493
700.44	25.770
700.76	21.512
701.08	25.455
701.40	25.602
701.72	27.160
702.04	25.083
702.36	26.421
702.68	25.826
703.00	24.545
703.32	24.633
703.64	22.316
703.96	25.217
704.28	20.552
704.60	26.349
704.91	21.767
705.23	23.588
705.55	27.915
705.87	23.466
706.19	24.815
706.51	28.522
706.83	22.508
707.15	25.234
707.47	26.331
707.79	25.000
708.11	28.000
708.43	25.250
708.74	25.065
709.06	24.507
709.38	23.242
709.70	26.036
710.02	22.293
710.34	27.245
710.66	20.833
710.98	23.510
711.29	27.213
711.61	24.407
711.93	23.127
712.25	34.021
712.57	23.077
712.89	24.627
713.20	23.875
713.52	23.693
713.84	23.549
714.16	23.711
714.48	22.258
714.80	27.885
715.11	23.100
715.43	22.884
715.75	24.667
716.07	21.927
716.39	27.181
716.70	26.568
717.02	19.847
717.34	24.291
717.66	24.336
717.97	22.609
718.29	26.360
718.61	26.772
718.93	23.643
719.24	23.574
719.56	30.522
719.88	24.742
720.20	28.030
720.51	22.989
720.83	23.166
721.15	22.269
721.46	28.226
721.78	28.063
722.10	18.587
722.42	23.651
722.73	24.082
723.05	27.347
723.37	26.695
723.68	28.829
724.00	22.222
724.32	22.667
724.63	20.455
724.95	29.258
725.27	21.659
725.58	26.695
725.90	22.222
726.22	25.483
726.53	28.136
726.85	26.966
727.16	25.660
727.48	21.053
727.80	27.126
728.11	27.542
728.43	25.098
728.74	22.177
729.06	25.200
729.38	29.699
729.69	23.506
730.01	22.308
730.32	25.373
730.64	24.382
730.96	25.283
731.27	27.333
731.59	23.729
731.90	21.656
732.22	27.445
732.53	29.568
732.85	26.950
733.16	28.620
733.48	18.705
733.80	23.551
734.11	20.339
734.43	25.430
734.74	26.364
735.06	23.127
735.37	22.961
735.69	23.232
736.00	23.693
736.32	22.819
736.63	26.761
736.95	27.645
737.26	21.352
737.58	21.477
737.89	22.344
738.21	22.180
738.52	25.926
738.83	20.087
739.15	18.777
739.46	27.165
739.78	25.275
740.09	22.549
740.41	22.464
740.72	20.472
741.04	28.745
741.35	17.021
741.66	22.275
741.98	22.959
742.29	25.248
742.61	25.654
742.92	18.957
743.23	18.981
743.55	26.697
743.86	26.794
744.18	23.923
744.49	20.745
744.80	20.652
745.12	28.342
745.43	20.488
745.74	25.521
746.06	22.439
746.37	21.466
746.68	23.223
747.00	19.681
747.31	29.851
747.62	16.505
747.94	22.010
748.25	27.228
748.56	27.322
748.88	23.560
749.19	27.128
749.50	22.167
749.82	16.038
750.13	21.560
750.44	24.436
750.75	22.015
751.07	28.102
751.38	24.904
751.69	19.608
752.01	27.132
752.32	23.506
752.63	23.320
752.94	23.276
753.26	30.962
753.57	22.624
753.88	25.221
754.19	24.167
754.51	19.008
754.82	22.672
755.13	26.250
755.44	20.968
755.75	25.391
756.07	25.292
756.38	21.509
756.69	19.540
757.00	21.667
757.31	16.667
757.63	26.220
757.94	24.444
758.25	23.288
758.56	23.138
758.87	19.830
759.18	22.430
759.50	22.909
759.81	24.749
760.12	27.097
760.43	22.727
760.74	28.086
761.05	22.769
761.36	24.432
761.67	25.758
761.99	24.490
762.30	24.727
762.61	22.530
762.92	22.172
763.23	16.667
763.54	18.692
763.85	26.695
764.16	20.747
764.47	23.387
764.78	21.245
765.10	25.253
765.41	23.344
765.72	25.397
766.03	20.301
766.34	22.628
766.65	28.287
766.96	23.232
767.27	22.872
767.58	23.563
767.89	24.113
768.20	25.000
768.51	19.231
768.82	20.197
769.13	22.581
769.44	23.605
769.75	19.178
770.06	21.983
770.37	22.596
770.68	23.350
770.99	23.529
771.30	25.000
771.61	25.339
771.92	26.293
772.23	21.182
772.54	27.419
772.85	29.630
773.16	17.416
773.47	30.065
773.78	18.301
774.09	27.545
774.39	22.000
774.70	19.745
775.01	28.276
775.32	22.143
775.63	16.529
775.94	29.008
776.25	22.835
776.56	20.000
776.87	28.846
777.18	18.803
777.48	17.241
777.79	15.652
778.10	7.619
778.41	21.622
778.72	26.190
779.03	23.308
779.34	19.858
779.65	26.027
779.95	20.548
780.26	24.828
780.57	21.951
780.88	23.622
781.19	21.552
781.50	23.256
781.80	20.710
782.11	15.723
782.42	26.923
782.73	15.827
783.04	18.519
783.34	13.194
783.65	6.838
783.96	22.951
784.27	28.276
784.57	24.390
784.88	25.000
785.19	22.000
785.50	38.000
785.81	29.310
786.11	25.000
786.42	13.592
786.73	27.273
787.04	19.388
787.34	23.214
787.65	20.000
787.96	15.044
788.26	26.364
788.57	27.350
788.88	32.813
789.19	20.635
789.49	19.130
789.80	21.429
790.11	25.253
790.41	18.182
790.72	31.522
791.03	15.909
791.33	21.250
791.64	20.000
791.95	16.279
792.25	24.468
792.56	21.348
792.87	9.589
793.17	11.594
793.48	26.667
793.79	12.500
794.09	17.500
794.40	26.415
794.70	18.447
795.01	8.130
795.32	19.658
795.62	10.476
795.93	30.392
796.23	23.585
796.54	28.125
796.85	19.118
797.15	21.127
797.46	26.389
797.76	31.818
798.07	27.907
798.37	11.842
798.68	21.212
798.99	22.222
799.29	34.286
799.60	23.188
799.90	22.667
800.21	22.951
800.51	21.538
800.82	18.644
801.12	11.594
801.43	29.508
801.73	7.937
802.04	-6.000
802.34	25.373
802.65	21.154
802.95	10.714
803.26	1.923
803.56	7.843
803.87	2.174
804.17	21.333
804.48	22.222
804.78	20.370
805.09	17.391
805.39	13.333
805.70	38.889
806.00	0.000
806.30	30.986
806.61	25.714
806.91	13.889
807.22	42.105
807.52	24.000
807.83	3.636
808.13	8.333
808.43	26.471
808.74	16.418
809.04	20.339
809.35	30.769
809.65	23.437
809.95	0.000
810.26	2.273
810.56	20.548
810.86	-4.762
811.17	24.000
811.47	8.163
811.77	7.895
812.08	27.273
812.38	15.094
812.69	-10.000
812.99	-3.030
813.29	42.105
813.59	2.857
813.90	-11.364
814.20	10.256
814.50	30.769
814.81	39.623
815.11	2.128
815.41	18.644
815.72	30.952
816.02	15.686
816.32	27.083
816.62	19.512
816.93	-24.324
817.23	11.429
817.53	22.917
817.84	15.217
818.14	11.538
818.44	-7.895
818.74	23.913
819.04	-7.500
819.35	40.541
819.65	29.412
819.95	-11.111
820.25	16.667
820.56	12.500
820.86	-55.172
821.16	50.000
821.46	10.638
821.76	40.000
822.07	18.605
822.37	0.000
822.67	18.750
822.97	38.095
823.27	-25.000
823.57	-20.000
823.88	-29.630
824.18	39.286
824.48	-11.765
824.78	9.677
825.08	65.217
825.38	24.242
825.69	-16.667
825.99	18.421
826.29	-2.778
826.59	20.000
826.89	-19.048
827.19	17.391
827.49	10.000
827.79	20.000
828.09	32.143
828.39	39.394
828.70	32.432
829.00	21.429
829.30	-4.762
829.60	33.333
829.90	12.500
830.20	7.895
830.50	3.704
830.80	30.435
831.10	22.727
831.40	39.394
831.70	80.645
832.00	4.762
832.30	-61.905
832.60	-16.667
832.90	24.138
833.20	-5.000
833.50	15.152
833.80	29.630
834.10	0.000
834.40	15.625
834.70	-188.889
835.00	31.579
835.30	80.769
835.60	20.000
835.90	16.129
836.20	4.545
836.50	32.143
836.80	0.000
837.10	17.857
837.40	-300.000
837.70	31.818
838.00	-27.273
838.30	-4.348
838.60	-61.538
838.90	13.636
839.19	10.714
839.49	23.333
839.79	15.385
840.09	-50.000
840.39	60.714
840.69	10.714
840.99	-34.615
841.29	-63.158
841.59	-90.000
841.88	0.000
842.18	-40.000
842.48	12.500
842.78	20.000
843.08	22.222
843.38	-160.000
843.68	30.435
843.97	-40.000
844.27	0.000
844.57	10.000
844.87	-5.556
845.17	-33.333
845.47	60.000
845.76	-33.333
846.06	58.824
846.36	-30.000
846.66	-7.143
846.96	73.333
847.25	-87.500
847.55	-14.286
847.85	50.000
848.15	-22.727
848.44	-400.000
848.74	40.000
849.04	37.037
849.34	36.364
849.63	-50.000
849.93	-80.000
850.23	-44.444
850.53	10.000
850.82	-15.385
851.12	-100.000
851.42	-13.333
851.71	-23.077
852.01	57.143
852.31	175.000
852.61	36.364
852.90	15.000
853.20	-36.842
853.50	-8.333
853.79	-4.348
854.09	83.333
854.39	0.000
854.68	12.500
854.98	22.581
855.28	38.462
855.57	40.000
855.87	-16.667
856.17	62.963
856.46	28.571
856.76	-53.333
857.05	-22.222
857.35	28.000
857.65	33.333
857.94	-7.692
858.24	48.276
858.53	-11.111
858.83	44.444
859.13	0.000
859.42	0.000
859.72	0.000
860.01	-133.333
860.31	20.000
860.60	14.286
860.90	-233.333
861.20	-33.333
861.49	-500.000
861.79	6.667
862.08	15.000
862.38	120.000
862.67	-20.000
862.97	16.667
863.26	41.667
863.56	61.111
863.85	-166.667
864.15	55.556
864.44	30.000
864.74	0.000
865.03	50.000
865.33	-100.000
865.62	0.000
865.92	-8.333
866.21	-50.000
866.51	-18.750
866.80	-9.091
867.10	50.000
867.39	83.333
867.69	0.000
867.98	61.538
868.27	33.333
868.57	-40.000
868.86	-27.778
869.16	-38.462
869.45	20.000
869.75	-900.000
870.04	0.000
870.33	-71.429
870.63	0.000
870.92	366.667
871.22	-120.000
871.51	-1000.000
871.80	44.444
872.10	266.667
>>>>>End Processed Spectral Data<<<<<
