SpectraSuite Data File
++++++++++++++++++++++++++++++++++++
Date: Fri May 15 20:44:00 PDT 2015
User: schluterlab
Dark Spectrum Present: Yes
Reference Spectrum Present: Yes
Number of Sampled Component Spectra: 1
Spectrometers: USB2E3373
Integration Time (usec): 3000 (USB2E3373)
Spectra Averaged: 3 (USB2E3373)
Boxcar Smoothing: 0 (USB2E3373)
Correct for Electrical Dark: No (USB2E3373)
Strobe/Lamp Enabled: No (USB2E3373)
Correct for Detector Non-linearity: No (USB2E3373)
Correct for Stray Light: No (USB2E3373)
Number of Pixels in Processed Spectrum: 2048
>>>>>Begin Processed Spectral Data<<<<<
178.53	0.000
178.91	0.000
179.29	112.500
179.67	-300.000
180.04	85.714
180.42	325.000
180.80	100.000
181.18	-66.667
181.56	450.000
181.94	-50.000
182.31	900.000
182.69	-60.000
183.07	-333.333
183.45	-180.000
183.83	250.000
184.20	36.364
184.58	144.444
184.96	-200.000
185.34	-0.000
185.72	-200.000
186.09	100.000
186.47	-400.000
186.85	116.667
187.23	188.889
187.61	700.000
187.98	-233.333
188.36	66.667
188.74	-400.000
189.12	-23.529
189.49	-11.111
189.87	0.000
190.25	0.000
190.63	-100.000
191.00	-266.667
191.38	-26.316
191.76	500.000
192.14	175.000
192.51	-400.000
192.89	-66.667
193.27	-71.429
193.65	66.667
194.02	145.455
194.40	10.000
194.78	-137.500
195.15	-25.000
195.53	-112.500
195.91	300.000
196.29	-275.000
196.66	69.231
197.04	200.000
197.42	-188.889
197.79	-500.000
198.17	-100.000
198.55	500.000
198.92	-333.333
199.30	400.000
199.68	20.000
200.05	-333.333
200.43	0.000
200.81	-133.333
201.18	-400.000
201.56	500.000
201.94	-400.000
202.31	-133.333
202.69	-120.000
203.07	250.000
203.44	600.000
203.82	0.000
204.19	0.000
204.57	-366.667
204.95	137.500
205.32	110.000
205.70	114.286
206.08	150.000
206.45	211.111
206.83	57.143
207.20	0.000
207.58	-600.000
207.96	0.000
208.33	-70.000
208.71	-150.000
209.08	-166.667
209.46	-200.000
209.84	-240.000
210.21	-700.000
210.59	0.000
210.96	100.000
211.34	-125.000
211.71	40.000
212.09	-185.714
212.46	-800.000
212.84	0.000
213.22	110.000
213.59	550.000
213.97	-7.692
214.34	27.273
214.72	-133.333
215.09	150.000
215.47	15.385
215.84	36.364
216.22	-266.667
216.59	-62.500
216.97	-50.000
217.34	25.000
217.72	-240.000
218.09	0.000
218.47	50.000
218.84	-800.000
219.22	-55.556
219.59	-180.000
219.97	233.333
220.34	450.000
220.72	-85.714
221.09	-350.000
221.47	50.000
221.84	-800.000
222.22	-650.000
222.59	-45.455
222.97	16.667
223.34	-200.000
223.72	57.143
224.09	-4.762
224.46	0.000
224.84	166.667
225.21	0.000
225.59	13.333
225.96	-150.000
226.34	25.000
226.71	-42.857
227.08	-33.333
227.46	-12.500
227.83	-300.000
228.21	-11.111
228.58	0.000
228.95	-12.500
229.33	-0.000
229.70	-6.250
230.08	-50.000
230.45	-28.571
230.82	-14.286
231.20	20.000
231.57	14.286
231.95	-14.286
232.32	-140.000
232.69	14.286
233.07	-133.333
233.44	140.000
233.81	-120.000
234.19	-33.333
234.56	-52.941
234.93	450.000
235.31	100.000
235.68	-220.000
236.05	0.000
236.43	0.000
236.80	17.647
237.17	9.375
237.55	-30.000
237.92	40.741
238.29	0.000
238.67	30.000
239.04	35.294
239.41	-12.195
239.79	50.000
240.16	12.195
240.53	10.526
240.91	17.391
241.28	39.683
241.65	37.500
242.02	30.137
242.40	33.333
242.77	28.814
243.14	16.667
243.51	35.000
243.89	39.080
244.26	27.586
244.63	28.571
245.00	30.928
245.38	39.175
245.75	25.843
246.12	26.724
246.49	29.752
246.87	36.538
247.24	34.454
247.61	35.088
247.98	15.447
248.36	33.125
248.73	32.237
249.10	29.870
249.47	35.443
249.84	32.680
250.22	38.824
250.59	35.294
250.96	32.864
251.33	28.488
251.70	35.294
252.08	29.949
252.45	31.188
252.82	37.186
253.19	32.719
253.56	30.841
253.94	31.982
254.31	32.609
254.68	36.842
255.05	30.315
255.42	36.681
255.79	29.344
256.16	33.852
256.54	38.806
256.91	29.278
257.28	33.829
257.65	31.086
258.02	30.142
258.39	38.047
258.76	38.095
259.14	32.890
259.51	34.951
259.88	34.708
260.25	32.680
260.62	40.625
260.99	36.610
261.36	33.904
261.73	35.759
262.10	32.523
262.47	29.755
262.85	34.796
263.22	37.846
263.59	36.137
263.96	34.161
264.33	36.061
264.70	35.119
265.07	34.524
265.44	39.093
265.81	32.203
266.18	34.973
266.55	34.190
266.92	35.492
267.29	35.770
267.66	35.294
268.03	36.126
268.40	33.420
268.77	39.037
269.14	32.614
269.51	32.905
269.88	31.920
270.25	33.673
270.62	33.415
270.99	34.015
271.36	32.274
271.73	34.977
272.10	32.847
272.47	32.388
272.84	35.891
273.21	33.411
273.58	34.699
273.95	33.867
274.32	31.640
274.69	31.900
275.06	35.045
275.43	34.921
275.80	33.554
276.17	33.563
276.54	32.762
276.91	33.553
277.28	35.153
277.65	31.818
278.02	30.426
278.39	35.011
278.76	33.124
279.13	28.423
279.50	32.143
279.87	31.749
280.23	31.398
280.60	33.918
280.97	32.525
281.34	30.385
281.71	34.908
282.08	31.084
282.45	33.072
282.82	31.853
283.19	32.302
283.56	34.682
283.92	33.776
284.29	31.538
284.66	30.233
285.03	32.613
285.40	32.325
285.77	29.525
286.14	30.686
286.51	34.502
286.87	29.982
287.24	32.044
287.61	31.922
287.98	33.860
288.35	30.503
288.72	31.524
289.08	30.382
289.45	33.040
289.82	29.371
290.19	29.522
290.56	30.875
290.93	30.471
291.29	26.965
291.66	27.717
292.03	26.954
292.40	26.935
292.77	28.389
293.13	25.812
293.50	25.797
293.87	25.954
294.24	25.657
294.60	29.061
294.97	26.190
295.34	26.074
295.71	24.441
296.08	25.710
296.44	26.458
296.81	25.694
297.18	24.783
297.55	26.423
297.91	24.384
298.28	27.177
298.65	22.659
299.02	24.124
299.38	23.529
299.75	23.448
300.12	23.298
300.48	23.320
300.85	23.701
301.22	23.247
301.59	23.684
301.95	24.430
302.32	25.811
302.69	23.134
303.05	23.267
303.42	21.918
303.79	22.897
304.15	23.178
304.52	20.452
304.89	20.936
305.25	22.034
305.62	20.887
305.99	21.404
306.35	21.040
306.72	21.260
307.09	22.805
307.45	24.110
307.82	21.528
308.19	21.951
308.55	21.047
308.92	22.549
309.29	22.793
309.65	21.206
310.02	21.562
310.38	21.076
310.75	24.153
311.12	22.820
311.48	21.633
311.85	21.990
312.22	21.414
312.58	21.338
312.95	20.811
313.31	21.946
313.68	22.723
314.05	20.918
314.41	23.918
314.78	22.887
315.14	23.433
315.51	21.636
315.87	23.156
316.24	23.256
316.61	24.016
316.97	23.611
317.34	23.730
317.70	23.136
318.07	21.923
318.43	24.608
318.80	24.337
319.16	25.098
319.53	24.406
319.89	25.689
320.26	24.190
320.62	25.476
320.99	24.426
321.35	26.310
321.72	27.310
322.08	26.385
322.45	27.005
322.81	28.782
323.18	27.184
323.54	27.896
323.91	28.822
324.27	27.734
324.64	29.026
325.00	28.193
325.37	28.375
325.73	28.740
326.10	29.519
326.46	30.673
326.83	30.534
327.19	30.253
327.56	31.972
327.92	30.634
328.29	31.696
328.65	32.264
329.01	32.261
329.38	32.719
329.74	32.956
330.11	33.272
330.47	31.633
330.84	31.635
331.20	34.030
331.56	33.426
331.93	32.785
332.29	34.189
332.66	34.208
333.02	32.156
333.38	33.364
333.75	34.524
334.11	32.587
334.48	33.636
334.84	32.967
335.20	34.584
335.57	32.638
335.93	33.424
336.29	32.873
336.66	32.516
337.02	33.550
337.38	33.241
337.75	34.727
338.11	34.896
338.47	33.485
338.84	34.288
339.20	34.369
339.56	35.138
339.93	34.467
340.29	34.312
340.65	34.140
341.02	32.979
341.38	34.248
341.74	34.187
342.11	33.709
342.47	34.786
342.83	34.862
343.20	32.753
343.56	34.957
343.92	33.481
344.28	33.817
344.65	33.765
345.01	33.708
345.37	33.053
345.73	33.975
346.10	33.909
346.46	33.137
346.82	34.206
347.19	34.248
347.55	34.336
347.91	33.657
348.27	34.357
348.63	33.816
349.00	33.880
349.36	33.915
349.72	34.494
350.08	34.754
350.45	35.275
350.81	34.219
351.17	34.121
351.53	34.531
351.89	34.104
352.26	33.520
352.62	35.323
352.98	33.092
353.34	35.105
353.70	34.304
354.07	33.710
354.43	34.267
354.79	34.021
355.15	34.286
355.51	34.415
355.87	33.576
356.24	32.790
356.60	34.357
356.96	35.079
357.32	34.824
357.68	33.073
358.04	33.683
358.40	33.199
358.77	34.370
359.13	34.508
359.49	33.513
359.85	34.321
360.21	33.333
360.57	33.588
360.93	33.510
361.29	33.233
361.66	34.561
362.02	35.758
362.38	34.882
362.74	34.974
363.10	36.343
363.46	35.137
363.82	36.664
364.18	34.834
364.54	34.191
364.90	34.839
365.26	35.007
365.62	37.153
365.98	34.971
366.35	36.562
366.71	36.142
367.07	35.776
367.43	36.305
367.79	34.912
368.15	36.037
368.51	34.960
368.87	36.755
369.23	34.801
369.59	35.933
369.95	35.777
370.31	37.645
370.67	36.716
371.03	33.906
371.39	36.689
371.75	37.216
372.11	36.020
372.47	37.352
372.83	36.764
373.19	36.377
373.55	35.812
373.91	36.357
374.27	35.436
374.63	35.966
374.99	35.957
375.35	38.440
375.71	36.713
376.07	37.360
376.42	37.687
376.78	37.047
377.14	37.305
377.50	37.716
377.86	37.416
378.22	36.120
378.58	37.628
378.94	37.051
379.30	37.118
379.66	37.555
380.02	36.726
380.38	37.432
380.74	38.241
381.09	38.712
381.45	37.920
381.81	37.754
382.17	38.896
382.53	38.538
382.89	39.485
383.25	39.141
383.61	39.634
383.97	39.175
384.32	38.899
384.68	38.947
385.04	39.154
385.40	38.955
385.76	39.497
386.12	39.909
386.48	39.974
386.83	40.076
387.19	40.049
387.55	40.151
387.91	40.831
388.27	39.744
388.62	41.158
388.98	40.638
389.34	41.224
389.70	39.901
390.06	39.899
390.42	40.350
390.77	40.484
391.13	39.407
391.49	40.103
391.85	42.560
392.20	40.490
392.56	42.467
392.92	41.221
393.28	40.684
393.64	41.441
393.99	42.884
394.35	41.113
394.71	42.401
395.07	40.855
395.42	42.927
395.78	42.345
396.14	42.308
396.50	42.042
396.85	42.434
397.21	42.857
397.57	42.884
397.92	42.181
398.28	43.046
398.64	42.108
399.00	43.397
399.35	41.704
399.71	43.366
400.07	43.894
400.42	43.268
400.78	43.356
401.14	44.102
401.49	44.610
401.85	43.266
402.21	43.855
402.57	42.938
402.92	42.284
403.28	44.486
403.63	43.632
403.99	44.196
404.35	45.034
404.70	43.512
405.06	42.656
405.42	44.438
405.77	43.986
406.13	43.364
406.49	43.931
406.84	45.355
407.20	44.973
407.55	44.430
407.91	44.853
408.27	43.403
408.62	45.415
408.98	44.116
409.34	44.238
409.69	44.251
410.05	44.458
410.40	44.136
410.76	45.115
411.11	45.188
411.47	45.891
411.83	45.637
412.18	46.332
412.54	45.318
412.89	44.643
413.25	46.450
413.60	44.969
413.96	45.644
414.31	46.402
414.67	46.761
415.03	45.806
415.38	46.214
415.74	46.189
416.09	47.551
416.45	46.995
416.80	46.861
417.16	48.273
417.51	46.369
417.87	47.718
418.22	46.567
418.58	46.288
418.93	46.834
419.29	45.455
419.64	48.153
420.00	48.174
420.35	47.164
420.71	47.448
421.06	46.900
421.42	47.536
421.77	46.416
422.12	45.233
422.48	47.699
422.83	46.636
423.19	48.194
423.54	48.031
423.90	46.938
424.25	49.082
424.61	48.470
424.96	47.909
425.31	48.585
425.67	48.709
426.02	49.058
426.38	49.468
426.73	49.031
427.09	49.177
427.44	48.353
427.79	48.262
428.15	48.362
428.50	48.758
428.85	47.604
429.21	49.576
429.56	49.218
429.92	48.742
430.27	47.719
430.62	47.308
430.98	47.877
431.33	48.633
431.68	48.142
432.04	49.413
432.39	47.918
432.74	47.685
433.10	50.517
433.45	48.268
433.80	48.926
434.16	47.756
434.51	49.247
434.86	50.465
435.22	48.794
435.57	50.530
435.92	48.683
436.28	48.956
436.63	49.971
436.98	48.378
437.34	48.155
437.69	50.209
438.04	48.775
438.39	49.420
438.75	51.063
439.10	49.632
439.45	50.274
439.81	49.725
440.16	50.356
440.51	49.612
440.86	51.360
441.22	48.982
441.57	49.117
441.92	51.312
442.27	50.443
442.63	50.696
442.98	50.029
443.33	49.026
443.68	48.382
444.03	49.677
444.39	50.516
444.74	51.338
445.09	50.278
445.44	50.598
445.79	51.006
446.15	50.826
446.50	49.418
446.85	49.894
447.20	49.635
447.55	51.116
447.91	51.438
448.26	49.801
448.61	50.604
448.96	50.660
449.31	51.040
449.66	50.581
450.02	50.827
450.37	51.986
450.72	50.630
451.07	51.203
451.42	50.562
451.77	51.175
452.12	50.000
452.47	51.062
452.83	49.882
453.18	51.297
453.53	51.075
453.88	51.002
454.23	50.461
454.58	51.637
454.93	51.224
455.28	49.587
455.63	52.201
455.98	51.413
456.34	49.617
456.69	51.906
457.04	50.851
457.39	50.851
457.74	49.879
458.09	49.912
458.44	50.614
458.79	49.356
459.14	51.545
459.49	51.940
459.84	50.141
460.19	49.636
460.54	51.650
460.89	51.250
461.24	50.745
461.59	51.010
461.94	50.314
462.29	51.146
462.64	51.030
462.99	51.117
463.34	50.417
463.69	50.515
464.04	51.634
464.39	50.515
464.74	50.245
465.09	51.653
465.44	50.548
465.79	50.340
466.14	50.855
466.49	51.006
466.84	51.041
467.19	51.064
467.54	51.405
467.89	51.295
468.24	50.912
468.59	51.619
468.94	51.746
469.29	51.672
469.64	50.444
469.99	52.768
470.34	52.355
470.68	53.020
471.03	51.805
471.38	52.282
471.73	53.361
472.08	51.628
472.43	53.020
472.78	52.228
473.13	52.177
473.48	51.792
473.83	50.436
474.17	51.554
474.52	51.500
474.87	52.788
475.22	51.190
475.57	52.061
475.92	52.825
476.27	51.921
476.61	53.646
476.96	52.147
477.31	52.136
477.66	51.461
478.01	53.565
478.36	52.233
478.70	52.800
479.05	52.912
479.40	52.729
479.75	51.668
480.10	52.125
480.45	52.150
480.79	52.820
481.14	53.279
481.49	51.970
481.84	52.461
482.19	52.152
482.53	52.662
482.88	52.983
483.23	51.679
483.58	51.509
483.92	51.355
484.27	52.233
484.62	52.084
484.97	51.949
485.31	50.434
485.66	47.152
486.01	47.555
486.36	47.354
486.70	48.937
487.05	49.587
487.40	50.362
487.75	50.141
488.09	51.205
488.44	51.100
488.79	52.036
489.13	52.644
489.48	52.074
489.83	51.480
490.17	51.416
490.52	52.656
490.87	51.458
491.22	53.056
491.56	50.901
491.91	51.625
492.26	52.844
492.60	52.159
492.95	53.025
493.30	52.027
493.64	53.389
493.99	51.836
494.34	52.476
494.68	53.095
495.03	52.944
495.37	52.502
495.72	53.862
496.07	53.415
496.41	52.594
496.76	52.004
497.11	51.980
497.45	53.652
497.80	54.642
498.14	52.012
498.49	52.666
498.84	52.645
499.18	53.012
499.53	53.522
499.87	52.870
500.22	53.215
500.56	53.959
500.91	53.414
501.26	53.287
501.60	52.976
501.95	54.003
502.29	53.559
502.64	53.620
502.98	54.613
503.33	52.161
503.67	52.627
504.02	53.079
504.36	53.538
504.71	53.788
505.06	53.900
505.40	54.061
505.75	55.928
506.09	54.131
506.44	55.031
506.78	54.184
507.13	55.171
507.47	55.405
507.82	54.594
508.16	54.569
508.51	55.404
508.85	55.939
509.19	56.094
509.54	57.212
509.88	55.232
510.23	55.836
510.57	55.532
510.92	54.691
511.26	56.465
511.61	55.611
511.95	56.219
512.30	56.430
512.64	56.539
512.98	56.766
513.33	56.407
513.67	56.680
514.02	57.666
514.36	59.143
514.70	59.732
515.05	58.637
515.39	58.323
515.74	59.880
516.08	60.251
516.42	59.246
516.77	58.455
517.11	60.000
517.46	59.725
517.80	60.012
518.14	60.012
518.49	60.276
518.83	59.538
519.17	58.642
519.52	59.266
519.86	59.964
520.20	59.781
520.55	58.724
520.89	61.230
521.23	61.178
521.58	62.208
521.92	62.500
522.26	61.809
522.61	61.364
522.95	62.517
523.29	60.928
523.64	62.008
523.98	61.957
524.32	61.405
524.66	61.844
525.01	63.377
525.35	63.837
525.69	63.636
526.04	62.831
526.38	64.137
526.72	62.001
527.06	62.127
527.41	62.467
527.75	62.198
528.09	63.123
528.43	63.876
528.78	62.310
529.12	63.355
529.46	62.768
529.80	62.255
530.15	64.092
530.49	63.704
530.83	64.432
531.17	63.398
531.51	62.927
531.86	64.310
532.20	64.022
532.54	64.398
532.88	65.092
533.22	62.769
533.57	62.779
533.91	63.120
534.25	64.323
534.59	61.963
534.93	62.996
535.27	63.388
535.62	63.901
535.96	63.992
536.30	63.259
536.64	63.818
536.98	64.251
537.32	66.216
537.66	65.217
538.01	65.245
538.35	63.939
538.69	62.916
539.03	63.226
539.37	63.728
539.71	64.145
540.05	62.525
540.39	63.643
540.73	63.250
541.07	64.296
541.42	64.315
541.76	63.042
542.10	64.212
542.44	65.115
542.78	62.285
543.12	63.049
543.46	63.630
543.80	63.567
544.14	61.415
544.48	63.091
544.82	62.953
545.16	64.617
545.50	62.083
545.84	64.448
546.18	65.390
546.52	64.744
546.86	64.127
547.20	64.378
547.54	62.120
547.88	63.995
548.22	61.670
548.56	61.148
548.90	63.612
549.24	62.466
549.58	62.976
549.92	63.974
550.26	63.077
550.60	66.097
550.94	64.974
551.28	63.524
551.62	64.769
551.96	64.135
552.30	63.743
552.64	62.835
552.98	63.924
553.32	63.195
553.66	62.409
554.00	63.796
554.34	64.771
554.68	62.463
555.02	63.542
555.36	62.079
555.69	62.784
556.03	62.241
556.37	62.491
556.71	62.455
557.05	64.504
557.39	62.602
557.73	62.594
558.07	62.971
558.41	64.319
558.75	63.679
559.08	64.618
559.42	65.317
559.76	65.572
560.10	63.456
560.44	62.770
560.78	61.818
561.12	61.213
561.45	63.879
561.79	62.185
562.13	63.733
562.47	63.094
562.81	62.464
563.15	62.341
563.48	62.730
563.82	61.428
564.16	62.953
564.50	60.608
564.84	61.446
565.17	61.569
565.51	64.413
565.85	63.306
566.19	62.135
566.52	61.863
566.86	61.825
567.20	59.963
567.54	60.949
567.88	60.574
568.21	59.559
568.55	59.620
568.89	58.932
569.23	57.342
569.56	56.918
569.90	57.937
570.24	54.596
570.57	56.509
570.91	55.594
571.25	54.522
571.59	54.158
571.92	53.007
572.26	53.653
572.60	53.829
572.93	54.660
573.27	54.044
573.61	53.103
573.95	54.014
574.28	52.807
574.62	52.657
574.96	51.633
575.29	52.145
575.63	51.516
575.97	53.402
576.30	52.741
576.64	52.185
576.98	53.050
577.31	53.428
577.65	51.972
577.98	51.923
578.32	51.679
578.66	50.677
578.99	52.480
579.33	51.786
579.67	52.057
580.00	52.456
580.34	52.537
580.67	52.102
581.01	52.402
581.35	51.077
581.68	50.246
582.02	49.789
582.35	50.604
582.69	50.701
583.02	51.506
583.36	52.165
583.70	53.297
584.03	53.433
584.37	54.348
584.70	52.335
585.04	50.829
585.37	50.811
585.71	50.728
586.04	51.488
586.38	51.507
586.72	51.851
587.05	52.166
587.39	51.971
587.72	52.706
588.06	51.481
588.39	51.780
588.73	52.045
589.06	51.859
589.40	52.402
589.73	53.377
590.07	53.890
590.40	53.560
590.73	54.695
591.07	54.792
591.40	55.521
591.74	54.344
592.07	54.777
592.41	54.152
592.74	51.175
593.08	50.332
593.41	50.577
593.75	50.671
594.08	50.154
594.41	51.929
594.75	51.298
595.08	52.251
595.42	52.668
595.75	52.722
596.09	51.916
596.42	53.948
596.75	53.286
597.09	52.756
597.42	52.936
597.75	53.688
598.09	51.245
598.42	52.166
598.76	52.038
599.09	50.040
599.42	50.398
599.76	50.188
600.09	50.113
600.42	51.175
600.76	49.257
601.09	50.725
601.42	50.568
601.76	52.044
602.09	51.196
602.42	52.359
602.76	51.910
603.09	51.412
603.42	53.595
603.76	50.081
604.09	49.332
604.42	51.650
604.76	53.138
605.09	52.742
605.42	52.054
605.75	51.138
606.09	51.253
606.42	51.084
606.75	50.909
607.09	50.154
607.42	50.598
607.75	49.600
608.08	49.955
608.42	50.937
608.75	52.386
609.08	52.765
609.41	51.371
609.75	51.159
610.08	52.671
610.41	50.821
610.74	51.438
611.07	53.178
611.41	52.413
611.74	52.452
612.07	51.820
612.40	51.751
612.73	52.599
613.07	52.531
613.40	52.024
613.73	52.770
614.06	51.976
614.39	52.228
614.72	50.924
615.06	50.559
615.39	50.273
615.72	50.753
616.05	51.788
616.38	51.111
616.71	51.315
617.05	52.378
617.38	51.791
617.71	53.145
618.04	52.825
618.37	53.468
618.70	53.531
619.03	54.722
619.36	53.039
619.69	55.876
620.03	54.638
620.36	54.363
620.69	53.462
621.02	54.358
621.35	56.929
621.68	54.847
622.01	55.833
622.34	53.232
622.67	55.126
623.00	54.058
623.33	52.439
623.66	53.553
623.99	52.799
624.32	53.308
624.65	53.383
624.99	53.047
625.32	52.312
625.65	54.203
625.98	54.472
626.31	54.032
626.64	55.286
626.97	54.799
627.30	56.217
627.63	55.286
627.96	54.268
628.29	55.042
628.62	56.637
628.95	57.315
629.28	58.770
629.61	56.032
629.94	55.816
630.26	55.138
630.59	57.960
630.92	56.308
631.25	56.103
631.58	57.379
631.91	56.360
632.24	56.537
632.57	56.932
632.90	55.991
633.23	58.235
633.56	58.060
633.89	57.953
634.22	59.259
634.55	60.229
634.88	57.216
635.20	56.026
635.53	59.600
635.86	57.607
636.19	58.732
636.52	58.291
636.85	56.079
637.18	55.472
637.51	54.969
637.83	58.607
638.16	58.254
638.49	56.540
638.82	57.632
639.15	56.716
639.48	58.184
639.81	56.346
640.13	59.163
640.46	59.329
640.79	58.321
641.12	57.903
641.45	57.658
641.77	59.556
642.10	62.559
642.43	58.842
642.76	63.036
643.09	61.389
643.41	58.414
643.74	56.672
644.07	56.814
644.40	61.149
644.73	60.420
645.05	58.054
645.38	60.317
645.71	58.333
646.04	61.759
646.36	59.043
646.69	60.971
647.02	61.815
647.35	60.821
647.67	59.963
648.00	62.500
648.33	58.874
648.66	57.627
648.98	54.439
649.31	56.364
649.64	53.532
649.96	54.943
650.29	58.262
650.62	56.410
650.94	56.481
651.27	59.404
651.60	58.559
651.92	55.769
652.25	58.970
652.58	57.667
652.90	57.461
653.23	53.950
653.56	55.330
653.88	53.952
654.21	53.940
654.54	53.820
654.86	54.499
655.19	51.901
655.52	49.845
655.84	39.261
656.17	42.119
656.49	57.043
656.82	60.273
657.15	47.150
657.47	36.155
657.80	27.488
658.13	27.778
658.45	44.102
658.78	45.332
659.10	46.296
659.43	46.293
659.75	48.742
660.08	48.552
660.41	49.847
660.73	52.762
661.06	57.886
661.38	55.969
661.71	53.388
662.03	60.730
662.36	56.264
662.68	54.204
663.01	58.297
663.33	56.148
663.66	56.977
663.98	59.302
664.31	56.503
664.63	57.143
664.96	52.826
665.28	54.084
665.61	57.143
665.93	56.522
666.26	58.134
666.58	56.823
666.91	57.647
667.23	56.604
667.56	58.531
667.88	56.835
668.21	55.847
668.53	60.047
668.86	58.255
669.18	53.302
669.50	54.479
669.83	55.349
670.15	58.974
670.48	57.177
670.80	55.530
671.13	54.810
671.45	51.142
671.77	55.579
672.10	51.287
672.42	53.558
672.75	50.266
673.07	53.488
673.39	51.743
673.72	48.718
674.04	51.458
674.37	53.178
674.69	53.747
675.01	55.778
675.34	52.703
675.66	55.324
675.98	52.106
676.31	56.193
676.63	52.494
676.95	50.000
677.28	54.353
677.60	56.145
677.92	53.670
678.25	55.361
678.57	51.948
678.89	51.261
679.22	52.349
679.54	52.209
679.86	47.913
680.18	48.738
680.51	49.053
680.83	50.099
681.15	51.800
681.48	52.664
681.80	50.207
682.12	48.790
682.44	50.000
682.77	50.773
683.09	50.114
683.41	51.136
683.73	49.770
684.06	49.779
684.38	46.882
684.70	51.416
685.02	49.585
685.34	48.221
685.67	45.966
685.99	48.101
686.31	46.372
686.63	46.939
686.96	46.198
687.28	48.081
687.60	46.768
687.92	51.313
688.24	48.589
688.56	50.873
688.89	47.545
689.21	51.333
689.53	48.492
689.85	46.977
690.17	50.000
690.49	47.991
690.82	48.786
691.14	48.095
691.46	49.065
691.78	47.748
692.10	46.452
692.42	46.970
692.74	45.513
693.06	47.748
693.39	44.796
693.71	47.964
694.03	43.649
694.35	50.467
694.67	47.727
694.99	45.170
695.31	53.003
695.63	46.500
695.95	46.717
696.27	46.114
696.59	51.944
696.91	47.339
697.23	44.730
697.56	46.287
697.88	46.237
698.20	46.014
698.52	47.294
698.84	44.737
699.16	43.750
699.48	48.622
699.80	45.161
700.12	46.900
700.44	50.140
700.76	47.674
701.08	47.879
701.40	49.398
701.72	50.000
702.04	51.485
702.36	52.843
702.68	48.348
703.00	42.727
703.32	42.815
703.64	40.960
703.96	45.217
704.28	50.307
704.60	46.032
704.91	47.634
705.23	46.512
705.55	51.590
705.87	53.430
706.19	49.630
706.51	47.766
706.83	47.910
707.15	43.302
707.47	44.818
707.79	44.531
708.11	43.500
708.43	42.250
708.74	43.669
709.06	50.704
709.38	47.095
709.70	43.491
710.02	41.083
710.34	47.368
710.66	45.192
710.98	44.702
711.29	50.492
711.61	45.085
711.93	45.603
712.25	45.704
712.57	42.857
712.89	46.269
713.20	47.059
713.52	42.509
713.84	47.099
714.16	43.643
714.48	42.903
714.80	43.269
715.11	43.465
715.43	43.260
715.75	43.667
716.07	41.196
716.39	41.946
716.70	43.173
717.02	41.985
717.34	47.368
717.66	49.558
717.97	45.217
718.29	46.444
718.61	44.488
718.93	43.798
719.24	43.346
719.56	48.193
719.88	43.299
720.20	47.727
720.51	40.230
720.83	47.490
721.15	44.958
721.46	48.387
721.78	39.921
722.10	40.149
722.42	39.834
722.73	41.224
723.05	46.939
723.37	46.186
723.68	49.099
724.00	43.162
724.32	42.667
724.63	38.182
724.95	45.415
725.27	46.544
725.58	43.220
725.90	34.921
726.22	42.857
726.53	44.068
726.85	42.322
727.16	43.774
727.48	37.247
727.80	38.866
728.11	42.797
728.43	42.745
728.74	39.919
729.06	41.200
729.38	43.985
729.69	40.637
730.01	34.231
730.32	37.313
730.64	39.576
730.96	45.283
731.27	40.333
731.59	36.271
731.90	37.898
732.22	39.432
732.53	37.542
732.85	38.652
733.16	41.414
733.48	37.410
733.80	35.507
734.11	37.288
734.43	38.832
734.74	33.030
735.06	38.762
735.37	36.254
735.69	40.404
736.00	41.463
736.32	37.584
736.63	34.155
736.95	41.980
737.26	36.299
737.58	35.570
737.89	35.531
738.21	40.226
738.52	43.210
738.83	34.498
739.15	39.301
739.46	38.583
739.78	37.729
740.09	38.889
740.41	43.841
740.72	36.614
741.04	40.486
741.35	34.468
741.66	40.284
741.98	37.245
742.29	40.594
742.61	43.979
742.92	34.123
743.23	37.963
743.55	38.914
743.86	38.756
744.18	36.364
744.49	41.489
744.80	40.217
745.12	48.128
745.43	41.951
745.74	38.542
746.06	43.902
746.37	38.220
746.68	38.389
747.00	40.426
747.31	46.269
747.62	39.806
747.94	43.062
748.25	41.089
748.56	36.066
748.88	42.408
749.19	43.617
749.50	41.872
749.82	38.208
750.13	36.239
750.44	39.098
750.75	38.806
751.07	36.496
751.38	40.230
751.69	32.549
752.01	35.271
752.32	39.044
752.63	36.364
752.94	35.776
753.26	43.515
753.57	36.652
753.88	33.628
754.19	29.167
754.51	35.537
754.82	35.628
755.13	40.000
755.44	37.097
755.75	42.578
756.07	36.187
756.38	31.698
756.69	34.866
757.00	35.333
757.31	34.314
757.63	30.183
757.94	33.056
758.25	31.507
758.56	33.245
758.87	31.445
759.18	32.710
759.50	32.727
759.81	35.452
760.12	30.645
760.43	31.212
760.74	33.333
761.05	29.538
761.36	33.807
761.67	33.939
761.99	34.354
762.30	35.273
762.61	35.178
762.92	31.674
763.23	30.631
763.54	29.907
763.85	36.441
764.16	31.950
764.47	35.081
764.78	29.670
765.10	32.997
765.41	30.599
765.72	29.524
766.03	28.195
766.34	34.672
766.65	36.255
766.96	39.899
767.27	40.957
767.58	36.207
767.89	33.333
768.20	32.955
768.51	37.363
768.82	31.034
769.13	28.571
769.44	29.185
769.75	27.397
770.06	32.759
770.37	28.846
770.68	32.487
770.99	31.674
771.30	36.765
771.61	33.032
771.92	31.034
772.23	30.049
772.54	36.559
772.85	38.889
773.16	38.202
773.47	39.216
773.78	34.641
774.09	32.335
774.39	35.333
774.70	38.217
775.01	40.000
775.32	37.857
775.63	38.843
775.94	39.695
776.25	37.008
776.56	26.667
776.87	35.577
777.18	37.607
777.48	32.759
777.79	33.043
778.10	17.143
778.41	27.928
778.72	29.365
779.03	36.090
779.34	31.206
779.65	37.671
779.95	22.603
780.26	32.414
780.57	30.894
780.88	37.008
781.19	27.586
781.50	27.907
781.80	31.953
782.11	24.528
782.42	30.769
782.73	32.374
783.04	23.704
783.34	27.778
783.65	24.786
783.96	31.148
784.27	30.345
784.57	26.016
784.88	33.594
785.19	35.000
785.50	45.000
785.81	28.448
786.11	25.000
786.42	26.214
786.73	39.091
787.04	31.633
787.34	27.679
787.65	37.143
787.96	33.628
788.26	29.091
788.57	31.624
788.88	28.906
789.19	29.365
789.49	22.609
789.80	33.673
790.11	34.343
790.41	29.091
790.72	32.609
791.03	40.909
791.33	45.000
791.64	35.000
791.95	32.558
792.25	35.106
792.56	38.202
792.87	24.658
793.17	30.435
793.48	42.667
793.79	18.750
794.09	31.250
794.40	24.528
794.70	28.155
795.01	24.390
795.32	24.786
795.62	27.619
795.93	36.275
796.23	32.075
796.54	42.708
796.85	30.882
797.15	19.718
797.46	26.389
797.76	33.333
798.07	9.302
798.37	22.368
798.68	16.667
798.99	30.864
799.29	20.000
799.60	18.841
799.90	34.667
800.21	55.738
800.51	33.846
800.82	18.644
801.12	24.638
801.43	40.984
801.73	31.746
802.04	20.000
802.34	25.373
802.65	30.769
802.95	16.071
803.26	21.154
803.56	39.216
803.87	10.870
804.17	22.667
804.48	41.270
804.78	22.222
805.09	32.609
805.39	17.778
805.70	40.741
806.00	12.281
806.30	29.577
806.61	45.714
806.91	26.389
807.22	25.000
807.52	42.667
807.83	9.091
808.13	30.556
808.43	35.294
808.74	28.358
809.04	22.034
809.35	19.231
809.65	23.437
809.95	2.703
810.26	22.727
810.56	16.438
810.86	19.048
811.17	48.000
811.47	44.898
811.77	5.263
812.08	13.636
812.38	32.075
812.69	40.000
812.99	18.182
813.29	36.842
813.59	-11.429
813.90	22.727
814.20	12.821
814.50	19.231
814.81	45.283
815.11	29.787
815.41	37.288
815.72	40.476
816.02	33.333
816.32	12.500
816.62	31.707
816.93	16.216
817.23	14.286
817.53	16.667
817.84	19.565
818.14	26.923
818.44	-5.263
818.74	17.391
819.04	-2.500
819.35	21.622
819.65	8.824
819.95	8.333
820.25	23.810
820.56	45.000
820.86	-13.793
821.16	37.500
821.46	23.404
821.76	50.000
822.07	30.233
822.37	16.216
822.67	21.875
822.97	33.333
823.27	-3.571
823.57	16.000
823.88	7.407
824.18	7.143
824.48	11.765
824.78	3.226
825.08	39.130
825.38	-3.030
825.69	-8.333
825.99	-5.263
826.29	30.556
826.59	6.667
826.89	4.762
827.19	21.739
827.49	37.500
827.79	51.429
828.09	17.857
828.39	15.152
828.70	35.135
829.00	14.286
829.30	9.524
829.60	13.333
829.90	-9.375
830.20	44.737
830.50	7.407
830.80	-26.087
831.10	36.364
831.40	60.606
831.70	19.355
832.00	33.333
832.30	-14.286
832.60	-25.000
832.90	13.793
833.20	40.000
833.50	48.485
833.80	-3.704
834.10	7.692
834.40	25.000
834.70	-33.333
835.00	-5.263
835.30	46.154
835.60	80.000
835.90	16.129
836.20	68.182
836.50	42.857
836.80	15.385
837.10	17.857
837.40	-333.333
837.70	36.364
838.00	-127.273
838.30	21.739
838.60	0.000
838.90	22.727
839.19	53.571
839.49	23.333
839.79	46.154
840.09	-66.667
840.39	82.143
840.69	14.286
840.99	-15.385
841.29	15.789
841.59	-110.000
841.88	-18.182
842.18	160.000
842.48	-12.500
842.78	-20.000
843.08	29.630
843.38	-70.000
843.68	8.696
843.97	100.000
844.27	-60.000
844.57	-40.000
844.87	-11.111
845.17	-9.524
845.47	73.333
845.76	-14.286
846.06	0.000
846.36	30.000
846.66	-42.857
846.96	-13.333
847.25	-162.500
847.55	57.143
847.85	-137.500
848.15	-18.182
848.44	-466.667
848.74	-15.000
849.04	25.926
849.34	36.364
849.63	-133.333
849.93	-160.000
850.23	-11.111
850.53	-10.000
850.82	38.462
851.12	0.000
851.42	-40.000
851.71	-7.692
852.01	57.143
852.31	150.000
852.61	0.000
852.90	-15.000
853.20	47.368
853.50	0.000
853.79	26.087
854.09	33.333
854.39	-42.105
854.68	-41.667
854.98	12.903
855.28	30.769
855.57	20.000
855.87	61.111
856.17	37.037
856.46	0.000
856.76	33.333
857.05	111.111
857.35	12.000
857.65	27.778
857.94	15.385
858.24	20.690
858.53	27.778
858.83	25.926
859.13	18.182
859.42	-21.739
859.72	-50.000
860.01	-166.667
860.31	28.000
860.60	47.619
860.90	-233.333
861.20	-13.333
861.49	-350.000
861.79	0.000
862.08	0.000
862.38	60.000
862.67	0.000
862.97	0.000
863.26	16.667
863.56	5.556
863.85	-433.333
864.15	5.556
864.44	0.000
864.74	78.571
865.03	325.000
865.33	-180.000
865.62	33.333
865.92	-16.667
866.21	-233.333
866.51	43.750
866.80	36.364
867.10	-400.000
867.39	108.333
867.69	0.000
867.98	-7.692
868.27	-133.333
868.57	20.000
868.86	33.333
869.16	-130.769
869.45	-6.667
869.75	-600.000
870.04	0.000
870.33	-157.143
870.63	0.000
870.92	166.667
871.22	-300.000
871.51	500.000
871.80	44.444
872.10	533.333
>>>>>End Processed Spectral Data<<<<<
