SpectraSuite Data File
++++++++++++++++++++++++++++++++++++
Date: Fri May 15 21:07:25 PDT 2015
User: schluterlab
Dark Spectrum Present: Yes
Reference Spectrum Present: Yes
Number of Sampled Component Spectra: 1
Spectrometers: USB2E3373
Integration Time (usec): 3000 (USB2E3373)
Spectra Averaged: 3 (USB2E3373)
Boxcar Smoothing: 0 (USB2E3373)
Correct for Electrical Dark: No (USB2E3373)
Strobe/Lamp Enabled: No (USB2E3373)
Correct for Detector Non-linearity: No (USB2E3373)
Correct for Stray Light: No (USB2E3373)
Number of Pixels in Processed Spectrum: 2048
>>>>>Begin Processed Spectral Data<<<<<
178.53	0.000
178.91	0.000
179.29	112.500
179.67	-350.000
180.04	-0.000
180.42	50.000
180.80	-500.000
181.18	-133.333
181.56	200.000
181.94	-400.000
182.31	500.000
182.69	-60.000
183.07	-100.000
183.45	-240.000
183.83	166.667
184.20	-18.182
184.58	222.222
184.96	-75.000
185.34	100.000
185.72	-150.000
186.09	161.538
186.47	-1200.000
186.85	166.667
187.23	88.889
187.61	600.000
187.98	-266.667
188.36	-22.222
188.74	-400.000
189.12	5.882
189.49	11.111
189.87	0.000
190.25	57.143
190.63	-50.000
191.00	66.667
191.38	15.789
191.76	150.000
192.14	250.000
192.51	-400.000
192.89	-88.889
193.27	-142.857
193.65	333.333
194.02	172.727
194.40	10.000
194.78	-25.000
195.15	-66.667
195.53	-150.000
195.91	-0.000
196.29	-100.000
196.66	92.308
197.04	142.857
197.42	-22.222
197.79	-633.333
198.17	-100.000
198.55	1000.000
198.92	-533.333
199.30	-1000.000
199.68	-400.000
200.05	-366.667
200.43	0.000
200.81	-66.667
201.18	-100.000
201.56	1900.000
201.94	-850.000
202.31	333.333
202.69	-60.000
203.07	250.000
203.44	1000.000
203.82	0.000
204.19	-50.000
204.57	-666.667
204.95	87.500
205.32	-10.000
205.70	14.286
206.08	-125.000
206.45	66.667
206.83	-7.143
207.20	-85.714
207.58	300.000
207.96	0.000
208.33	-110.000
208.71	25.000
209.08	-200.000
209.46	-700.000
209.84	-200.000
210.21	-700.000
210.59	71.429
210.96	100.000
211.34	-25.000
211.71	33.333
212.09	-171.429
212.46	-1700.000
212.84	0.000
213.22	70.000
213.59	200.000
213.97	30.769
214.34	90.909
214.72	-166.667
215.09	525.000
215.47	0.000
215.84	-18.182
216.22	-300.000
216.59	-162.500
216.97	-100.000
217.34	-100.000
217.72	-260.000
218.09	25.000
218.47	100.000
218.84	-900.000
219.22	-66.667
219.59	-200.000
219.97	533.333
220.34	300.000
220.72	-171.429
221.09	-200.000
221.47	-150.000
221.84	-750.000
222.22	-800.000
222.59	63.636
222.97	16.667
223.34	-233.333
223.72	-57.143
224.09	-33.333
224.46	-21.429
224.84	500.000
225.21	-40.000
225.59	33.333
225.96	-300.000
226.34	500.000
226.71	-142.857
227.08	-216.667
227.46	62.500
227.83	-550.000
228.21	33.333
228.58	-36.364
228.95	-125.000
229.33	100.000
229.70	56.250
230.08	-25.000
230.45	-57.143
230.82	42.857
231.20	6.667
231.57	57.143
231.95	0.000
232.32	-140.000
232.69	-42.857
233.07	0.000
233.44	-100.000
233.81	-40.000
234.19	55.556
234.56	-41.176
234.93	250.000
235.31	125.000
235.68	-140.000
236.05	7.692
236.43	-25.000
236.80	-17.647
237.17	31.250
237.55	20.000
237.92	-14.815
238.29	16.667
238.67	0.000
239.04	14.706
239.41	-9.756
239.79	33.333
240.16	56.098
240.53	13.158
240.91	21.739
241.28	33.333
241.65	19.643
242.02	32.877
242.40	25.000
242.77	18.644
243.14	22.727
243.51	17.500
243.89	33.333
244.26	26.437
244.63	23.810
245.00	17.526
245.38	26.804
245.75	21.348
246.12	23.276
246.49	33.884
246.87	35.577
247.24	26.050
247.61	26.316
247.98	26.829
248.36	32.500
248.73	28.289
249.10	28.571
249.47	29.114
249.84	27.451
250.22	34.706
250.59	37.255
250.96	33.333
251.33	30.233
251.70	31.765
252.08	30.964
252.45	29.703
252.82	29.648
253.19	31.797
253.56	33.645
253.94	32.883
254.31	36.087
254.68	35.088
255.05	30.315
255.42	32.314
255.79	34.749
256.16	30.350
256.54	36.194
256.91	31.559
257.28	33.457
257.65	33.708
258.02	34.043
258.39	32.323
258.76	30.769
259.14	34.551
259.51	36.246
259.88	35.052
260.25	33.660
260.62	32.986
260.99	30.508
261.36	33.904
261.73	34.177
262.10	35.562
262.47	34.356
262.85	33.542
263.22	33.846
263.59	33.022
263.96	37.267
264.33	33.030
264.70	33.929
265.07	34.821
265.44	35.411
265.81	35.028
266.18	35.792
266.55	34.961
266.92	33.679
267.29	33.420
267.66	33.248
268.03	35.340
268.40	34.465
268.77	31.016
269.14	35.252
269.51	30.334
269.88	35.910
270.25	30.612
270.62	32.439
270.99	32.481
271.36	32.763
271.73	30.282
272.10	36.496
272.47	33.806
272.84	31.436
273.21	35.731
273.58	33.012
273.95	32.494
274.32	31.178
274.69	29.864
275.06	32.366
275.43	30.839
275.80	33.775
276.17	33.333
276.54	33.619
276.91	31.579
277.28	29.913
277.65	30.992
278.02	29.787
278.39	32.385
278.76	29.350
279.13	29.046
279.50	31.933
279.87	31.102
280.23	32.043
280.60	32.943
280.97	32.929
281.34	32.115
281.71	33.676
282.08	29.652
282.45	29.550
282.82	29.344
283.19	31.335
283.56	32.370
283.92	32.827
284.29	30.192
284.66	30.620
285.03	32.809
285.40	30.435
285.77	30.228
286.14	28.881
286.51	29.520
286.87	29.616
287.24	33.149
287.61	28.748
287.98	31.404
288.35	28.943
288.72	33.275
289.08	28.125
289.45	29.350
289.82	27.448
290.19	27.645
290.56	28.816
290.93	26.768
291.29	26.965
291.66	28.819
292.03	28.230
292.40	27.581
292.77	27.273
293.13	24.675
293.50	26.707
293.87	25.344
294.24	25.657
294.60	25.633
294.97	26.339
295.34	25.460
295.71	24.292
296.08	23.767
296.44	24.040
296.81	25.417
297.18	24.203
297.55	25.203
297.91	23.973
298.28	25.858
298.65	22.795
299.02	22.507
299.38	22.298
299.75	22.621
300.12	23.429
300.48	22.398
300.85	23.447
301.22	23.377
301.59	23.684
301.95	22.532
302.32	24.773
302.69	22.015
303.05	21.658
303.42	20.548
303.79	22.079
304.15	20.789
304.52	21.998
304.89	21.520
305.25	23.123
305.62	20.887
305.99	22.105
306.35	22.081
306.72	21.485
307.09	20.981
307.45	21.584
307.82	20.370
308.19	24.042
308.55	22.792
308.92	22.985
309.29	21.564
309.65	20.883
310.02	20.022
310.38	20.307
310.75	22.186
311.12	20.883
311.48	20.891
311.85	20.628
312.22	20.570
312.58	19.851
312.95	19.851
313.31	19.669
313.68	20.628
314.05	19.898
314.41	21.443
314.78	21.031
315.14	20.966
315.51	20.704
315.87	20.184
316.24	21.436
316.61	19.488
316.97	20.635
317.34	19.238
317.70	20.076
318.07	20.288
318.43	19.706
318.80	19.413
319.16	20.410
319.53	20.418
319.89	20.079
320.26	19.737
320.62	20.461
320.99	19.415
321.35	20.041
321.72	21.391
322.08	20.040
322.45	21.117
322.81	19.548
323.18	19.431
323.54	19.981
323.91	19.474
324.27	19.922
324.64	19.569
325.00	19.526
325.37	21.671
325.73	18.586
326.10	18.892
326.46	18.834
326.83	19.773
327.19	19.355
327.56	19.809
327.92	18.926
328.29	18.929
328.65	19.434
329.01	18.658
329.38	19.078
329.74	18.602
330.11	18.443
330.47	17.996
330.84	17.885
331.20	19.392
331.56	18.056
331.93	18.447
332.29	18.240
332.66	18.914
333.02	19.238
333.38	18.057
333.75	19.139
334.11	17.905
334.48	18.314
334.84	18.315
335.20	18.207
335.57	16.591
335.93	19.422
336.29	19.337
336.66	19.800
337.02	16.914
337.38	17.407
337.75	18.273
338.11	17.674
338.47	19.708
338.84	17.837
339.20	18.464
339.56	17.890
339.93	17.995
340.29	19.174
340.65	18.011
341.02	18.528
341.38	17.788
341.74	17.049
342.11	16.291
342.47	16.815
342.83	17.820
343.20	17.683
343.56	18.261
343.92	17.981
344.28	18.873
344.65	15.285
345.01	16.854
345.37	16.989
345.73	18.661
346.10	17.601
346.46	17.662
346.82	17.921
347.19	17.041
347.55	17.544
347.91	17.961
348.27	17.057
348.63	17.291
349.00	15.833
349.36	17.373
349.72	17.828
350.08	16.803
350.45	19.074
350.81	15.199
351.17	16.857
351.53	16.571
351.89	16.102
352.26	17.840
352.62	17.984
352.98	16.948
353.34	17.472
353.70	16.505
354.07	17.097
354.43	16.413
354.79	16.846
355.15	17.460
355.51	17.880
355.87	17.071
356.24	16.313
356.60	17.138
356.96	17.222
357.32	16.294
357.68	15.950
358.04	15.832
358.40	16.559
358.77	16.906
359.13	16.093
359.49	15.023
359.85	16.225
360.21	16.348
360.57	15.608
360.93	16.793
361.29	15.861
361.66	17.085
362.02	16.364
362.38	16.832
362.74	16.124
363.10	16.479
363.46	17.050
363.82	17.130
364.18	16.531
364.54	15.882
364.90	15.914
365.26	16.958
365.62	16.788
365.98	16.202
366.35	16.315
366.71	16.482
367.07	16.110
367.43	15.313
367.79	16.113
368.15	15.793
368.51	15.368
368.87	15.363
369.23	16.968
369.59	15.087
369.95	15.249
370.31	16.474
370.67	16.716
371.03	15.907
371.39	15.244
371.75	15.458
372.11	15.835
372.47	15.754
372.83	16.395
373.19	16.762
373.55	15.596
373.91	16.199
374.27	15.096
374.63	16.296
374.99	15.390
375.35	16.783
375.71	16.294
376.07	15.730
376.42	15.714
376.78	16.510
377.14	15.572
377.50	16.268
377.86	15.395
378.22	16.146
378.58	15.577
378.94	15.375
379.30	15.970
379.66	16.113
380.02	15.328
380.38	14.790
380.74	15.200
381.09	16.380
381.45	15.168
381.81	15.546
382.17	15.673
382.53	16.615
382.89	15.756
383.25	15.308
383.61	16.646
383.97	15.175
384.32	15.572
384.68	16.347
385.04	15.686
385.40	15.184
385.76	16.981
386.12	15.589
386.48	16.028
386.83	15.536
387.19	14.896
387.55	15.684
387.91	14.731
388.27	15.995
388.62	15.796
388.98	14.610
389.34	15.490
389.70	15.911
390.06	15.104
390.42	15.868
390.77	15.827
391.13	15.574
391.49	15.589
391.85	15.789
392.20	15.317
392.56	15.893
392.92	16.031
393.28	15.684
393.64	15.255
393.99	16.426
394.35	15.117
394.71	15.709
395.07	14.771
395.42	15.543
395.78	15.179
396.14	15.700
396.50	16.170
396.85	15.712
397.21	14.975
397.57	15.298
397.92	15.938
398.28	16.264
398.64	15.181
399.00	16.196
399.35	14.955
399.71	15.853
400.07	15.599
400.42	15.545
400.78	15.370
401.14	16.394
401.49	16.021
401.85	15.966
402.21	15.482
402.57	16.000
402.92	16.311
403.28	15.852
403.63	15.385
403.99	15.880
404.35	16.115
404.70	15.119
405.06	15.981
405.42	15.538
405.77	14.643
406.13	14.959
406.49	15.157
406.84	14.853
407.20	15.713
407.55	15.196
407.91	15.976
408.27	15.615
408.62	16.308
408.98	15.034
409.34	15.861
409.69	15.116
410.05	15.394
410.40	15.926
410.76	16.043
411.11	16.312
411.47	15.713
411.83	14.878
412.18	15.315
412.54	15.169
412.89	14.901
413.25	15.343
413.60	15.839
413.96	15.215
414.31	15.915
414.67	15.459
415.03	15.646
415.38	15.339
415.74	15.635
416.09	15.741
416.45	16.070
416.80	15.730
417.16	15.953
417.51	16.123
417.87	14.993
418.22	15.738
418.58	14.515
418.93	16.238
419.29	14.981
419.64	16.073
420.00	17.380
420.35	15.522
420.71	15.978
421.06	15.715
421.42	16.046
421.77	15.838
422.12	15.948
422.48	15.755
422.83	15.603
423.19	15.971
423.54	15.344
423.90	15.312
424.25	15.959
424.61	16.218
424.96	16.376
425.31	16.696
425.67	15.023
426.02	15.901
426.38	16.281
426.73	17.010
427.09	16.456
427.44	17.000
427.79	16.205
428.15	16.262
428.50	15.687
428.85	15.172
429.21	16.072
429.56	15.903
429.92	16.076
430.27	16.291
430.62	15.525
430.98	15.711
431.33	16.719
431.68	16.484
432.04	15.763
432.39	16.372
432.74	15.093
433.10	17.299
433.45	16.010
433.80	16.077
434.16	15.623
434.51	15.860
434.86	15.738
435.22	15.592
435.57	15.596
435.92	16.347
436.28	16.577
436.63	15.345
436.98	15.469
437.34	15.850
437.69	15.742
438.04	16.068
438.39	14.844
438.75	15.908
439.10	16.412
439.45	16.920
439.81	15.841
440.16	16.271
440.51	15.821
440.86	16.858
441.22	16.063
441.57	16.004
441.92	16.002
442.27	15.965
442.63	16.542
442.98	15.968
443.33	15.971
443.68	16.127
444.03	15.996
444.39	16.134
444.74	16.109
445.09	16.036
445.44	16.296
445.79	16.400
446.15	15.859
446.50	15.363
446.85	16.631
447.20	16.058
447.55	16.908
447.91	16.244
448.26	16.676
448.61	16.638
448.96	16.523
449.31	15.723
449.66	17.131
450.02	15.973
450.37	15.708
450.72	15.750
451.07	16.203
451.42	16.355
451.77	16.154
452.12	16.328
452.47	16.613
452.83	16.137
453.18	16.698
453.53	16.498
453.88	16.151
454.23	16.841
454.58	17.128
454.93	17.977
455.28	15.429
455.63	16.801
455.98	16.777
456.34	16.603
456.69	16.963
457.04	17.265
457.39	16.829
457.74	17.170
458.09	15.892
458.44	15.682
458.79	17.031
459.14	17.334
459.49	16.776
459.84	16.920
460.19	16.808
460.54	16.932
460.89	16.250
461.24	18.137
461.59	17.162
461.94	17.233
462.29	17.913
462.64	17.342
462.99	16.385
463.34	15.925
463.69	16.152
464.04	17.554
464.39	16.555
464.74	16.994
465.09	17.218
465.44	17.426
465.79	16.327
466.14	16.762
466.49	16.561
466.84	17.847
467.19	16.521
467.54	17.241
467.89	17.688
468.24	16.910
468.59	17.270
468.94	16.698
469.29	17.311
469.64	16.951
469.99	17.029
470.34	16.655
470.68	17.524
471.03	17.834
471.38	16.833
471.73	17.787
472.08	16.961
472.43	16.779
472.78	16.929
473.13	17.959
473.48	17.655
473.83	17.372
474.17	17.940
474.52	16.720
474.87	17.394
475.22	17.389
475.57	16.996
475.92	17.937
476.27	18.277
476.61	17.593
476.96	16.788
477.31	18.172
477.66	17.247
478.01	18.024
478.36	17.865
478.70	17.564
479.05	17.692
479.40	17.223
479.75	17.310
480.10	17.358
480.45	17.350
480.79	17.925
481.14	18.648
481.49	16.897
481.84	17.905
482.19	16.885
482.53	17.506
482.88	17.470
483.23	17.898
483.58	18.113
483.92	17.183
484.27	17.138
484.62	17.750
484.97	17.454
485.31	16.871
485.66	16.174
486.01	16.362
486.36	16.174
486.70	16.595
487.05	16.864
487.40	17.270
487.75	17.324
488.09	16.811
488.44	17.194
488.79	17.632
489.13	17.708
489.48	17.999
489.83	17.444
490.17	17.124
490.52	17.044
490.87	17.399
491.22	18.290
491.56	17.647
491.91	17.352
492.26	17.842
492.60	18.330
492.95	18.101
493.30	17.489
493.64	17.878
493.99	18.019
494.34	17.621
494.68	17.571
495.03	17.664
495.37	18.106
495.72	18.375
496.07	18.293
496.41	17.736
496.76	17.550
497.11	17.094
497.45	18.186
497.80	18.113
498.14	18.778
498.49	17.776
498.84	17.515
499.18	18.373
499.53	18.403
499.87	18.531
500.22	18.744
500.56	18.457
500.91	17.470
501.26	17.894
501.60	18.003
501.95	17.807
502.29	18.160
502.64	17.664
502.98	18.106
503.33	17.675
503.67	18.265
504.02	18.768
504.36	18.704
504.71	18.384
505.06	18.319
505.40	17.817
505.75	19.021
506.09	17.790
506.44	19.199
506.78	19.388
507.13	18.769
507.47	18.277
507.82	19.017
508.16	18.067
508.51	18.835
508.85	19.048
509.19	18.467
509.54	18.552
509.88	18.069
510.23	19.042
510.57	18.653
510.92	17.751
511.26	19.094
511.61	18.922
511.95	19.671
512.30	19.290
512.64	19.588
512.98	18.754
513.33	20.257
513.67	18.647
514.02	20.023
514.36	20.057
514.70	20.455
515.05	19.624
515.39	19.362
515.74	20.479
516.08	20.801
516.42	20.141
516.77	20.889
517.11	20.475
517.46	21.005
517.80	21.037
518.14	20.576
518.49	18.930
518.83	21.021
519.17	20.133
519.52	20.071
519.86	19.868
520.20	20.535
520.55	20.575
520.89	20.514
521.23	20.393
521.58	21.136
521.92	21.603
522.26	20.234
522.61	21.688
522.95	21.258
523.29	20.584
523.64	21.220
523.98	21.646
524.32	20.168
524.66	21.895
525.01	21.364
525.35	22.165
525.69	19.798
526.04	19.974
526.38	21.466
526.72	20.798
527.06	21.660
527.41	22.098
527.75	21.113
528.09	20.664
528.43	22.350
528.78	20.594
529.12	21.419
529.46	21.053
529.80	21.406
530.15	21.848
530.49	20.337
530.83	20.999
531.17	20.819
531.51	21.683
531.86	21.550
532.20	21.990
532.54	22.260
532.88	21.013
533.22	22.446
533.57	22.412
533.91	21.410
534.25	22.135
534.59	21.809
534.93	20.957
535.27	20.305
535.62	21.711
535.96	21.526
536.30	21.834
536.64	21.709
536.98	21.672
537.32	22.048
537.66	22.721
538.01	21.818
538.35	21.983
538.69	21.904
539.03	20.984
539.37	22.207
539.71	21.200
540.05	21.113
540.39	22.091
540.73	22.176
541.07	22.030
541.42	22.446
541.76	22.505
542.10	21.748
542.44	21.960
542.78	20.716
543.12	21.360
543.46	23.018
543.80	21.235
544.14	21.028
544.48	21.186
544.82	21.736
545.16	23.156
545.50	21.495
545.84	21.884
546.18	21.418
546.52	22.711
546.86	21.855
547.20	22.818
547.54	19.859
547.88	21.264
548.22	21.368
548.56	21.768
548.90	22.574
549.24	21.556
549.58	22.214
549.92	20.229
550.26	21.612
550.60	22.007
550.94	21.957
551.28	22.179
551.62	22.231
551.96	22.857
552.30	22.368
552.64	21.016
552.98	21.589
553.32	21.327
553.66	21.263
554.00	22.774
554.34	22.378
554.68	21.829
555.02	21.503
555.36	22.812
555.69	21.758
556.03	20.700
556.37	21.281
556.71	21.588
557.05	22.222
557.39	22.602
557.73	21.814
558.07	22.021
558.41	21.899
558.75	21.590
559.08	22.222
559.42	21.349
559.76	22.258
560.10	21.483
560.44	21.072
560.78	22.098
561.12	21.086
561.45	21.855
561.79	21.289
562.13	21.930
562.47	22.158
562.81	22.118
563.15	21.791
563.48	21.853
563.82	21.826
564.16	22.075
564.50	21.554
564.84	22.222
565.17	21.999
565.51	22.404
565.85	21.262
566.19	20.623
566.52	21.783
566.86	21.722
567.20	21.606
567.54	21.411
567.88	21.324
568.21	21.833
568.55	21.359
568.89	21.047
569.23	20.029
569.56	20.928
569.90	20.503
570.24	19.129
570.57	20.073
570.91	20.077
571.25	19.566
571.59	19.807
571.92	19.170
572.26	19.414
572.60	19.659
572.93	19.642
573.27	19.373
573.61	19.481
573.95	20.371
574.28	19.412
574.62	19.146
574.96	19.596
575.29	19.207
575.63	18.528
575.97	19.002
576.30	18.724
576.64	19.205
576.98	19.125
577.31	18.874
577.65	19.083
577.98	18.914
578.32	18.832
578.66	18.698
578.99	18.624
579.33	18.586
579.67	18.446
580.00	18.937
580.34	19.129
580.67	18.966
581.01	19.380
581.35	18.755
581.68	18.638
582.02	18.517
582.35	18.756
582.69	18.874
583.02	19.120
583.36	18.973
583.70	19.418
584.03	19.433
584.37	19.763
584.70	19.038
585.04	18.938
585.37	18.550
585.71	19.057
586.04	19.465
586.38	18.405
586.72	19.426
587.05	19.469
587.39	20.045
587.72	20.148
588.06	19.153
588.39	19.567
588.73	19.017
589.06	19.667
589.40	19.772
589.73	20.117
590.07	19.713
590.40	20.008
590.73	20.222
591.07	20.229
591.40	21.015
591.74	20.045
592.07	20.686
592.41	20.848
592.74	19.793
593.08	19.211
593.41	19.209
593.75	19.365
594.08	19.258
594.41	19.796
594.75	20.038
595.08	20.431
595.42	19.875
595.75	19.865
596.09	20.055
596.42	19.926
596.75	20.693
597.09	20.456
597.42	19.828
597.75	20.385
598.09	19.828
598.42	19.224
598.76	19.477
599.09	19.752
599.42	19.856
599.76	19.940
600.09	19.910
600.42	19.484
600.76	19.056
601.09	19.962
601.42	19.585
601.76	20.246
602.09	20.008
602.42	20.177
602.76	20.034
603.09	20.100
603.42	20.819
603.76	19.315
604.09	19.603
604.42	20.728
604.76	20.739
605.09	20.704
605.42	20.090
605.75	20.096
606.09	19.915
606.42	19.766
606.75	19.740
607.09	20.879
607.42	19.584
607.75	19.849
608.08	19.901
608.42	20.009
608.75	20.675
609.08	20.080
609.41	19.746
609.75	19.556
610.08	19.820
610.41	20.145
610.74	19.941
611.07	20.724
611.41	20.343
611.74	20.842
612.07	20.503
612.40	20.733
612.73	19.944
613.07	20.754
613.40	20.678
613.73	20.201
614.06	21.035
614.39	20.079
614.72	21.176
615.06	20.223
615.39	20.469
615.72	20.344
616.05	20.503
616.38	19.601
616.71	21.284
617.05	20.939
617.38	21.182
617.71	21.006
618.04	21.397
618.37	21.816
618.70	22.046
619.03	22.222
619.36	21.708
619.69	21.531
620.03	23.302
620.36	21.459
620.69	21.556
621.02	22.095
621.35	22.407
621.68	23.044
622.01	22.250
622.34	21.229
622.67	22.476
623.00	22.358
623.33	22.409
623.66	21.092
623.99	20.953
624.32	21.597
624.65	21.128
624.99	22.649
625.32	19.484
625.65	22.310
625.98	22.321
626.31	22.444
626.64	23.570
626.97	23.211
627.30	21.366
627.63	22.010
627.96	22.282
628.29	22.387
628.62	22.812
628.95	22.244
629.28	23.790
629.61	22.034
629.94	24.242
630.26	21.640
630.59	24.350
630.92	22.667
631.25	21.949
631.58	23.238
631.91	24.232
632.24	23.050
632.57	24.886
632.90	23.488
633.23	24.000
633.56	23.426
633.89	24.044
634.22	24.691
634.55	24.269
634.88	25.926
635.20	22.564
635.53	25.467
635.86	22.757
636.19	24.450
636.52	23.980
636.85	22.829
637.18	22.138
637.51	24.151
637.83	23.522
638.16	24.420
638.49	24.659
638.82	25.000
639.15	24.423
639.48	24.209
639.81	25.523
640.13	24.098
640.46	23.907
640.79	23.859
641.12	24.225
641.45	23.724
641.77	24.296
642.10	26.066
642.43	24.277
642.76	25.743
643.09	25.363
643.41	25.405
643.74	25.700
644.07	26.108
644.40	27.027
644.73	24.343
645.05	23.322
645.38	25.926
645.71	25.887
646.04	26.212
646.36	26.241
646.69	28.957
647.02	28.733
647.35	24.440
647.67	25.777
648.00	26.306
648.33	24.061
648.66	24.746
648.98	22.781
649.31	23.140
649.64	21.978
649.96	23.501
650.29	23.680
650.62	25.641
650.94	25.926
651.27	22.346
651.60	25.946
651.92	25.699
652.25	22.735
652.58	23.667
652.90	23.328
653.23	22.185
653.56	23.519
653.88	25.086
654.21	21.891
654.54	25.127
654.86	25.297
655.19	23.684
655.52	21.672
655.84	18.337
656.17	20.148
656.49	27.362
656.82	28.918
657.15	22.510
657.47	16.677
657.80	12.415
658.13	12.548
658.45	19.157
658.78	19.299
659.10	19.304
659.43	19.458
659.75	19.388
660.08	20.621
660.41	22.778
660.73	23.895
661.06	26.170
661.38	24.658
661.71	22.587
662.03	25.751
662.36	25.275
662.68	25.221
663.01	27.948
663.33	23.898
663.66	24.186
663.98	26.744
664.31	25.160
664.63	28.111
664.96	20.435
665.28	24.503
665.61	24.459
665.93	26.304
666.26	24.512
666.58	23.714
666.91	25.647
667.23	27.594
667.56	24.408
667.88	26.139
668.21	27.446
668.53	28.842
668.86	27.123
669.18	22.877
669.50	25.666
669.83	22.791
670.15	26.107
670.48	26.555
670.80	27.650
671.13	25.056
671.45	23.288
671.77	26.824
672.10	23.960
672.42	24.157
672.75	24.867
673.07	27.013
673.39	24.037
673.72	22.288
674.04	25.000
674.37	24.576
674.69	23.983
675.01	25.778
675.34	25.901
675.66	27.778
675.98	26.608
676.31	25.000
676.63	22.328
676.95	23.864
677.28	24.941
677.60	23.133
677.92	24.083
678.25	26.039
678.57	22.294
678.89	22.269
679.22	25.503
679.54	23.896
679.86	23.062
680.18	23.689
680.51	24.053
680.83	22.863
681.15	23.200
681.48	23.975
681.80	24.174
682.12	23.185
682.44	22.803
682.77	26.490
683.09	26.545
683.41	25.682
683.73	25.806
684.06	23.673
684.38	21.505
684.70	24.183
685.02	22.822
685.34	21.146
685.67	21.388
685.99	23.689
686.31	21.947
686.63	22.635
686.96	21.483
687.28	18.182
687.60	22.243
687.92	24.040
688.24	23.790
688.56	22.926
688.89	24.777
689.21	26.222
689.53	23.202
689.85	25.349
690.17	24.777
690.49	24.823
690.82	24.515
691.14	21.667
691.46	22.664
691.78	24.324
692.10	24.731
692.42	23.377
692.74	23.077
693.06	23.874
693.39	20.588
693.71	21.719
694.03	20.323
694.35	22.196
694.67	25.253
694.99	21.410
695.31	28.460
695.63	21.750
695.95	21.212
696.27	24.611
696.59	21.111
696.91	21.569
697.23	22.365
697.56	22.277
697.88	21.290
698.20	21.640
698.52	22.588
698.84	20.574
699.16	24.500
699.48	20.551
699.80	24.069
700.12	21.294
700.44	26.331
700.76	21.512
701.08	22.424
701.40	23.193
701.72	26.235
702.04	22.112
702.36	23.411
702.68	21.321
703.00	23.333
703.32	21.701
703.64	21.469
703.96	23.188
704.28	22.086
704.60	23.492
704.91	23.659
705.23	24.585
705.55	27.915
705.87	23.105
706.19	21.481
706.51	25.773
706.83	26.688
707.15	20.249
707.47	24.650
707.79	21.615
708.11	21.000
708.43	23.500
708.74	22.997
709.06	25.070
709.38	27.523
709.70	21.302
710.02	20.064
710.34	25.077
710.66	19.872
710.98	23.510
711.29	22.295
711.61	20.339
711.93	24.104
712.25	29.210
712.57	21.612
712.89	22.388
713.20	28.374
713.52	24.739
713.84	23.891
714.16	20.275
714.48	20.645
714.80	23.077
715.11	25.228
715.43	22.571
715.75	21.667
716.07	18.937
716.39	22.819
716.70	24.723
717.02	23.282
717.34	25.911
717.66	22.124
717.97	21.739
718.29	22.594
718.61	25.197
718.93	19.767
719.24	22.814
719.56	25.301
719.88	22.680
720.20	20.455
720.51	22.989
720.83	27.027
721.15	20.588
721.46	23.790
721.78	22.530
722.10	19.703
722.42	22.407
722.73	19.592
723.05	24.490
723.37	23.729
723.68	27.928
724.00	20.085
724.32	24.000
724.63	20.000
724.95	25.328
725.27	23.963
725.58	26.695
725.90	21.825
726.22	20.463
726.53	24.407
726.85	27.715
727.16	25.660
727.48	18.623
727.80	23.482
728.11	23.305
728.43	23.137
728.74	16.129
729.06	26.800
729.38	24.436
729.69	16.733
730.01	18.462
730.32	22.015
730.64	23.675
730.96	24.528
731.27	20.333
731.59	20.000
731.90	23.248
732.22	23.975
732.53	26.246
732.85	26.596
733.16	27.609
733.48	19.424
733.80	19.928
734.11	17.627
734.43	19.931
734.74	21.818
735.06	17.590
735.37	20.846
735.69	19.865
736.00	20.209
736.32	21.141
736.63	20.775
736.95	24.232
737.26	20.285
737.58	19.128
737.89	20.879
738.21	22.180
738.52	27.160
738.83	20.524
739.15	17.467
739.46	20.472
739.78	16.850
740.09	21.242
740.41	25.362
740.72	18.504
741.04	22.672
741.35	20.426
741.66	18.009
741.98	19.898
742.29	17.822
742.61	16.754
742.92	13.744
743.23	19.444
743.55	20.814
743.86	20.096
744.18	22.010
744.49	23.936
744.80	19.565
745.12	27.807
745.43	20.488
745.74	22.396
746.06	23.902
746.37	18.325
746.68	21.327
747.00	25.000
747.31	25.373
747.62	21.359
747.94	20.096
748.25	19.307
748.56	20.765
748.88	21.990
749.19	19.681
749.50	23.645
749.82	11.792
750.13	20.183
750.44	24.060
750.75	26.493
751.07	25.547
751.38	23.372
751.69	16.078
752.01	20.930
752.32	19.124
752.63	24.111
752.94	23.707
753.26	29.289
753.57	18.552
753.88	13.274
754.19	17.917
754.51	20.248
754.82	20.648
755.13	25.833
755.44	19.758
755.75	23.047
756.07	22.568
756.38	18.113
756.69	19.540
757.00	18.667
757.31	17.974
757.63	20.122
757.94	18.889
758.25	19.452
758.56	17.287
758.87	16.147
759.18	18.380
759.50	18.182
759.81	20.401
760.12	22.581
760.43	21.212
760.74	17.901
761.05	19.692
761.36	20.455
761.67	21.515
761.99	22.449
762.30	16.364
762.61	19.763
762.92	17.195
763.23	19.820
763.54	19.159
763.85	22.034
764.16	22.822
764.47	22.177
764.78	20.879
765.10	21.886
765.41	19.243
765.72	20.635
766.03	16.917
766.34	16.423
766.65	22.709
766.96	16.667
767.27	22.340
767.58	14.943
767.89	17.730
768.20	23.295
768.51	20.330
768.82	23.153
769.13	18.433
769.44	16.309
769.75	15.068
770.06	20.259
770.37	19.712
770.68	19.289
770.99	17.647
771.30	20.098
771.61	18.100
771.92	21.121
772.23	20.197
772.54	25.269
772.85	25.926
773.16	26.404
773.47	24.183
773.78	22.876
774.09	20.958
774.39	23.333
774.70	18.471
775.01	16.552
775.32	20.000
775.63	21.488
775.94	6.870
776.25	14.173
776.56	22.500
776.87	15.385
777.18	20.513
777.48	24.138
777.79	21.739
778.10	14.286
778.41	16.216
778.72	26.190
779.03	19.549
779.34	23.404
779.65	20.548
779.95	18.493
780.26	20.690
780.57	17.073
780.88	20.472
781.19	7.759
781.50	13.178
781.80	16.568
782.11	16.981
782.42	19.231
782.73	16.547
783.04	19.259
783.34	22.222
783.65	9.402
783.96	22.131
784.27	19.310
784.57	17.073
784.88	11.719
785.19	23.000
785.50	19.000
785.81	25.862
786.11	15.517
786.42	20.388
786.73	30.000
787.04	10.204
787.34	20.536
787.65	20.952
787.96	17.699
788.26	4.545
788.57	12.821
788.88	14.844
789.19	18.254
789.49	13.913
789.80	17.347
790.11	17.172
790.41	10.000
790.72	20.652
791.03	23.864
791.33	25.000
791.64	20.000
791.95	16.279
792.25	10.638
792.56	21.348
792.87	10.959
793.17	21.739
793.48	17.333
793.79	7.500
794.09	13.750
794.40	14.151
794.70	17.476
795.01	13.008
795.32	19.658
795.62	10.476
795.93	16.667
796.23	16.038
796.54	26.042
796.85	20.588
797.15	18.310
797.46	22.222
797.76	25.758
798.07	5.814
798.37	7.895
798.68	4.545
798.99	-3.704
799.29	18.571
799.60	8.696
799.90	29.333
800.21	8.197
800.51	10.769
800.82	30.508
801.12	2.899
801.43	21.311
801.73	25.397
802.04	22.000
802.34	13.433
802.65	25.000
802.95	-7.143
803.26	-1.923
803.56	27.451
803.87	-2.174
804.17	10.667
804.48	42.857
804.78	14.815
805.09	4.348
805.39	6.667
805.70	11.111
806.00	0.000
806.30	12.676
806.61	15.714
806.91	-2.778
807.22	26.316
807.52	21.333
807.83	-3.636
808.13	18.056
808.43	29.412
808.74	16.418
809.04	18.644
809.35	21.154
809.65	7.813
809.95	-13.514
810.26	18.182
810.56	12.329
810.86	26.190
811.17	16.000
811.47	12.245
811.77	5.263
812.08	43.182
812.38	18.868
812.69	5.000
812.99	-3.030
813.29	21.053
813.59	-28.571
813.90	9.091
814.20	5.128
814.50	38.462
814.81	9.434
815.11	17.021
815.41	35.593
815.72	16.667
816.02	11.765
816.32	10.417
816.62	9.756
816.93	-8.108
817.23	17.143
817.53	12.500
817.84	-21.739
818.14	7.692
818.44	-2.632
818.74	34.783
819.04	10.000
819.35	-5.405
819.65	5.882
819.95	2.778
820.25	23.810
820.56	42.500
820.86	-37.931
821.16	37.500
821.46	31.915
821.76	20.000
822.07	13.953
822.37	-16.216
822.67	0.000
822.97	21.429
823.27	-53.571
823.57	-24.000
823.88	-14.815
824.18	-3.571
824.48	0.000
824.78	-32.258
825.08	0.000
825.38	6.061
825.69	-25.000
825.99	-2.632
826.29	13.889
826.59	-46.667
826.89	-61.905
827.19	19.565
827.49	-7.500
827.79	34.286
828.09	-10.714
828.39	27.273
828.70	18.919
829.00	-14.286
829.30	-47.619
829.60	-20.000
829.90	18.750
830.20	15.789
830.50	18.519
830.80	-8.696
831.10	4.545
831.40	6.061
831.70	-6.452
832.00	4.762
832.30	-28.571
832.60	-125.000
832.90	31.034
833.20	-5.000
833.50	18.182
833.80	29.630
834.10	15.385
834.40	21.875
834.70	0.000
835.00	-10.526
835.30	53.846
835.60	13.333
835.90	16.129
836.20	-36.364
836.50	32.143
836.80	-38.462
837.10	-7.143
837.40	-400.000
837.70	-9.091
838.00	-118.182
838.30	26.087
838.60	7.692
838.90	4.545
839.19	17.857
839.49	30.000
839.79	-84.615
840.09	25.000
840.39	14.286
840.69	-25.000
840.99	-3.846
841.29	-31.579
841.59	-80.000
841.88	-72.727
842.18	-70.000
842.48	-18.750
842.78	-33.333
843.08	11.111
843.38	-70.000
843.68	39.130
843.97	0.000
844.27	-60.000
844.57	10.000
844.87	11.111
845.17	-19.048
845.47	33.333
845.76	28.571
846.06	-17.647
846.36	-100.000
846.66	-57.143
846.96	-13.333
847.25	-112.500
847.55	-28.571
847.85	-50.000
848.15	-27.273
848.44	-566.667
848.74	20.000
849.04	14.815
849.34	-45.455
849.63	-166.667
849.93	-320.000
850.23	-77.778
850.53	60.000
850.82	-53.846
851.12	-33.333
851.42	40.000
851.71	-11.538
852.01	-7.143
852.31	-200.000
852.61	-54.545
852.90	-35.000
853.20	-52.632
853.50	25.000
853.79	34.783
854.09	66.667
854.39	5.263
854.68	12.500
854.98	35.484
855.28	38.462
855.57	50.000
855.87	-5.556
856.17	29.630
856.46	14.286
856.76	33.333
857.05	33.333
857.35	12.000
857.65	33.333
857.94	-23.077
858.24	13.793
858.53	-27.778
858.83	29.630
859.13	36.364
859.42	-17.391
859.72	-300.000
860.01	-400.000
860.31	-4.000
860.60	-9.524
860.90	-233.333
861.20	-60.000
861.49	-600.000
861.79	-53.333
862.08	-15.000
862.38	26.667
862.67	-20.000
862.97	0.000
863.26	-58.333
863.56	11.111
863.85	-300.000
864.15	-5.556
864.44	-120.000
864.74	0.000
865.03	325.000
865.33	-180.000
865.62	33.333
865.92	8.333
866.21	-283.333
866.51	25.000
866.80	-45.455
867.10	-100.000
867.39	0.000
867.69	0.000
867.98	0.000
868.27	-300.000
868.57	-40.000
868.86	11.111
869.16	-76.923
869.45	33.333
869.75	-1200.000
870.04	0.000
870.33	-114.286
870.63	28.571
870.92	333.333
871.22	-140.000
871.51	-600.000
871.80	100.000
872.10	366.667
>>>>>End Processed Spectral Data<<<<<
