SpectraSuite Data File
++++++++++++++++++++++++++++++++++++
Date: Fri May 15 20:48:17 PDT 2015
User: schluterlab
Dark Spectrum Present: Yes
Reference Spectrum Present: Yes
Number of Sampled Component Spectra: 1
Spectrometers: USB2E3373
Integration Time (usec): 3000 (USB2E3373)
Spectra Averaged: 3 (USB2E3373)
Boxcar Smoothing: 0 (USB2E3373)
Correct for Electrical Dark: No (USB2E3373)
Strobe/Lamp Enabled: No (USB2E3373)
Correct for Detector Non-linearity: No (USB2E3373)
Correct for Stray Light: No (USB2E3373)
Number of Pixels in Processed Spectrum: 2048
>>>>>Begin Processed Spectral Data<<<<<
178.53	0.000
178.91	0.000
179.29	-50.000
179.67	-550.000
180.04	100.000
180.42	-125.000
180.80	-300.000
181.18	100.000
181.56	200.000
181.94	-100.000
182.31	200.000
182.69	-260.000
183.07	-400.000
183.45	80.000
183.83	166.667
184.20	100.000
184.58	77.778
184.96	-75.000
185.34	166.667
185.72	-450.000
186.09	100.000
186.47	-800.000
186.85	100.000
187.23	211.111
187.61	700.000
187.98	-400.000
188.36	-100.000
188.74	-233.333
189.12	35.294
189.49	-16.667
189.87	0.000
190.25	50.000
190.63	300.000
191.00	-366.667
191.38	-21.053
191.76	-50.000
192.14	100.000
192.51	-150.000
192.89	-111.111
193.27	-200.000
193.65	133.333
194.02	172.727
194.40	-60.000
194.78	-262.500
195.15	-108.333
195.53	-112.500
195.91	375.000
196.29	-375.000
196.66	130.769
197.04	200.000
197.42	-111.111
197.79	-133.333
198.17	-76.923
198.55	1500.000
198.92	-133.333
199.30	-1600.000
199.68	-200.000
200.05	-200.000
200.43	0.000
200.81	300.000
201.18	-166.667
201.56	1000.000
201.94	-500.000
202.31	300.000
202.69	-320.000
203.07	450.000
203.44	-1100.000
203.82	0.000
204.19	21.429
204.57	-800.000
204.95	175.000
205.32	10.000
205.70	-42.857
206.08	-25.000
206.45	266.667
206.83	-7.143
207.20	-100.000
207.58	1300.000
207.96	-300.000
208.33	-60.000
208.71	25.000
209.08	0.000
209.46	-1400.000
209.84	-200.000
210.21	-900.000
210.59	-142.857
210.96	0.000
211.34	-275.000
211.71	6.667
212.09	-300.000
212.46	-1800.000
212.84	0.000
213.22	-90.000
213.59	900.000
213.97	23.077
214.34	18.182
214.72	-216.667
215.09	375.000
215.47	-46.154
215.84	0.000
216.22	-200.000
216.59	-162.500
216.97	-100.000
217.34	0.000
217.72	-180.000
218.09	87.500
218.47	212.500
218.84	-600.000
219.22	-88.889
219.59	-120.000
219.97	600.000
220.34	325.000
220.72	-142.857
221.09	-375.000
221.47	400.000
221.84	100.000
222.22	-750.000
222.59	36.364
222.97	8.333
223.34	-233.333
223.72	-42.857
224.09	-19.048
224.46	-10.714
224.84	633.333
225.21	-20.000
225.59	20.000
225.96	-750.000
226.34	350.000
226.71	-85.714
227.08	-150.000
227.46	12.500
227.83	-550.000
228.21	-11.111
228.58	27.273
228.95	-25.000
229.33	190.000
229.70	-37.500
230.08	-150.000
230.45	-142.857
230.82	14.286
231.20	-80.000
231.57	-14.286
231.95	14.286
232.32	-100.000
232.69	42.857
233.07	-366.667
233.44	-120.000
233.81	-80.000
234.19	-77.778
234.56	-35.294
234.93	1200.000
235.31	0.000
235.68	-260.000
236.05	-153.846
236.43	-65.000
236.80	-52.941
237.17	-12.500
237.55	-70.000
237.92	-51.852
238.29	-5.556
238.67	0.000
239.04	-8.824
239.41	-24.390
239.79	-23.333
240.16	9.756
240.53	-7.895
240.91	0.000
241.28	6.349
241.65	14.286
242.02	17.808
242.40	13.333
242.77	-1.695
243.14	-10.606
243.51	8.750
243.89	17.241
244.26	8.046
244.63	13.095
245.00	4.124
245.38	18.557
245.75	-13.483
246.12	3.448
246.49	15.702
246.87	15.385
247.24	12.605
247.61	-1.754
247.98	5.691
248.36	4.375
248.73	7.237
249.10	14.935
249.47	5.696
249.84	19.608
250.22	6.471
250.59	8.497
250.96	15.493
251.33	4.651
251.70	5.294
252.08	8.122
252.45	13.366
252.82	15.578
253.19	13.825
253.56	13.551
253.94	6.306
254.31	15.652
254.68	14.474
255.05	14.173
255.42	14.847
255.79	15.058
256.16	15.564
256.54	18.657
256.91	12.928
257.28	15.242
257.65	15.730
258.02	8.865
258.39	17.845
258.76	13.919
259.14	13.953
259.51	9.385
259.88	11.340
260.25	15.033
260.62	16.667
260.99	10.508
261.36	13.014
261.73	12.975
262.10	16.109
262.47	14.724
262.85	9.404
263.22	13.538
263.59	13.084
263.96	12.733
264.33	16.061
264.70	13.393
265.07	15.476
265.44	16.431
265.81	15.537
266.18	13.661
266.55	16.710
266.92	16.321
267.29	12.794
267.66	15.345
268.03	13.613
268.40	11.749
268.77	16.578
269.14	17.266
269.51	13.882
269.88	14.214
270.25	13.776
270.62	13.659
270.99	9.463
271.36	13.447
271.73	14.789
272.10	13.382
272.47	15.130
272.84	15.099
273.21	14.849
273.58	16.627
273.95	16.476
274.32	10.393
274.69	12.896
275.06	14.955
275.43	14.059
275.80	14.790
276.17	11.724
276.54	12.634
276.91	13.377
277.28	14.629
277.65	13.223
278.02	12.553
278.39	10.722
278.76	11.530
279.13	10.788
279.50	14.286
279.87	12.311
280.23	12.258
280.60	14.035
280.97	11.515
281.34	11.538
281.71	13.963
282.08	13.497
282.45	10.568
282.82	10.811
283.19	13.926
283.56	13.102
283.92	12.713
284.29	12.692
284.66	11.240
285.03	13.360
285.40	12.476
285.77	12.127
286.14	13.177
286.51	14.760
286.87	12.249
287.24	13.996
287.61	12.169
287.98	13.860
288.35	12.478
288.72	17.163
289.08	11.806
289.45	14.938
289.82	12.587
290.19	10.580
290.56	13.036
290.93	10.943
291.29	10.169
291.66	12.126
292.03	10.845
292.40	11.452
292.77	12.121
293.13	9.578
293.50	10.774
293.87	10.382
294.24	12.056
294.60	11.923
294.97	12.054
295.34	10.276
295.71	11.624
296.08	10.912
296.44	8.962
296.81	10.972
297.18	11.449
297.55	13.008
297.91	12.329
298.28	12.005
298.65	11.262
299.02	11.186
299.38	10.260
299.75	11.034
300.12	10.209
300.48	9.223
300.85	10.646
301.22	9.481
301.59	8.553
301.95	11.013
302.32	10.376
302.69	10.448
303.05	9.282
303.42	11.457
303.79	10.047
304.15	10.872
304.52	9.631
304.89	9.006
305.25	9.685
305.62	8.635
305.99	10.409
306.35	10.173
306.72	8.211
307.09	11.174
307.45	9.989
307.82	9.144
308.19	10.569
308.55	10.142
308.92	11.220
309.29	9.162
309.65	9.042
310.02	10.011
310.38	10.209
310.75	9.727
311.12	11.087
311.48	10.074
311.85	11.099
312.22	8.966
312.58	10.297
312.95	9.498
313.31	9.731
313.68	9.424
314.05	10.000
314.41	11.237
314.78	10.412
315.14	11.511
315.51	10.559
315.87	11.066
316.24	12.032
316.61	10.531
316.97	11.409
317.34	10.547
317.70	10.707
318.07	10.288
318.43	11.275
318.80	11.648
319.16	10.937
319.53	12.631
319.89	11.122
320.26	12.045
320.62	11.836
320.99	11.378
321.35	11.716
321.72	11.734
322.08	13.494
322.45	12.284
322.81	11.198
323.18	11.089
323.54	10.811
323.91	11.685
324.27	12.305
324.64	11.610
325.00	11.679
325.37	13.774
325.73	11.967
326.10	12.625
326.46	12.377
326.83	13.123
327.19	13.775
327.56	13.293
327.92	13.380
328.29	12.232
328.65	11.792
329.01	12.224
329.38	12.627
329.74	11.331
330.11	12.790
330.47	12.430
330.84	11.827
331.20	13.023
331.56	12.407
331.93	11.689
332.29	12.741
332.66	12.670
333.02	12.268
333.38	12.007
333.75	12.546
334.11	11.370
334.48	12.874
334.84	13.187
335.20	12.077
335.57	11.605
335.93	13.098
336.29	13.444
336.66	11.081
337.02	12.825
337.38	11.944
337.75	12.182
338.11	14.427
338.47	13.321
338.84	12.754
339.20	12.706
339.56	11.468
339.93	12.534
340.29	13.028
340.65	12.455
341.02	11.348
341.38	11.150
341.74	11.572
342.11	12.045
342.47	11.477
342.83	13.062
343.20	12.021
343.56	11.565
343.92	11.337
344.28	12.639
344.65	12.176
345.01	10.890
345.37	12.027
345.73	11.799
346.10	13.632
346.46	12.532
346.82	12.357
347.19	11.056
347.55	11.947
347.91	11.570
348.27	12.369
348.63	11.755
349.00	11.977
349.36	11.139
349.72	12.521
350.08	11.639
350.45	12.291
350.81	11.296
351.17	10.993
351.53	12.163
351.89	10.487
352.26	11.360
352.62	12.419
352.98	11.647
353.34	11.433
353.70	12.055
354.07	11.935
354.43	11.529
354.79	11.148
355.15	12.302
355.51	12.263
355.87	11.570
356.24	10.359
356.60	10.348
356.96	12.381
357.32	12.700
357.68	11.024
358.04	11.309
358.40	11.656
358.77	11.882
359.13	11.849
359.49	11.094
359.85	11.466
360.21	12.281
360.57	11.247
360.93	11.573
361.29	11.254
361.66	11.207
362.02	12.500
362.38	11.424
362.74	11.506
363.10	12.265
363.46	11.861
363.82	12.171
364.18	11.808
364.54	11.397
364.90	11.326
365.26	12.445
365.62	12.774
365.98	11.730
366.35	12.382
366.71	11.530
367.07	12.119
367.43	11.718
367.79	11.802
368.15	12.132
368.51	12.382
368.87	10.840
369.23	10.975
369.59	12.172
369.95	12.097
370.31	12.355
370.67	12.537
371.03	10.978
371.39	10.795
371.75	12.381
372.11	11.626
372.47	12.352
372.83	13.272
373.19	12.340
373.55	11.986
373.91	11.447
374.27	12.828
374.63	12.778
374.99	11.489
375.35	11.908
375.71	11.958
376.07	11.728
376.42	12.313
376.78	12.081
377.14	12.255
377.50	12.284
377.86	12.450
378.22	12.061
378.58	11.474
378.94	12.413
379.30	11.416
379.66	12.414
380.02	11.895
380.38	11.990
380.74	12.089
381.09	12.393
381.45	12.783
381.81	12.215
382.17	12.056
382.53	12.055
382.89	12.618
383.25	12.383
383.61	12.866
383.97	11.048
384.32	12.195
384.68	12.198
385.04	12.010
385.40	11.512
385.76	13.585
386.12	13.519
386.48	13.091
386.83	11.224
387.19	13.309
387.55	12.108
387.91	12.775
388.27	12.515
388.62	12.524
388.98	11.848
389.34	12.430
389.70	13.424
390.06	12.272
390.42	12.694
390.77	12.230
391.13	11.223
391.49	13.001
391.85	13.320
392.20	12.932
392.56	12.524
392.92	13.329
393.28	13.620
393.64	12.793
393.99	13.166
394.35	13.093
394.71	13.218
395.07	13.011
395.42	12.629
395.78	11.661
396.14	12.421
396.50	12.619
396.85	12.363
397.21	13.346
397.57	12.226
397.92	13.241
398.28	12.759
398.64	11.627
399.00	13.205
399.35	12.133
399.71	13.383
400.07	13.120
400.42	13.525
400.78	12.921
401.14	13.309
401.49	12.924
401.85	12.431
402.21	13.434
402.57	13.063
402.92	12.422
403.28	13.659
403.63	12.610
403.99	13.202
404.35	13.367
404.70	12.917
405.06	12.221
405.42	13.362
405.77	12.318
406.13	13.213
406.49	12.493
406.84	13.020
407.20	13.125
407.55	12.234
407.91	12.567
408.27	12.173
408.62	13.969
408.98	13.617
409.34	13.817
409.69	12.274
410.05	12.746
410.40	13.148
410.76	13.390
411.11	12.813
411.47	12.952
411.83	12.241
412.18	13.449
412.54	13.171
412.89	12.377
413.25	13.237
413.60	12.733
413.96	12.822
414.31	13.415
414.67	11.931
415.03	12.916
415.38	12.467
415.74	13.550
416.09	13.717
416.45	13.639
416.80	13.020
417.16	13.191
417.51	12.725
417.87	13.233
418.22	12.435
418.58	12.977
418.93	12.853
419.29	12.740
419.64	12.508
420.00	14.169
420.35	12.418
420.71	13.366
421.06	13.198
421.42	13.401
421.77	14.104
422.12	12.826
422.48	13.319
422.83	12.877
423.19	13.149
423.54	12.581
423.90	13.133
424.25	13.375
424.61	12.607
424.96	13.647
425.31	14.674
425.67	13.615
426.02	13.310
426.38	13.400
426.73	13.499
427.09	13.165
427.44	13.765
427.79	13.200
428.15	14.138
428.50	13.083
428.85	12.346
429.21	13.299
429.56	13.585
429.92	13.713
430.27	13.083
430.62	12.546
430.98	13.057
431.33	13.670
431.68	13.501
432.04	13.583
432.39	13.691
432.74	13.229
433.10	14.195
433.45	13.381
433.80	13.407
434.16	13.296
434.51	13.602
434.86	13.647
435.22	13.685
435.57	14.348
435.92	13.054
436.28	13.119
436.63	13.577
436.98	13.499
437.34	13.188
437.69	13.298
438.04	13.504
438.39	13.317
438.75	12.872
439.10	13.413
439.45	13.208
439.81	13.211
440.16	13.895
440.51	13.612
440.86	14.864
441.22	13.462
441.57	13.576
441.92	14.166
442.27	13.803
442.63	13.704
442.98	13.843
443.33	14.246
443.68	14.111
444.03	14.108
444.39	13.871
444.74	14.158
445.09	13.753
445.44	13.333
445.79	13.822
446.15	13.601
446.50	13.921
446.85	13.177
447.20	13.660
447.55	14.230
447.91	13.818
448.26	15.083
448.61	14.047
448.96	13.941
449.31	14.335
449.66	13.298
450.02	14.090
450.37	14.049
450.72	13.517
451.07	14.494
451.42	13.483
451.77	13.442
452.12	13.038
452.47	13.458
452.83	13.781
453.18	12.587
453.53	13.590
453.88	13.540
454.23	13.399
454.58	13.791
454.93	13.853
455.28	12.698
455.63	14.817
455.98	14.191
456.34	12.516
456.69	13.532
457.04	14.178
457.39	13.670
457.74	13.543
458.09	13.243
458.44	12.815
458.79	12.997
459.14	14.931
459.49	14.388
459.84	14.044
460.19	13.592
460.54	14.487
460.89	14.091
461.24	13.602
461.59	13.183
461.94	12.830
462.29	14.113
462.64	13.023
462.99	13.812
463.34	13.839
463.69	13.127
464.04	13.983
464.39	13.281
464.74	14.479
465.09	13.662
465.44	13.676
465.79	13.605
466.14	14.025
466.49	12.708
466.84	14.277
467.19	14.205
467.54	13.474
467.89	14.150
468.24	13.078
468.59	13.524
468.94	13.397
469.29	13.967
469.64	13.944
469.99	14.366
470.34	12.833
470.68	13.572
471.03	15.145
471.38	13.909
471.73	14.146
472.08	13.976
472.43	14.027
472.78	12.474
473.13	13.878
473.48	14.007
473.83	14.259
474.17	13.472
474.52	13.465
474.87	13.515
475.22	13.423
475.57	13.382
475.92	13.714
476.27	14.435
476.61	14.352
476.96	13.553
477.31	13.791
477.66	14.101
478.01	13.195
478.36	14.161
478.70	14.247
479.05	14.066
479.40	13.884
479.75	13.034
480.10	13.518
480.45	13.400
480.79	13.595
481.14	13.627
481.49	13.251
481.84	13.948
482.19	13.330
482.53	14.197
482.88	13.508
483.23	13.484
483.58	13.821
483.92	13.214
484.27	13.355
484.62	14.030
484.97	13.765
485.31	13.331
485.66	12.977
486.01	12.964
486.36	12.702
486.70	13.586
487.05	13.223
487.40	13.573
487.75	13.042
488.09	13.412
488.44	13.824
488.79	12.925
489.13	13.902
489.48	13.339
489.83	13.408
490.17	12.135
490.52	13.903
490.87	13.050
491.22	13.467
491.56	13.330
491.91	13.050
492.26	13.758
492.60	13.292
492.95	13.871
493.30	13.532
493.64	13.065
493.99	13.623
494.34	12.961
494.68	13.952
495.03	12.749
495.37	13.494
495.72	12.923
496.07	13.707
496.41	13.632
496.76	13.174
497.11	12.483
497.45	13.365
497.80	13.623
498.14	13.810
498.49	12.951
498.84	12.924
499.18	13.404
499.53	13.095
499.87	12.986
500.22	13.848
500.56	13.011
500.91	13.353
501.26	12.951
501.60	13.674
501.95	13.731
502.29	13.608
502.64	13.127
502.98	13.468
503.33	13.160
503.67	13.108
504.02	13.050
504.36	13.558
504.71	13.232
505.06	13.588
505.40	12.944
505.75	13.454
506.09	12.722
506.44	13.398
506.78	13.571
507.13	13.547
507.47	13.003
507.82	12.821
508.16	12.784
508.51	13.116
508.85	14.024
509.19	12.666
509.54	13.244
509.88	13.484
510.23	13.179
510.57	13.789
510.92	12.527
511.26	13.421
511.61	13.311
511.95	13.315
512.30	13.248
512.64	13.856
512.98	12.072
513.33	13.990
513.67	13.132
514.02	13.730
514.36	13.943
514.70	14.918
515.05	13.455
515.39	13.577
515.74	14.611
516.08	14.286
516.42	14.605
516.77	14.043
517.11	13.116
517.46	13.585
517.80	14.303
518.14	13.962
518.49	14.663
518.83	13.183
519.17	12.553
519.52	13.618
519.86	13.085
520.20	13.487
520.55	13.008
520.89	13.927
521.23	13.743
521.58	13.943
521.92	13.974
522.26	13.533
522.61	14.286
522.95	13.974
523.29	13.723
523.64	14.231
523.98	13.351
524.32	13.144
524.66	14.917
525.01	13.506
525.35	14.128
525.69	12.727
526.04	14.021
526.38	14.137
526.72	12.884
527.06	13.943
527.41	14.116
527.75	13.204
528.09	13.953
528.43	14.720
528.78	13.531
529.12	14.129
529.46	13.450
529.80	13.996
530.15	14.653
530.49	13.603
530.83	12.380
531.17	13.835
531.51	14.364
531.86	13.868
532.20	13.500
532.54	13.410
532.88	13.963
533.22	14.046
533.57	13.630
533.91	12.794
534.25	13.737
534.59	13.534
534.93	13.405
535.27	13.261
535.62	13.091
535.96	13.633
536.30	13.654
536.64	14.128
536.98	13.868
537.32	13.585
537.66	14.867
538.01	14.266
538.35	13.939
538.69	14.581
539.03	12.782
539.37	13.795
539.71	14.110
540.05	13.646
540.39	13.158
540.73	13.180
541.07	13.467
541.42	14.247
541.76	14.178
542.10	13.627
542.44	13.204
542.78	12.457
543.12	12.775
543.46	14.186
543.80	13.671
544.14	12.283
544.48	13.924
544.82	13.739
545.16	13.593
545.50	13.885
545.84	14.873
546.18	13.830
546.52	13.194
546.86	13.875
547.20	13.519
547.54	12.933
547.88	12.568
548.22	13.149
548.56	13.127
548.90	13.342
549.24	12.052
549.58	13.399
549.92	12.938
550.26	13.553
550.60	13.234
550.94	13.294
551.28	13.988
551.62	13.538
551.96	13.684
552.30	13.158
552.64	13.188
552.98	13.643
553.32	13.481
553.66	13.208
554.00	12.409
554.34	13.220
554.68	13.422
555.02	13.318
555.36	12.865
555.69	12.308
556.03	12.634
556.37	13.167
556.71	13.502
557.05	13.423
557.39	12.491
557.73	13.568
558.07	14.103
558.41	13.400
558.75	13.016
559.08	12.451
559.42	13.413
559.76	13.050
560.10	12.691
560.44	11.765
560.78	13.497
561.12	12.482
561.45	13.352
561.79	12.815
562.13	13.840
562.47	12.950
562.81	12.608
563.15	12.906
563.48	13.296
563.82	12.560
564.16	12.744
564.50	13.919
564.84	13.119
565.17	12.140
565.51	13.115
565.85	12.963
566.19	13.594
566.52	13.338
566.86	13.625
567.20	12.204
567.54	12.713
567.88	13.298
568.21	13.292
568.55	12.065
568.89	12.782
569.23	11.700
569.56	11.996
569.90	12.505
570.24	12.616
570.57	11.855
570.91	12.652
571.25	11.608
571.59	12.364
571.92	12.207
572.26	12.168
572.60	12.217
572.93	11.986
573.27	12.257
573.61	12.082
573.95	11.906
574.28	11.944
574.62	11.518
574.96	11.568
575.29	11.686
575.63	11.246
575.97	11.900
576.30	11.864
576.64	11.417
576.98	12.046
577.31	11.674
577.65	11.881
577.98	11.708
578.32	11.575
578.66	11.519
578.99	11.675
579.33	11.317
579.67	11.759
580.00	12.000
580.34	11.692
580.67	11.573
581.01	11.527
581.35	11.542
581.68	11.533
582.02	11.342
582.35	11.365
582.69	11.550
583.02	11.557
583.36	11.663
583.70	11.916
584.03	11.565
584.37	12.140
584.70	11.868
585.04	11.580
585.37	11.867
585.71	11.676
586.04	11.624
586.38	11.523
586.72	11.994
587.05	11.785
587.39	12.021
587.72	11.810
588.06	11.763
588.39	11.905
588.73	11.996
589.06	11.774
589.40	11.683
589.73	12.267
590.07	12.047
590.40	11.687
590.73	11.862
591.07	11.620
591.40	11.843
591.74	12.443
592.07	12.338
592.41	11.837
592.74	11.111
593.08	11.561
593.41	11.598
593.75	11.220
594.08	11.157
594.41	11.790
594.75	11.183
595.08	11.691
595.42	11.557
595.75	11.791
596.09	11.454
596.42	11.658
596.75	11.856
597.09	12.255
597.42	11.924
597.75	11.315
598.09	11.906
598.42	12.139
598.76	11.883
599.09	11.699
599.42	11.520
599.76	11.211
600.09	11.878
600.42	11.676
600.76	11.367
601.09	11.069
601.42	11.007
601.76	11.314
602.09	12.087
602.42	11.752
602.76	11.375
603.09	11.462
603.42	12.249
603.76	10.927
604.09	11.341
604.42	11.971
604.76	11.883
605.09	12.066
605.42	11.648
605.75	11.252
606.09	10.828
606.42	11.551
606.75	11.688
607.09	11.824
607.42	11.165
607.75	11.368
608.08	11.680
608.42	12.106
608.75	11.518
609.08	11.560
609.41	12.335
609.75	11.492
610.08	12.032
610.41	11.498
610.74	10.922
611.07	11.576
611.41	11.780
611.74	11.514
612.07	10.867
612.40	11.871
612.73	11.525
613.07	11.249
613.40	12.254
613.73	11.528
614.06	11.352
614.39	11.055
614.72	11.877
615.06	11.341
615.39	11.081
615.72	11.625
616.05	11.508
616.38	11.168
616.71	10.887
617.05	12.230
617.38	11.816
617.71	11.195
618.04	11.810
618.37	12.421
618.70	11.947
619.03	12.986
619.36	10.854
619.69	11.069
620.03	13.002
620.36	12.518
620.69	11.991
621.02	11.850
621.35	11.535
621.68	12.755
622.01	12.917
622.34	12.291
622.67	11.830
623.00	12.021
623.33	11.509
623.66	11.369
623.99	11.422
624.32	12.548
624.65	10.677
624.99	11.813
625.32	11.145
625.65	13.119
625.98	12.571
626.31	11.139
626.64	13.345
626.97	12.304
627.30	12.434
627.63	12.478
627.96	11.321
628.29	11.656
628.62	13.668
628.95	12.024
629.28	12.903
629.61	12.263
629.94	13.978
630.26	12.549
630.59	13.007
630.92	12.615
631.25	11.897
631.58	12.885
631.91	12.171
632.24	11.583
632.57	11.932
632.90	12.456
633.23	12.706
633.56	11.713
633.89	12.207
634.22	13.580
634.55	10.801
634.88	12.644
635.20	11.795
635.53	12.267
635.86	12.354
636.19	13.972
636.52	13.138
636.85	10.670
637.18	11.698
637.51	11.572
637.83	12.746
638.16	14.461
638.49	10.627
638.82	15.395
639.15	13.297
639.48	11.692
639.81	12.134
640.13	11.688
640.46	13.411
640.79	12.518
641.12	13.589
641.45	12.613
641.77	13.926
642.10	12.164
642.43	10.932
642.76	13.531
643.09	12.601
643.41	11.165
643.74	12.026
644.07	12.644
644.40	11.824
644.73	14.186
645.05	14.262
645.38	12.169
645.71	11.525
646.04	13.106
646.36	11.879
646.69	15.108
647.02	13.043
647.35	13.246
647.67	12.431
648.00	12.500
648.33	13.823
648.66	13.559
648.98	12.228
649.31	9.256
649.64	11.146
649.96	12.156
650.29	13.458
650.62	12.479
650.94	13.333
651.27	11.546
651.60	11.892
651.92	12.762
652.25	11.190
652.58	12.000
652.90	12.693
653.23	10.420
653.56	12.183
653.88	11.512
654.21	10.508
654.54	10.866
654.86	13.413
655.19	11.550
655.52	12.616
655.84	10.531
656.17	11.283
656.49	15.186
656.82	16.201
657.15	12.601
657.47	9.624
657.80	7.081
658.13	7.076
658.45	10.822
658.78	11.194
659.10	11.392
659.43	11.537
659.75	11.643
660.08	11.448
660.41	11.645
660.73	12.293
661.06	13.518
661.38	11.546
661.71	10.883
662.03	12.876
662.36	11.429
662.68	11.062
663.01	12.664
663.33	8.585
663.66	8.605
663.98	9.302
664.31	12.154
664.63	10.829
664.96	8.696
665.28	8.609
665.61	12.771
665.93	12.826
666.26	14.751
666.58	12.304
666.91	9.647
667.23	13.915
667.56	12.559
667.88	11.031
668.21	15.513
668.53	14.421
668.86	11.557
669.18	12.264
669.50	10.169
669.83	9.767
670.15	12.821
670.48	11.005
670.80	12.212
671.13	12.081
671.45	10.502
671.77	16.309
672.10	13.267
672.42	11.423
672.75	11.545
673.07	13.059
673.39	14.862
673.72	9.467
674.04	11.875
674.37	12.924
674.69	10.707
675.01	13.778
675.34	10.586
675.66	14.583
675.98	11.530
676.31	10.550
676.63	12.589
676.95	12.273
677.28	13.176
677.60	12.048
677.92	12.156
678.25	14.004
678.57	11.905
678.89	11.345
679.22	12.752
679.54	10.040
679.86	8.151
680.18	13.204
680.51	12.311
680.83	11.332
681.15	14.000
681.48	13.115
681.80	13.017
682.12	10.282
682.44	10.879
682.77	14.570
683.09	10.526
683.41	12.500
683.73	13.134
684.06	13.053
684.38	9.677
684.70	11.765
685.02	9.959
685.34	11.660
685.67	10.882
685.99	11.212
686.31	10.619
686.63	11.688
686.96	10.076
687.28	9.495
687.60	10.837
687.92	14.747
688.24	10.685
688.56	13.100
688.89	12.277
689.21	11.333
689.53	11.369
689.85	9.535
690.17	15.625
690.49	15.130
690.82	12.136
691.14	9.762
691.46	13.318
691.78	11.261
692.10	10.538
692.42	10.823
692.74	13.675
693.06	11.036
693.39	7.466
693.71	10.633
694.03	8.545
694.35	12.383
694.67	12.879
694.99	7.311
695.31	11.749
695.63	11.250
695.95	11.869
696.27	11.399
696.59	14.444
696.91	9.244
697.23	11.311
697.56	9.158
697.88	13.763
698.20	10.706
698.52	11.294
698.84	10.766
699.16	9.000
699.48	12.531
699.80	12.407
700.12	12.399
700.44	10.364
700.76	9.884
701.08	10.606
701.40	12.048
701.72	13.580
702.04	9.901
702.36	10.702
702.68	13.514
703.00	13.636
703.32	11.144
703.64	7.062
703.96	9.565
704.28	9.202
704.60	12.698
704.91	8.833
705.23	8.306
705.55	12.367
705.87	11.191
706.19	11.111
706.51	15.120
706.83	12.862
707.15	8.411
707.47	14.846
707.79	10.156
708.11	11.750
708.43	11.750
708.74	13.178
709.06	14.366
709.38	11.009
709.70	14.793
710.02	13.376
710.34	13.003
710.66	10.256
710.98	7.616
711.29	9.836
711.61	10.847
711.93	14.984
712.25	15.464
712.57	8.791
712.89	7.463
713.20	13.495
713.52	11.150
713.84	15.358
714.16	9.966
714.48	8.710
714.80	9.615
715.11	10.030
715.43	12.226
715.75	11.000
716.07	9.302
716.39	10.067
716.70	6.642
717.02	12.214
717.34	13.765
717.66	10.619
717.97	8.696
718.29	10.460
718.61	9.055
718.93	9.690
719.24	9.506
719.56	10.442
719.88	9.966
720.20	6.818
720.51	5.364
720.83	10.039
721.15	5.042
721.46	11.290
721.78	6.719
722.10	8.922
722.42	9.544
722.73	7.347
723.05	13.469
723.37	13.136
723.68	14.414
724.00	11.111
724.32	8.000
724.63	9.091
724.95	7.860
725.27	12.903
725.58	10.593
725.90	3.968
726.22	10.811
726.53	14.576
726.85	12.734
727.16	11.698
727.48	1.215
727.80	9.717
728.11	9.746
728.43	9.412
728.74	4.839
729.06	9.600
729.38	18.421
729.69	6.773
730.01	4.615
730.32	11.567
730.64	14.134
730.96	10.943
731.27	9.333
731.59	11.186
731.90	10.828
732.22	15.457
732.53	11.296
732.85	10.638
733.16	17.845
733.48	7.914
733.80	8.696
734.11	11.525
734.43	9.278
734.74	8.485
735.06	8.795
735.37	16.012
735.69	10.774
736.00	8.711
736.32	8.054
736.63	8.803
736.95	11.945
737.26	8.897
737.58	12.081
737.89	11.722
738.21	10.902
738.52	6.584
738.83	7.860
739.15	6.114
739.46	14.567
739.78	7.692
740.09	11.438
740.41	9.783
740.72	10.630
741.04	10.121
741.35	4.255
741.66	7.109
741.98	13.776
742.29	9.901
742.61	12.565
742.92	4.265
743.23	5.556
743.55	6.787
743.86	8.612
744.18	9.091
744.49	7.447
744.80	11.413
745.12	10.695
745.43	2.927
745.74	8.854
746.06	9.268
746.37	4.712
746.68	9.479
747.00	4.787
747.31	13.433
747.62	7.282
747.94	3.828
748.25	6.931
748.56	5.464
748.88	7.330
749.19	8.511
749.50	9.852
749.82	7.075
750.13	4.128
750.44	13.910
750.75	10.821
751.07	13.139
751.38	6.513
751.69	5.098
752.01	12.403
752.32	9.960
752.63	8.300
752.94	8.190
753.26	14.644
753.57	11.765
753.88	7.080
754.19	6.250
754.51	9.091
754.82	5.263
755.13	14.167
755.44	10.484
755.75	8.594
756.07	7.393
756.38	6.038
756.69	9.962
757.00	10.667
757.31	13.725
757.63	8.841
757.94	11.667
758.25	8.493
758.56	10.106
758.87	10.765
759.18	11.526
759.50	8.364
759.81	11.371
760.12	8.387
760.43	10.606
760.74	9.259
761.05	8.923
761.36	10.795
761.67	11.818
761.99	10.204
762.30	12.000
762.61	12.648
762.92	10.407
763.23	4.955
763.54	4.673
763.85	10.169
764.16	10.373
764.47	9.274
764.78	12.088
765.10	13.468
765.41	9.779
765.72	8.889
766.03	5.263
766.34	7.299
766.65	15.936
766.96	12.626
767.27	13.298
767.58	4.023
767.89	7.801
768.20	9.091
768.51	11.538
768.82	7.389
769.13	5.069
769.44	9.013
769.75	0.457
770.06	12.500
770.37	9.615
770.68	8.122
770.99	4.977
771.30	9.314
771.61	10.407
771.92	9.052
772.23	10.345
772.54	10.753
772.85	3.704
773.16	5.618
773.47	11.765
773.78	7.190
774.09	8.982
774.39	3.333
774.70	8.917
775.01	15.862
775.32	5.000
775.63	-1.653
775.94	16.031
776.25	11.811
776.56	5.000
776.87	-2.885
777.18	-0.855
777.48	11.207
777.79	6.957
778.10	-5.714
778.41	5.405
778.72	13.492
779.03	12.782
779.34	3.546
779.65	6.849
779.95	4.110
780.26	13.103
780.57	0.813
780.88	7.874
781.19	0.862
781.50	12.403
781.80	11.834
782.11	0.000
782.42	10.000
782.73	10.072
783.04	10.370
783.34	9.722
783.65	-9.402
783.96	0.000
784.27	12.414
784.57	5.691
784.88	10.938
785.19	12.000
785.50	6.000
785.81	10.345
786.11	6.897
786.42	6.796
786.73	12.727
787.04	0.000
787.34	4.464
787.65	4.762
787.96	9.735
788.26	4.545
788.57	5.983
788.88	0.000
789.19	7.937
789.49	6.087
789.80	7.143
790.11	13.131
790.41	3.636
790.72	10.870
791.03	2.273
791.33	20.000
791.64	1.250
791.95	4.651
792.25	6.383
792.56	10.112
792.87	12.329
793.17	2.899
793.48	-8.000
793.79	1.250
794.09	20.000
794.40	11.321
794.70	0.000
795.01	11.382
795.32	2.564
795.62	9.524
795.93	5.882
796.23	4.717
796.54	8.333
796.85	-5.882
797.15	2.817
797.46	-6.944
797.76	18.182
798.07	9.302
798.37	0.000
798.68	-12.121
798.99	13.580
799.29	5.714
799.60	11.594
799.90	6.667
800.21	11.475
800.51	4.615
800.82	-3.390
801.12	4.348
801.43	3.279
801.73	1.587
802.04	-10.000
802.34	-7.463
802.65	0.000
802.95	-7.143
803.26	-23.077
803.56	5.882
803.87	-21.739
804.17	8.000
804.48	11.111
804.78	-7.407
805.09	-13.043
805.39	2.222
805.70	11.111
806.00	-19.298
806.30	12.676
806.61	7.143
806.91	-6.944
807.22	11.842
807.52	-1.333
807.83	-7.273
808.13	6.944
808.43	-1.471
808.74	-4.478
809.04	-1.695
809.35	-13.462
809.65	15.625
809.95	-27.027
810.26	0.000
810.56	12.329
810.86	-23.810
811.17	0.000
811.47	12.245
811.77	-31.579
812.08	4.545
812.38	-9.434
812.69	-27.500
812.99	27.273
813.29	-5.263
813.59	-40.000
813.90	20.455
814.20	-17.949
814.50	7.692
814.81	3.774
815.11	-27.660
815.41	15.254
815.72	-11.905
816.02	13.725
816.32	-6.250
816.62	4.878
816.93	-13.514
817.23	-14.286
817.53	29.167
817.84	4.348
818.14	-5.769
818.44	-2.632
818.74	4.348
819.04	-40.000
819.35	-5.405
819.65	-14.706
819.95	-33.333
820.25	2.381
820.56	-12.500
820.86	-31.034
821.16	10.000
821.46	10.638
821.76	7.500
822.07	-11.628
822.37	-35.135
822.67	-28.125
822.97	-7.143
823.27	-57.143
823.57	-4.000
823.88	-29.630
824.18	-25.000
824.48	-17.647
824.78	-38.710
825.08	-56.522
825.38	-12.121
825.69	-12.500
825.99	-2.632
826.29	11.111
826.59	-73.333
826.89	-47.619
827.19	23.913
827.49	-20.000
827.79	-2.857
828.09	-7.143
828.39	-6.061
828.70	40.541
829.00	-21.429
829.30	-42.857
829.60	-3.333
829.90	-6.250
830.20	2.632
830.50	-3.704
830.80	-52.174
831.10	-31.818
831.40	6.061
831.70	6.452
832.00	-19.048
832.30	-71.429
832.60	-116.667
832.90	10.345
833.20	-70.000
833.50	-6.061
833.80	-25.926
834.10	-11.538
834.40	25.000
834.70	-100.000
835.00	-5.263
835.30	0.000
835.60	0.000
835.90	12.903
836.20	-27.273
836.50	35.714
836.80	-3.846
837.10	-7.143
837.40	-366.667
837.70	-36.364
838.00	-109.091
838.30	-30.435
838.60	-23.077
838.90	36.364
839.19	0.000
839.49	3.333
839.79	-84.615
840.09	-141.667
840.39	14.286
840.69	0.000
840.99	-34.615
841.29	-42.105
841.59	-140.000
841.88	9.091
842.18	-90.000
842.48	-43.750
842.78	-66.667
843.08	-22.222
843.38	-50.000
843.68	8.696
843.97	40.000
844.27	-26.667
844.57	15.000
844.87	-50.000
845.17	-9.524
845.47	0.000
845.76	-100.000
846.06	5.882
846.36	-170.000
846.66	-35.714
846.96	13.333
847.25	-212.500
847.55	0.000
847.85	-162.500
848.15	-50.000
848.44	-533.333
848.74	5.000
849.04	14.815
849.34	-45.455
849.63	-183.333
849.93	-520.000
850.23	-22.222
850.53	-30.000
850.82	-15.385
851.12	-211.111
851.42	-46.667
851.71	-42.308
852.01	-35.714
852.31	-150.000
852.61	-18.182
852.90	-30.000
853.20	-63.158
853.50	-8.333
853.79	0.000
854.09	8.333
854.39	5.263
854.68	-29.167
854.98	19.355
855.28	-11.538
855.57	-10.000
855.87	11.111
856.17	-7.407
856.46	-28.571
856.76	-66.667
857.05	22.222
857.35	20.000
857.65	-55.556
857.94	-23.077
858.24	48.276
858.53	-33.333
858.83	40.741
859.13	-13.636
859.42	-21.739
859.72	-175.000
860.01	-233.333
860.31	4.000
860.60	-19.048
860.90	-366.667
861.20	-73.333
861.49	-550.000
861.79	-60.000
862.08	-35.000
862.38	40.000
862.67	-240.000
862.97	-83.333
863.26	-16.667
863.56	5.556
863.85	-566.667
864.15	0.000
864.44	-120.000
864.74	21.429
865.03	375.000
865.33	-240.000
865.62	-133.333
865.92	-108.333
866.21	-283.333
866.51	-12.500
866.80	-90.909
867.10	-600.000
867.39	-8.333
867.69	0.000
867.98	46.154
868.27	-533.333
868.57	-113.333
868.86	11.111
869.16	-92.308
869.45	46.667
869.75	-1500.000
870.04	0.000
870.33	-157.143
870.63	-14.286
870.92	600.000
871.22	-180.000
871.51	-1100.000
871.80	-11.111
872.10	700.000
>>>>>End Processed Spectral Data<<<<<
