SpectraSuite Data File
++++++++++++++++++++++++++++++++++++
Date: Fri May 15 20:55:12 PDT 2015
User: schluterlab
Dark Spectrum Present: Yes
Reference Spectrum Present: Yes
Number of Sampled Component Spectra: 1
Spectrometers: USB2E3373
Integration Time (usec): 3000 (USB2E3373)
Spectra Averaged: 3 (USB2E3373)
Boxcar Smoothing: 0 (USB2E3373)
Correct for Electrical Dark: No (USB2E3373)
Strobe/Lamp Enabled: No (USB2E3373)
Correct for Detector Non-linearity: No (USB2E3373)
Correct for Stray Light: No (USB2E3373)
Number of Pixels in Processed Spectrum: 2048
>>>>>Begin Processed Spectral Data<<<<<
178.53	0.000
178.91	0.000
179.29	-37.500
179.67	-250.000
180.04	14.286
180.42	-25.000
180.80	0.000
181.18	66.667
181.56	150.000
181.94	300.000
182.31	100.000
182.69	0.000
183.07	-300.000
183.45	20.000
183.83	200.000
184.20	9.091
184.58	66.667
184.96	-75.000
185.34	33.333
185.72	-700.000
186.09	100.000
186.47	-500.000
186.85	-0.000
187.23	88.889
187.61	-0.000
187.98	-300.000
188.36	-11.111
188.74	66.667
189.12	-23.529
189.49	16.667
189.87	0.000
190.25	64.286
190.63	-250.000
191.00	-233.333
191.38	-47.368
191.76	600.000
192.14	100.000
192.51	100.000
192.89	100.000
193.27	-42.857
193.65	150.000
194.02	172.727
194.40	-90.000
194.78	-162.500
195.15	-8.333
195.53	-212.500
195.91	225.000
196.29	-100.000
196.66	30.769
197.04	142.857
197.42	44.444
197.79	-233.333
198.17	-107.692
198.55	700.000
198.92	-433.333
199.30	-400.000
199.68	-280.000
200.05	-166.667
200.43	0.000
200.81	-200.000
201.18	-66.667
201.56	1900.000
201.94	250.000
202.31	-33.333
202.69	-220.000
203.07	225.000
203.44	400.000
203.82	0.000
204.19	-21.429
204.57	-533.333
204.95	112.500
205.32	0.000
205.70	-14.286
206.08	-50.000
206.45	155.556
206.83	14.286
207.20	-14.286
207.58	800.000
207.96	333.333
208.33	-100.000
208.71	100.000
209.08	-50.000
209.46	500.000
209.84	-260.000
210.21	-900.000
210.59	128.571
210.96	-33.333
211.34	-125.000
211.71	73.333
212.09	-57.143
212.46	-1000.000
212.84	0.000
213.22	90.000
213.59	350.000
213.97	0.000
214.34	45.455
214.72	-16.667
215.09	300.000
215.47	-23.077
215.84	-81.818
216.22	-266.667
216.59	-50.000
216.97	200.000
217.34	125.000
217.72	-20.000
218.09	100.000
218.47	50.000
218.84	-1100.000
219.22	-22.222
219.59	-140.000
219.97	166.667
220.34	175.000
220.72	0.000
221.09	-225.000
221.47	50.000
221.84	-550.000
222.22	-300.000
222.59	63.636
222.97	-33.333
223.34	-400.000
223.72	-7.143
224.09	0.000
224.46	10.714
224.84	466.667
225.21	-40.000
225.59	-20.000
225.96	-600.000
226.34	425.000
226.71	-214.286
227.08	-66.667
227.46	75.000
227.83	-650.000
228.21	-22.222
228.58	9.091
228.95	62.500
229.33	60.000
229.70	37.500
230.08	-112.500
230.45	-128.571
230.82	28.571
231.20	-6.667
231.57	0.000
231.95	42.857
232.32	-60.000
232.69	42.857
233.07	100.000
233.44	60.000
233.81	-180.000
234.19	-11.111
234.56	-11.765
234.93	350.000
235.31	100.000
235.68	-220.000
236.05	-61.538
236.43	-45.000
236.80	41.176
237.17	34.375
237.55	-5.000
237.92	7.407
238.29	-11.111
238.67	-16.667
239.04	-2.941
239.41	-56.098
239.79	-13.333
240.16	31.707
240.53	-23.684
240.91	-2.174
241.28	1.587
241.65	14.286
242.02	10.959
242.40	13.333
242.77	8.475
243.14	-1.515
243.51	12.500
243.89	13.793
244.26	1.149
244.63	-5.952
245.00	7.216
245.38	8.247
245.75	3.371
246.12	-2.586
246.49	7.438
246.87	11.538
247.24	-0.840
247.61	0.877
247.98	1.626
248.36	9.375
248.73	3.947
249.10	3.896
249.47	5.063
249.84	1.307
250.22	10.000
250.59	-1.307
250.96	9.390
251.33	3.488
251.70	6.471
252.08	12.690
252.45	4.950
252.82	3.518
253.19	5.530
253.56	-0.467
253.94	7.658
254.31	6.522
254.68	5.702
255.05	8.661
255.42	7.424
255.79	8.880
256.16	9.728
256.54	9.328
256.91	9.886
257.28	3.346
257.65	6.367
258.02	8.156
258.39	7.744
258.76	9.158
259.14	9.302
259.51	9.709
259.88	7.560
260.25	7.516
260.62	7.292
260.99	3.390
261.36	5.479
261.73	4.747
262.10	9.119
262.47	5.828
262.85	7.524
263.22	5.846
263.59	7.477
263.96	9.317
264.33	6.364
264.70	4.762
265.07	4.762
265.44	8.499
265.81	6.215
266.18	9.563
266.55	8.740
266.92	4.922
267.29	7.311
267.66	5.627
268.03	6.806
268.40	5.744
268.77	7.754
269.14	7.914
269.51	10.797
269.88	4.239
270.25	7.143
270.62	7.317
270.99	2.046
271.36	5.623
271.73	8.216
272.10	4.380
272.47	6.619
272.84	5.693
273.21	7.657
273.58	6.988
273.95	5.950
274.32	7.621
274.69	5.430
275.06	7.143
275.43	6.122
275.80	8.389
276.17	7.126
276.54	7.709
276.91	6.579
277.28	5.022
277.65	7.851
278.02	5.745
278.39	6.783
278.76	7.547
279.13	3.527
279.50	8.193
279.87	7.343
280.23	7.312
280.60	7.602
280.97	9.899
281.34	5.577
281.71	7.187
282.08	3.681
282.45	5.675
282.82	5.985
283.19	6.576
283.56	5.780
283.92	4.364
284.29	8.269
284.66	4.845
285.03	8.055
285.40	4.348
285.77	7.733
286.14	5.957
286.51	7.380
286.87	6.216
287.24	6.446
287.61	4.762
287.98	7.895
288.35	5.893
288.72	7.005
289.08	5.035
289.45	7.909
289.82	7.867
290.19	4.949
290.56	5.660
290.93	4.714
291.29	5.239
291.66	7.087
292.03	6.061
292.40	6.290
292.77	6.699
293.13	3.896
293.50	4.704
293.87	7.634
294.24	6.028
294.60	7.004
294.97	5.208
295.34	5.675
295.71	6.110
296.08	7.623
296.44	5.121
296.81	6.806
297.18	8.261
297.55	6.640
297.91	7.534
298.28	8.839
298.65	6.513
299.02	6.065
299.38	4.925
299.75	8.690
300.12	6.675
300.48	6.719
300.85	6.971
301.22	6.753
301.59	6.184
301.95	8.354
302.32	8.171
302.69	6.965
303.05	7.178
303.42	8.095
303.79	7.827
304.15	8.602
304.52	7.372
304.89	7.836
305.25	7.990
305.62	7.235
305.99	8.187
306.35	8.786
306.72	7.762
307.09	9.920
307.45	8.266
307.82	9.028
308.19	10.221
308.55	8.942
308.92	9.913
309.29	9.609
309.65	9.150
310.02	11.111
310.38	10.538
310.75	10.820
311.12	11.841
311.48	10.074
311.85	10.576
312.22	10.021
312.58	10.828
312.95	9.925
313.31	10.663
313.68	11.099
314.05	11.122
314.41	12.371
314.78	12.887
315.14	12.436
315.51	13.354
315.87	13.627
316.24	13.953
316.61	15.551
316.97	15.079
317.34	13.867
317.70	14.914
318.07	15.288
318.43	14.412
318.80	14.773
319.16	15.918
319.53	15.480
319.89	15.846
320.26	16.194
320.62	17.051
320.99	15.866
321.35	16.650
321.72	17.445
322.08	19.335
322.45	18.782
322.81	18.861
323.18	18.253
323.54	19.595
323.91	20.253
324.27	21.094
324.64	21.067
325.00	21.350
325.37	23.875
325.73	22.121
326.10	23.887
326.46	24.395
326.83	23.185
327.19	25.632
327.56	25.456
327.92	25.528
328.29	26.250
328.65	27.170
329.01	27.849
329.38	27.558
329.74	28.140
330.11	28.267
330.47	28.386
330.84	28.269
331.20	31.464
331.56	29.722
331.93	30.685
332.29	31.347
332.66	29.955
333.02	29.647
333.38	29.514
333.75	32.418
334.11	29.991
334.48	32.094
334.84	30.586
335.20	31.382
335.57	30.553
335.93	31.617
336.29	33.057
336.66	30.972
337.02	31.599
337.38	31.574
337.75	32.364
338.11	33.814
338.47	33.394
338.84	32.163
339.20	32.541
339.56	32.110
339.93	33.662
340.29	33.670
340.65	33.423
341.02	32.713
341.38	31.947
341.74	31.714
342.11	31.196
342.47	33.541
342.83	34.343
343.20	32.317
343.56	31.739
343.92	33.658
344.28	33.732
344.65	32.729
345.01	32.152
345.37	33.221
345.73	32.218
346.10	32.528
346.46	33.221
346.82	32.570
347.19	32.086
347.55	32.749
347.91	32.767
348.27	32.660
348.63	33.135
349.00	33.224
349.36	33.001
349.72	34.411
350.08	32.541
350.45	32.961
350.81	33.140
351.17	33.876
351.53	34.041
351.89	33.278
352.26	32.720
352.62	33.790
352.98	34.618
353.34	33.092
353.70	34.709
354.07	32.258
354.43	33.387
354.79	33.609
355.15	34.365
355.51	34.415
355.87	33.900
356.24	33.034
356.60	34.034
356.96	33.810
357.32	33.626
357.68	33.073
358.04	34.330
358.40	33.762
358.77	35.088
359.13	35.148
359.49	33.359
359.85	35.335
360.21	35.167
360.57	34.736
360.93	34.039
361.29	33.082
361.66	34.404
362.02	34.394
362.38	35.491
362.74	33.989
363.10	35.666
363.46	34.915
363.82	36.213
364.18	34.760
364.54	34.191
364.90	34.695
365.26	34.571
365.62	35.328
365.98	35.850
366.35	36.562
366.71	35.772
367.07	35.922
367.43	34.867
367.79	34.770
368.15	34.171
368.51	35.251
368.87	34.673
369.23	35.523
369.59	36.152
369.95	35.997
370.31	36.199
370.67	35.448
371.03	35.176
371.39	34.865
371.75	35.531
372.11	35.663
372.47	35.355
372.83	35.344
373.19	35.877
373.55	35.812
373.91	35.421
374.27	35.365
374.63	36.540
374.99	36.454
375.35	36.142
375.71	35.455
376.07	36.236
376.42	35.714
376.78	36.443
377.14	35.680
377.50	35.989
377.86	36.680
378.22	36.056
378.58	34.936
378.94	36.169
379.30	35.496
379.66	36.614
380.02	35.929
380.38	36.275
380.74	35.548
381.09	36.564
381.45	37.003
381.81	36.644
382.17	36.421
382.53	35.603
382.89	37.163
383.25	36.590
383.61	35.976
383.97	36.000
384.32	36.148
384.68	36.533
385.04	37.500
385.40	36.279
385.76	38.302
386.12	37.387
386.48	37.548
386.83	35.828
387.19	36.630
387.55	36.826
387.91	36.553
388.27	36.813
388.62	36.816
388.98	36.280
389.34	36.602
389.70	37.601
390.06	34.991
390.42	36.723
390.77	37.606
391.13	36.633
391.49	36.805
391.85	37.687
392.20	36.284
392.56	37.254
392.92	35.584
393.28	36.498
393.64	36.276
393.99	37.116
394.35	37.255
394.71	36.909
395.07	35.449
395.42	35.337
395.78	35.375
396.14	36.381
396.50	36.018
396.85	36.768
397.21	35.589
397.57	36.301
397.92	35.291
398.28	36.207
398.64	35.301
399.00	36.343
399.35	35.440
399.71	35.037
400.07	35.369
400.42	34.823
400.78	35.946
401.14	35.935
401.49	36.272
401.85	33.821
402.21	34.759
402.57	35.688
402.92	35.006
403.28	35.714
403.63	34.931
403.99	34.885
404.35	34.853
404.70	33.512
405.06	34.900
405.42	33.810
405.77	34.340
406.13	34.517
406.49	34.103
406.84	34.963
407.20	34.798
407.55	33.806
407.91	34.492
408.27	34.098
408.62	33.231
408.98	34.442
409.34	33.395
409.69	32.946
410.05	34.421
410.40	34.012
410.76	34.560
411.11	34.000
411.47	35.043
411.83	34.149
412.18	34.363
412.54	33.645
412.89	32.020
413.25	33.574
413.60	33.478
413.96	32.822
414.31	33.049
414.67	32.842
415.03	33.755
415.38	33.225
415.74	33.746
416.09	34.095
416.45	34.234
416.80	33.510
417.16	34.323
417.51	33.045
417.87	33.051
418.22	34.456
418.58	33.244
418.93	34.169
419.29	32.074
419.64	32.664
420.00	33.816
420.35	32.776
420.71	33.718
421.06	32.965
421.42	34.555
421.77	33.757
422.12	33.598
422.48	32.377
422.83	33.933
423.19	32.619
423.54	33.098
423.90	33.687
424.25	33.582
424.61	35.129
424.96	33.449
425.31	34.778
425.67	34.038
426.02	35.159
426.38	34.690
426.73	35.714
427.09	35.696
427.44	35.882
427.79	34.885
428.15	34.830
428.50	34.525
428.85	33.538
429.21	33.843
429.56	34.340
429.92	33.796
430.27	34.085
430.62	33.717
430.98	34.448
431.33	35.016
431.68	34.328
432.04	34.433
432.39	34.569
432.74	34.516
433.10	36.839
433.45	34.946
433.80	34.475
434.16	34.737
434.51	35.645
434.86	35.714
435.22	35.782
435.57	36.245
435.92	36.108
436.28	35.778
436.63	36.452
436.98	35.574
437.34	35.995
437.69	36.792
438.04	36.296
438.39	36.042
438.75	36.916
439.10	37.974
439.45	37.858
439.81	37.370
440.16	37.292
440.51	38.507
440.86	39.879
441.22	37.500
441.57	38.962
441.92	39.297
442.27	38.747
442.63	39.400
442.98	39.058
443.33	37.952
443.68	39.204
444.03	40.338
444.39	39.990
444.74	40.301
445.09	39.922
445.44	41.140
445.79	40.691
446.15	40.253
446.50	40.322
446.85	41.339
447.20	40.459
447.55	41.741
447.91	41.342
448.26	42.117
448.61	42.026
448.96	41.824
449.31	40.751
449.66	41.173
450.02	42.955
450.37	43.094
450.72	42.669
451.07	43.291
451.42	42.759
451.77	42.917
452.12	41.806
452.47	42.305
452.83	43.110
453.18	43.960
453.53	43.679
453.88	43.959
454.23	44.561
454.58	43.892
454.93	43.750
455.28	42.730
455.63	43.831
455.98	44.558
456.34	44.253
456.69	44.790
457.04	44.991
457.39	44.107
457.74	44.498
458.09	42.849
458.44	44.705
458.79	44.594
459.14	44.050
459.49	43.881
459.84	44.839
460.19	43.932
460.54	44.560
460.89	44.205
461.24	43.727
461.59	45.190
461.94	44.654
462.29	45.054
462.64	45.316
462.99	44.956
463.34	45.480
463.69	43.308
464.04	44.370
464.39	44.815
464.74	44.724
465.09	44.729
465.44	45.528
465.79	43.878
466.14	45.040
466.49	43.473
466.84	43.486
467.19	45.181
467.54	44.125
467.89	45.736
468.24	44.830
468.59	45.270
468.94	44.698
469.29	45.443
469.64	44.087
469.99	46.671
470.34	44.983
470.68	45.861
471.03	46.072
471.38	45.435
471.73	46.709
472.08	45.047
472.43	44.899
472.78	45.305
473.13	44.694
473.48	46.384
473.83	45.330
474.17	46.244
474.52	44.990
474.87	46.788
475.22	45.516
475.57	45.624
475.92	45.310
476.27	45.751
476.61	45.602
476.96	44.228
477.31	44.943
477.66	45.843
478.01	45.817
478.36	44.662
478.70	46.003
479.05	45.604
479.40	46.211
479.75	44.317
480.10	45.776
480.45	45.450
480.79	45.871
481.14	46.311
481.49	44.631
481.84	45.415
482.19	44.808
482.53	45.468
482.88	44.821
483.23	45.154
483.58	44.906
483.92	44.676
484.27	45.624
484.62	44.644
484.97	44.652
485.31	43.244
485.66	41.376
486.01	41.564
486.36	40.811
486.70	41.441
487.05	42.864
487.40	42.270
487.75	42.789
488.09	42.583
488.44	43.501
488.79	44.229
489.13	43.830
489.48	44.036
489.83	45.112
490.17	43.910
490.52	45.404
490.87	45.118
491.22	45.224
491.56	45.636
491.91	45.554
492.26	45.503
492.60	45.154
492.95	46.335
493.30	44.944
493.64	45.678
493.99	44.976
494.34	44.709
494.68	45.429
495.03	45.304
495.37	45.780
495.72	45.381
496.07	45.220
496.41	45.047
496.76	44.265
497.11	43.922
497.45	46.301
497.80	45.106
498.14	45.057
498.49	45.404
498.84	46.008
499.18	45.833
499.53	45.238
499.87	44.942
500.22	45.203
500.56	45.386
500.91	44.880
501.26	45.428
501.60	45.303
501.95	44.833
502.29	45.133
502.64	45.174
502.98	44.746
503.33	43.228
503.67	44.578
504.02	45.846
504.36	45.077
504.71	45.202
505.06	45.143
505.40	45.127
505.75	46.082
506.09	44.754
506.44	46.047
506.78	46.071
507.13	45.863
507.47	44.804
507.82	45.032
508.16	45.219
508.51	45.226
508.85	45.892
509.19	45.716
509.54	45.308
509.88	45.200
510.23	45.347
510.57	45.270
510.92	44.243
511.26	45.827
511.61	45.655
511.95	45.425
512.30	45.455
512.64	45.019
512.98	45.312
513.33	46.391
513.67	45.026
514.02	46.167
514.36	47.086
514.70	46.853
515.05	46.475
515.39	48.052
515.74	46.886
516.08	46.862
516.42	46.466
516.77	45.758
517.11	47.122
517.46	46.140
517.80	46.841
518.14	46.295
518.49	46.875
518.83	46.719
519.17	45.300
519.52	46.063
519.86	45.438
520.20	46.173
520.55	46.154
520.89	46.989
521.23	46.548
521.58	46.814
521.92	47.051
522.26	47.365
522.61	47.468
522.95	47.351
523.29	47.268
523.64	47.967
523.98	47.634
524.32	46.070
524.66	47.119
525.01	47.338
525.35	46.922
525.69	46.599
526.04	46.032
526.38	47.730
526.72	46.566
527.06	46.044
527.41	46.504
527.75	46.180
528.09	46.246
528.43	46.658
528.78	46.667
529.12	45.097
529.46	46.524
529.80	44.839
530.15	46.337
530.49	46.936
530.83	46.854
531.17	44.459
531.51	45.896
531.86	45.207
532.20	44.468
532.54	45.677
532.88	46.064
533.22	45.094
533.57	44.102
533.91	44.648
534.25	45.378
534.59	43.169
534.93	43.612
535.27	44.162
535.62	44.783
535.96	44.227
536.30	44.591
536.64	45.348
536.98	44.599
537.32	46.159
537.66	46.003
538.01	46.713
538.35	44.938
538.69	44.674
539.03	43.609
539.37	44.684
539.71	44.785
540.05	43.177
540.39	44.806
540.73	44.979
541.07	44.544
541.42	44.422
541.76	44.942
542.10	44.184
542.44	44.545
542.78	42.946
543.12	43.544
543.46	43.533
543.80	43.442
544.14	42.657
544.48	42.905
544.82	43.062
545.16	43.511
545.50	43.191
545.84	43.980
546.18	44.539
546.52	44.340
546.86	43.710
547.20	44.134
547.54	42.191
547.88	42.799
548.22	41.815
548.56	43.140
548.90	42.722
549.24	42.562
549.58	42.595
549.92	42.530
550.26	42.637
550.60	43.123
550.94	43.615
551.28	43.122
551.62	43.462
551.96	44.436
552.30	42.032
552.64	42.243
552.98	42.897
553.32	41.869
553.66	43.179
554.00	44.161
554.34	43.796
554.68	41.445
555.02	42.857
555.36	43.156
555.69	41.978
556.03	43.826
556.37	41.779
556.71	43.177
557.05	43.624
557.39	42.156
557.73	42.579
558.07	43.439
558.41	43.185
558.75	43.180
559.08	42.947
559.42	44.206
559.76	44.516
560.10	40.902
560.44	42.517
560.78	42.028
561.12	42.243
561.45	42.164
561.79	41.176
562.13	43.222
562.47	40.863
562.81	42.219
563.15	41.678
563.48	42.645
563.82	42.690
564.16	40.251
564.50	40.608
564.84	41.499
565.17	41.918
565.51	42.418
565.85	42.867
566.19	41.844
566.52	42.158
566.86	40.681
567.20	40.473
567.54	40.328
567.88	40.539
568.21	40.441
568.55	38.804
568.89	38.552
569.23	38.950
569.56	38.179
569.90	37.109
570.24	36.211
570.57	36.727
570.91	37.051
571.25	34.857
571.59	35.192
571.92	34.489
572.26	34.450
572.60	35.132
572.93	35.080
573.27	34.890
573.61	34.427
573.95	34.462
574.28	34.401
574.62	33.613
574.96	34.031
575.29	32.862
575.63	33.040
575.97	33.613
576.30	34.299
576.64	32.821
576.98	33.179
577.31	33.743
577.65	33.509
577.98	33.199
578.32	33.076
578.66	32.237
578.99	33.224
579.33	32.950
579.67	33.005
580.00	33.595
580.34	33.209
580.67	32.938
581.01	33.598
581.35	33.376
581.68	32.179
582.02	32.134
582.35	32.591
582.69	32.431
583.02	32.707
583.36	33.523
583.70	33.333
584.03	34.529
584.37	34.896
584.70	33.846
585.04	33.135
585.37	33.145
585.71	33.300
586.04	32.980
586.38	33.529
586.72	32.941
587.05	34.489
587.39	33.883
587.72	34.144
588.06	33.712
588.39	33.780
588.73	34.188
589.06	34.671
589.40	34.774
589.73	35.853
590.07	34.781
590.40	35.217
590.73	35.956
591.07	35.369
591.40	36.064
591.74	36.018
592.07	35.761
592.41	36.042
592.74	34.289
593.08	33.496
593.41	33.641
593.75	33.301
594.08	33.196
594.41	34.753
594.75	34.351
595.08	34.809
595.42	34.707
595.75	35.374
596.09	35.457
596.42	35.593
596.75	35.480
597.09	35.900
597.42	35.411
597.75	36.280
598.09	35.491
598.42	34.838
598.76	34.277
599.09	34.335
599.42	33.460
599.76	33.860
600.09	34.389
600.42	33.965
600.76	33.098
601.09	33.740
601.42	33.373
601.76	33.823
602.09	33.210
602.42	35.046
602.76	34.932
603.09	34.884
603.42	35.326
603.76	34.113
604.09	34.751
604.42	34.137
604.76	35.247
605.09	35.009
605.42	34.808
605.75	34.238
606.09	33.503
606.42	33.653
606.75	34.416
607.09	34.418
607.42	33.407
607.75	33.970
608.08	33.288
608.42	34.034
608.75	35.614
609.08	34.828
609.41	35.279
609.75	34.980
610.08	35.147
610.41	34.879
610.74	34.666
611.07	35.556
611.41	35.651
611.74	36.087
612.07	34.208
612.40	35.886
612.73	36.328
613.07	34.477
613.40	35.722
613.73	35.478
614.06	35.782
614.39	35.477
614.72	33.894
615.06	35.196
615.39	34.716
615.72	34.822
616.05	35.587
616.38	34.473
616.71	35.902
617.05	35.886
617.38	36.015
617.71	35.409
618.04	36.000
618.37	36.003
618.70	36.436
619.03	37.639
619.36	35.962
619.69	37.832
620.03	38.422
620.36	37.840
620.69	36.974
621.02	36.621
621.35	38.340
621.68	38.520
622.01	39.083
622.34	38.388
622.67	36.199
623.00	37.366
623.33	37.195
623.66	35.602
623.99	36.687
624.32	37.643
624.65	36.541
624.99	37.171
625.32	36.315
625.65	37.628
625.98	38.437
626.31	38.570
626.64	37.175
626.97	39.529
627.30	38.879
627.63	38.475
627.96	40.341
628.29	38.205
628.62	41.396
628.95	39.980
629.28	40.323
629.61	38.285
629.94	39.785
630.26	40.119
630.59	40.791
630.92	40.000
631.25	39.795
631.58	43.172
631.91	39.912
632.24	41.055
632.57	40.227
632.90	39.858
633.23	41.176
633.56	42.065
633.89	40.444
634.22	41.605
634.55	42.440
634.88	42.273
635.20	43.718
635.53	42.800
635.86	42.523
636.19	42.432
636.52	40.689
636.85	39.702
637.18	41.509
637.51	42.390
637.83	40.473
638.16	42.428
638.49	39.237
638.82	41.842
639.15	43.419
639.48	41.953
639.81	42.817
640.13	42.280
640.46	42.566
640.79	44.183
641.12	41.802
641.45	42.042
641.77	42.963
642.10	45.024
642.43	44.051
642.76	44.389
643.09	42.326
643.41	42.395
643.74	43.328
644.07	44.828
644.40	44.595
644.73	45.534
645.05	43.960
645.38	44.268
645.71	44.681
646.04	45.242
646.36	44.504
646.69	43.885
647.02	47.259
647.35	42.910
647.67	44.790
648.00	48.321
648.33	41.980
648.66	43.559
648.98	40.871
649.31	40.331
649.64	41.444
649.96	40.194
650.29	41.227
650.62	42.222
650.94	44.815
651.27	45.251
651.60	42.523
651.92	43.182
652.25	40.675
652.58	42.667
652.90	43.053
653.23	43.025
653.56	41.624
653.88	42.096
654.21	41.331
654.54	39.728
654.86	41.596
655.19	38.158
655.52	33.514
655.84	26.528
656.17	29.047
656.49	38.907
656.82	40.554
657.15	31.107
657.47	23.473
657.80	17.706
658.13	17.638
658.45	27.273
658.78	27.613
659.10	27.918
659.43	28.969
659.75	29.995
660.08	31.241
660.41	35.240
660.73	36.188
661.06	40.901
661.38	41.487
661.71	39.014
662.03	44.206
662.36	45.275
662.68	41.372
663.01	45.415
663.33	44.548
663.66	41.163
663.98	42.791
664.31	42.004
664.63	42.166
664.96	40.652
665.28	37.748
665.61	44.156
665.93	43.913
666.26	42.082
666.58	40.045
666.91	42.588
667.23	46.226
667.56	47.630
667.88	44.844
668.21	47.017
668.53	47.518
668.86	44.340
669.18	38.915
669.50	41.162
669.83	43.488
670.15	43.357
670.48	45.694
670.80	43.779
671.13	40.940
671.45	39.726
671.77	41.631
672.10	38.614
672.42	38.951
672.75	38.544
673.07	40.608
673.39	39.817
673.72	39.250
674.04	40.000
674.37	36.653
674.69	43.041
675.01	42.667
675.34	40.090
675.66	43.287
675.98	41.020
676.31	43.578
676.63	41.093
676.95	39.091
677.28	43.294
677.60	45.301
677.92	38.991
678.25	42.013
678.57	39.394
678.89	39.706
679.22	40.492
679.54	37.550
679.86	37.972
680.18	39.223
680.51	37.689
680.83	36.183
681.15	38.400
681.48	40.574
681.80	40.702
682.12	36.089
682.44	37.238
682.77	39.294
683.09	40.732
683.41	39.545
683.73	39.862
684.06	40.487
684.38	36.344
684.70	35.512
685.02	35.685
685.34	34.190
685.67	35.835
685.99	36.890
686.31	37.876
686.63	34.137
686.96	34.601
687.28	31.919
687.60	35.361
687.92	37.980
688.24	36.290
688.56	34.716
688.89	39.062
689.21	38.222
689.53	37.355
689.85	36.744
690.17	37.946
690.49	38.061
690.82	34.466
691.14	39.762
691.46	39.486
691.78	37.838
692.10	38.280
692.42	36.364
692.74	34.615
693.06	36.712
693.39	36.652
693.71	35.294
694.03	35.797
694.35	38.084
694.67	38.636
694.99	36.815
695.31	36.815
695.63	37.250
695.95	32.323
696.27	36.269
696.59	39.722
696.91	39.496
697.23	34.961
697.56	36.386
697.88	37.849
698.20	34.624
698.52	35.294
698.84	31.818
699.16	33.250
699.48	35.589
699.80	35.484
700.12	36.658
700.44	36.415
700.76	36.337
701.08	38.182
701.40	37.349
701.72	42.593
702.04	41.254
702.36	41.806
702.68	37.838
703.00	37.879
703.32	33.431
703.64	37.571
703.96	34.493
704.28	38.037
704.60	40.317
704.91	35.962
705.23	37.542
705.55	44.523
705.87	45.487
706.19	43.704
706.51	38.488
706.83	37.621
707.15	33.645
707.47	38.655
707.79	33.073
708.11	34.500
708.43	33.250
708.74	32.558
709.06	36.338
709.38	36.086
709.70	32.544
710.02	39.809
710.34	36.842
710.66	33.654
710.98	34.106
711.29	36.721
711.61	37.966
711.93	35.179
712.25	42.268
712.57	37.363
712.89	38.433
713.20	39.446
713.52	36.585
713.84	35.154
714.16	37.113
714.48	34.194
714.80	38.141
715.11	32.523
715.43	34.483
715.75	33.000
716.07	36.213
716.39	33.893
716.70	37.638
717.02	32.824
717.34	36.842
717.66	38.938
717.97	37.826
718.29	38.912
718.61	37.795
718.93	39.147
719.24	38.783
719.56	36.546
719.88	35.739
720.20	39.773
720.51	34.483
720.83	35.135
721.15	34.874
721.46	35.081
721.78	32.411
722.10	30.483
722.42	31.950
722.73	37.959
723.05	37.143
723.37	37.712
723.68	38.288
724.00	36.752
724.32	36.444
724.63	36.818
724.95	32.751
725.27	39.171
725.58	36.864
725.90	30.952
726.22	35.521
726.53	29.831
726.85	32.210
727.16	37.358
727.48	28.340
727.80	34.818
728.11	33.051
728.43	31.373
728.74	32.258
729.06	32.000
729.38	36.842
729.69	31.076
730.01	32.692
730.32	36.567
730.64	32.509
730.96	29.434
731.27	34.000
731.59	32.542
731.90	32.803
732.22	29.022
732.53	34.219
732.85	30.496
733.16	36.027
733.48	30.576
733.80	29.710
734.11	31.186
734.43	31.959
734.74	31.515
735.06	29.642
735.37	32.931
735.69	30.976
736.00	29.965
736.32	31.544
736.63	31.338
736.95	31.399
737.26	29.893
737.58	31.879
737.89	32.601
738.21	32.707
738.52	32.099
738.83	34.061
739.15	29.258
739.46	29.921
739.78	30.769
740.09	32.026
740.41	33.696
740.72	27.559
741.04	31.984
741.35	29.362
741.66	31.754
741.98	33.673
742.29	38.119
742.61	35.079
742.92	27.014
743.23	25.463
743.55	26.697
743.86	34.450
744.18	30.144
744.49	36.702
744.80	36.413
745.12	41.711
745.43	26.829
745.74	32.812
746.06	36.585
746.37	35.602
746.68	36.493
747.00	30.851
747.31	35.323
747.62	31.553
747.94	28.708
748.25	25.743
748.56	38.798
748.88	30.366
749.19	35.638
749.50	32.020
749.82	25.943
750.13	29.358
750.44	32.331
750.75	29.104
751.07	30.292
751.38	27.586
751.69	30.980
752.01	29.845
752.32	26.295
752.63	30.040
752.94	33.621
753.26	37.238
753.57	34.842
753.88	32.743
754.19	28.333
754.51	28.099
754.82	27.530
755.13	28.333
755.44	27.419
755.75	30.469
756.07	31.907
756.38	28.679
756.69	23.755
757.00	28.667
757.31	32.680
757.63	24.390
757.94	25.000
758.25	24.110
758.56	24.468
758.87	23.796
759.18	22.741
759.50	27.636
759.81	32.107
760.12	27.419
760.43	21.212
760.74	25.309
761.05	24.000
761.36	24.148
761.67	29.394
761.99	28.571
762.30	25.818
762.61	34.783
762.92	30.769
763.23	24.775
763.54	29.907
763.85	30.085
764.16	26.141
764.47	30.242
764.78	24.908
765.10	26.599
765.41	22.397
765.72	26.032
766.03	21.429
766.34	30.292
766.65	35.857
766.96	32.828
767.27	25.000
767.58	33.908
767.89	29.787
768.20	35.227
768.51	26.374
768.82	32.020
769.13	22.581
769.44	24.464
769.75	26.027
770.06	29.310
770.37	29.808
770.68	19.289
770.99	26.244
771.30	27.451
771.61	28.054
771.92	27.155
772.23	23.645
772.54	30.108
772.85	35.185
773.16	40.449
773.47	33.987
773.78	30.065
774.09	31.737
774.39	24.667
774.70	31.847
775.01	36.552
775.32	36.429
775.63	19.835
775.94	29.771
776.25	24.409
776.56	30.000
776.87	26.923
777.18	27.350
777.48	32.759
777.79	33.043
778.10	27.619
778.41	24.324
778.72	33.333
779.03	30.075
779.34	34.043
779.65	31.507
779.95	23.288
780.26	29.655
780.57	21.951
780.88	26.772
781.19	31.897
781.50	23.256
781.80	27.811
782.11	16.352
782.42	23.846
782.73	24.460
783.04	27.407
783.34	20.139
783.65	16.239
783.96	22.951
784.27	33.793
784.57	30.081
784.88	40.625
785.19	33.000
785.50	39.000
785.81	33.621
786.11	27.586
786.42	32.039
786.73	33.636
787.04	20.408
787.34	22.321
787.65	25.714
787.96	23.009
788.26	20.000
788.57	15.385
788.88	39.062
789.19	24.603
789.49	22.609
789.80	34.694
790.11	20.202
790.41	21.818
790.72	22.826
791.03	23.864
791.33	32.500
791.64	23.750
791.95	27.907
792.25	25.532
792.56	37.079
792.87	31.507
793.17	21.739
793.48	14.667
793.79	33.750
794.09	21.250
794.40	31.132
794.70	17.476
795.01	12.195
795.32	23.077
795.62	20.000
795.93	23.529
796.23	20.755
796.54	28.125
796.85	51.471
797.15	19.718
797.46	27.778
797.76	33.333
798.07	26.744
798.37	34.211
798.68	34.848
798.99	22.222
799.29	31.429
799.60	26.087
799.90	46.667
800.21	31.148
800.51	29.231
800.82	28.814
801.12	34.783
801.43	44.262
801.73	46.032
802.04	16.000
802.34	29.851
802.65	23.077
802.95	17.857
803.26	7.692
803.56	7.843
803.87	10.870
804.17	28.000
804.48	30.159
804.78	29.630
805.09	8.696
805.39	22.222
805.70	35.185
806.00	8.772
806.30	38.028
806.61	27.143
806.91	6.944
807.22	39.474
807.52	28.000
807.83	27.273
808.13	22.222
808.43	36.765
808.74	20.896
809.04	3.390
809.35	7.692
809.65	18.750
809.95	10.811
810.26	4.545
810.56	15.068
810.86	19.048
811.17	22.000
811.47	48.980
811.77	7.895
812.08	27.273
812.38	26.415
812.69	0.000
812.99	6.061
813.29	10.526
813.59	22.857
813.90	45.455
814.20	-17.949
814.50	32.692
814.81	16.981
815.11	8.511
815.41	30.508
815.72	30.952
816.02	41.176
816.32	47.917
816.62	26.829
816.93	8.108
817.23	14.286
817.53	54.167
817.84	30.435
818.14	48.077
818.44	2.632
818.74	39.130
819.04	10.000
819.35	40.541
819.65	23.529
819.95	33.333
820.25	30.952
820.56	32.500
820.86	-13.793
821.16	37.500
821.46	19.149
821.76	32.500
822.07	27.907
822.37	-10.811
822.67	37.500
822.97	50.000
823.27	3.571
823.57	8.000
823.88	3.704
824.18	21.429
824.48	14.706
824.78	32.258
825.08	-4.348
825.38	18.182
825.69	20.833
825.99	18.421
826.29	-13.889
826.59	-33.333
826.89	-19.048
827.19	13.043
827.49	45.000
827.79	40.000
828.09	50.000
828.39	27.273
828.70	48.649
829.00	14.286
829.30	14.286
829.60	3.333
829.90	25.000
830.20	7.895
830.50	-18.519
830.80	-4.348
831.10	13.636
831.40	39.394
831.70	22.581
832.00	9.524
832.30	-14.286
832.60	-66.667
832.90	6.897
833.20	20.000
833.50	36.364
833.80	25.926
834.10	26.923
834.40	31.250
834.70	77.778
835.00	0.000
835.30	26.923
835.60	66.667
835.90	41.935
836.20	0.000
836.50	75.000
836.80	-19.231
837.10	-3.571
837.40	100.000
837.70	9.091
838.00	-36.364
838.30	34.783
838.60	84.615
838.90	59.091
839.19	0.000
839.49	30.000
839.79	53.846
840.09	-66.667
840.39	14.286
840.69	17.857
840.99	7.692
841.29	-10.526
841.59	-30.000
841.88	0.000
842.18	-60.000
842.48	31.250
842.78	-33.333
843.08	29.630
843.38	-30.000
843.68	26.087
843.97	-26.667
844.27	-26.667
844.57	35.000
844.87	16.667
845.17	-42.857
845.47	13.333
845.76	-14.286
846.06	23.529
846.36	-10.000
846.66	-14.286
846.96	20.000
847.25	-100.000
847.55	71.429
847.85	-75.000
848.15	0.000
848.44	-600.000
848.74	5.000
849.04	44.444
849.34	45.455
849.63	-33.333
849.93	-160.000
850.23	0.000
850.53	40.000
850.82	-23.077
851.12	-22.222
851.42	0.000
851.71	11.538
852.01	-14.286
852.31	-150.000
852.61	18.182
852.90	-45.000
853.20	31.579
853.50	-83.333
853.79	0.000
854.09	37.500
854.39	21.053
854.68	4.167
854.98	54.839
855.28	23.077
855.57	35.000
855.87	0.000
856.17	66.667
856.46	0.000
856.76	33.333
857.05	177.778
857.35	68.000
857.65	-44.444
857.94	7.692
858.24	58.621
858.53	16.667
858.83	11.111
859.13	36.364
859.42	30.435
859.72	-200.000
860.01	-533.333
860.31	0.000
860.60	19.048
860.90	-333.333
861.20	-40.000
861.49	-50.000
861.79	20.000
862.08	35.000
862.38	60.000
862.67	-200.000
862.97	-116.667
863.26	-58.333
863.56	55.556
863.85	-366.667
864.15	5.556
864.44	-50.000
864.74	64.286
865.03	350.000
865.33	-180.000
865.62	50.000
865.92	-25.000
866.21	-233.333
866.51	81.250
866.80	0.000
867.10	-200.000
867.39	-33.333
867.69	0.000
867.98	-38.462
868.27	33.333
868.57	33.333
868.86	33.333
869.16	-38.462
869.45	26.667
869.75	-700.000
870.04	0.000
870.33	-14.286
870.63	28.571
870.92	400.000
871.22	-160.000
871.51	-500.000
871.80	44.444
872.10	200.000
>>>>>End Processed Spectral Data<<<<<
