SpectraSuite Data File
++++++++++++++++++++++++++++++++++++
Date: Fri May 15 20:57:59 PDT 2015
User: schluterlab
Dark Spectrum Present: Yes
Reference Spectrum Present: Yes
Number of Sampled Component Spectra: 1
Spectrometers: USB2E3373
Integration Time (usec): 3000 (USB2E3373)
Spectra Averaged: 3 (USB2E3373)
Boxcar Smoothing: 0 (USB2E3373)
Correct for Electrical Dark: No (USB2E3373)
Strobe/Lamp Enabled: No (USB2E3373)
Correct for Detector Non-linearity: No (USB2E3373)
Correct for Stray Light: No (USB2E3373)
Number of Pixels in Processed Spectrum: 2048
>>>>>Begin Processed Spectral Data<<<<<
178.53	0.000
178.91	0.000
179.29	37.500
179.67	-250.000
180.04	-42.857
180.42	-100.000
180.80	-500.000
181.18	233.333
181.56	450.000
181.94	300.000
182.31	600.000
182.69	-40.000
183.07	-566.667
183.45	-40.000
183.83	-0.000
184.20	-36.364
184.58	166.667
184.96	-0.000
185.34	400.000
185.72	-250.000
186.09	100.000
186.47	-2200.000
186.85	150.000
187.23	177.778
187.61	500.000
187.98	-166.667
188.36	-77.778
188.74	33.333
189.12	23.529
189.49	22.222
189.87	0.000
190.25	14.286
190.63	-50.000
191.00	-600.000
191.38	5.263
191.76	100.000
192.14	300.000
192.51	-300.000
192.89	-144.444
193.27	-57.143
193.65	200.000
194.02	227.273
194.40	-30.000
194.78	-225.000
195.15	-25.000
195.53	-137.500
195.91	125.000
196.29	75.000
196.66	184.615
197.04	114.286
197.42	-77.778
197.79	-433.333
198.17	-84.615
198.55	1900.000
198.92	-600.000
199.30	-300.000
199.68	-180.000
200.05	-233.333
200.43	0.000
200.81	-333.333
201.18	-133.333
201.56	1500.000
201.94	-300.000
202.31	-33.333
202.69	-320.000
203.07	275.000
203.44	-700.000
203.82	0.000
204.19	50.000
204.57	-200.000
204.95	37.500
205.32	10.000
205.70	-171.429
206.08	-25.000
206.45	266.667
206.83	107.143
207.20	-171.429
207.58	1300.000
207.96	-133.333
208.33	-140.000
208.71	-150.000
209.08	-133.333
209.46	-1300.000
209.84	-20.000
210.21	-800.000
210.59	-85.714
210.96	-50.000
211.34	-25.000
211.71	20.000
212.09	-157.143
212.46	-600.000
212.84	0.000
213.22	20.000
213.59	350.000
213.97	7.692
214.34	0.000
214.72	-50.000
215.09	450.000
215.47	30.769
215.84	-36.364
216.22	-166.667
216.59	0.000
216.97	-100.000
217.34	-50.000
217.72	-400.000
218.09	125.000
218.47	37.500
218.84	-1400.000
219.22	-155.556
219.59	-180.000
219.97	300.000
220.34	225.000
220.72	-57.143
221.09	-75.000
221.47	250.000
221.84	-650.000
222.22	-650.000
222.59	27.273
222.97	-25.000
223.34	-133.333
223.72	0.000
224.09	-38.095
224.46	21.429
224.84	466.667
225.21	-40.000
225.59	-13.333
225.96	-700.000
226.34	500.000
226.71	-28.571
227.08	-66.667
227.46	12.500
227.83	-350.000
228.21	-22.222
228.58	-81.818
228.95	62.500
229.33	110.000
229.70	-12.500
230.08	12.500
230.45	-57.143
230.82	14.286
231.20	6.667
231.57	7.143
231.95	-57.143
232.32	-10.000
232.69	21.429
233.07	66.667
233.44	-160.000
233.81	-60.000
234.19	55.556
234.56	-41.176
234.93	150.000
235.31	-150.000
235.68	-260.000
236.05	-38.462
236.43	-50.000
236.80	-11.765
237.17	21.875
237.55	-10.000
237.92	-7.407
238.29	2.778
238.67	36.667
239.04	-2.941
239.41	-12.195
239.79	-16.667
240.16	-14.634
240.53	-10.526
240.91	4.348
241.28	9.524
241.65	25.000
242.02	31.507
242.40	30.000
242.77	5.085
243.14	16.667
243.51	18.750
243.89	18.391
244.26	8.046
244.63	8.333
245.00	15.464
245.38	21.649
245.75	-1.124
246.12	14.655
246.49	14.876
246.87	20.192
247.24	21.008
247.61	14.035
247.98	10.569
248.36	14.375
248.73	19.737
249.10	21.429
249.47	10.759
249.84	16.993
250.22	18.824
250.59	21.569
250.96	25.352
251.33	11.628
251.70	20.000
252.08	22.335
252.45	18.317
252.82	18.090
253.19	21.198
253.56	14.019
253.94	21.171
254.31	16.957
254.68	22.807
255.05	19.685
255.42	21.834
255.79	23.166
256.16	22.179
256.54	24.627
256.91	18.251
257.28	19.703
257.65	19.101
258.02	16.667
258.39	20.202
258.76	23.077
259.14	19.269
259.51	17.799
259.88	21.649
260.25	21.242
260.62	22.917
260.99	17.288
261.36	22.260
261.73	18.354
262.10	20.973
262.47	19.632
262.85	19.436
263.22	20.615
263.59	23.364
263.96	22.050
264.33	24.545
264.70	19.940
265.07	19.643
265.44	23.229
265.81	22.881
266.18	19.399
266.55	20.823
266.92	22.798
267.29	22.715
267.66	20.460
268.03	20.419
268.40	19.843
268.77	24.866
269.14	21.583
269.51	24.422
269.88	19.950
270.25	17.857
270.62	19.268
270.99	18.159
271.36	21.760
271.73	20.892
272.10	20.195
272.47	21.277
272.84	19.059
273.21	20.650
273.58	20.241
273.95	21.739
274.32	19.400
274.69	18.778
275.06	20.313
275.43	18.821
275.80	19.205
276.17	19.310
276.54	19.700
276.91	22.368
277.28	20.087
277.65	20.248
278.02	18.723
278.39	18.381
278.76	20.545
279.13	15.768
279.50	20.798
279.87	20.518
280.23	19.140
280.60	20.078
280.97	22.020
281.34	19.615
281.71	21.355
282.08	18.200
282.45	18.591
282.82	18.147
283.19	18.375
283.56	20.039
283.92	18.027
284.29	17.308
284.66	18.798
285.03	18.664
285.40	20.416
285.77	17.926
286.14	17.870
286.51	21.956
286.87	19.378
287.24	19.521
287.61	19.929
287.98	20.000
288.35	19.584
288.72	19.264
289.08	17.188
289.45	19.156
289.82	20.455
290.19	17.235
290.56	18.353
290.93	18.519
291.29	16.949
291.66	17.953
292.03	17.225
292.40	18.065
292.77	16.746
293.13	13.799
293.50	16.237
293.87	18.168
294.24	16.692
294.60	16.692
294.97	16.369
295.34	15.951
295.71	16.990
296.08	14.948
296.44	13.371
296.81	15.694
297.18	15.217
297.55	15.718
297.91	15.205
298.28	16.491
298.65	15.468
299.02	14.555
299.38	11.902
299.75	15.172
300.12	13.743
300.48	12.516
300.85	14.702
301.22	13.247
301.59	12.895
301.95	15.823
302.32	15.824
302.69	14.303
303.05	13.119
303.42	13.200
303.79	13.435
304.15	14.815
304.52	11.653
304.89	13.333
305.25	13.559
305.62	12.369
305.99	12.281
306.35	13.873
306.72	12.036
307.09	13.227
307.45	13.203
307.82	12.963
308.19	13.821
308.55	13.850
308.92	14.597
309.29	11.732
309.65	13.025
310.02	12.321
310.38	12.733
310.75	13.443
311.12	13.348
311.48	12.619
311.85	12.565
312.22	13.080
312.58	12.527
312.95	12.914
313.31	11.594
313.68	13.089
314.05	12.449
314.41	13.505
314.78	12.784
315.14	13.772
315.51	12.733
315.87	14.242
316.24	13.347
316.61	13.386
316.97	12.202
317.34	12.793
317.70	12.237
318.07	13.654
318.43	13.039
318.80	11.080
319.16	12.598
319.53	13.200
319.89	12.697
320.26	11.842
320.62	13.240
320.99	11.691
321.35	14.183
321.72	13.915
322.08	14.804
322.45	13.807
322.81	12.083
323.18	11.776
323.54	12.838
323.91	12.171
324.27	12.500
324.64	13.015
325.00	12.500
325.37	14.050
325.73	12.693
326.10	12.807
326.46	14.260
326.83	12.861
327.19	12.903
327.56	13.380
327.92	13.820
328.29	13.571
328.65	11.887
329.01	13.603
329.38	12.350
329.74	11.992
330.11	13.438
330.47	12.152
330.84	12.981
331.20	13.593
331.56	12.500
331.93	14.064
332.29	13.566
332.66	11.946
333.02	12.361
333.38	13.199
333.75	13.645
334.11	12.265
334.48	13.327
334.84	13.004
335.20	11.619
335.57	13.146
335.93	13.098
336.29	13.536
336.66	11.989
337.02	10.967
337.38	11.759
337.75	13.636
338.11	12.263
338.47	12.591
338.84	12.015
339.20	11.883
339.56	13.578
339.93	12.265
340.29	13.303
340.65	12.814
341.02	11.879
341.38	12.832
341.74	12.544
342.11	11.265
342.47	12.011
342.83	13.841
343.20	13.328
343.56	12.783
343.92	13.286
344.28	13.322
344.65	12.608
345.01	11.927
345.37	12.616
345.73	13.138
346.10	12.425
346.46	12.111
346.82	13.011
347.19	11.388
347.55	11.863
347.91	13.026
348.27	12.288
348.63	12.351
349.00	10.911
349.36	12.136
349.72	12.769
350.08	12.213
350.45	12.211
350.81	12.625
351.17	11.482
351.53	12.408
351.89	10.735
352.26	11.760
352.62	12.581
352.98	11.566
353.34	12.077
353.70	12.298
354.07	12.661
354.43	12.090
354.79	12.799
355.15	12.937
355.51	12.500
355.87	11.408
356.24	10.767
356.60	13.096
356.96	12.460
357.32	12.061
357.68	11.493
358.04	11.470
358.40	12.219
358.77	12.998
359.13	11.930
359.49	12.096
359.85	11.778
360.21	11.643
360.57	11.630
360.93	11.346
361.29	10.650
361.66	11.442
362.02	12.045
362.38	11.957
362.74	11.885
363.10	11.889
363.46	11.045
363.82	12.397
364.18	11.365
364.54	11.544
364.90	11.613
365.26	11.790
365.62	12.774
365.98	11.657
366.35	12.891
366.71	11.456
367.07	12.046
367.43	11.215
367.79	11.590
368.15	10.983
368.51	12.163
368.87	9.835
369.23	11.047
369.59	11.662
369.95	11.657
370.31	10.983
370.67	10.970
371.03	10.904
371.39	10.430
371.75	11.136
372.11	10.913
372.47	10.059
372.83	11.568
373.19	12.197
373.55	10.975
373.91	11.807
374.27	11.198
374.63	11.342
374.99	10.993
375.35	11.072
375.71	11.748
376.07	11.728
376.42	11.293
376.78	11.141
377.14	11.713
377.50	10.624
377.86	11.245
378.22	11.806
378.58	10.705
378.94	10.901
379.30	10.979
379.66	11.787
380.02	11.711
380.38	11.260
380.74	10.533
381.09	11.779
381.45	10.826
381.81	10.796
382.17	10.977
382.53	10.493
382.89	10.734
383.25	11.014
383.61	12.012
383.97	9.397
384.32	10.569
384.68	11.455
385.04	10.662
385.40	10.454
385.76	11.384
386.12	11.514
386.48	10.345
386.83	10.717
387.19	10.379
387.55	10.665
387.91	10.575
388.27	10.562
388.62	10.761
388.98	10.497
389.34	10.868
389.70	11.436
390.06	11.328
390.42	10.492
390.77	9.876
391.13	10.656
391.49	10.737
391.85	10.656
392.20	10.358
392.56	10.235
392.92	11.568
393.28	10.024
393.64	10.931
393.99	11.348
394.35	9.867
394.71	11.047
395.07	9.742
395.42	10.383
395.78	10.293
396.14	10.971
396.50	10.780
396.85	10.882
397.21	10.338
397.57	10.345
397.92	10.306
398.28	10.805
398.64	10.361
399.00	10.779
399.35	9.594
399.71	10.856
400.07	9.855
400.42	11.016
400.78	11.390
401.14	10.284
401.49	11.674
401.85	10.725
402.21	11.084
402.57	10.813
402.92	9.348
403.28	11.466
403.63	10.908
403.99	9.949
404.35	10.556
404.70	10.179
405.06	10.635
405.42	10.814
405.77	9.587
406.13	10.361
406.49	10.420
406.84	10.513
407.20	10.716
407.55	10.303
407.91	10.762
408.27	9.751
408.62	10.708
408.98	10.228
409.34	10.223
409.69	10.207
410.05	9.914
410.40	9.815
410.76	10.495
411.11	10.437
411.47	10.125
411.83	9.730
412.18	10.360
412.54	9.363
412.89	10.591
413.25	10.469
413.60	10.373
413.96	10.491
414.31	10.976
414.67	10.263
415.03	9.987
415.38	10.640
415.74	10.228
416.09	10.451
416.45	9.926
416.80	10.773
417.16	10.083
417.51	10.660
417.87	10.561
418.22	10.687
418.58	10.167
418.93	10.846
419.29	10.691
419.64	10.499
420.00	10.390
420.35	10.925
420.71	10.814
421.06	10.252
421.42	11.058
421.77	10.000
422.12	9.875
422.48	10.287
422.83	10.441
423.19	10.553
423.54	9.818
423.90	10.012
424.25	10.218
424.61	10.465
424.96	9.988
425.31	10.572
425.67	10.798
426.02	11.131
426.38	11.271
426.73	10.472
427.09	11.139
427.44	10.529
427.79	11.019
428.15	11.165
428.50	10.297
428.85	10.381
429.21	11.545
429.56	11.375
429.92	11.299
430.27	10.677
430.62	9.671
430.98	10.934
431.33	10.988
431.68	9.838
432.04	10.285
432.39	10.268
432.74	10.042
433.10	11.149
433.45	10.514
433.80	10.157
434.16	9.584
434.51	11.022
434.86	10.627
435.22	10.488
435.57	10.418
435.92	10.299
436.28	10.316
436.63	10.496
436.98	10.371
437.34	10.163
437.69	10.853
438.04	10.427
438.39	9.835
438.75	9.654
439.10	10.413
439.45	10.651
439.81	10.703
440.16	10.926
440.51	10.866
440.86	11.662
441.22	10.633
441.57	10.265
441.92	10.703
442.27	10.477
442.63	11.081
442.98	11.200
443.33	11.018
443.68	11.353
444.03	10.929
444.39	10.723
444.74	11.483
445.09	11.136
445.44	10.598
445.79	11.501
446.15	10.573
446.50	10.039
446.85	11.371
447.20	10.532
447.55	11.607
447.91	10.660
448.26	11.326
448.61	11.284
448.96	10.843
449.31	9.653
449.66	11.150
450.02	11.010
450.37	10.433
450.72	11.397
451.07	10.570
451.42	10.737
451.77	10.910
452.12	10.646
452.47	9.916
452.83	10.777
453.18	11.069
453.53	11.378
453.88	10.747
454.23	11.432
454.58	11.020
454.93	12.113
455.28	10.159
455.63	11.593
455.98	11.004
456.34	10.345
456.69	10.165
457.04	11.972
457.39	10.267
457.74	10.218
458.09	10.359
458.44	11.001
458.79	10.084
459.14	10.526
459.49	11.522
459.84	11.224
460.19	11.468
460.54	11.064
460.89	11.591
461.24	10.745
461.59	11.342
461.94	10.943
462.29	11.339
462.64	11.096
462.99	11.374
463.34	10.848
463.69	9.331
464.04	10.472
464.39	11.704
464.74	10.798
465.09	10.979
465.44	11.194
465.79	10.658
466.14	11.003
466.49	10.638
466.84	11.719
467.19	10.638
467.54	10.217
467.89	11.118
468.24	11.375
468.59	11.619
468.94	10.730
469.29	11.738
469.64	11.962
469.99	12.263
470.34	10.034
470.68	11.782
471.03	11.323
471.38	11.127
471.73	11.134
472.08	11.262
472.43	10.470
472.78	11.241
473.13	11.293
473.48	11.140
473.83	10.585
474.17	11.010
474.52	11.359
474.87	11.333
475.22	10.555
475.57	10.898
475.92	10.697
476.27	10.594
476.61	11.400
476.96	10.318
477.31	11.736
477.66	10.449
478.01	10.556
478.36	10.784
478.70	10.875
479.05	10.989
479.40	10.864
479.75	11.053
480.10	11.009
480.45	11.500
480.79	11.581
481.14	11.578
481.49	10.739
481.84	10.666
482.19	10.103
482.53	11.559
482.88	11.074
483.23	10.653
483.58	10.896
483.92	10.503
484.27	10.483
484.62	11.340
484.97	10.904
485.31	10.477
485.66	10.398
486.01	10.823
486.36	10.599
486.70	11.081
487.05	11.481
487.40	11.401
487.75	11.437
488.09	11.310
488.44	11.004
488.79	10.908
489.13	11.418
489.48	11.116
489.83	10.717
490.17	10.876
490.52	10.716
490.87	10.689
491.22	10.840
491.56	11.195
491.91	10.899
492.26	11.133
492.60	11.276
492.95	11.117
493.30	10.747
493.64	10.806
493.99	11.449
494.34	10.388
494.68	10.714
495.03	10.414
495.37	11.187
495.72	11.106
496.07	11.220
496.41	10.660
496.76	11.285
497.11	10.573
497.45	11.408
497.80	11.201
498.14	10.184
498.49	10.615
498.84	11.477
499.18	11.094
499.53	11.359
499.87	10.311
500.22	10.287
500.56	11.094
500.91	11.145
501.26	10.529
501.60	10.526
501.95	11.208
502.29	11.477
502.64	11.100
502.98	10.261
503.33	10.423
503.67	10.217
504.02	11.437
504.36	11.183
504.71	9.949
505.06	10.871
505.40	10.508
505.75	10.722
506.09	10.796
506.44	11.704
506.78	11.633
507.13	11.375
507.47	10.966
507.82	10.684
508.16	10.671
508.51	10.703
508.85	10.989
509.19	10.378
509.54	11.475
509.88	11.003
510.23	11.027
510.57	11.331
510.92	10.394
511.26	10.147
511.61	11.331
511.95	10.630
512.30	10.421
512.64	11.575
512.98	10.331
513.33	10.353
513.67	10.688
514.02	10.812
514.36	11.429
514.70	10.781
515.05	11.222
515.39	10.626
515.74	11.078
516.08	11.058
516.42	11.307
516.77	11.176
517.11	10.267
517.46	11.610
517.80	11.263
518.14	10.655
518.49	10.817
518.83	11.665
519.17	10.067
519.52	10.480
519.86	10.684
520.20	10.936
520.55	11.194
520.89	11.481
521.23	11.020
521.58	11.041
521.92	10.833
522.26	10.605
522.61	11.169
522.95	11.523
523.29	11.055
523.64	10.991
523.98	10.953
524.32	10.245
524.66	11.460
525.01	11.688
525.35	10.564
525.69	10.572
526.04	10.582
526.38	11.997
526.72	10.661
527.06	10.636
527.41	12.137
527.75	9.987
528.09	11.296
528.43	11.816
528.78	10.693
529.12	10.581
529.46	10.396
529.80	11.336
530.15	11.485
530.49	10.572
530.83	11.560
531.17	11.283
531.51	11.423
531.86	10.605
532.20	10.090
532.54	11.096
532.88	11.567
533.22	11.895
533.57	11.271
533.91	10.640
534.25	11.198
534.59	10.904
534.93	10.069
535.27	11.675
535.62	10.758
535.96	11.676
536.30	12.269
536.64	11.096
536.98	11.150
537.32	10.811
537.66	11.641
538.01	11.608
538.35	10.541
538.69	11.385
539.03	10.731
539.37	11.036
539.71	11.247
540.05	10.455
540.39	11.911
540.73	10.948
541.07	12.155
541.42	11.492
541.76	11.218
542.10	11.425
542.44	12.092
542.78	10.048
543.12	11.607
543.46	11.613
543.80	11.797
544.14	10.614
544.48	11.193
544.82	11.210
545.16	11.407
545.50	11.148
545.84	11.544
546.18	12.057
546.52	11.968
546.86	11.287
547.20	11.445
547.54	10.954
547.88	10.870
548.22	11.243
548.56	10.818
548.90	11.456
549.24	10.537
549.58	10.719
549.92	10.365
550.26	11.136
550.60	10.260
550.94	11.128
551.28	10.896
551.62	11.769
551.96	11.429
552.30	10.819
552.64	11.283
552.98	11.252
553.32	10.699
553.66	10.740
554.00	11.533
554.34	10.931
554.68	11.209
555.02	12.500
555.36	11.219
555.69	11.136
556.03	10.136
556.37	11.174
556.71	11.625
557.05	11.559
557.39	11.004
557.73	12.144
558.07	12.217
558.41	11.256
558.75	10.678
559.08	11.111
559.42	11.111
559.76	10.969
560.10	10.092
560.44	10.350
560.78	11.049
561.12	11.072
561.45	10.822
561.79	11.345
562.13	11.072
562.47	10.504
562.81	11.599
563.15	11.777
563.48	10.396
563.82	11.668
564.16	10.167
564.50	10.270
564.84	11.178
565.17	10.530
565.51	12.022
565.85	10.837
566.19	11.538
566.52	11.662
566.86	11.054
567.20	11.519
567.54	10.462
567.88	11.189
568.21	11.991
568.55	10.598
568.89	11.088
569.23	11.651
569.56	11.077
569.90	11.693
570.24	11.239
570.57	11.164
570.91	11.781
571.25	11.115
571.59	10.807
571.92	10.815
572.26	10.628
572.60	11.349
572.93	11.641
573.27	11.254
573.61	11.038
573.95	11.333
574.28	11.017
574.62	10.959
574.96	11.169
575.29	10.752
575.63	10.702
575.97	11.114
576.30	11.189
576.64	10.887
576.98	11.480
577.31	11.108
577.65	10.986
577.98	11.137
578.32	10.636
578.66	11.176
578.99	11.277
579.33	11.192
579.67	11.153
580.00	11.620
580.34	11.119
580.67	11.696
581.01	11.383
581.35	10.767
581.68	11.218
582.02	10.864
582.35	11.291
582.69	11.005
583.02	11.237
583.36	11.687
583.70	11.786
584.03	11.899
584.37	11.773
584.70	11.703
585.04	10.959
585.37	11.007
585.71	11.577
586.04	11.447
586.38	10.963
586.72	11.564
587.05	11.352
587.39	11.574
587.72	11.263
588.06	11.265
588.39	11.564
588.73	11.233
589.06	11.611
589.40	11.994
589.73	11.866
590.07	11.782
590.40	12.152
590.73	11.656
591.07	10.984
591.40	11.398
591.74	11.357
592.07	11.827
592.41	11.926
592.74	11.509
593.08	10.898
593.41	10.741
593.75	11.253
594.08	11.466
594.41	11.681
594.75	10.992
595.08	11.086
595.42	11.152
595.75	11.679
596.09	11.806
596.42	11.410
596.75	12.034
597.09	11.572
597.42	11.382
597.75	11.269
598.09	11.408
598.42	11.958
598.76	11.369
599.09	11.338
599.42	11.103
599.76	10.835
600.09	11.237
600.42	11.145
600.76	11.181
601.09	11.298
601.42	11.163
601.76	11.790
602.09	11.262
602.42	11.710
602.76	10.951
603.09	11.545
603.42	11.371
603.76	11.008
604.09	11.260
604.42	11.125
604.76	12.016
605.09	11.380
605.42	11.919
605.75	11.471
606.09	11.380
606.42	11.259
606.75	11.472
607.09	12.000
607.42	11.653
607.75	11.101
608.08	11.096
608.42	11.147
608.75	11.373
609.08	11.510
609.41	11.117
609.75	10.887
610.08	12.032
610.41	10.725
610.74	11.312
611.07	11.628
611.41	11.936
611.74	12.047
612.07	10.760
612.40	11.543
612.73	11.751
613.07	11.530
613.40	11.761
613.73	11.080
614.06	11.352
614.39	12.070
614.72	11.709
615.06	11.453
615.39	11.627
615.72	11.302
616.05	11.899
616.38	10.598
616.71	10.703
617.05	10.933
617.38	11.942
617.71	11.321
618.04	11.238
618.37	11.791
618.70	11.419
619.03	11.806
619.36	10.637
619.69	11.069
620.03	11.980
620.36	11.660
620.69	11.706
621.02	11.239
621.35	11.535
621.68	11.054
622.01	11.333
622.34	10.455
622.67	12.303
623.00	11.332
623.33	11.966
623.66	10.696
623.99	11.346
624.32	12.319
624.65	11.203
624.99	10.910
625.32	10.917
625.65	12.097
625.98	11.684
626.31	11.222
626.64	11.872
626.97	12.129
627.30	11.909
627.63	12.132
627.96	11.141
628.29	12.581
628.62	11.504
628.95	12.224
629.28	11.694
629.61	9.970
629.94	10.557
630.26	11.067
630.59	9.781
630.92	10.462
631.25	11.795
631.58	11.454
631.91	11.842
632.24	11.009
632.57	12.500
632.90	9.846
633.23	11.294
633.56	10.453
633.89	10.234
634.22	11.605
634.55	10.928
634.88	9.962
635.20	10.385
635.53	11.200
635.86	10.533
636.19	10.867
636.52	11.990
636.85	9.553
637.18	11.950
637.51	11.824
637.83	10.381
638.16	12.688
638.49	10.899
638.82	13.158
639.15	10.176
639.48	8.941
639.81	12.413
640.13	10.967
640.46	13.120
640.79	10.751
641.12	10.192
641.45	10.060
641.77	11.704
642.10	12.638
642.43	10.289
642.76	12.046
643.09	11.147
643.41	10.841
643.74	9.390
644.07	11.166
644.40	10.980
644.73	11.734
645.05	11.242
645.38	10.935
645.71	9.929
646.04	11.311
646.36	11.170
646.69	13.129
647.02	10.964
647.35	11.940
647.67	11.517
648.00	10.634
648.33	11.945
648.66	11.864
648.98	8.543
649.31	10.248
649.64	10.047
649.96	10.211
650.29	11.925
650.62	11.966
650.94	10.000
651.27	11.918
651.60	12.252
651.92	13.287
652.25	7.993
652.58	10.667
652.90	12.007
653.23	10.588
653.56	10.998
653.88	9.622
654.21	10.858
654.54	10.357
654.86	11.205
655.19	10.234
655.52	11.765
655.84	10.962
656.17	11.828
656.49	15.962
656.82	17.240
657.15	13.572
657.47	10.442
657.80	7.788
658.13	7.826
658.45	12.393
658.78	12.750
659.10	12.767
659.43	13.599
659.75	12.481
660.08	13.448
660.41	12.666
660.73	12.155
661.06	13.518
661.38	11.350
661.71	8.624
662.03	10.515
662.36	11.648
662.68	10.398
663.01	12.227
663.33	8.353
663.66	7.209
663.98	10.000
664.31	10.874
664.63	10.599
664.96	5.000
665.28	8.609
665.61	11.255
665.93	10.217
666.26	11.497
666.58	10.291
666.91	8.000
667.23	12.500
667.56	9.005
667.88	9.353
668.21	8.831
668.53	10.638
668.86	10.849
669.18	9.670
669.50	7.990
669.83	9.070
670.15	10.023
670.48	9.569
670.80	8.986
671.13	10.067
671.45	6.393
671.77	12.017
672.10	11.089
672.42	11.423
672.75	14.032
673.07	12.343
673.39	10.642
673.72	8.284
674.04	9.583
674.37	13.559
674.69	9.636
675.01	12.667
675.34	9.685
675.66	9.954
675.98	12.195
676.31	10.321
676.63	8.076
676.95	9.545
677.28	14.118
677.60	10.843
677.92	10.321
678.25	13.129
678.57	8.442
678.89	9.874
679.22	11.857
679.54	9.237
679.86	8.748
680.18	11.068
680.51	10.795
680.83	9.145
681.15	11.400
681.48	12.705
681.80	12.810
682.12	10.685
682.44	10.669
682.77	12.804
683.09	10.755
683.41	13.636
683.73	10.829
684.06	12.168
684.38	9.677
684.70	12.200
685.02	8.921
685.34	9.289
685.67	11.820
685.99	11.031
686.31	11.327
686.63	11.688
686.96	10.076
687.28	9.293
687.60	10.076
687.92	10.909
688.24	8.871
688.56	11.135
688.89	9.375
689.21	14.000
689.53	10.673
689.85	7.907
690.17	11.161
690.49	12.530
690.82	10.680
691.14	9.048
691.46	10.514
691.78	13.514
692.10	10.323
692.42	10.173
692.74	10.043
693.06	11.261
693.39	10.407
693.71	8.824
694.03	6.928
694.35	10.748
694.67	9.848
694.99	9.661
695.31	10.705
695.63	10.000
695.95	8.081
696.27	10.881
696.59	11.111
696.91	7.563
697.23	10.283
697.56	9.653
697.88	12.903
698.20	10.478
698.52	9.647
698.84	8.612
699.16	9.250
699.48	11.529
699.80	8.189
700.12	8.086
700.44	10.644
700.76	8.430
701.08	7.576
701.40	11.747
701.72	14.198
702.04	7.591
702.36	10.702
702.68	10.511
703.00	12.424
703.32	9.971
703.64	8.192
703.96	11.014
704.28	11.043
704.60	12.063
704.91	8.833
705.23	7.973
705.55	10.954
705.87	13.357
706.19	10.741
706.51	11.340
706.83	11.254
707.15	5.919
707.47	8.964
707.79	8.854
708.11	12.250
708.43	11.250
708.74	9.302
709.06	9.577
709.38	7.645
709.70	9.467
710.02	9.236
710.34	10.526
710.66	8.974
710.98	8.940
711.29	12.787
711.61	8.475
711.93	9.446
712.25	12.371
712.57	9.158
712.89	5.224
713.20	13.149
713.52	9.756
713.84	9.215
714.16	8.935
714.48	7.097
714.80	10.897
715.11	10.638
715.43	7.210
715.75	10.667
716.07	8.970
716.39	6.376
716.70	7.380
717.02	8.015
717.34	10.121
717.66	4.867
717.97	7.826
718.29	6.695
718.61	15.354
718.93	8.527
719.24	8.365
719.56	10.040
719.88	13.402
720.20	8.712
720.51	10.345
720.83	8.108
721.15	7.143
721.46	12.903
721.78	8.300
722.10	10.781
722.42	1.660
722.73	5.306
723.05	9.796
723.37	10.593
723.68	16.667
724.00	15.385
724.32	5.778
724.63	6.818
724.95	6.987
725.27	6.452
725.58	8.898
725.90	10.714
726.22	10.039
726.53	12.881
726.85	10.112
727.16	16.604
727.48	3.239
727.80	10.121
728.11	5.932
728.43	11.765
728.74	6.452
729.06	13.600
729.38	13.910
729.69	9.960
730.01	7.692
730.32	10.821
730.64	12.367
730.96	6.792
731.27	12.000
731.59	12.881
731.90	10.191
732.22	15.773
732.53	12.625
732.85	9.220
733.16	13.468
733.48	9.353
733.80	9.783
734.11	9.153
734.43	10.653
734.74	11.212
735.06	5.863
735.37	11.480
735.69	6.397
736.00	7.317
736.32	9.396
736.63	8.099
736.95	10.922
737.26	11.032
737.58	8.389
737.89	8.425
738.21	7.895
738.52	6.584
738.83	8.297
739.15	10.480
739.46	12.992
739.78	6.227
740.09	7.843
740.41	6.884
740.72	5.512
741.04	12.551
741.35	7.660
741.66	14.692
741.98	10.204
742.29	10.891
742.61	4.188
742.92	-1.896
743.23	1.852
743.55	12.670
743.86	10.048
744.18	7.177
744.49	0.532
744.80	6.522
745.12	13.369
745.43	9.268
745.74	8.854
746.06	8.780
746.37	12.042
746.68	12.322
747.00	3.191
747.31	9.950
747.62	9.223
747.94	9.091
748.25	11.881
748.56	9.836
748.88	6.806
749.19	18.085
749.50	8.374
749.82	0.943
750.13	5.963
750.44	15.038
750.75	8.209
751.07	17.153
751.38	8.046
751.69	7.059
752.01	8.527
752.32	13.147
752.63	7.510
752.94	6.897
753.26	11.715
753.57	7.240
753.88	8.407
754.19	7.083
754.51	7.851
754.82	9.312
755.13	15.000
755.44	12.500
755.75	12.891
756.07	10.117
756.38	5.283
756.69	5.364
757.00	12.667
757.31	8.170
757.63	6.707
757.94	10.556
758.25	9.589
758.56	9.574
758.87	9.065
759.18	8.723
759.50	5.818
759.81	12.709
760.12	13.226
760.43	9.091
760.74	8.333
761.05	11.692
761.36	9.943
761.67	11.212
761.99	12.585
762.30	6.545
762.61	9.486
762.92	6.335
763.23	5.405
763.54	1.402
763.85	14.407
764.16	6.224
764.47	8.468
764.78	9.524
765.10	12.121
765.41	10.095
765.72	12.063
766.03	9.774
766.34	10.584
766.65	14.741
766.96	13.636
767.27	8.511
767.58	5.747
767.89	4.255
768.20	6.818
768.51	9.341
768.82	9.852
769.13	2.765
769.44	9.871
769.75	5.936
770.06	12.931
770.37	6.731
770.68	5.584
770.99	12.217
771.30	10.784
771.61	7.240
771.92	8.621
772.23	11.823
772.54	13.978
772.85	6.173
773.16	7.303
773.47	11.765
773.78	11.765
774.09	8.383
774.39	4.000
774.70	9.554
775.01	17.241
775.32	10.000
775.63	2.479
775.94	2.290
776.25	9.449
776.56	5.000
776.87	7.692
777.18	8.547
777.48	3.448
777.79	7.826
778.10	-0.952
778.41	6.306
778.72	-0.794
779.03	14.286
779.34	14.894
779.65	10.274
779.95	7.534
780.26	9.655
780.57	3.252
780.88	5.512
781.19	-1.724
781.50	13.953
781.80	7.101
782.11	10.692
782.42	7.692
782.73	7.914
783.04	11.852
783.34	2.778
783.65	-10.256
783.96	4.918
784.27	9.655
784.57	11.382
784.88	15.625
785.19	7.000
785.50	9.000
785.81	6.897
786.11	9.483
786.42	0.000
786.73	13.636
787.04	5.102
787.34	3.571
787.65	3.810
787.96	-3.540
788.26	13.636
788.57	7.692
788.88	14.063
789.19	11.905
789.49	-6.087
789.80	6.122
790.11	-2.020
790.41	14.545
790.72	15.217
791.03	9.091
791.33	17.500
791.64	-10.000
791.95	-1.163
792.25	15.957
792.56	16.854
792.87	4.110
793.17	10.145
793.48	12.000
793.79	1.250
794.09	1.250
794.40	4.717
794.70	2.913
795.01	7.317
795.32	6.838
795.62	11.429
795.93	8.824
796.23	7.547
796.54	9.375
796.85	-2.941
797.15	4.225
797.46	6.944
797.76	12.121
798.07	5.814
798.37	-2.632
798.68	7.576
798.99	7.407
799.29	21.429
799.60	8.696
799.90	13.333
800.21	18.033
800.51	15.385
800.82	-10.169
801.12	23.188
801.43	8.197
801.73	6.349
802.04	-2.000
802.34	-10.448
802.65	-5.769
802.95	-7.143
803.26	0.000
803.56	5.882
803.87	-39.130
804.17	13.333
804.48	23.810
804.78	-11.111
805.09	-4.348
805.39	-6.667
805.70	7.407
806.00	0.000
806.30	9.859
806.61	8.571
806.91	-8.333
807.22	26.316
807.52	12.000
807.83	-3.636
808.13	0.000
808.43	16.176
808.74	0.000
809.04	-8.475
809.35	-7.692
809.65	4.687
809.95	-27.027
810.26	22.727
810.56	16.438
810.86	28.571
811.17	-2.000
811.47	18.367
811.77	-7.895
812.08	6.818
812.38	9.434
812.69	-25.000
812.99	-21.212
813.29	-15.789
813.59	-5.714
813.90	9.091
814.20	-33.333
814.50	-5.769
814.81	-15.094
815.11	-14.894
815.41	15.254
815.72	14.286
816.02	13.725
816.32	-8.333
816.62	-14.634
816.93	-21.622
817.23	-2.857
817.53	27.083
817.84	-6.522
818.14	-1.923
818.44	-21.053
818.74	-10.870
819.04	-32.500
819.35	-10.811
819.65	-11.765
819.95	-2.778
820.25	-9.524
820.56	17.500
820.86	-58.621
821.16	-10.000
821.46	-6.383
821.76	-2.500
822.07	2.326
822.37	-24.324
822.67	12.500
822.97	0.000
823.27	-42.857
823.57	8.000
823.88	-62.963
824.18	-14.286
824.48	-8.824
824.78	-32.258
825.08	-52.174
825.38	-21.212
825.69	-37.500
825.99	0.000
826.29	-2.778
826.59	-73.333
826.89	-52.381
827.19	10.870
827.49	-10.000
827.79	11.429
828.09	32.143
828.39	-15.152
828.70	5.405
829.00	-21.429
829.30	-19.048
829.60	-36.667
829.90	9.375
830.20	-26.316
830.50	-37.037
830.80	-4.348
831.10	-22.727
831.40	27.273
831.70	19.355
832.00	19.048
832.30	-33.333
832.60	-41.667
832.90	-27.586
833.20	-35.000
833.50	0.000
833.80	-14.815
834.10	-15.385
834.40	18.750
834.70	-55.556
835.00	-26.316
835.30	50.000
835.60	-33.333
835.90	3.226
836.20	9.091
836.50	28.571
836.80	-50.000
837.10	-7.143
837.40	-233.333
837.70	9.091
838.00	-172.727
838.30	8.696
838.60	-30.769
838.90	13.636
839.19	3.571
839.49	-13.333
839.79	-92.308
840.09	-58.333
840.39	28.571
840.69	-39.286
840.99	-11.538
841.29	-26.316
841.59	-160.000
841.88	-100.000
842.18	-150.000
842.48	0.000
842.78	-13.333
843.08	-29.630
843.38	-20.000
843.68	30.435
843.97	-13.333
844.27	-6.667
844.57	-40.000
844.87	-44.444
845.17	-47.619
845.47	-40.000
845.76	-19.048
846.06	11.765
846.36	-40.000
846.66	-28.571
846.96	-20.000
847.25	-125.000
847.55	50.000
847.85	-112.500
848.15	-31.818
848.44	-333.333
848.74	-45.000
849.04	40.741
849.34	45.455
849.63	-150.000
849.93	-140.000
850.23	-11.111
850.53	70.000
850.82	-84.615
851.12	-44.444
851.42	20.000
851.71	-3.846
852.01	-28.571
852.31	-350.000
852.61	-18.182
852.90	-15.000
853.20	15.789
853.50	-8.333
853.79	0.000
854.09	-37.500
854.39	15.789
854.68	-12.500
854.98	9.677
855.28	34.615
855.57	-15.000
855.87	38.889
856.17	25.926
856.46	42.857
856.76	-53.333
857.05	11.111
857.35	-44.000
857.65	-5.556
857.94	-53.846
858.24	3.448
858.53	33.333
858.83	-7.407
859.13	-13.636
859.42	-21.739
859.72	-75.000
860.01	-366.667
860.31	8.000
860.60	-4.762
860.90	-700.000
861.20	-33.333
861.49	-1000.000
861.79	-40.000
862.08	0.000
862.38	13.333
862.67	-300.000
862.97	-66.667
863.26	25.000
863.56	-11.111
863.85	-566.667
864.15	16.667
864.44	50.000
864.74	-14.286
865.03	150.000
865.33	-100.000
865.62	-50.000
865.92	-50.000
866.21	-66.667
866.51	-25.000
866.80	-172.727
867.10	-650.000
867.39	116.667
867.69	0.000
867.98	-7.692
868.27	-300.000
868.57	-40.000
868.86	5.556
869.16	0.000
869.45	-13.333
869.75	-1800.000
870.04	0.000
870.33	-142.857
870.63	19.048
870.92	533.333
871.22	-340.000
871.51	-500.000
871.80	-33.333
872.10	466.667
>>>>>End Processed Spectral Data<<<<<
