SpectraSuite Data File
++++++++++++++++++++++++++++++++++++
Date: Fri May 15 20:27:05 PDT 2015
User: schluterlab
Dark Spectrum Present: Yes
Reference Spectrum Present: Yes
Number of Sampled Component Spectra: 1
Spectrometers: USB2E3373
Integration Time (usec): 3000 (USB2E3373)
Spectra Averaged: 3 (USB2E3373)
Boxcar Smoothing: 0 (USB2E3373)
Correct for Electrical Dark: No (USB2E3373)
Strobe/Lamp Enabled: No (USB2E3373)
Correct for Detector Non-linearity: No (USB2E3373)
Correct for Stray Light: No (USB2E3373)
Number of Pixels in Processed Spectrum: 2048
>>>>>Begin Processed Spectral Data<<<<<
178.53	0.000
178.91	0.000
179.29	75.000
179.67	-200.000
180.04	14.286
180.42	25.000
180.80	300.000
181.18	200.000
181.56	550.000
181.94	-450.000
182.31	-1000.000
182.69	-40.000
183.07	-166.667
183.45	-20.000
183.83	133.333
184.20	0.000
184.58	122.222
184.96	-125.000
185.34	66.667
185.72	-50.000
186.09	46.154
186.47	-700.000
186.85	100.000
187.23	22.222
187.61	-100.000
187.98	-100.000
188.36	33.333
188.74	33.333
189.12	76.471
189.49	22.222
189.87	0.000
190.25	42.857
190.63	450.000
191.00	200.000
191.38	15.789
191.76	550.000
192.14	100.000
192.51	50.000
192.89	22.222
193.27	-114.286
193.65	266.667
194.02	81.818
194.40	10.000
194.78	-162.500
195.15	50.000
195.53	-125.000
195.91	125.000
196.29	-100.000
196.66	107.692
197.04	128.571
197.42	-133.333
197.79	-166.667
198.17	-123.077
198.55	500.000
198.92	-333.333
199.30	600.000
199.68	-320.000
200.05	166.667
200.43	0.000
200.81	100.000
201.18	-233.333
201.56	400.000
201.94	-300.000
202.31	-33.333
202.69	-180.000
203.07	125.000
203.44	100.000
203.82	0.000
204.19	78.571
204.57	-266.667
204.95	50.000
205.32	20.000
205.70	-28.571
206.08	-175.000
206.45	122.222
206.83	92.857
207.20	-57.143
207.58	200.000
207.96	-133.333
208.33	-90.000
208.71	-225.000
209.08	-266.667
209.46	-700.000
209.84	-60.000
210.21	-1000.000
210.59	-85.714
210.96	-100.000
211.34	-225.000
211.71	53.333
212.09	-214.286
212.46	-2500.000
212.84	0.000
213.22	-30.000
213.59	500.000
213.97	38.462
214.34	54.545
214.72	-150.000
215.09	250.000
215.47	-46.154
215.84	-100.000
216.22	-166.667
216.59	-25.000
216.97	-50.000
217.34	-100.000
217.72	-240.000
218.09	12.500
218.47	37.500
218.84	-1100.000
219.22	-55.556
219.59	-60.000
219.97	600.000
220.34	75.000
220.72	-28.571
221.09	-75.000
221.47	-250.000
221.84	-600.000
222.22	50.000
222.59	72.727
222.97	0.000
223.34	-33.333
223.72	21.429
224.09	42.857
224.46	28.571
224.84	66.667
225.21	60.000
225.59	-26.667
225.96	-200.000
226.34	375.000
226.71	0.000
227.08	50.000
227.46	25.000
227.83	-400.000
228.21	122.222
228.58	-18.182
228.95	62.500
229.33	30.000
229.70	-31.250
230.08	-75.000
230.45	-28.571
230.82	-71.429
231.20	-20.000
231.57	92.857
231.95	-42.857
232.32	-20.000
232.69	42.857
233.07	-266.667
233.44	100.000
233.81	-130.000
234.19	55.556
234.56	-5.882
234.93	400.000
235.31	275.000
235.68	-340.000
236.05	-92.308
236.43	-30.000
236.80	82.353
237.17	40.625
237.55	-10.000
237.92	18.519
238.29	27.778
238.67	26.667
239.04	-11.765
239.41	14.634
239.79	10.000
240.16	31.707
240.53	13.158
240.91	19.565
241.28	23.810
241.65	32.143
242.02	36.986
242.40	30.000
242.77	25.424
243.14	24.242
243.51	27.500
243.89	31.034
244.26	26.437
244.63	26.190
245.00	22.680
245.38	32.990
245.75	20.225
246.12	21.552
246.49	28.926
246.87	32.692
247.24	20.168
247.61	14.912
247.98	20.325
248.36	19.375
248.73	25.658
249.10	18.831
249.47	20.886
249.84	26.144
250.22	22.353
250.59	24.837
250.96	28.638
251.33	17.442
251.70	26.471
252.08	28.426
252.45	21.287
252.82	24.623
253.19	29.032
253.56	21.495
253.94	22.072
254.31	26.957
254.68	24.561
255.05	23.228
255.42	33.624
255.79	25.097
256.16	27.626
256.54	27.985
256.91	23.954
257.28	26.394
257.65	20.974
258.02	22.695
258.39	26.599
258.76	30.037
259.14	25.249
259.51	25.243
259.88	26.460
260.25	25.163
260.62	25.347
260.99	22.712
261.36	24.658
261.73	23.101
262.10	24.620
262.47	23.926
262.85	26.332
263.22	22.462
263.59	24.922
263.96	28.571
264.33	26.061
264.70	25.595
265.07	21.131
265.44	28.045
265.81	23.446
266.18	25.137
266.55	27.249
266.92	28.238
267.29	25.326
267.66	25.575
268.03	26.178
268.40	24.021
268.77	28.075
269.14	22.542
269.51	26.992
269.88	22.693
270.25	24.490
270.62	22.195
270.99	21.483
271.36	24.694
271.73	25.352
272.10	23.601
272.47	23.641
272.84	25.000
273.21	23.434
273.58	23.614
273.95	23.799
274.32	22.171
274.69	24.434
275.06	24.330
275.43	24.036
275.80	22.737
276.17	23.218
276.54	22.270
276.91	24.561
277.28	21.616
277.65	23.554
278.02	25.106
278.39	24.726
278.76	21.174
279.13	21.992
279.50	24.370
279.87	23.542
280.23	22.581
280.60	24.951
280.97	24.444
281.34	21.731
281.71	24.641
282.08	23.313
282.45	21.135
282.82	22.008
283.19	23.598
283.56	22.929
283.92	22.581
284.29	21.346
284.66	22.674
285.03	21.415
285.40	21.550
285.77	21.265
286.14	22.924
286.51	24.354
286.87	21.938
287.24	22.836
287.61	22.046
287.98	24.386
288.35	22.704
288.72	22.417
289.08	19.444
289.45	21.265
289.82	21.154
290.19	20.819
290.56	19.383
290.93	19.865
291.29	17.720
291.66	22.047
292.03	18.979
292.40	20.806
292.77	18.182
293.13	17.045
293.50	18.058
293.87	20.000
294.24	17.774
294.60	18.182
294.97	18.452
295.34	17.178
295.71	17.288
296.08	18.087
296.44	16.785
296.81	17.500
297.18	18.406
297.55	18.699
297.91	17.260
298.28	17.810
298.65	15.739
299.02	16.442
299.38	15.185
299.75	16.966
300.12	17.801
300.48	15.679
300.85	17.110
301.22	14.675
301.59	15.526
301.95	17.468
302.32	18.158
302.69	16.542
303.05	16.584
303.42	14.695
303.79	16.355
304.15	16.487
304.52	15.577
304.89	15.205
305.25	15.133
305.62	15.869
305.99	15.439
306.35	14.798
306.72	13.836
307.09	15.964
307.45	14.122
307.82	14.931
308.19	17.073
308.55	15.485
308.92	16.776
309.29	14.190
309.65	14.316
310.02	16.502
310.38	16.356
310.75	16.066
311.12	15.608
311.48	16.225
311.85	14.555
312.22	13.924
312.58	14.756
312.95	15.582
313.31	14.907
313.68	13.613
314.05	13.061
314.41	15.052
314.78	14.639
315.14	14.697
315.51	16.253
315.87	13.012
316.24	14.863
316.61	13.583
316.97	15.179
317.34	13.867
317.70	15.296
318.07	13.558
318.43	14.314
318.80	14.394
319.16	14.160
319.53	15.764
319.89	15.256
320.26	14.676
320.62	15.547
320.99	13.987
321.35	14.697
321.72	15.265
322.08	15.811
322.45	14.010
322.81	14.244
323.18	13.837
323.54	13.417
323.91	14.216
324.27	14.551
324.64	14.888
325.00	15.237
325.37	16.253
325.73	13.327
326.10	13.261
326.46	13.901
326.83	14.523
327.19	13.165
327.56	16.160
327.92	14.965
328.29	13.929
328.65	13.962
329.01	14.522
329.38	14.747
329.74	13.126
330.11	14.643
330.47	12.894
330.84	13.750
331.20	15.114
331.56	13.148
331.93	14.155
332.29	14.849
332.66	14.389
333.02	14.033
333.38	13.291
333.75	14.652
334.11	13.608
334.48	14.143
334.84	14.377
335.20	12.443
335.57	13.418
335.93	14.724
336.29	14.457
336.66	13.351
337.02	13.569
337.38	13.981
337.75	14.000
338.11	15.059
338.47	14.234
338.84	13.956
339.20	13.071
339.56	14.220
339.93	14.324
340.29	14.220
340.65	13.889
341.02	14.539
341.38	13.186
341.74	13.516
342.11	13.258
342.47	13.345
342.83	14.100
343.20	14.634
343.56	14.696
343.92	14.260
344.28	15.457
344.65	13.126
345.01	12.792
345.37	13.625
345.73	14.644
346.10	14.409
346.46	14.802
346.82	13.339
347.19	13.300
347.55	15.622
347.91	13.835
348.27	14.147
348.63	14.651
349.00	13.864
349.36	14.131
349.72	13.101
350.08	14.262
350.45	14.206
350.81	13.289
351.17	13.355
351.53	13.796
351.89	12.882
352.26	14.080
352.62	13.548
352.98	14.217
353.34	13.688
353.70	14.725
354.07	13.790
354.43	14.091
354.79	12.964
355.15	14.762
355.51	13.528
355.87	14.239
356.24	12.887
356.60	13.015
356.96	14.524
357.32	13.818
357.68	13.057
358.04	12.439
358.40	13.666
358.77	13.636
359.13	13.371
359.49	13.020
359.85	13.573
360.21	13.158
360.57	13.619
360.93	13.691
361.29	12.538
361.66	13.401
362.02	13.030
362.38	13.481
362.74	13.702
363.10	13.093
363.46	13.566
363.82	14.200
364.18	12.472
364.54	12.206
364.90	12.975
365.26	13.246
365.62	13.869
365.98	12.830
366.35	14.275
366.71	12.565
367.07	13.353
367.43	12.653
367.79	13.428
368.15	14.214
368.51	12.527
368.87	11.055
369.23	11.913
369.59	13.411
369.95	12.243
370.31	13.006
370.67	12.761
371.03	11.800
371.39	12.764
371.75	12.967
372.11	13.338
372.47	13.166
372.83	13.201
373.19	13.267
373.55	12.347
373.91	12.599
374.27	12.757
374.63	13.711
374.99	11.915
375.35	13.162
375.71	13.287
376.07	12.640
376.42	12.925
376.78	12.550
377.14	12.796
377.50	13.147
377.86	13.186
378.22	12.508
378.58	12.821
378.94	12.665
379.30	13.288
379.66	12.727
380.02	12.630
380.38	11.625
380.74	12.208
381.09	12.086
381.45	12.416
381.81	12.338
382.17	11.929
382.53	12.180
382.89	12.994
383.25	11.886
383.61	13.110
383.97	11.429
384.32	12.445
384.68	13.375
385.04	11.520
385.40	11.325
385.76	13.522
386.12	12.872
386.48	12.899
386.83	12.809
387.19	12.515
387.55	13.112
387.91	12.225
388.27	12.088
388.62	12.775
388.98	12.584
389.34	11.868
389.70	12.803
390.06	11.768
390.42	11.528
390.77	12.034
391.13	11.602
391.49	12.549
391.85	12.151
392.20	12.116
392.56	11.761
392.92	12.566
393.28	11.616
393.64	12.312
393.99	12.853
394.35	11.385
394.71	12.771
395.07	12.696
395.42	11.779
395.78	12.248
396.14	12.926
396.50	12.302
396.85	12.878
397.21	12.970
397.57	11.411
397.92	12.582
398.28	12.529
398.64	11.627
399.00	12.754
399.35	11.117
399.71	12.636
400.07	13.059
400.42	12.118
400.78	12.921
401.14	12.523
401.49	12.865
401.85	12.188
402.21	12.349
402.57	12.562
402.92	11.606
403.28	12.594
403.63	12.295
403.99	12.054
404.35	13.117
404.70	12.024
405.06	12.280
405.42	11.871
405.77	11.447
406.13	12.456
406.49	12.019
406.84	12.042
407.20	11.981
407.55	11.590
407.91	12.233
408.27	11.217
408.62	12.985
408.98	12.015
409.34	11.896
409.69	13.049
410.05	11.638
410.40	12.160
410.76	12.304
411.11	12.375
411.47	11.834
411.83	11.802
412.18	12.741
412.54	11.548
412.89	11.515
413.25	12.515
413.60	12.236
413.96	12.393
414.31	12.744
414.67	12.187
415.03	12.317
415.38	12.467
415.74	12.378
416.09	12.737
416.45	12.086
416.80	12.624
417.16	13.122
417.51	12.791
417.87	11.995
418.22	12.111
418.58	12.107
418.93	11.912
419.29	11.716
419.64	12.249
420.00	13.161
420.35	12.299
420.71	12.819
421.06	12.032
421.42	13.161
421.77	12.486
422.12	12.372
422.48	12.507
422.83	12.877
423.19	12.980
423.54	11.346
423.90	11.543
424.25	12.629
424.61	12.852
424.96	12.950
425.31	12.767
425.67	12.617
426.02	12.662
426.38	12.148
426.73	12.107
427.09	12.848
427.44	12.412
427.79	12.669
428.15	12.803
428.50	11.872
428.85	11.978
429.21	13.016
429.56	13.046
429.92	12.789
430.27	12.231
430.62	11.657
430.98	12.686
431.33	12.618
431.68	11.512
432.04	11.962
432.39	11.694
432.74	12.327
433.10	12.989
433.45	13.142
433.80	11.782
434.16	11.911
434.51	13.065
434.86	12.950
435.22	12.227
435.57	12.726
435.92	12.515
436.28	11.568
436.63	12.949
436.98	12.225
437.34	11.736
437.69	12.522
438.04	12.479
438.39	12.095
438.75	13.115
439.10	13.413
439.45	12.964
439.81	12.355
440.16	12.827
440.51	12.955
440.86	14.018
441.22	12.952
441.57	13.024
441.92	13.064
442.27	13.027
442.63	13.758
442.98	12.809
443.33	12.688
443.68	13.422
444.03	13.711
444.39	12.887
444.74	13.601
445.09	13.029
445.44	12.821
445.79	13.357
446.15	12.610
446.50	12.146
446.85	13.071
447.20	12.461
447.55	13.560
447.91	12.690
448.26	13.034
448.61	12.838
448.96	12.450
449.31	13.295
449.66	12.776
450.02	13.919
450.37	12.330
450.72	13.345
451.07	13.481
451.42	13.421
451.77	12.899
452.12	12.201
452.47	12.621
452.83	13.369
453.18	12.587
453.53	13.211
453.88	13.661
454.23	12.415
454.58	13.350
454.93	14.562
455.28	13.016
455.63	14.011
455.98	13.891
456.34	13.729
456.69	12.897
457.04	13.863
457.39	12.880
457.74	13.059
458.09	13.184
458.44	12.639
458.79	12.605
459.14	13.215
459.49	13.910
459.84	13.762
460.19	13.410
460.54	13.631
460.89	13.466
461.24	14.224
461.59	13.599
461.94	12.579
462.29	13.028
462.64	12.957
462.99	13.879
463.34	13.213
463.69	13.385
464.04	14.044
464.39	13.463
464.74	13.620
465.09	13.911
465.44	13.849
465.79	13.492
466.14	13.968
466.49	13.571
466.84	13.266
467.19	13.079
467.54	13.474
467.89	13.771
468.24	12.895
468.59	13.651
468.94	12.889
469.29	14.033
469.64	14.286
469.99	13.455
470.34	13.242
470.68	13.796
471.03	13.659
471.38	14.123
471.73	14.076
472.08	13.840
472.43	13.423
472.78	13.160
473.13	13.946
473.48	13.876
473.83	13.512
474.17	13.925
474.52	14.231
474.87	13.879
475.22	14.033
475.57	13.778
475.92	13.933
476.27	13.329
476.61	13.657
476.96	13.608
477.31	14.170
477.66	13.483
478.01	13.644
478.36	14.270
478.70	13.975
479.05	14.121
479.40	13.514
479.75	13.452
480.10	13.569
480.45	13.850
480.79	13.696
481.14	14.242
481.49	14.187
481.84	14.141
482.19	13.377
482.53	13.333
482.88	14.033
483.23	13.916
483.58	13.915
483.92	13.843
484.27	13.719
484.62	14.030
484.97	13.723
485.31	13.692
485.66	13.622
486.01	13.691
486.36	13.270
486.70	13.225
487.05	13.044
487.40	13.444
487.75	13.042
488.09	12.917
488.44	12.861
488.79	13.149
489.13	14.143
489.48	13.339
489.83	14.126
490.17	13.798
490.52	14.550
490.87	13.559
491.22	14.183
491.56	13.283
491.91	13.958
492.26	14.244
492.60	14.299
492.95	14.511
493.30	13.972
493.64	15.079
493.99	14.928
494.34	13.883
494.68	14.333
495.03	13.771
495.37	14.671
495.72	13.882
496.07	14.293
496.41	14.481
496.76	14.417
497.11	14.299
497.45	14.654
497.80	14.581
498.14	14.903
498.49	14.424
498.84	15.020
499.18	14.608
499.53	14.831
499.87	14.300
500.22	14.243
500.56	14.927
500.91	14.006
501.26	13.989
501.60	13.920
501.95	14.556
502.29	15.061
502.64	15.010
502.98	14.208
503.33	14.025
503.67	14.458
504.02	14.858
504.36	14.894
504.71	14.545
505.06	14.243
505.40	14.619
505.75	14.691
506.09	14.242
506.44	16.068
506.78	15.102
507.13	14.891
507.47	13.786
507.82	13.996
508.16	14.739
508.51	14.743
508.85	14.704
509.19	14.423
509.54	14.853
509.88	14.941
510.23	14.147
510.57	15.446
510.92	13.699
511.26	14.403
511.61	15.072
511.95	15.123
512.30	14.246
512.64	15.192
512.98	15.385
513.33	15.781
513.67	15.009
514.02	15.503
514.36	15.200
514.70	15.618
515.05	15.746
515.39	15.289
515.74	15.868
516.08	15.541
516.42	15.783
516.77	15.331
517.11	15.074
517.46	15.440
517.80	15.256
518.14	14.574
518.49	15.144
518.83	16.221
519.17	14.554
519.52	15.808
519.86	15.306
520.20	16.100
520.55	15.760
520.89	15.307
521.23	15.263
521.58	15.836
521.92	15.641
522.26	16.200
522.61	15.974
522.95	17.086
523.29	16.328
523.64	16.518
523.98	16.267
524.32	15.142
524.66	16.453
525.01	16.494
525.35	15.684
525.69	15.017
526.04	16.468
526.38	16.732
526.72	14.519
527.06	15.953
527.41	16.095
527.75	15.013
528.09	16.279
528.43	16.273
528.78	14.191
529.12	16.194
529.46	15.270
529.80	15.706
530.15	16.634
530.49	14.815
530.83	15.527
531.17	16.655
531.51	16.142
531.86	15.772
532.20	15.866
532.54	16.065
532.88	16.427
533.22	16.398
533.57	15.727
533.91	14.752
534.25	17.448
534.59	15.651
534.93	14.978
535.27	15.038
535.62	15.100
535.96	15.656
536.30	16.755
536.64	15.162
536.98	15.679
537.32	16.358
537.66	15.919
538.01	15.105
538.35	15.742
538.69	16.312
539.03	15.106
539.37	16.353
539.71	16.428
540.05	16.022
540.39	14.958
540.73	15.830
541.07	16.575
541.42	16.532
541.76	16.242
542.10	15.348
542.44	16.748
542.78	14.384
543.12	15.591
543.46	15.577
543.80	15.545
544.14	14.619
544.48	15.656
544.82	15.448
545.16	16.462
545.50	16.355
545.84	16.785
546.18	16.454
546.52	16.006
546.86	15.457
547.20	16.595
547.54	15.194
547.88	16.168
548.22	15.056
548.56	15.369
548.90	17.049
549.24	15.840
549.58	16.432
549.92	14.081
550.26	15.897
550.60	15.836
550.94	15.534
551.28	15.611
551.62	16.923
551.96	15.714
552.30	16.813
552.64	16.150
552.98	15.823
553.32	15.906
553.66	16.763
554.00	16.131
554.34	16.691
554.68	16.150
555.02	15.997
555.36	16.156
555.69	15.824
556.03	15.917
556.37	15.658
556.71	16.606
557.05	15.958
557.39	15.242
557.73	15.742
558.07	17.647
558.41	16.922
558.75	16.524
559.08	15.839
559.42	16.270
559.76	16.573
560.10	15.673
560.44	15.488
560.78	16.084
561.12	16.714
561.45	16.514
561.79	16.527
562.13	16.466
562.47	16.259
562.81	16.354
563.15	16.361
563.48	15.983
563.82	16.266
564.16	15.808
564.50	15.203
564.84	15.127
565.17	15.493
565.51	16.530
565.85	15.844
566.19	16.645
566.52	16.019
566.86	16.967
567.20	15.255
567.54	15.815
567.88	16.520
568.21	15.328
568.55	15.435
568.89	15.914
569.23	15.503
569.56	15.368
569.90	14.860
570.24	14.700
570.57	14.800
570.91	15.336
571.25	14.962
571.59	14.232
571.92	14.489
572.26	14.342
572.60	14.295
572.93	13.837
573.27	13.950
573.61	14.350
573.95	14.582
574.28	14.248
574.62	13.806
574.96	14.286
575.29	14.361
575.63	13.812
575.97	13.852
576.30	13.691
576.64	13.536
576.98	14.208
577.31	14.131
577.65	14.151
577.98	13.884
578.32	13.535
578.66	13.583
578.99	13.500
579.33	13.440
579.67	13.878
580.00	14.101
580.34	13.806
580.67	13.353
581.01	13.761
581.35	13.501
581.68	13.993
582.02	13.727
582.35	13.723
582.69	14.044
583.02	13.672
583.36	13.698
583.70	13.837
584.03	13.706
584.37	14.455
584.70	13.709
585.04	13.212
585.37	13.808
585.71	13.602
586.04	13.918
586.38	13.684
586.72	14.232
587.05	14.471
587.39	14.370
587.72	14.188
588.06	14.199
588.39	14.099
588.73	14.255
589.06	14.025
589.40	13.965
589.73	14.823
590.07	14.690
590.40	15.054
590.73	14.580
591.07	14.334
591.40	14.292
591.74	15.249
592.07	14.981
592.41	15.018
592.74	14.456
593.08	14.321
593.41	14.300
593.75	14.066
594.08	14.212
594.41	14.010
594.75	14.198
595.08	14.415
595.42	14.428
595.75	14.570
596.09	14.386
596.42	14.551
596.75	15.053
597.09	14.897
597.42	14.815
597.75	14.796
598.09	14.848
598.42	14.215
598.76	14.972
599.09	14.663
599.42	14.627
599.76	14.597
600.09	13.989
600.42	14.822
600.76	14.079
601.09	14.504
601.42	13.905
601.76	14.569
602.09	14.315
602.42	14.743
602.76	14.771
603.09	14.659
603.42	14.883
603.76	14.315
604.09	14.054
604.42	14.636
604.76	15.532
605.09	14.625
605.42	14.718
605.75	14.492
606.09	14.522
606.42	14.595
606.75	14.892
607.09	14.901
607.42	14.222
607.75	14.076
608.08	14.016
608.42	14.162
608.75	15.133
609.08	14.350
609.41	15.127
609.75	14.617
610.08	15.077
610.41	14.203
610.74	15.261
611.07	14.884
611.41	13.908
611.74	15.405
612.07	14.668
612.40	14.934
612.73	14.746
613.07	15.354
613.40	15.591
613.73	15.165
614.06	15.192
614.39	15.285
614.72	15.126
615.06	15.251
615.39	15.448
615.72	14.532
616.05	15.587
616.38	14.986
616.71	14.862
617.05	16.245
617.38	15.085
617.71	15.346
618.04	15.175
618.37	16.267
618.70	16.304
619.03	16.667
619.36	14.834
619.69	15.542
620.03	17.458
620.36	16.309
620.69	16.702
621.02	15.826
621.35	17.427
621.68	16.156
622.01	16.833
622.34	16.441
622.67	16.562
623.00	16.922
623.33	15.549
623.66	15.108
623.99	15.658
624.32	16.730
624.65	15.113
624.99	16.479
625.32	15.163
625.65	16.811
625.98	15.794
626.31	15.711
626.64	16.551
626.97	16.579
627.30	16.462
627.63	17.244
627.96	16.801
628.29	17.576
628.62	17.601
628.95	16.733
629.28	16.331
629.61	17.149
629.94	17.302
630.26	15.020
630.59	16.857
630.92	16.410
631.25	17.436
631.58	17.070
631.91	16.886
632.24	16.399
632.57	16.932
632.90	18.149
633.23	17.412
633.56	17.003
633.89	16.893
634.22	18.765
634.55	18.297
634.88	15.837
635.20	17.821
635.53	18.400
635.86	16.645
636.19	19.017
636.52	16.964
636.85	17.370
637.18	17.736
637.51	17.610
637.83	16.426
638.16	19.782
638.49	17.166
638.82	19.079
639.15	16.282
639.48	18.569
639.81	19.526
640.13	18.615
640.46	19.388
640.79	18.704
641.12	17.725
641.45	19.369
641.77	17.185
642.10	20.063
642.43	17.685
642.76	20.132
643.09	20.840
643.41	18.285
643.74	17.957
644.07	19.704
644.40	20.270
644.73	20.490
645.05	18.624
645.38	20.811
645.71	17.199
646.04	21.005
646.36	18.617
646.69	22.662
647.02	20.227
647.35	20.522
647.67	20.658
648.00	19.776
648.33	17.918
648.66	17.797
648.98	19.095
649.31	19.174
649.64	16.484
649.96	17.018
650.29	19.591
650.62	19.487
650.94	18.333
651.27	19.367
651.60	19.640
651.92	19.406
652.25	16.519
652.58	19.833
652.90	18.525
653.23	19.832
653.56	16.582
653.88	16.495
654.21	17.163
654.54	17.827
654.86	18.676
655.19	17.836
655.52	17.028
655.84	14.426
656.17	15.711
656.49	20.703
656.82	20.673
657.15	15.132
657.47	11.311
657.80	8.231
658.13	8.069
658.45	11.955
658.78	12.378
659.10	12.149
659.43	12.043
659.75	12.926
660.08	13.034
660.41	16.037
660.73	15.608
661.06	18.198
661.38	17.613
661.71	16.427
662.03	21.674
662.36	20.659
662.68	21.239
663.01	20.306
663.33	17.865
663.66	17.442
663.98	16.047
664.31	21.322
664.63	17.281
664.96	15.652
665.28	16.115
665.61	19.264
665.93	20.652
666.26	18.438
666.58	16.779
666.91	19.529
667.23	19.104
667.56	21.327
667.88	17.026
668.21	18.377
668.53	20.331
668.86	19.340
669.18	20.519
669.50	16.949
669.83	19.302
670.15	20.280
670.48	20.574
670.80	20.968
671.13	16.779
671.45	16.895
671.77	17.382
672.10	18.812
672.42	16.854
672.75	19.361
673.07	18.605
673.39	18.899
673.72	14.596
674.04	17.708
674.37	18.432
674.69	18.415
675.01	20.667
675.34	19.595
675.66	20.139
675.98	19.069
676.31	19.725
676.63	17.102
676.95	20.682
677.28	21.176
677.60	19.277
677.92	19.266
678.25	19.475
678.57	18.831
678.89	19.538
679.22	18.345
679.54	18.876
679.86	16.302
680.18	19.029
680.51	17.424
680.83	17.893
681.15	20.200
681.48	21.107
681.80	18.388
682.12	19.960
682.44	17.782
682.77	17.439
683.09	15.789
683.41	16.136
683.73	20.046
684.06	19.690
684.38	15.914
684.70	18.301
685.02	17.220
685.34	14.822
685.67	16.323
685.99	19.349
686.31	18.230
686.63	18.182
686.96	18.061
687.28	15.354
687.60	17.490
687.92	20.404
688.24	16.331
688.56	19.432
688.89	16.964
689.21	18.444
689.53	15.777
689.85	18.837
690.17	19.643
690.49	19.622
690.82	18.204
691.14	16.429
691.46	16.355
691.78	20.045
692.10	19.570
692.42	14.935
692.74	16.667
693.06	16.892
693.39	18.100
693.71	17.195
694.03	19.400
694.35	17.991
694.67	17.172
694.99	19.321
695.31	21.410
695.63	19.750
695.95	17.172
696.27	17.876
696.59	22.500
696.91	18.487
697.23	18.252
697.56	17.574
697.88	18.065
698.20	17.768
698.52	17.882
698.84	15.550
699.16	15.750
699.48	17.293
699.80	19.355
700.12	19.677
700.44	19.048
700.76	17.733
701.08	19.697
701.40	20.783
701.72	22.222
702.04	19.142
702.36	18.060
702.68	18.619
703.00	16.970
703.32	18.768
703.64	16.667
703.96	19.710
704.28	18.098
704.60	18.730
704.91	16.719
705.23	19.934
705.55	26.148
705.87	21.300
706.19	22.593
706.51	20.275
706.83	17.363
707.15	19.003
707.47	16.807
707.79	15.885
708.11	22.000
708.43	20.750
708.74	17.313
709.06	18.873
709.38	16.820
709.70	21.302
710.02	16.561
710.34	21.362
710.66	16.346
710.98	17.881
711.29	19.344
711.61	16.949
711.93	17.264
712.25	23.368
712.57	17.949
712.89	15.672
713.20	19.377
713.52	18.467
713.84	19.113
714.16	17.182
714.48	14.194
714.80	17.628
715.11	20.669
715.43	14.420
715.75	15.667
716.07	16.611
716.39	18.792
716.70	20.295
717.02	18.321
717.34	20.648
717.66	17.699
717.97	16.087
718.29	18.828
718.61	19.291
718.93	18.605
719.24	14.829
719.56	20.884
719.88	16.495
720.20	23.106
720.51	15.709
720.83	18.919
721.15	19.748
721.46	18.145
721.78	15.810
722.10	16.729
722.42	13.693
722.73	14.286
723.05	15.102
723.37	21.186
723.68	19.820
724.00	21.368
724.32	20.000
724.63	19.545
724.95	22.271
725.27	16.129
725.58	17.797
725.90	14.286
726.22	18.919
726.53	20.678
726.85	19.850
727.16	14.717
727.48	17.409
727.80	19.433
728.11	16.102
728.43	15.294
728.74	13.710
729.06	19.600
729.38	24.812
729.69	16.733
730.01	13.462
730.32	19.403
730.64	18.021
730.96	16.226
731.27	16.333
731.59	16.610
731.90	18.153
732.22	17.666
732.53	20.598
732.85	19.149
733.16	17.508
733.48	14.388
733.80	15.580
734.11	13.220
734.43	16.151
734.74	17.576
735.06	16.287
735.37	17.825
735.69	20.202
736.00	14.634
736.32	17.114
736.63	17.958
736.95	16.724
737.26	18.149
737.58	13.423
737.89	15.385
738.21	19.173
738.52	20.576
738.83	22.707
739.15	15.284
739.46	14.567
739.78	16.484
740.09	15.359
740.41	16.304
740.72	11.024
741.04	14.170
741.35	13.191
741.66	17.536
741.98	17.857
742.29	16.337
742.61	19.372
742.92	10.900
743.23	16.204
743.55	18.552
743.86	21.053
744.18	14.354
744.49	15.957
744.80	19.022
745.12	23.529
745.43	10.732
745.74	19.271
746.06	15.122
746.37	19.895
746.68	20.853
747.00	14.362
747.31	21.891
747.62	12.621
747.94	19.139
748.25	18.812
748.56	24.590
748.88	19.372
749.19	23.936
749.50	18.719
749.82	11.321
750.13	14.679
750.44	18.421
750.75	15.672
751.07	19.343
751.38	15.709
751.69	9.804
752.01	18.217
752.32	17.530
752.63	16.206
752.94	16.379
753.26	22.176
753.57	13.575
753.88	19.912
754.19	15.000
754.51	13.223
754.82	12.551
755.13	20.417
755.44	19.355
755.75	19.141
756.07	18.288
756.38	13.962
756.69	16.092
757.00	11.667
757.31	17.320
757.63	13.415
757.94	14.722
758.25	17.260
758.56	18.351
758.87	14.164
759.18	14.019
759.50	13.818
759.81	15.050
760.12	19.677
760.43	13.636
760.74	16.358
761.05	15.385
761.36	14.773
761.67	17.273
761.99	19.388
762.30	14.545
762.61	20.949
762.92	12.217
763.23	11.712
763.54	15.888
763.85	13.136
764.16	15.353
764.47	12.903
764.78	19.780
765.10	18.182
765.41	17.666
765.72	17.143
766.03	12.030
766.34	15.693
766.65	16.733
766.96	16.162
767.27	14.362
767.58	12.069
767.89	11.348
768.20	19.886
768.51	12.088
768.82	18.719
769.13	13.364
769.44	15.451
769.75	14.155
770.06	14.224
770.37	15.385
770.68	14.721
770.99	12.217
771.30	20.098
771.61	14.480
771.92	20.259
772.23	21.675
772.54	22.043
772.85	14.815
773.16	13.483
773.47	20.261
773.78	20.261
774.09	17.365
774.39	16.667
774.70	17.834
775.01	24.828
775.32	10.000
775.63	10.744
775.94	11.450
776.25	14.961
776.56	20.000
776.87	24.038
777.18	8.547
777.48	20.690
777.79	12.174
778.10	2.857
778.41	15.315
778.72	12.698
779.03	15.789
779.34	21.277
779.65	19.178
779.95	13.014
780.26	17.931
780.57	11.382
780.88	12.598
781.19	14.655
781.50	19.380
781.80	10.651
782.11	10.063
782.42	12.308
782.73	10.791
783.04	22.963
783.34	12.500
783.65	1.709
783.96	18.033
784.27	22.759
784.57	9.756
784.88	19.531
785.19	25.000
785.50	18.000
785.81	16.379
786.11	12.931
786.42	10.680
786.73	28.182
787.04	12.245
787.34	12.500
787.65	16.190
787.96	10.619
788.26	20.909
788.57	20.513
788.88	19.531
789.19	7.143
789.49	11.304
789.80	1.020
790.11	17.172
790.41	10.000
790.72	9.783
791.03	11.364
791.33	15.000
791.64	27.500
791.95	12.791
792.25	21.277
792.56	16.854
792.87	6.849
793.17	15.942
793.48	6.667
793.79	11.250
794.09	28.750
794.40	7.547
794.70	6.796
795.01	11.382
795.32	13.675
795.62	15.238
795.93	20.588
796.23	11.321
796.54	13.542
796.85	11.765
797.15	7.042
797.46	16.667
797.76	24.242
798.07	18.605
798.37	5.263
798.68	6.061
798.99	22.222
799.29	27.143
799.60	13.043
799.90	18.667
800.21	16.393
800.51	24.615
800.82	28.814
801.12	5.797
801.43	4.918
801.73	6.349
802.04	0.000
802.34	10.448
802.65	0.000
802.95	-5.357
803.26	-5.769
803.56	13.725
803.87	2.174
804.17	29.333
804.48	23.810
804.78	24.074
805.09	-8.696
805.39	-6.667
805.70	29.630
806.00	-5.263
806.30	16.901
806.61	27.143
806.91	-4.167
807.22	13.158
807.52	5.333
807.83	7.273
808.13	16.667
808.43	22.059
808.74	32.836
809.04	8.475
809.35	15.385
809.65	20.313
809.95	-24.324
810.26	-11.364
810.56	16.438
810.86	0.000
811.17	12.000
811.47	30.612
811.77	10.526
812.08	2.273
812.38	13.208
812.69	20.000
812.99	-3.030
813.29	13.158
813.59	-14.286
813.90	13.636
814.20	2.564
814.50	-5.769
814.81	22.642
815.11	8.511
815.41	40.678
815.72	40.476
816.02	17.647
816.32	16.667
816.62	12.195
816.93	2.703
817.23	-2.857
817.53	39.583
817.84	-4.348
818.14	21.154
818.44	21.053
818.74	39.130
819.04	-5.000
819.35	27.027
819.65	-5.882
819.95	13.889
820.25	0.000
820.56	27.500
820.86	-34.483
821.16	22.500
821.46	25.532
821.76	-7.500
822.07	13.953
822.37	-5.405
822.67	0.000
822.97	23.810
823.27	10.714
823.57	4.000
823.88	-22.222
824.18	10.714
824.48	-5.882
824.78	-6.452
825.08	13.043
825.38	21.212
825.69	-29.167
825.99	7.895
826.29	0.000
826.59	0.000
826.89	-66.667
827.19	23.913
827.49	17.500
827.79	22.857
828.09	10.714
828.39	42.424
828.70	35.135
829.00	14.286
829.30	9.524
829.60	3.333
829.90	37.500
830.20	7.895
830.50	3.704
830.80	-26.087
831.10	13.636
831.40	18.182
831.70	29.032
832.00	28.571
832.30	14.286
832.60	0.000
832.90	27.586
833.20	-15.000
833.50	15.152
833.80	3.704
834.10	-3.846
834.40	18.750
834.70	11.111
835.00	-26.316
835.30	65.385
835.60	-13.333
835.90	6.452
836.20	13.636
836.50	35.714
836.80	-26.923
837.10	-7.143
837.40	-266.667
837.70	9.091
838.00	-45.455
838.30	-26.087
838.60	-53.846
838.90	9.091
839.19	39.286
839.49	53.333
839.79	0.000
840.09	-50.000
840.39	35.714
840.69	10.714
840.99	-15.385
841.29	-36.842
841.59	40.000
841.88	27.273
842.18	-40.000
842.48	62.500
842.78	33.333
843.08	0.000
843.38	-40.000
843.68	-8.696
843.97	20.000
844.27	-6.667
844.57	35.000
844.87	22.222
845.17	-19.048
845.47	6.667
845.76	-42.857
846.06	35.294
846.36	-150.000
846.66	28.571
846.96	-73.333
847.25	-25.000
847.55	-14.286
847.85	-75.000
848.15	22.727
848.44	-666.667
848.74	-15.000
849.04	7.407
849.34	-36.364
849.63	-216.667
849.93	-140.000
850.23	-22.222
850.53	70.000
850.82	23.077
851.12	11.111
851.42	-20.000
851.71	23.077
852.01	35.714
852.31	-125.000
852.61	-118.182
852.90	35.000
853.20	-47.368
853.50	50.000
853.79	8.696
854.09	41.667
854.39	-15.789
854.68	-4.167
854.98	29.032
855.28	7.692
855.57	-10.000
855.87	16.667
856.17	22.222
856.46	-64.286
856.76	-13.333
857.05	100.000
857.35	32.000
857.65	55.556
857.94	-23.077
858.24	34.483
858.53	33.333
858.83	33.333
859.13	-9.091
859.42	-13.043
859.72	-75.000
860.01	-666.667
860.31	36.000
860.60	-9.524
860.90	-133.333
861.20	-33.333
861.49	-200.000
861.79	-33.333
862.08	-5.000
862.38	80.000
862.67	-300.000
862.97	0.000
863.26	8.333
863.56	38.889
863.85	-266.667
864.15	50.000
864.44	-40.000
864.74	114.286
865.03	225.000
865.33	-60.000
865.62	16.667
865.92	-8.333
866.21	-150.000
866.51	43.750
866.80	9.091
867.10	-250.000
867.39	108.333
867.69	0.000
867.98	-15.385
868.27	-33.333
868.57	13.333
868.86	-5.556
869.16	-7.692
869.45	6.667
869.75	-900.000
870.04	0.000
870.33	0.000
870.63	33.333
870.92	433.333
871.22	-200.000
871.51	-500.000
871.80	33.333
872.10	300.000
>>>>>End Processed Spectral Data<<<<<
