SpectraSuite Data File
++++++++++++++++++++++++++++++++++++
Date: Fri May 15 20:49:45 PDT 2015
User: schluterlab
Dark Spectrum Present: Yes
Reference Spectrum Present: Yes
Number of Sampled Component Spectra: 1
Spectrometers: USB2E3373
Integration Time (usec): 3000 (USB2E3373)
Spectra Averaged: 3 (USB2E3373)
Boxcar Smoothing: 0 (USB2E3373)
Correct for Electrical Dark: No (USB2E3373)
Strobe/Lamp Enabled: No (USB2E3373)
Correct for Detector Non-linearity: No (USB2E3373)
Correct for Stray Light: No (USB2E3373)
Number of Pixels in Processed Spectrum: 2048
>>>>>Begin Processed Spectral Data<<<<<
178.53	0.000
178.91	0.000
179.29	62.500
179.67	-450.000
180.04	-14.286
180.42	-75.000
180.80	-700.000
181.18	-100.000
181.56	200.000
181.94	-50.000
182.31	400.000
182.69	-80.000
183.07	-433.333
183.45	-60.000
183.83	183.333
184.20	-54.545
184.58	111.111
184.96	25.000
185.34	-0.000
185.72	-800.000
186.09	92.308
186.47	-200.000
186.85	50.000
187.23	177.778
187.61	1000.000
187.98	-166.667
188.36	-44.444
188.74	-233.333
189.12	-5.882
189.49	-16.667
189.87	0.000
190.25	-7.143
190.63	0.000
191.00	0.000
191.38	31.579
191.76	150.000
192.14	200.000
192.51	-150.000
192.89	-55.556
193.27	-142.857
193.65	283.333
194.02	145.455
194.40	-50.000
194.78	-125.000
195.15	-66.667
195.53	-137.500
195.91	200.000
196.29	-75.000
196.66	69.231
197.04	100.000
197.42	-100.000
197.79	-600.000
198.17	-84.615
198.55	2000.000
198.92	-266.667
199.30	-1600.000
199.68	-180.000
200.05	-200.000
200.43	0.000
200.81	33.333
201.18	-300.000
201.56	1400.000
201.94	-600.000
202.31	466.667
202.69	-220.000
203.07	100.000
203.44	100.000
203.82	0.000
204.19	0.000
204.57	-433.333
204.95	262.500
205.32	-10.000
205.70	-57.143
206.08	-250.000
206.45	155.556
206.83	42.857
207.20	-128.571
207.58	300.000
207.96	-500.000
208.33	-100.000
208.71	-50.000
209.08	-300.000
209.46	-400.000
209.84	-80.000
210.21	-1400.000
210.59	-42.857
210.96	-133.333
211.34	25.000
211.71	-13.333
212.09	-228.571
212.46	-1800.000
212.84	0.000
213.22	-50.000
213.59	600.000
213.97	-30.769
214.34	36.364
214.72	16.667
215.09	275.000
215.47	-30.769
215.84	-109.091
216.22	-266.667
216.59	-125.000
216.97	-250.000
217.34	-250.000
217.72	-240.000
218.09	-50.000
218.47	162.500
218.84	-1000.000
219.22	-100.000
219.59	0.000
219.97	66.667
220.34	425.000
220.72	28.571
221.09	-100.000
221.47	50.000
221.84	-700.000
222.22	-1100.000
222.59	-9.091
222.97	-50.000
223.34	-133.333
223.72	-42.857
224.09	4.762
224.46	32.143
224.84	633.333
225.21	10.000
225.59	-53.333
225.96	-300.000
226.34	375.000
226.71	0.000
227.08	-66.667
227.46	12.500
227.83	-300.000
228.21	-33.333
228.58	9.091
228.95	0.000
229.33	110.000
229.70	-6.250
230.08	-62.500
230.45	-28.571
230.82	-57.143
231.20	-33.333
231.57	0.000
231.95	-142.857
232.32	-130.000
232.69	14.286
233.07	-200.000
233.44	-180.000
233.81	-80.000
234.19	0.000
234.56	-23.529
234.93	200.000
235.31	-75.000
235.68	-560.000
236.05	-53.846
236.43	-70.000
236.80	-5.882
237.17	-15.625
237.55	25.000
237.92	-33.333
238.29	22.222
238.67	0.000
239.04	0.000
239.41	0.000
239.79	-20.000
240.16	24.390
240.53	-7.895
240.91	-8.696
241.28	9.524
241.65	23.214
242.02	19.178
242.40	11.667
242.77	1.695
243.14	-7.576
243.51	16.250
243.89	20.690
244.26	10.345
244.63	14.286
245.00	14.433
245.38	11.340
245.75	-5.618
246.12	9.483
246.49	16.529
246.87	17.308
247.24	12.605
247.61	7.895
247.98	17.886
248.36	13.125
248.73	18.421
249.10	16.234
249.47	16.456
249.84	13.072
250.22	14.706
250.59	22.222
250.96	20.657
251.33	18.605
251.70	20.000
252.08	20.305
252.45	22.772
252.82	16.080
253.19	20.737
253.56	21.028
253.94	17.117
254.31	25.652
254.68	20.175
255.05	17.323
255.42	20.524
255.79	22.394
256.16	22.568
256.54	24.254
256.91	19.011
257.28	18.959
257.65	16.105
258.02	16.667
258.39	22.559
258.76	21.978
259.14	22.924
259.51	19.417
259.88	21.306
260.25	20.261
260.62	21.181
260.99	18.305
261.36	19.521
261.73	20.253
262.10	18.845
262.47	19.939
262.85	20.376
263.22	20.308
263.59	19.626
263.96	22.360
264.33	18.788
264.70	18.750
265.07	21.726
265.44	22.096
265.81	21.186
266.18	22.678
266.55	20.823
266.92	20.984
267.29	22.193
267.66	19.182
268.03	19.110
268.40	20.366
268.77	21.123
269.14	19.904
269.51	22.879
269.88	21.696
270.25	19.643
270.62	18.780
270.99	18.670
271.36	19.071
271.73	22.770
272.10	17.762
272.47	19.622
272.84	22.525
273.21	21.114
273.58	20.723
273.95	18.307
274.32	17.783
274.69	16.968
275.06	18.973
275.43	19.955
275.80	19.426
276.17	19.310
276.54	20.343
276.91	19.298
277.28	18.777
277.65	18.182
278.02	21.702
278.39	21.007
278.76	19.706
279.13	15.145
279.50	21.639
279.87	20.302
280.23	17.849
280.60	19.493
280.97	21.818
281.34	18.269
281.71	20.123
282.08	17.996
282.45	19.374
282.82	18.340
283.19	19.536
283.56	16.570
283.92	16.888
284.29	16.346
284.66	18.605
285.03	18.075
285.40	18.904
285.77	17.750
286.14	18.051
286.51	21.218
286.87	16.271
287.24	20.074
287.61	16.402
287.98	18.246
288.35	20.104
288.72	19.089
289.08	16.493
289.45	16.344
289.82	16.958
290.19	16.553
290.56	14.580
290.93	15.488
291.29	15.254
291.66	16.535
292.03	17.065
292.40	17.097
292.77	16.587
293.13	13.474
293.50	14.568
293.87	16.336
294.24	15.456
294.60	14.307
294.97	15.476
295.34	13.804
295.71	14.903
296.08	15.546
296.44	14.794
296.81	15.278
297.18	15.652
297.55	17.344
297.91	12.877
298.28	14.644
298.65	15.332
299.02	13.881
299.38	11.902
299.75	13.103
300.12	13.220
300.48	12.121
300.85	12.928
301.22	12.597
301.59	12.105
301.95	13.418
302.32	15.564
302.69	13.930
303.05	12.252
303.42	13.823
303.79	13.668
304.15	13.620
304.52	12.010
304.89	12.398
305.25	12.228
305.62	10.968
305.99	12.164
306.35	12.486
306.72	12.823
307.09	11.403
307.45	13.203
307.82	12.037
308.19	12.311
308.55	13.086
308.92	14.488
309.29	12.179
309.65	11.733
310.02	12.321
310.38	11.416
310.75	13.443
311.12	13.025
311.48	10.817
311.85	11.099
312.22	12.658
312.58	11.677
312.95	12.060
313.31	11.491
313.68	12.356
314.05	12.755
314.41	11.546
314.78	11.237
315.14	13.361
315.51	12.215
315.87	12.602
316.24	13.145
316.61	12.500
316.97	12.103
317.34	12.598
317.70	12.906
318.07	12.981
318.43	12.843
318.80	12.689
319.16	13.086
319.53	13.865
319.89	14.173
320.26	13.664
320.62	13.741
320.99	11.065
321.35	13.772
321.72	14.849
322.08	13.897
322.45	15.330
322.81	13.360
323.18	12.954
323.54	13.031
323.91	13.340
324.27	14.160
324.64	14.045
325.00	14.690
325.37	15.519
325.73	14.325
326.10	14.078
326.46	15.426
326.83	13.998
327.19	14.037
327.56	15.117
327.92	15.405
328.29	14.732
328.65	15.000
329.01	14.154
329.38	15.300
329.74	13.975
330.11	14.643
330.47	13.544
330.84	14.135
331.20	16.160
331.56	15.278
331.93	15.434
332.29	15.674
332.66	15.204
333.02	14.591
333.38	14.207
333.75	15.934
334.11	14.682
334.48	16.138
334.84	16.392
335.20	15.737
335.57	15.231
335.93	15.357
336.29	15.746
336.66	14.714
337.02	13.941
337.38	14.722
337.75	15.000
338.11	16.231
338.47	15.693
338.84	14.695
339.20	15.722
339.56	15.505
339.93	15.398
340.29	16.972
340.65	16.219
341.02	15.780
341.38	16.106
341.74	14.399
342.11	15.425
342.47	15.480
342.83	16.782
343.20	14.895
343.56	15.826
343.92	15.766
344.28	15.457
344.65	14.508
345.01	15.039
345.37	14.971
345.73	16.234
346.10	15.013
346.46	15.896
346.82	15.630
347.19	15.295
347.55	15.288
347.91	16.828
348.27	15.036
348.63	16.610
349.00	14.602
349.36	15.794
349.72	15.589
350.08	14.590
350.45	14.765
350.81	14.535
351.17	14.577
351.53	15.592
351.89	14.451
352.26	14.960
352.62	15.161
352.98	15.422
353.34	15.056
353.70	14.887
354.07	15.565
354.43	14.892
354.79	15.359
355.15	15.952
355.51	16.297
355.87	15.129
356.24	15.253
356.60	15.521
356.96	15.714
357.32	15.655
357.68	13.995
358.04	15.267
358.40	14.711
358.77	16.188
359.13	14.972
359.49	15.331
359.85	15.757
360.21	14.673
360.57	15.302
360.93	15.961
361.29	14.728
361.66	15.596
362.02	16.288
362.38	15.842
362.74	14.762
363.10	15.425
363.46	14.752
363.82	15.252
364.18	15.572
364.54	15.000
364.90	15.197
365.26	15.066
365.62	16.569
365.98	15.689
366.35	16.824
366.71	15.891
367.07	15.893
367.43	15.313
367.79	15.548
368.15	15.363
368.51	15.732
368.87	14.286
369.23	14.513
369.59	15.452
369.95	16.569
370.31	15.968
370.67	15.075
371.03	15.161
371.39	15.682
371.75	16.337
372.11	16.191
372.47	16.198
372.83	17.033
373.19	17.118
373.55	15.812
373.91	16.559
374.27	16.655
374.63	16.296
374.99	16.170
375.35	16.086
375.71	16.224
376.07	15.379
376.42	16.463
376.78	16.040
377.14	16.317
377.50	16.866
377.86	16.867
378.22	16.975
378.58	16.731
378.94	16.257
379.30	17.093
379.66	17.429
380.02	16.186
380.38	16.251
380.74	16.278
381.09	16.442
381.45	16.514
381.81	16.225
382.17	16.942
382.53	17.489
382.89	17.075
383.25	17.175
383.61	17.378
383.97	16.571
384.32	17.261
384.68	17.214
385.04	17.770
385.40	16.428
385.76	17.862
386.12	18.111
386.48	18.774
386.83	16.487
387.19	17.888
387.55	19.887
387.91	17.787
388.27	17.949
388.62	18.313
388.98	17.495
389.34	17.864
389.70	18.521
390.06	16.992
390.42	18.264
390.77	17.397
391.13	17.591
391.49	17.529
391.85	18.713
392.20	18.267
392.56	18.245
392.92	19.554
393.28	19.104
393.64	18.318
393.99	19.060
394.35	17.774
394.71	18.902
395.07	18.353
395.42	18.640
395.78	19.218
396.14	19.042
396.50	19.214
396.85	18.609
397.21	19.110
397.57	18.746
397.92	18.754
398.28	19.023
398.64	18.855
399.00	19.357
399.35	18.962
399.71	19.701
400.07	20.798
400.42	19.706
400.78	20.147
401.14	20.690
401.49	20.131
401.85	19.622
402.21	19.578
402.57	20.187
402.92	19.260
403.28	20.426
403.63	20.429
403.99	20.344
404.35	20.550
404.70	19.940
405.06	20.153
405.42	20.758
405.77	20.163
406.13	20.314
406.49	20.189
406.84	20.477
407.20	21.192
407.55	20.734
407.91	20.321
408.27	20.395
408.62	21.662
408.98	20.887
409.34	21.561
409.69	20.801
410.05	21.367
410.40	21.049
410.76	21.894
411.11	21.062
411.47	21.039
411.83	21.281
412.18	22.265
412.54	21.536
412.89	20.443
413.25	22.383
413.60	21.863
413.96	20.982
414.31	22.805
414.67	22.001
415.03	21.704
415.38	22.258
415.74	22.410
416.09	22.273
416.45	22.417
416.80	21.679
417.16	22.376
417.51	22.585
417.87	22.490
418.22	22.992
418.58	23.144
418.93	22.821
419.29	22.087
419.64	22.878
420.00	24.685
420.35	22.925
420.71	23.086
421.06	23.757
421.42	23.798
421.77	22.832
422.12	22.985
422.48	23.281
422.83	23.782
423.19	24.097
423.54	22.810
423.90	22.909
424.25	24.053
424.61	24.419
424.96	23.926
425.31	24.263
425.67	24.472
426.02	24.735
426.38	24.609
426.73	24.818
427.09	24.557
427.44	24.235
427.79	24.278
428.15	23.908
428.50	24.773
428.85	24.324
429.21	24.788
429.56	25.391
429.92	24.499
430.27	24.662
430.62	24.046
430.98	24.522
431.33	24.711
431.68	24.699
432.04	24.707
432.39	23.674
432.74	23.031
433.10	25.287
433.45	24.432
433.80	24.782
434.16	24.598
434.51	25.591
434.86	24.855
435.22	25.238
435.57	24.891
435.92	24.731
436.28	24.568
436.63	23.959
436.98	24.797
437.34	24.440
437.69	24.508
438.04	24.501
438.39	24.068
438.75	25.076
439.10	25.184
439.45	24.589
439.81	24.526
440.16	25.713
440.51	25.851
440.86	25.801
441.22	25.566
441.57	25.607
441.92	26.128
442.27	25.776
442.63	26.927
442.98	25.445
443.33	25.097
443.68	25.570
444.03	25.832
444.39	25.971
444.74	26.310
445.09	25.390
445.44	25.584
445.79	26.509
446.15	24.945
446.50	25.679
446.85	25.717
447.20	24.870
447.55	26.562
447.91	25.437
448.26	26.067
448.61	25.964
448.96	25.760
449.31	24.855
449.66	25.958
450.02	25.385
450.37	26.023
450.72	26.289
451.07	25.570
451.42	25.343
451.77	24.774
452.12	24.522
452.47	24.855
452.83	25.324
453.18	25.300
453.53	25.158
453.88	25.197
454.23	25.507
454.58	26.259
454.93	25.322
455.28	24.698
455.63	25.170
455.98	26.158
456.34	25.096
456.69	25.985
457.04	25.583
457.39	24.848
457.74	25.151
458.09	24.603
458.44	25.102
458.79	24.314
459.14	25.973
459.49	26.746
459.84	24.760
460.19	25.182
460.54	25.611
460.89	24.773
461.24	25.280
461.59	25.178
461.94	25.031
462.29	25.633
462.64	24.718
462.99	25.457
463.34	24.061
463.69	25.611
464.04	25.182
464.39	25.652
464.74	25.644
465.09	25.078
465.44	25.563
465.79	25.057
466.14	25.371
466.49	24.899
466.84	25.223
467.19	23.592
467.54	23.946
467.89	23.563
468.24	24.513
468.59	24.063
468.94	23.429
469.29	24.787
469.64	25.564
469.99	24.527
470.34	23.959
470.68	24.609
471.03	24.912
471.38	23.894
471.73	22.969
472.08	23.813
472.43	23.423
472.78	23.920
473.13	23.265
473.48	23.974
473.83	24.035
474.17	24.288
474.52	23.676
474.87	23.576
475.22	23.490
475.57	24.337
475.92	24.026
476.27	24.854
476.61	23.785
476.96	23.648
477.31	23.688
477.66	23.820
478.01	23.919
478.36	23.366
478.70	24.579
479.05	23.352
479.40	23.370
479.75	23.566
480.10	23.758
480.45	23.900
480.79	23.716
481.14	23.617
481.49	23.300
481.84	23.938
482.19	23.433
482.53	24.796
482.88	23.628
483.23	23.512
483.58	23.726
483.92	22.604
484.27	23.655
484.62	23.263
484.97	23.549
485.31	23.230
485.66	24.664
486.01	26.596
486.36	26.440
486.70	26.450
487.05	25.665
487.40	24.586
487.75	24.028
488.09	23.486
488.44	22.902
488.79	22.338
489.13	23.077
489.48	23.172
489.83	22.466
490.17	22.921
490.52	22.725
490.87	22.258
491.22	22.302
491.56	21.869
491.91	22.419
492.26	22.703
492.60	22.505
492.95	22.528
493.30	22.374
493.64	22.642
493.99	22.657
494.34	21.311
494.68	22.238
495.03	22.871
495.37	21.590
495.72	22.312
496.07	22.195
496.41	23.113
496.76	22.294
497.11	21.984
497.45	22.291
497.80	22.099
498.14	22.206
498.49	21.889
498.84	21.507
499.18	21.436
499.53	22.371
499.87	20.817
500.22	21.019
500.56	22.542
500.91	21.637
501.26	21.750
501.60	21.397
501.95	22.125
502.29	21.937
502.64	22.008
502.98	22.348
503.33	21.085
503.67	21.205
504.02	21.652
504.36	21.870
504.71	21.212
505.06	21.590
505.40	21.523
505.75	21.649
506.09	21.693
506.44	21.766
506.78	22.194
507.13	21.458
507.47	20.940
507.82	21.047
508.16	21.395
508.51	20.986
508.85	21.455
509.19	21.075
509.54	20.858
509.88	20.820
510.23	21.840
510.57	20.631
510.92	20.789
511.26	20.731
511.61	21.232
511.95	20.438
512.30	20.288
512.64	21.035
512.98	19.708
513.33	21.489
513.67	20.409
514.02	21.339
514.36	20.057
514.70	21.037
515.05	20.917
515.39	20.425
515.74	21.018
516.08	19.964
516.42	20.966
516.77	20.304
517.11	20.415
517.46	20.168
517.80	20.143
518.14	20.024
518.49	19.712
518.83	19.988
519.17	19.770
519.52	19.775
519.86	19.748
520.20	20.474
520.55	19.012
520.89	20.075
521.23	19.379
521.58	20.315
521.92	20.000
522.26	19.063
522.61	19.675
522.95	20.331
523.29	19.949
523.64	20.076
523.98	20.091
524.32	18.235
524.66	19.782
525.01	21.039
525.35	19.896
525.69	17.778
526.04	19.312
526.38	19.780
526.72	19.621
527.06	19.715
527.41	19.393
527.75	19.437
528.09	18.605
528.43	19.986
528.78	20.198
529.12	19.871
529.46	20.013
529.80	20.583
530.15	19.472
530.49	19.663
530.83	19.767
531.17	18.670
531.51	19.015
531.86	19.171
532.20	19.137
532.54	20.422
532.88	19.781
533.22	19.691
533.57	19.266
533.91	20.104
534.25	20.443
534.59	19.756
534.93	19.761
535.27	18.972
535.62	19.572
535.96	20.157
536.30	20.053
536.64	19.711
536.98	19.233
537.32	19.915
537.66	20.617
538.01	20.490
538.35	19.140
538.69	20.373
539.03	19.275
539.37	19.919
539.71	19.359
540.05	19.280
540.39	19.598
540.73	19.735
541.07	20.166
541.42	20.833
541.76	19.890
542.10	19.339
542.44	19.597
542.78	19.615
543.12	18.819
543.46	20.167
543.80	19.153
544.14	18.959
544.48	19.853
544.82	21.326
545.16	19.467
545.50	21.228
545.84	19.688
546.18	19.858
546.52	18.529
546.86	19.123
547.20	20.815
547.54	18.516
547.88	20.041
548.22	19.527
548.56	19.327
548.90	19.744
549.24	19.697
549.58	18.829
549.92	18.013
550.26	18.608
550.60	19.554
550.94	19.193
551.28	18.779
551.62	19.385
551.96	19.323
552.30	19.152
552.64	19.464
552.98	19.550
553.32	17.974
553.66	18.360
554.00	19.854
554.34	18.833
554.68	18.805
555.02	18.601
555.36	18.474
555.69	18.022
556.03	18.344
556.37	18.078
556.71	18.556
557.05	18.345
557.39	18.364
557.73	19.115
558.07	18.024
558.41	18.377
558.75	18.083
559.08	17.809
559.42	17.937
559.76	18.735
560.10	17.661
560.44	18.317
560.78	18.462
561.12	19.111
561.45	18.552
561.79	18.978
562.13	19.446
562.47	18.417
562.81	18.228
563.15	19.746
563.48	19.236
563.82	18.943
564.16	18.942
564.50	18.176
564.84	19.344
565.17	18.645
565.51	19.536
565.85	18.587
566.19	19.363
566.52	19.973
566.86	19.216
567.20	18.991
567.54	19.526
567.88	19.977
568.21	20.249
568.55	19.891
568.89	20.534
569.23	21.040
569.56	21.410
569.90	21.518
570.24	20.804
570.57	21.673
570.91	21.610
571.25	21.638
571.59	21.146
571.92	21.985
572.26	21.075
572.60	20.992
572.93	20.364
573.27	20.784
573.61	21.420
573.95	21.382
574.28	21.160
574.62	21.587
574.96	21.491
575.29	21.429
575.63	20.342
575.97	20.195
576.30	21.170
576.64	20.662
576.98	21.184
577.31	21.529
577.65	22.018
577.98	21.302
578.32	21.293
578.66	21.255
578.99	21.011
579.33	20.809
579.67	20.616
580.00	20.658
580.34	20.299
580.67	20.821
581.01	20.509
581.35	21.641
581.68	21.669
582.02	21.472
582.35	21.170
582.69	21.387
583.02	20.893
583.36	20.677
583.70	20.794
584.03	20.378
584.37	20.582
584.70	20.495
585.04	20.233
585.37	20.688
585.71	20.588
586.04	20.247
586.38	20.432
586.72	20.717
587.05	20.451
587.39	20.688
587.72	21.241
588.06	20.592
588.39	20.365
588.73	20.513
589.06	19.863
589.40	20.048
589.73	20.007
590.07	19.977
590.40	20.085
590.73	19.522
591.07	19.084
591.40	19.145
591.74	19.005
592.07	19.759
592.41	19.611
592.74	20.032
593.08	19.525
593.41	20.824
593.75	20.281
594.08	19.773
594.41	20.015
594.75	19.771
595.08	19.334
595.42	19.470
595.75	19.865
596.09	19.195
596.42	18.933
596.75	19.583
597.09	18.132
597.42	18.880
597.75	19.194
598.09	18.787
598.42	18.818
598.76	18.662
599.09	19.551
599.42	19.136
599.76	19.225
600.09	18.363
600.42	18.992
600.76	19.316
601.09	18.473
601.42	18.762
601.76	19.333
602.09	18.276
602.42	19.124
602.76	18.888
603.09	19.103
603.42	19.356
603.76	19.113
604.09	18.429
604.42	18.147
604.76	18.158
605.09	19.333
605.42	18.962
605.75	18.433
606.09	18.938
606.42	18.432
606.75	17.922
607.09	18.110
607.42	17.590
607.75	18.073
608.08	17.430
608.42	18.182
608.75	18.169
609.08	17.987
609.41	18.122
609.75	18.044
610.08	17.823
610.41	17.343
610.74	18.137
611.07	17.364
611.41	17.748
611.74	18.603
612.07	17.559
612.40	17.724
612.73	17.288
613.07	17.323
613.40	18.381
613.73	16.844
614.06	17.974
614.39	17.484
614.72	17.535
615.06	17.207
615.39	17.576
615.72	16.900
616.05	16.536
616.38	16.980
616.71	16.820
617.05	17.171
617.38	16.656
617.71	16.855
618.04	16.825
618.37	18.348
618.70	16.832
619.03	17.500
619.36	15.630
619.69	15.770
620.03	17.166
620.36	16.309
620.69	16.488
621.02	15.979
621.35	15.602
621.68	15.136
622.01	15.667
622.34	16.760
622.67	16.719
623.00	16.080
623.33	16.082
623.66	15.557
623.99	15.280
624.32	15.894
624.65	14.662
624.99	15.952
625.32	15.239
625.65	16.496
625.98	15.874
626.31	16.293
626.64	16.464
626.97	16.056
627.30	15.499
627.63	15.945
627.96	15.184
628.29	16.744
628.62	16.323
628.95	15.832
629.28	14.214
629.61	14.257
629.94	15.445
630.26	13.538
630.59	15.193
630.92	14.051
631.25	14.051
631.58	13.877
631.91	13.706
632.24	13.417
632.57	14.659
632.90	12.811
633.23	12.941
633.56	12.972
633.89	12.577
634.22	14.198
634.55	12.198
634.88	12.899
635.20	13.333
635.53	11.600
635.86	13.524
636.19	14.489
636.52	13.903
636.85	13.275
637.18	12.579
637.51	11.572
637.83	12.615
638.16	14.734
638.49	12.398
638.82	13.026
639.15	12.619
639.48	13.618
639.81	12.552
640.13	12.698
640.46	11.808
640.79	11.487
641.12	11.965
641.45	11.862
641.77	13.037
642.10	13.586
642.43	12.058
642.76	13.531
643.09	13.732
643.41	12.136
643.74	12.026
644.07	11.494
644.40	12.162
644.73	12.785
645.05	11.745
645.38	11.287
645.71	10.638
646.04	11.131
646.36	10.106
646.69	13.669
647.02	11.909
647.35	13.246
647.67	13.163
648.00	12.127
648.33	12.799
648.66	10.847
648.98	10.720
649.31	11.074
649.64	11.931
649.96	11.669
650.29	12.606
650.62	11.966
650.94	10.370
651.27	10.987
651.60	11.712
651.92	12.238
652.25	10.302
652.58	12.667
652.90	11.835
653.23	11.933
653.56	12.014
653.88	12.715
654.21	10.158
654.54	12.224
654.86	12.564
655.19	12.865
655.52	17.724
655.84	19.600
656.17	22.030
656.49	29.647
656.82	29.974
657.15	22.144
657.47	15.970
657.80	11.341
658.13	11.027
658.45	15.655
658.78	15.002
659.10	14.310
659.43	13.996
659.75	14.060
660.08	11.586
660.41	13.687
660.73	11.464
661.06	10.399
661.38	9.393
661.71	11.294
662.03	12.446
662.36	9.670
662.68	8.407
663.01	13.755
663.33	9.745
663.66	9.070
663.98	7.674
664.31	10.874
664.63	9.217
664.96	8.478
665.28	8.389
665.61	10.823
665.93	11.522
666.26	12.364
666.58	8.054
666.91	9.647
667.23	11.557
667.56	8.768
667.88	11.511
668.21	9.308
668.53	12.057
668.86	13.915
669.18	9.434
669.50	8.959
669.83	10.465
670.15	10.256
670.48	7.895
670.80	11.290
671.13	9.172
671.45	8.676
671.77	12.017
672.10	10.891
672.42	10.861
672.75	12.256
673.07	11.628
673.39	11.927
673.72	8.481
674.04	9.167
674.37	10.381
674.69	10.921
675.01	9.778
675.34	10.135
675.66	13.657
675.98	11.308
676.31	9.404
676.63	9.976
676.95	7.727
677.28	12.000
677.60	8.916
677.92	11.009
678.25	9.628
678.57	9.957
678.89	11.345
679.22	11.409
679.54	10.241
679.86	8.549
680.18	11.845
680.51	9.659
680.83	9.940
681.15	12.400
681.48	14.754
681.80	12.603
682.12	9.073
682.44	9.414
682.77	9.051
683.09	11.442
683.41	10.227
683.73	11.290
684.06	8.628
684.38	10.108
684.70	11.765
685.02	13.485
685.34	10.870
685.67	10.882
685.99	12.839
686.31	10.619
686.63	9.647
686.96	10.456
687.28	9.495
687.60	11.787
687.92	13.535
688.24	14.113
688.56	9.389
688.89	10.937
689.21	13.333
689.53	9.281
689.85	10.698
690.17	11.607
690.49	9.693
690.82	8.738
691.14	7.857
691.46	11.449
691.78	12.162
692.10	11.613
692.42	8.658
692.74	11.111
693.06	11.036
693.39	7.014
693.71	10.860
694.03	8.314
694.35	10.280
694.67	12.374
694.99	8.616
695.31	11.488
695.63	11.250
695.95	7.828
696.27	8.808
696.59	12.222
696.91	10.364
697.23	9.769
697.56	7.921
697.88	13.333
698.20	12.301
698.52	8.706
698.84	6.220
699.16	10.250
699.48	9.023
699.80	10.670
700.12	11.051
700.44	12.045
700.76	8.140
701.08	8.788
701.40	9.337
701.72	13.272
702.04	7.921
702.36	11.037
702.68	7.207
703.00	10.606
703.32	10.557
703.64	8.475
703.96	10.145
704.28	8.589
704.60	7.619
704.91	5.678
705.23	5.980
705.55	14.488
705.87	3.971
706.19	10.370
706.51	13.746
706.83	9.325
707.15	7.165
707.47	12.325
707.79	9.375
708.11	11.750
708.43	12.000
708.74	8.786
709.06	13.239
709.38	10.398
709.70	10.355
710.02	7.006
710.34	11.455
710.66	5.449
710.98	6.291
711.29	9.180
711.61	8.814
711.93	9.772
712.25	8.591
712.57	4.762
712.89	5.597
713.20	11.765
713.52	10.105
713.84	9.215
714.16	8.935
714.48	8.387
714.80	11.859
715.11	9.726
715.43	9.091
715.75	6.667
716.07	8.306
716.39	7.718
716.70	7.749
717.02	1.908
717.34	12.551
717.66	1.770
717.97	4.348
718.29	8.787
718.61	9.055
718.93	6.589
719.24	11.027
719.56	10.442
719.88	12.715
720.20	9.091
720.51	9.962
720.83	8.494
721.15	5.462
721.46	10.081
721.78	3.953
722.10	10.037
722.42	5.394
722.73	6.939
723.05	13.878
723.37	7.203
723.68	13.964
724.00	11.966
724.32	7.111
724.63	4.091
724.95	9.170
725.27	8.756
725.58	8.898
725.90	7.143
726.22	10.039
726.53	10.169
726.85	12.734
727.16	13.585
727.48	6.883
727.80	8.502
728.11	2.542
728.43	7.451
728.74	6.048
729.06	10.800
729.38	13.910
729.69	4.382
730.01	9.615
730.32	12.313
730.64	11.307
730.96	9.434
731.27	10.333
731.59	8.136
731.90	8.917
732.22	12.618
732.53	12.292
732.85	13.475
733.16	13.131
733.48	6.475
733.80	11.594
734.11	12.881
734.43	8.247
734.74	13.030
735.06	6.840
735.37	12.387
735.69	16.498
736.00	10.453
736.32	9.060
736.63	13.380
736.95	13.311
737.26	7.473
737.58	10.403
737.89	7.326
738.21	6.391
738.52	9.465
738.83	9.170
739.15	4.803
739.46	13.780
739.78	7.692
740.09	8.824
740.41	9.420
740.72	8.661
741.04	8.907
741.35	9.787
741.66	9.953
741.98	7.143
742.29	7.426
742.61	12.042
742.92	2.370
743.23	6.019
743.55	8.597
743.86	6.220
744.18	8.612
744.49	7.447
744.80	1.087
745.12	9.091
745.43	8.293
745.74	11.979
746.06	8.780
746.37	7.330
746.68	13.744
747.00	8.511
747.31	15.920
747.62	9.223
747.94	5.263
748.25	2.970
748.56	4.372
748.88	3.665
749.19	10.106
749.50	10.837
749.82	5.189
750.13	4.587
750.44	12.782
750.75	11.194
751.07	15.693
751.38	8.429
751.69	5.098
752.01	11.628
752.32	5.578
752.63	7.115
752.94	9.483
753.26	15.900
753.57	6.787
753.88	11.504
754.19	4.167
754.51	4.959
754.82	7.287
755.13	11.667
755.44	8.871
755.75	12.500
756.07	9.339
756.38	9.434
756.69	7.663
757.00	12.000
757.31	7.843
757.63	10.366
757.94	9.722
758.25	6.575
758.56	10.638
758.87	11.898
759.18	10.903
759.50	9.091
759.81	13.378
760.12	11.290
760.43	11.515
760.74	12.654
761.05	12.615
761.36	11.932
761.67	13.939
761.99	13.605
762.30	8.364
762.61	12.253
762.92	7.692
763.23	9.459
763.54	5.607
763.85	9.746
764.16	7.884
764.47	10.484
764.78	11.355
765.10	14.141
765.41	8.833
765.72	10.794
766.03	7.143
766.34	10.949
766.65	9.562
766.96	8.586
767.27	10.106
767.58	0.575
767.89	1.418
768.20	8.523
768.51	8.242
768.82	11.330
769.13	4.608
769.44	4.721
769.75	2.740
770.06	9.483
770.37	6.250
770.68	7.107
770.99	8.597
771.30	15.196
771.61	10.860
771.92	14.224
772.23	13.793
772.54	15.054
772.85	9.877
773.16	9.551
773.47	11.765
773.78	9.804
774.09	12.575
774.39	0.000
774.70	9.554
775.01	11.724
775.32	6.429
775.63	-0.826
775.94	1.527
776.25	0.787
776.56	1.667
776.87	2.885
777.18	9.402
777.48	6.034
777.79	7.826
778.10	-0.952
778.41	5.405
778.72	17.460
779.03	9.774
779.34	11.348
779.65	0.685
779.95	2.055
780.26	9.655
780.57	2.439
780.88	6.299
781.19	0.000
781.50	3.876
781.80	6.509
782.11	2.516
782.42	0.769
782.73	7.194
783.04	11.111
783.34	4.167
783.65	0.855
783.96	8.197
784.27	11.724
784.57	7.317
784.88	12.500
785.19	7.000
785.50	7.000
785.81	9.483
786.11	2.586
786.42	1.942
786.73	11.818
787.04	0.000
787.34	-3.571
787.65	0.952
787.96	2.655
788.26	11.818
788.57	0.855
788.88	10.156
789.19	6.349
789.49	5.217
789.80	-2.041
790.11	6.061
790.41	10.909
790.72	15.217
791.03	4.545
791.33	17.500
791.64	-7.500
791.95	9.302
792.25	3.191
792.56	4.494
792.87	-8.219
793.17	-7.246
793.48	-21.333
793.79	11.250
794.09	3.750
794.40	-0.943
794.70	-2.913
795.01	2.439
795.32	4.274
795.62	2.857
795.93	11.765
796.23	13.208
796.54	4.167
796.85	-1.471
797.15	-11.268
797.46	11.111
797.76	3.030
798.07	5.814
798.37	3.947
798.68	-4.545
798.99	3.704
799.29	-1.429
799.60	10.145
799.90	4.000
800.21	-1.639
800.51	15.385
800.82	0.000
801.12	2.899
801.43	-3.279
801.73	15.873
802.04	-2.000
802.34	4.478
802.65	-15.385
802.95	-17.857
803.26	11.538
803.56	1.961
803.87	-23.913
804.17	13.333
804.48	6.349
804.78	-12.963
805.09	-30.435
805.39	-20.000
805.70	0.000
806.00	-17.544
806.30	29.577
806.61	10.000
806.91	-9.722
807.22	22.368
807.52	2.667
807.83	-1.818
808.13	4.167
808.43	19.118
808.74	-25.373
809.04	-1.695
809.35	-11.538
809.65	-4.687
809.95	-35.135
810.26	9.091
810.56	10.959
810.86	-16.667
811.17	-6.000
811.47	6.122
811.77	-18.421
812.08	0.000
812.38	3.774
812.69	-32.500
812.99	-27.273
813.29	10.526
813.59	-31.429
813.90	-18.182
814.20	-10.256
814.50	-15.385
814.81	11.321
815.11	-21.277
815.41	6.780
815.72	-19.048
816.02	5.882
816.32	0.000
816.62	-17.073
816.93	-2.703
817.23	-28.571
817.53	20.833
817.84	-30.435
818.14	3.846
818.44	-28.947
818.74	6.522
819.04	-47.500
819.35	-10.811
819.65	-17.647
819.95	-11.111
820.25	-7.143
820.56	-5.000
820.86	-68.966
821.16	17.500
821.46	-4.255
821.76	-2.500
822.07	2.326
822.37	-29.730
822.67	-15.625
822.97	4.762
823.27	-46.429
823.57	-24.000
823.88	-96.296
824.18	-28.571
824.48	2.941
824.78	19.355
825.08	-4.348
825.38	-15.152
825.69	-79.167
825.99	-18.421
826.29	-19.444
826.59	-80.000
826.89	-61.905
827.19	-8.696
827.49	-35.000
827.79	5.714
828.09	-17.857
828.39	-12.121
828.70	13.514
829.00	0.000
829.30	-14.286
829.60	-20.000
829.90	25.000
830.20	13.158
830.50	-55.556
830.80	-39.130
831.10	-27.273
831.40	-9.091
831.70	-22.581
832.00	14.286
832.30	-61.905
832.60	-41.667
832.90	0.000
833.20	-65.000
833.50	-6.061
833.80	-14.815
834.10	-11.538
834.40	-15.625
834.70	-133.333
835.00	-52.632
835.30	15.385
835.60	13.333
835.90	-9.677
836.20	22.727
836.50	10.714
836.80	-69.231
837.10	-21.429
837.40	-433.333
837.70	50.000
838.00	-145.455
838.30	8.696
838.60	-100.000
838.90	22.727
839.19	-10.714
839.49	10.000
839.79	-53.846
840.09	-108.333
840.39	25.000
840.69	-10.714
840.99	-30.769
841.29	-52.632
841.59	-110.000
841.88	-63.636
842.18	-40.000
842.48	-68.750
842.78	-40.000
843.08	-33.333
843.38	-90.000
843.68	-91.304
843.97	-93.333
844.27	-60.000
844.57	10.000
844.87	-55.556
845.17	-52.381
845.47	13.333
845.76	-52.381
846.06	-17.647
846.36	20.000
846.66	-35.714
846.96	-53.333
847.25	-212.500
847.55	-42.857
847.85	-37.500
848.15	-77.273
848.44	-700.000
848.74	-35.000
849.04	-14.815
849.34	-81.818
849.63	-216.667
849.93	-280.000
850.23	-66.667
850.53	-20.000
850.82	-100.000
851.12	-122.222
851.42	-73.333
851.71	15.385
852.01	-50.000
852.31	-500.000
852.61	-54.545
852.90	-30.000
853.20	-52.632
853.50	-83.333
853.79	-21.739
854.09	4.167
854.39	-42.105
854.68	-16.667
854.98	6.452
855.28	-23.077
855.57	-45.000
855.87	11.111
856.17	14.815
856.46	-78.571
856.76	-46.667
857.05	44.444
857.35	-4.000
857.65	-16.667
857.94	-84.615
858.24	-6.897
858.53	-44.444
858.83	18.519
859.13	4.545
859.42	-21.739
859.72	-275.000
860.01	-700.000
860.31	-40.000
860.60	-33.333
860.90	-466.667
861.20	-80.000
861.49	-500.000
861.79	-66.667
862.08	20.000
862.38	-6.667
862.67	-60.000
862.97	-16.667
863.26	-16.667
863.56	38.889
863.85	-466.667
864.15	-44.444
864.44	-100.000
864.74	-14.286
865.03	475.000
865.33	-260.000
865.62	-183.333
865.92	-75.000
866.21	-250.000
866.51	-12.500
866.80	-72.727
867.10	-400.000
867.39	-16.667
867.69	0.000
867.98	-115.385
868.27	-266.667
868.57	-80.000
868.86	-38.889
869.16	-123.077
869.45	26.667
869.75	-1400.000
870.04	0.000
870.33	-214.286
870.63	28.571
870.92	333.333
871.22	-320.000
871.51	-800.000
871.80	66.667
872.10	266.667
>>>>>End Processed Spectral Data<<<<<
