SpectraSuite Data File
++++++++++++++++++++++++++++++++++++
Date: Fri May 15 20:37:03 PDT 2015
User: schluterlab
Dark Spectrum Present: Yes
Reference Spectrum Present: Yes
Number of Sampled Component Spectra: 1
Spectrometers: USB2E3373
Integration Time (usec): 3000 (USB2E3373)
Spectra Averaged: 3 (USB2E3373)
Boxcar Smoothing: 0 (USB2E3373)
Correct for Electrical Dark: No (USB2E3373)
Strobe/Lamp Enabled: No (USB2E3373)
Correct for Detector Non-linearity: No (USB2E3373)
Correct for Stray Light: No (USB2E3373)
Number of Pixels in Processed Spectrum: 2048
>>>>>Begin Processed Spectral Data<<<<<
178.53	0.000
178.91	0.000
179.29	0.000
179.67	-650.000
180.04	100.000
180.42	-25.000
180.80	-500.000
181.18	33.333
181.56	300.000
181.94	-350.000
182.31	100.000
182.69	20.000
183.07	-333.333
183.45	-160.000
183.83	200.000
184.20	45.455
184.58	33.333
184.96	-0.000
185.34	100.000
185.72	-100.000
186.09	130.769
186.47	100.000
186.85	133.333
187.23	155.556
187.61	-500.000
187.98	100.000
188.36	22.222
188.74	266.667
189.12	11.765
189.49	50.000
189.87	0.000
190.25	-28.571
190.63	-600.000
191.00	-133.333
191.38	-21.053
191.76	150.000
192.14	-100.000
192.51	500.000
192.89	-77.778
193.27	-142.857
193.65	266.667
194.02	90.909
194.40	-100.000
194.78	-175.000
195.15	-33.333
195.53	-125.000
195.91	325.000
196.29	-100.000
196.66	53.846
197.04	71.429
197.42	-44.444
197.79	-333.333
198.17	-130.769
198.55	1200.000
198.92	-133.333
199.30	100.000
199.68	100.000
200.05	-400.000
200.43	0.000
200.81	0.000
201.18	-100.000
201.56	600.000
201.94	150.000
202.31	200.000
202.69	-120.000
203.07	250.000
203.44	300.000
203.82	0.000
204.19	-14.286
204.57	-166.667
204.95	137.500
205.32	-10.000
205.70	0.000
206.08	50.000
206.45	55.556
206.83	7.143
207.20	-142.857
207.58	300.000
207.96	-200.000
208.33	10.000
208.71	25.000
209.08	-200.000
209.46	-300.000
209.84	-260.000
210.21	-1400.000
210.59	14.286
210.96	66.667
211.34	-150.000
211.71	46.667
212.09	-100.000
212.46	-1500.000
212.84	0.000
213.22	20.000
213.59	100.000
213.97	69.231
214.34	45.455
214.72	83.333
215.09	200.000
215.47	23.077
215.84	-63.636
216.22	-133.333
216.59	37.500
216.97	400.000
217.34	-100.000
217.72	-80.000
218.09	37.500
218.47	237.500
218.84	-800.000
219.22	-77.778
219.59	-120.000
219.97	266.667
220.34	325.000
220.72	28.571
221.09	0.000
221.47	50.000
221.84	-850.000
222.22	-700.000
222.59	-109.091
222.97	58.333
223.34	-500.000
223.72	28.571
224.09	9.524
224.46	10.714
224.84	566.667
225.21	-70.000
225.59	33.333
225.96	-300.000
226.34	375.000
226.71	-185.714
227.08	-183.333
227.46	-50.000
227.83	-100.000
228.21	-44.444
228.58	-63.636
228.95	-175.000
229.33	110.000
229.70	-6.250
230.08	-87.500
230.45	-85.714
230.82	-28.571
231.20	-33.333
231.57	-7.143
231.95	-85.714
232.32	-120.000
232.69	-57.143
233.07	-333.333
233.44	20.000
233.81	-90.000
234.19	-44.444
234.56	64.706
234.93	250.000
235.31	-100.000
235.68	-260.000
236.05	-76.923
236.43	-90.000
236.80	5.882
237.17	15.625
237.55	-5.000
237.92	-14.815
238.29	-2.778
238.67	-13.333
239.04	-29.412
239.41	-36.585
239.79	-56.667
240.16	14.634
240.53	-2.632
240.91	-21.739
241.28	-4.762
241.65	5.357
242.02	13.699
242.40	5.000
242.77	-16.949
243.14	-4.545
243.51	-3.750
243.89	18.391
244.26	9.195
244.63	4.762
245.00	0.000
245.38	6.186
245.75	-13.483
246.12	12.931
246.49	9.091
246.87	-1.923
247.24	-3.361
247.61	-8.772
247.98	-5.691
248.36	1.250
248.73	0.658
249.10	-2.597
249.47	1.899
249.84	5.882
250.22	4.118
250.59	0.000
250.96	5.634
251.33	-2.907
251.70	1.765
252.08	-1.523
252.45	1.485
252.82	-1.005
253.19	6.452
253.56	-1.869
253.94	1.802
254.31	5.217
254.68	7.456
255.05	3.937
255.42	6.114
255.79	3.089
256.16	4.280
256.54	2.239
256.91	6.464
257.28	1.115
257.65	4.494
258.02	2.837
258.39	5.051
258.76	4.396
259.14	9.302
259.51	3.883
259.88	2.749
260.25	2.288
260.62	5.556
260.99	-2.373
261.36	-0.342
261.73	4.747
262.10	7.599
262.47	3.374
262.85	3.448
263.22	4.308
263.59	2.492
263.96	7.143
264.33	2.727
264.70	0.893
265.07	4.167
265.44	7.649
265.81	6.780
266.18	4.372
266.55	5.398
266.92	6.477
267.29	4.439
267.66	4.604
268.03	2.356
268.40	4.439
268.77	5.615
269.14	7.194
269.51	4.627
269.88	5.736
270.25	2.296
270.62	3.171
270.99	3.325
271.36	-0.244
271.73	5.164
272.10	3.406
272.47	5.437
272.84	0.990
273.21	6.497
273.58	2.410
273.95	4.119
274.32	3.695
274.69	2.262
275.06	4.911
275.43	4.762
275.80	3.311
276.17	2.299
276.54	4.711
276.91	3.728
277.28	1.747
277.65	5.165
278.02	3.404
278.39	6.127
278.76	3.564
279.13	3.527
279.50	4.832
279.87	4.320
280.23	5.376
280.60	5.653
280.97	5.657
281.34	5.192
281.71	4.312
282.08	5.112
282.45	5.284
282.82	0.579
283.19	3.675
283.56	5.780
283.92	3.605
284.29	4.231
284.66	2.132
285.03	5.501
285.40	3.781
285.77	3.163
286.14	4.332
286.51	4.613
286.87	4.570
287.24	3.131
287.61	2.998
287.98	7.018
288.35	4.679
288.72	3.678
289.08	4.167
289.45	4.218
289.82	5.245
290.19	3.242
290.56	2.401
290.93	2.694
291.29	2.465
291.66	5.827
292.03	3.828
292.40	3.065
292.77	2.871
293.13	0.812
293.50	2.731
293.87	3.817
294.24	4.637
294.60	2.086
294.97	5.655
295.34	2.301
295.71	2.981
296.08	3.288
296.44	1.707
296.81	3.333
297.18	1.739
297.55	4.201
297.91	4.932
298.28	4.881
298.65	5.020
299.02	2.156
299.38	1.505
299.75	3.172
300.12	1.571
300.48	3.689
300.85	3.676
301.22	2.727
301.59	1.842
301.95	3.418
302.32	4.021
302.69	2.861
303.05	2.104
303.42	3.611
303.79	4.322
304.15	3.943
304.52	1.902
304.89	1.404
305.25	3.632
305.62	2.567
305.99	3.041
306.35	3.468
306.72	3.825
307.09	2.395
307.45	4.822
307.82	3.356
308.19	3.600
308.55	3.381
308.92	4.466
309.29	1.788
309.65	1.399
310.02	2.860
310.38	4.720
310.75	3.279
311.12	4.090
311.48	2.333
311.85	4.398
312.22	3.586
312.58	3.185
312.95	3.202
313.31	2.795
313.68	2.618
314.05	3.163
314.41	3.608
314.78	4.227
315.14	5.139
315.51	3.830
315.87	3.689
316.24	4.348
316.61	4.823
316.97	3.869
317.34	5.078
317.70	5.736
318.07	4.712
318.43	5.490
318.80	5.019
319.16	5.859
319.53	7.028
319.89	5.807
320.26	6.984
320.62	6.319
320.99	5.846
321.35	6.886
321.72	8.204
322.08	8.056
322.45	8.426
322.81	9.627
323.18	7.458
323.54	8.880
323.91	9.348
324.27	9.766
324.64	11.610
325.00	11.770
325.37	13.131
325.73	11.967
326.10	12.171
326.46	13.722
326.83	14.348
327.19	14.647
327.56	15.986
327.92	15.581
328.29	16.607
328.65	16.132
329.01	18.382
329.38	17.880
329.74	17.658
330.11	19.092
330.47	18.924
330.84	17.885
331.20	21.103
331.56	19.444
331.93	21.826
332.29	21.723
332.66	20.271
333.02	21.561
333.38	20.715
333.75	22.802
334.11	20.949
334.48	22.937
334.84	22.344
335.20	23.239
335.57	20.671
335.93	23.126
336.29	23.204
336.66	23.706
337.02	23.606
337.38	22.222
337.75	23.909
338.11	23.895
338.47	23.266
338.84	23.198
339.20	24.314
339.56	24.037
339.93	24.709
340.29	25.138
340.65	24.552
341.02	24.291
341.38	23.982
341.74	24.028
342.11	24.090
342.47	24.288
342.83	25.952
343.20	24.477
343.56	25.304
343.92	23.649
344.28	26.217
344.65	25.475
345.01	24.719
345.37	24.643
345.73	24.435
346.10	25.108
346.46	24.895
346.82	24.223
347.19	24.356
347.55	24.728
347.91	26.456
348.27	25.222
348.63	24.191
349.00	25.349
349.36	24.356
349.72	26.036
350.08	24.590
350.45	24.102
350.81	25.332
351.17	24.267
351.53	25.061
351.89	23.947
352.26	24.480
352.62	24.919
352.98	24.177
353.34	24.557
353.70	25.566
354.07	23.710
354.43	23.859
354.79	24.112
355.15	24.524
355.51	26.661
355.87	25.324
356.24	23.817
356.60	24.252
356.96	25.317
357.32	24.840
357.68	24.316
358.04	24.394
358.40	24.357
358.77	24.721
359.13	25.220
359.49	24.884
359.85	24.961
360.21	25.279
360.57	24.943
360.93	25.946
361.29	25.453
361.66	25.549
362.02	25.076
362.38	25.514
362.74	25.435
363.10	24.530
363.46	24.537
363.82	25.094
364.18	25.018
364.54	24.265
364.90	23.943
365.26	26.055
365.62	25.912
365.98	25.367
366.35	25.492
366.71	25.499
367.07	25.544
367.43	25.090
367.79	25.583
368.15	24.695
368.51	25.637
368.87	24.049
369.23	24.404
369.59	25.292
369.95	25.367
370.31	25.506
370.67	25.448
371.03	25.467
371.39	25.675
371.75	24.689
372.11	25.535
372.47	25.444
372.83	25.621
373.19	25.678
373.55	24.838
373.91	25.342
374.27	26.081
374.63	25.341
374.99	24.326
375.35	25.836
375.71	25.874
376.07	25.632
376.42	25.782
376.78	24.966
377.14	25.931
377.50	25.697
377.86	26.171
378.22	25.526
378.58	25.385
378.94	25.331
379.30	25.203
379.66	25.455
380.02	24.954
380.38	25.502
380.74	25.673
381.09	25.337
381.45	24.954
381.81	25.170
382.17	23.794
382.53	25.609
382.89	25.549
383.25	24.580
383.61	25.854
383.97	24.444
384.32	25.078
384.68	25.882
385.04	24.877
385.40	24.642
385.76	26.352
386.12	25.550
386.48	26.437
386.83	24.413
387.19	24.847
387.55	25.659
387.91	25.550
388.27	25.397
388.62	25.551
388.98	25.169
389.34	25.547
389.70	26.476
390.06	24.355
390.42	25.065
390.77	26.095
391.13	25.095
391.49	25.679
391.85	25.666
392.20	25.298
392.56	24.984
392.92	24.956
393.28	25.354
393.64	24.444
393.99	26.270
394.35	25.364
394.71	25.096
395.07	25.896
395.42	24.226
395.78	24.886
396.14	25.347
396.50	25.048
396.85	24.984
397.21	24.248
397.57	24.702
397.92	25.285
398.28	25.172
398.64	23.434
399.00	25.282
399.35	24.266
399.71	24.756
400.07	25.272
400.42	24.725
400.78	24.556
401.14	25.469
401.49	25.313
401.85	24.619
402.21	23.916
402.57	24.312
402.92	25.157
403.28	25.627
403.63	23.707
403.99	24.107
404.35	24.172
404.70	23.512
405.06	23.737
405.42	23.493
405.77	23.126
406.13	24.447
406.49	24.748
406.84	24.878
407.20	24.744
407.55	24.340
407.91	24.332
408.27	23.709
408.62	23.754
408.98	23.290
409.34	24.287
409.69	23.773
410.05	23.461
410.40	24.136
410.76	23.462
411.11	24.437
411.47	23.932
411.83	24.043
412.18	24.067
412.54	23.283
412.89	22.845
413.25	24.248
413.60	23.851
413.96	23.558
414.31	23.171
414.67	23.412
415.03	23.502
415.38	23.825
415.74	23.648
416.09	23.775
416.45	23.903
416.80	24.124
417.16	23.273
417.51	23.384
417.87	24.446
418.22	22.668
418.58	24.147
418.93	24.075
419.29	22.279
419.64	23.461
420.00	24.118
420.35	23.881
420.71	24.058
421.06	23.266
421.42	23.678
421.77	23.064
422.12	23.212
422.48	23.173
422.83	23.376
423.19	23.476
423.54	22.105
423.90	23.027
424.25	23.938
424.61	23.745
424.96	23.345
425.31	24.610
425.67	24.413
426.02	23.498
426.38	22.981
426.73	23.184
427.09	23.165
427.44	23.118
427.79	23.394
428.15	23.240
428.50	23.077
428.85	22.174
429.21	23.260
429.56	23.774
429.92	23.061
430.27	23.258
430.62	22.478
430.98	22.930
431.33	23.449
431.68	23.129
432.04	23.141
432.39	22.590
432.74	22.369
433.10	22.874
433.45	23.297
433.80	23.622
434.16	22.382
434.51	22.796
434.86	23.055
435.22	22.939
435.57	23.082
435.92	23.054
436.28	23.196
436.63	23.103
436.98	22.480
437.34	21.839
437.69	23.673
438.04	22.051
438.39	22.236
438.75	22.708
439.10	22.354
439.45	23.737
439.81	22.630
440.16	23.515
440.51	23.463
440.86	23.746
441.22	22.229
441.57	22.461
441.92	23.033
442.27	23.614
442.63	23.394
442.98	22.918
443.33	22.593
443.68	22.175
444.03	22.752
444.39	22.577
444.74	22.965
445.09	22.494
445.44	22.963
445.79	23.363
446.15	22.963
446.50	21.963
446.85	23.007
447.20	22.419
447.55	23.382
447.91	22.843
448.26	22.823
448.61	23.143
448.96	22.662
449.31	22.370
449.66	22.706
450.02	23.046
450.37	22.584
450.72	22.222
451.07	23.291
451.42	22.347
451.77	23.207
452.12	23.086
452.47	23.503
452.83	22.674
453.18	23.150
453.53	21.997
453.88	22.101
454.23	23.110
454.58	23.426
454.93	23.067
455.28	21.714
455.63	22.257
455.98	23.271
456.34	22.861
456.69	22.872
457.04	23.566
457.39	22.418
457.74	21.644
458.09	21.895
458.44	22.118
458.79	22.465
459.14	23.055
459.49	23.403
459.84	22.899
460.19	21.723
460.54	23.044
460.89	23.409
461.24	22.795
461.59	22.743
461.94	22.264
462.29	22.859
462.64	23.123
462.99	22.478
463.34	22.462
463.69	22.008
464.04	22.579
464.39	21.468
464.74	21.718
465.09	22.770
465.44	22.216
465.79	21.712
466.14	22.292
466.49	21.564
466.84	21.713
467.19	22.340
467.54	21.967
467.89	22.363
468.24	21.472
468.59	23.238
468.94	22.794
469.29	22.164
469.64	22.146
469.99	23.266
470.34	21.843
470.68	22.819
471.03	22.647
471.38	22.397
471.73	22.619
472.08	22.524
472.43	22.282
472.78	22.344
473.13	21.633
473.48	21.629
473.83	22.229
474.17	22.474
474.52	21.634
474.87	21.879
475.22	21.415
475.57	21.231
475.92	21.229
476.27	22.002
476.61	21.991
476.96	21.528
477.31	21.958
477.66	21.517
478.01	22.010
478.36	21.133
478.70	21.968
479.05	21.593
479.40	21.940
479.75	21.324
480.10	21.659
480.45	20.650
480.79	21.853
481.14	21.977
481.49	20.887
481.84	21.670
482.19	21.094
482.53	21.823
482.88	21.957
483.23	21.065
483.58	20.849
483.92	20.474
484.27	21.331
484.62	20.753
484.97	20.108
485.31	19.834
485.66	19.103
486.01	19.191
486.36	18.745
486.70	19.297
487.05	19.522
487.40	20.165
487.75	20.479
488.09	20.303
488.44	20.392
488.79	20.359
489.13	20.713
489.48	21.077
489.83	20.807
490.17	20.315
490.52	21.016
490.87	20.453
491.22	21.681
491.56	20.161
491.91	20.315
492.26	20.953
492.60	20.873
492.95	21.545
493.30	20.567
493.64	20.334
493.99	20.676
494.34	20.243
494.68	20.095
495.03	20.243
495.37	20.118
495.72	19.788
496.07	20.488
496.41	19.953
496.76	20.175
497.11	19.655
497.45	19.809
497.80	20.333
498.14	19.672
498.49	19.959
498.84	20.509
499.18	20.432
499.53	20.387
499.87	19.650
500.22	19.139
500.56	20.020
500.91	19.629
501.26	19.575
501.60	20.020
501.95	19.360
502.29	20.242
502.64	19.932
502.98	20.622
503.33	19.068
503.67	18.988
504.02	20.332
504.36	20.485
504.71	19.444
505.06	19.829
505.40	19.391
505.75	20.206
506.09	19.260
506.44	20.329
506.78	19.643
507.13	20.062
507.47	19.217
507.82	18.750
508.16	19.493
508.51	19.832
508.85	20.042
509.19	18.946
509.54	19.410
509.88	19.094
510.23	19.311
510.57	19.669
510.92	18.497
511.26	18.822
511.61	19.747
511.95	19.342
512.30	19.789
512.64	19.811
512.98	19.652
513.33	19.306
513.67	19.443
514.02	19.794
514.36	20.571
514.70	20.455
515.05	20.153
515.39	18.654
515.74	20.479
516.08	19.307
516.42	20.141
516.77	20.187
517.11	20.059
517.46	19.210
517.80	20.262
518.14	19.535
518.49	20.072
518.83	20.049
519.17	19.709
519.52	18.769
519.86	19.808
520.20	20.109
520.55	19.387
520.89	20.514
521.23	20.329
521.58	20.252
521.92	19.615
522.26	19.258
522.61	20.195
522.95	20.927
523.29	19.822
523.64	19.886
523.98	19.831
524.32	19.008
524.66	19.846
525.01	20.000
525.35	19.767
525.69	19.461
526.04	19.312
526.38	19.844
526.72	18.640
527.06	18.807
527.41	19.591
527.75	18.834
528.09	19.003
528.43	19.851
528.78	19.076
529.12	18.516
529.46	18.778
529.80	18.366
530.15	19.076
530.49	18.451
530.83	18.126
531.17	19.342
531.51	18.741
531.86	18.627
532.20	18.163
532.54	18.788
532.88	19.507
533.22	19.086
533.57	18.676
533.91	17.755
534.25	19.401
534.59	17.896
534.93	18.502
535.27	17.576
535.62	17.498
535.96	18.134
536.30	17.876
536.64	17.850
536.98	17.491
537.32	19.203
537.66	18.513
538.01	17.552
538.35	16.990
538.69	18.642
539.03	17.225
539.37	18.035
539.71	17.382
540.05	17.108
540.39	17.936
540.73	18.550
541.07	18.163
541.42	18.616
541.76	18.445
542.10	17.550
542.44	18.833
542.78	17.619
543.12	17.033
543.46	18.081
543.80	17.765
544.14	17.223
544.48	17.122
544.82	18.045
545.16	16.598
545.50	18.158
545.84	17.210
546.18	17.589
546.52	18.457
546.86	18.404
547.20	17.597
547.54	16.537
547.88	16.712
548.22	16.568
548.56	16.425
548.90	16.981
549.24	17.424
549.58	17.137
549.92	16.440
550.26	16.996
550.60	17.100
550.94	17.774
551.28	17.002
551.62	16.692
551.96	16.767
552.30	16.886
552.64	16.925
552.98	17.159
553.32	17.903
553.66	15.747
554.00	16.058
554.34	17.282
554.68	16.519
555.02	17.634
555.36	16.230
555.69	16.044
556.03	15.917
556.37	16.655
556.71	16.895
557.05	15.362
557.39	16.580
557.73	15.967
558.07	16.817
558.41	16.003
558.75	16.758
559.08	16.154
559.42	16.508
559.76	16.974
560.10	16.131
560.44	16.232
560.78	17.692
561.12	15.092
561.45	15.882
561.79	16.667
562.13	16.537
562.47	15.971
562.81	15.850
563.15	16.784
563.48	15.417
563.82	16.404
564.16	15.947
564.50	16.622
564.84	16.131
565.17	16.030
565.51	15.984
565.85	16.118
566.19	15.385
566.52	15.885
566.86	16.710
567.20	15.068
567.54	15.085
567.88	15.583
568.21	15.837
568.55	14.185
568.89	15.144
569.23	14.251
569.56	14.536
569.90	13.804
570.24	14.179
570.57	13.782
570.91	13.280
571.25	12.331
571.59	13.547
571.92	12.978
572.26	12.832
572.60	13.674
572.93	13.241
573.27	13.041
573.61	13.216
573.95	12.862
574.28	12.950
574.62	12.560
574.96	12.890
575.29	12.696
575.63	12.438
575.97	12.713
576.30	12.735
576.64	12.636
576.98	12.561
577.31	12.460
577.65	12.500
577.98	12.553
578.32	12.179
578.66	11.928
578.99	12.494
579.33	12.366
579.67	12.566
580.00	12.684
580.34	12.562
580.67	12.290
581.01	12.128
581.35	12.188
581.68	11.927
582.02	11.819
582.35	11.866
582.69	12.037
583.02	12.006
583.36	12.326
583.70	13.110
584.03	12.649
584.37	13.072
584.70	12.500
585.04	12.332
585.37	12.334
585.71	12.145
586.04	12.305
586.38	12.323
586.72	12.195
587.05	12.363
587.39	12.217
587.72	12.657
588.06	12.261
588.39	12.219
588.73	12.668
589.06	12.948
589.40	12.617
589.73	13.180
590.07	13.369
590.40	12.539
590.73	13.427
591.07	12.977
591.40	12.600
591.74	13.122
592.07	13.219
592.41	13.251
592.74	12.585
593.08	11.911
593.41	12.191
593.75	12.300
594.08	12.530
594.41	12.482
594.75	12.405
595.08	12.221
595.42	12.183
595.75	12.843
596.09	12.353
596.42	12.774
596.75	12.655
597.09	13.075
597.42	13.144
597.75	12.643
598.09	12.494
598.42	12.365
598.76	12.227
599.09	11.819
599.42	12.012
599.76	12.378
600.09	12.481
600.42	12.472
600.76	11.664
601.09	11.794
601.42	12.338
601.76	11.751
602.09	12.541
602.42	12.848
602.76	12.564
603.09	12.583
603.42	12.751
603.76	11.532
604.09	11.503
604.42	12.394
604.76	12.817
605.09	12.020
605.42	12.912
605.75	12.128
606.09	11.932
606.42	12.636
606.75	11.991
607.09	13.055
607.42	11.741
607.75	11.901
608.08	11.815
608.42	12.837
608.75	13.012
609.08	12.706
609.41	12.386
609.75	12.651
610.08	12.381
610.41	12.512
610.74	12.384
611.07	12.868
611.41	12.455
611.74	13.273
612.07	12.099
612.40	12.746
612.73	12.316
613.07	12.148
613.40	13.129
613.73	12.087
614.06	12.966
614.39	13.198
614.72	12.773
615.06	13.017
615.39	12.336
615.72	12.325
616.05	12.514
616.38	12.194
616.71	12.355
617.05	13.218
617.38	12.696
617.71	12.642
618.04	12.698
618.37	13.052
618.70	13.135
619.03	13.750
619.36	12.735
619.69	14.026
620.03	13.002
620.36	12.375
620.69	14.133
621.02	13.303
621.35	14.772
621.68	13.265
622.01	13.917
622.34	13.887
622.67	13.644
623.00	13.936
623.33	12.729
623.66	12.191
623.99	13.464
624.32	13.384
624.65	12.556
624.99	13.093
625.32	12.585
625.65	13.904
625.98	13.457
626.31	12.884
626.64	13.518
626.97	14.485
627.30	14.623
627.63	14.038
627.96	14.645
628.29	13.506
628.62	14.061
628.95	13.627
629.28	13.911
629.61	13.061
629.94	15.640
630.26	13.735
630.59	14.048
630.92	13.949
631.25	14.359
631.58	14.427
631.91	14.364
632.24	14.335
632.57	15.114
632.90	14.235
633.23	14.235
633.56	14.106
633.89	13.070
634.22	16.173
634.55	14.231
634.88	15.326
635.20	15.128
635.53	14.667
635.86	13.394
636.19	15.912
636.52	13.648
636.85	14.144
637.18	14.088
637.51	15.849
637.83	15.112
638.16	16.780
638.49	13.079
638.82	18.158
639.15	14.925
639.48	14.168
639.81	14.784
640.13	14.430
640.46	15.160
640.79	15.758
641.12	15.066
641.45	15.465
641.77	17.185
642.10	16.430
642.43	14.148
642.76	16.997
643.09	13.893
643.41	16.019
643.74	14.992
644.07	16.420
644.40	16.216
644.73	17.688
645.05	14.597
645.38	13.933
645.71	13.475
646.04	17.056
646.36	15.248
646.69	15.827
647.02	15.312
647.35	17.351
647.67	17.185
648.00	16.418
648.33	15.700
648.66	14.746
648.98	14.070
649.31	15.372
649.64	14.286
649.96	12.804
650.29	14.651
650.62	16.752
650.94	16.481
651.27	13.966
651.60	15.856
651.92	16.958
652.25	13.854
652.58	14.167
652.90	14.923
653.23	15.966
653.56	12.521
653.88	13.058
654.21	11.734
654.54	13.413
654.86	15.280
655.19	13.450
655.52	12.307
655.84	9.145
656.17	9.733
656.49	13.302
656.82	13.944
657.15	10.642
657.47	8.398
657.80	6.339
658.13	6.443
658.45	10.165
658.78	10.613
659.10	10.634
659.43	10.995
659.75	11.889
660.08	11.931
660.41	13.790
660.73	13.812
661.06	14.731
661.38	14.481
661.71	13.963
662.03	16.309
662.36	16.703
662.68	12.832
663.01	18.341
663.33	16.473
663.66	12.326
663.98	14.186
664.31	15.352
664.63	14.286
664.96	12.826
665.28	11.700
665.61	16.667
665.93	13.478
666.26	15.835
666.58	14.318
666.91	11.529
667.23	14.623
667.56	16.588
667.88	14.868
668.21	16.706
668.53	18.203
668.86	17.453
669.18	15.802
669.50	14.528
669.83	16.279
670.15	18.182
670.48	12.679
670.80	18.894
671.13	12.528
671.45	14.384
671.77	16.738
672.10	15.050
672.42	13.109
672.75	16.163
673.07	15.564
673.39	13.945
673.72	10.651
674.04	13.125
674.37	15.466
674.69	14.775
675.01	16.667
675.34	13.288
675.66	18.287
675.98	17.517
676.31	15.367
676.63	14.489
676.95	13.182
677.28	16.471
677.60	17.349
677.92	13.991
678.25	15.536
678.57	14.719
678.89	12.185
679.22	11.409
679.54	12.249
679.86	9.940
680.18	13.786
680.51	12.121
680.83	11.730
681.15	15.800
681.48	14.344
681.80	15.496
682.12	13.105
682.44	10.251
682.77	16.336
683.09	13.959
683.41	14.318
683.73	11.982
684.06	14.823
684.38	12.688
684.70	14.161
685.02	13.071
685.34	10.672
685.67	12.195
685.99	12.658
686.31	12.920
686.63	13.358
686.96	11.027
687.28	12.121
687.60	11.217
687.92	16.162
688.24	12.903
688.56	13.100
688.89	15.179
689.21	15.333
689.53	12.761
689.85	15.116
690.17	14.062
690.49	14.184
690.82	12.621
691.14	11.190
691.46	14.720
691.78	10.811
692.10	15.054
692.42	12.121
692.74	12.821
693.06	10.360
693.39	10.181
693.71	10.860
694.03	13.395
694.35	13.318
694.67	14.141
694.99	13.316
695.31	13.577
695.63	13.500
695.95	11.869
696.27	11.917
696.59	15.278
696.91	13.725
697.23	11.568
697.56	11.386
697.88	16.559
698.20	10.251
698.52	12.235
698.84	10.048
699.16	14.500
699.48	13.784
699.80	13.151
700.12	12.668
700.44	14.006
700.76	12.791
701.08	10.909
701.40	11.446
701.72	15.432
702.04	18.482
702.36	15.050
702.68	12.312
703.00	10.909
703.32	12.023
703.64	13.277
703.96	12.464
704.28	14.724
704.60	13.968
704.91	9.779
705.23	11.960
705.55	18.375
705.87	16.606
706.19	14.444
706.51	13.746
706.83	14.148
707.15	9.346
707.47	11.485
707.79	11.979
708.11	14.750
708.43	12.250
708.74	12.403
709.06	12.394
709.38	15.291
709.70	11.538
710.02	11.465
710.34	17.028
710.66	8.974
710.98	10.927
711.29	16.066
711.61	9.153
711.93	15.635
712.25	15.808
712.57	15.018
712.89	13.433
713.20	14.879
713.52	11.847
713.84	12.287
714.16	11.340
714.48	13.548
714.80	14.423
715.11	15.805
715.43	7.837
715.75	12.333
716.07	12.625
716.39	14.094
716.70	12.546
717.02	11.069
717.34	16.194
717.66	8.407
717.97	8.696
718.29	7.531
718.61	13.780
718.93	9.690
719.24	13.308
719.56	11.647
719.88	10.653
720.20	10.985
720.51	12.644
720.83	11.969
721.15	11.345
721.46	8.468
721.78	9.881
722.10	14.498
722.42	14.523
722.73	12.653
723.05	11.020
723.37	13.136
723.68	17.568
724.00	11.111
724.32	14.667
724.63	11.818
724.95	12.227
725.27	6.452
725.58	10.169
725.90	6.746
726.22	13.900
726.53	12.881
726.85	16.479
727.16	16.226
727.48	7.692
727.80	8.907
728.11	10.593
728.43	13.333
728.74	8.065
729.06	11.600
729.38	15.038
729.69	13.147
730.01	6.923
730.32	15.672
730.64	8.127
730.96	12.453
731.27	9.667
731.59	10.169
731.90	10.191
732.22	13.565
732.53	12.292
732.85	10.993
733.16	16.162
733.48	9.712
733.80	13.043
734.11	10.847
734.43	10.653
734.74	10.000
735.06	5.863
735.37	14.199
735.69	13.468
736.00	10.453
736.32	9.732
736.63	14.085
736.95	13.993
737.26	9.964
737.58	8.725
737.89	10.256
738.21	7.519
738.52	12.346
738.83	12.227
739.15	9.170
739.46	13.386
739.78	7.326
740.09	9.804
740.41	8.696
740.72	5.906
741.04	12.146
741.35	9.787
741.66	12.796
741.98	10.714
742.29	10.891
742.61	9.424
742.92	7.583
743.23	8.796
743.55	12.670
743.86	8.612
744.18	11.962
744.49	5.319
744.80	5.435
745.12	19.786
745.43	9.756
745.74	12.500
746.06	8.780
746.37	7.853
746.68	13.744
747.00	11.170
747.31	17.413
747.62	7.767
747.94	9.091
748.25	11.881
748.56	10.929
748.88	12.042
749.19	16.489
749.50	11.823
749.82	6.132
750.13	5.046
750.44	12.030
750.75	11.940
751.07	15.328
751.38	13.027
751.69	7.451
752.01	13.566
752.32	10.359
752.63	11.462
752.94	8.621
753.26	13.389
753.57	10.860
753.88	7.522
754.19	13.750
754.51	5.372
754.82	12.955
755.13	14.167
755.44	8.065
755.75	8.203
756.07	7.782
756.38	7.170
756.69	8.429
757.00	11.000
757.31	10.784
757.63	9.146
757.94	8.889
758.25	7.123
758.56	8.511
758.87	9.348
759.18	8.411
759.50	5.455
759.81	9.030
760.12	8.065
760.43	7.879
760.74	11.420
761.05	8.308
761.36	7.955
761.67	9.394
761.99	8.503
762.30	9.818
762.61	11.462
762.92	10.860
763.23	9.459
763.54	3.271
763.85	8.051
764.16	10.373
764.47	5.645
764.78	9.158
765.10	14.815
765.41	9.148
765.72	10.476
766.03	3.759
766.34	12.774
766.65	11.952
766.96	8.586
767.27	9.043
767.58	6.897
767.89	2.128
768.20	8.523
768.51	8.242
768.82	7.389
769.13	6.452
769.44	10.300
769.75	1.826
770.06	12.500
770.37	4.327
770.68	4.061
770.99	9.502
771.30	13.235
771.61	11.312
771.92	7.759
772.23	9.852
772.54	15.054
772.85	9.877
773.16	12.921
773.47	19.608
773.78	8.497
774.09	8.383
774.39	6.000
774.70	8.917
775.01	15.172
775.32	10.000
775.63	0.000
775.94	15.267
776.25	8.661
776.56	15.833
776.87	6.731
777.18	10.256
777.48	11.207
777.79	4.348
778.10	2.857
778.41	2.703
778.72	3.968
779.03	10.526
779.34	14.184
779.65	4.110
779.95	7.534
780.26	9.655
780.57	3.252
780.88	3.937
781.19	4.310
781.50	5.426
781.80	8.284
782.11	8.805
782.42	3.846
782.73	8.633
783.04	-1.481
783.34	3.472
783.65	-10.256
783.96	4.098
784.27	11.034
784.57	8.130
784.88	14.062
785.19	16.000
785.50	13.000
785.81	10.345
786.11	7.759
786.42	-2.913
786.73	14.545
787.04	2.041
787.34	5.357
787.65	20.952
787.96	-2.655
788.26	3.636
788.57	3.419
788.88	7.031
789.19	6.349
789.49	-4.348
789.80	12.245
790.11	-2.020
790.41	20.909
790.72	10.870
791.03	0.000
791.33	22.500
791.64	2.500
791.95	1.163
792.25	14.894
792.56	14.607
792.87	17.808
793.17	-5.797
793.48	0.000
793.79	2.500
794.09	11.250
794.40	6.604
794.70	2.913
795.01	-3.252
795.32	1.709
795.62	-1.905
795.93	10.784
796.23	16.038
796.54	17.708
796.85	5.882
797.15	7.042
797.46	13.889
797.76	0.000
798.07	10.465
798.37	-2.632
798.68	7.576
798.99	6.173
799.29	4.286
799.60	7.246
799.90	1.333
800.21	16.393
800.51	3.077
800.82	3.390
801.12	7.246
801.43	0.000
801.73	4.762
802.04	0.000
802.34	-1.493
802.65	13.462
802.95	-10.714
803.26	13.462
803.56	-3.922
803.87	-23.913
804.17	-1.333
804.48	7.937
804.78	-3.704
805.09	-2.174
805.39	2.222
805.70	14.815
806.00	-7.018
806.30	4.225
806.61	-2.857
806.91	-18.056
807.22	11.842
807.52	13.333
807.83	-7.273
808.13	15.278
808.43	16.176
808.74	-8.955
809.04	1.695
809.35	9.615
809.65	3.125
809.95	-10.811
810.26	-15.909
810.56	13.699
810.86	2.381
811.17	0.000
811.47	10.204
811.77	-31.579
812.08	6.818
812.38	20.755
812.69	-20.000
812.99	3.030
813.29	-7.895
813.59	-34.286
813.90	20.455
814.20	-7.692
814.50	-7.692
814.81	1.887
815.11	-10.638
815.41	15.254
815.72	7.143
816.02	11.765
816.32	2.083
816.62	9.756
816.93	-8.108
817.23	-11.429
817.53	8.333
817.84	-15.217
818.14	23.077
818.44	-15.789
818.74	10.870
819.04	-22.500
819.35	2.703
819.65	-8.824
819.95	-2.778
820.25	19.048
820.56	27.500
820.86	-48.276
821.16	35.000
821.46	0.000
821.76	5.000
822.07	11.628
822.37	-37.838
822.67	-15.625
822.97	16.667
823.27	0.000
823.57	-20.000
823.88	-55.556
824.18	-21.429
824.48	-11.765
824.78	-9.677
825.08	4.348
825.38	-18.182
825.69	-33.333
825.99	7.895
826.29	2.778
826.59	6.667
826.89	-42.857
827.19	8.696
827.49	15.000
827.79	28.571
828.09	14.286
828.39	27.273
828.70	29.730
829.00	17.857
829.30	-28.571
829.60	0.000
829.90	-18.750
830.20	13.158
830.50	-37.037
830.80	-43.478
831.10	4.545
831.40	36.364
831.70	19.355
832.00	-9.524
832.30	-42.857
832.60	-8.333
832.90	6.897
833.20	-15.000
833.50	30.303
833.80	-11.111
834.10	-11.538
834.40	9.375
834.70	0.000
835.00	5.263
835.30	15.385
835.60	-6.667
835.90	-12.903
836.20	9.091
836.50	7.143
836.80	-23.077
837.10	-3.571
837.40	-533.333
837.70	-27.273
838.00	-72.727
838.30	-4.348
838.60	-76.923
838.90	4.545
839.19	-7.143
839.49	33.333
839.79	-7.692
840.09	-116.667
840.39	53.571
840.69	7.143
840.99	-7.692
841.29	-63.158
841.59	-90.000
841.88	9.091
842.18	30.000
842.48	-75.000
842.78	-53.333
843.08	-11.111
843.38	-140.000
843.68	-21.739
843.97	0.000
844.27	-73.333
844.57	-35.000
844.87	-11.111
845.17	-4.762
845.47	-13.333
845.76	14.286
846.06	52.941
846.36	-130.000
846.66	-114.286
846.96	0.000
847.25	-187.500
847.55	42.857
847.85	-100.000
848.15	9.091
848.44	-366.667
848.74	-15.000
849.04	40.741
849.34	36.364
849.63	-216.667
849.93	-140.000
850.23	-22.222
850.53	20.000
850.82	-38.462
851.12	-77.778
851.42	6.667
851.71	-7.692
852.01	14.286
852.31	-100.000
852.61	-54.545
852.90	0.000
853.20	-36.842
853.50	-83.333
853.79	-30.435
854.09	20.833
854.39	-21.053
854.68	-12.500
854.98	22.581
855.28	-7.692
855.57	-30.000
855.87	-33.333
856.17	25.926
856.46	-42.857
856.76	-66.667
857.05	-11.111
857.35	12.000
857.65	-44.444
857.94	-30.769
858.24	27.586
858.53	-11.111
858.83	14.815
859.13	13.636
859.42	-52.174
859.72	75.000
860.01	-566.667
860.31	20.000
860.60	-9.524
860.90	-300.000
861.20	-60.000
861.49	-50.000
861.79	-13.333
862.08	0.000
862.38	100.000
862.67	-240.000
862.97	-133.333
863.26	-66.667
863.56	55.556
863.85	-433.333
864.15	11.111
864.44	-60.000
864.74	71.429
865.03	400.000
865.33	-240.000
865.62	33.333
865.92	-75.000
866.21	-166.667
866.51	37.500
866.80	-145.455
867.10	-100.000
867.39	58.333
867.69	0.000
867.98	7.692
868.27	-433.333
868.57	33.333
868.86	11.111
869.16	-61.538
869.45	26.667
869.75	-1300.000
870.04	0.000
870.33	-214.286
870.63	-42.857
870.92	400.000
871.22	0.000
871.51	-400.000
871.80	0.000
872.10	500.000
>>>>>End Processed Spectral Data<<<<<
