SpectraSuite Data File
++++++++++++++++++++++++++++++++++++
Date: Fri May 15 20:53:25 PDT 2015
User: schluterlab
Dark Spectrum Present: Yes
Reference Spectrum Present: Yes
Number of Sampled Component Spectra: 1
Spectrometers: USB2E3373
Integration Time (usec): 3000 (USB2E3373)
Spectra Averaged: 3 (USB2E3373)
Boxcar Smoothing: 0 (USB2E3373)
Correct for Electrical Dark: No (USB2E3373)
Strobe/Lamp Enabled: No (USB2E3373)
Correct for Detector Non-linearity: No (USB2E3373)
Correct for Stray Light: No (USB2E3373)
Number of Pixels in Processed Spectrum: 2048
>>>>>Begin Processed Spectral Data<<<<<
178.53	0.000
178.91	0.000
179.29	37.500
179.67	-700.000
180.04	-14.286
180.42	100.000
180.80	-1000.000
181.18	66.667
181.56	200.000
181.94	-550.000
182.31	300.000
182.69	40.000
183.07	-300.000
183.45	-260.000
183.83	100.000
184.20	-81.818
184.58	155.556
184.96	75.000
185.34	-200.000
185.72	-400.000
186.09	153.846
186.47	-400.000
186.85	100.000
187.23	33.333
187.61	800.000
187.98	-233.333
188.36	77.778
188.74	-33.333
189.12	0.000
189.49	55.556
189.87	0.000
190.25	0.000
190.63	400.000
191.00	-333.333
191.38	31.579
191.76	0.000
192.14	-100.000
192.51	200.000
192.89	-111.111
193.27	-57.143
193.65	183.333
194.02	163.636
194.40	50.000
194.78	-87.500
195.15	-58.333
195.53	-162.500
195.91	375.000
196.29	-250.000
196.66	92.308
197.04	42.857
197.42	-77.778
197.79	-200.000
198.17	-76.923
198.55	1600.000
198.92	-166.667
199.30	100.000
199.68	-180.000
200.05	-300.000
200.43	0.000
200.81	-66.667
201.18	-33.333
201.56	500.000
201.94	-100.000
202.31	400.000
202.69	-160.000
203.07	275.000
203.44	0.000
203.82	0.000
204.19	57.143
204.57	-233.333
204.95	75.000
205.32	110.000
205.70	-28.571
206.08	-75.000
206.45	166.667
206.83	78.571
207.20	-42.857
207.58	-100.000
207.96	100.000
208.33	-70.000
208.71	-225.000
209.08	-50.000
209.46	-700.000
209.84	0.000
210.21	-600.000
210.59	-71.429
210.96	-50.000
211.34	-175.000
211.71	-46.667
212.09	-142.857
212.46	-1700.000
212.84	0.000
213.22	110.000
213.59	650.000
213.97	-53.846
214.34	27.273
214.72	-83.333
215.09	125.000
215.47	61.538
215.84	-81.818
216.22	-466.667
216.59	25.000
216.97	200.000
217.34	-50.000
217.72	-220.000
218.09	200.000
218.47	100.000
218.84	-100.000
219.22	-111.111
219.59	-20.000
219.97	333.333
220.34	225.000
220.72	42.857
221.09	-50.000
221.47	200.000
221.84	-300.000
222.22	-950.000
222.59	54.545
222.97	-41.667
223.34	-200.000
223.72	42.857
224.09	14.286
224.46	21.429
224.84	400.000
225.21	-100.000
225.59	40.000
225.96	-50.000
226.34	225.000
226.71	-14.286
227.08	-33.333
227.46	62.500
227.83	-100.000
228.21	-11.111
228.58	-9.091
228.95	25.000
229.33	190.000
229.70	37.500
230.08	-87.500
230.45	42.857
230.82	14.286
231.20	-13.333
231.57	7.143
231.95	100.000
232.32	-120.000
232.69	100.000
233.07	0.000
233.44	-60.000
233.81	40.000
234.19	22.222
234.56	-5.882
234.93	50.000
235.31	75.000
235.68	40.000
236.05	-100.000
236.43	-45.000
236.80	-11.765
237.17	37.500
237.55	95.000
237.92	7.407
238.29	41.667
238.67	30.000
239.04	23.529
239.41	2.439
239.79	33.333
240.16	51.220
240.53	36.842
240.91	45.652
241.28	20.635
241.65	48.214
242.02	46.575
242.40	55.000
242.77	33.898
243.14	18.182
243.51	42.500
243.89	51.724
244.26	41.379
244.63	54.762
245.00	36.082
245.38	61.856
245.75	42.697
246.12	31.897
246.49	43.802
246.87	59.615
247.24	47.899
247.61	44.737
247.98	44.715
248.36	41.250
248.73	43.421
249.10	44.805
249.47	49.367
249.84	45.098
250.22	44.706
250.59	48.366
250.96	41.784
251.33	46.512
251.70	42.941
252.08	46.701
252.45	48.020
252.82	49.749
253.19	51.152
253.56	47.196
253.94	46.847
254.31	49.565
254.68	46.053
255.05	42.126
255.42	48.472
255.79	50.193
256.16	50.973
256.54	46.269
256.91	49.049
257.28	42.007
257.65	41.199
258.02	47.163
258.39	47.811
258.76	49.817
259.14	50.498
259.51	48.220
259.88	47.423
260.25	48.039
260.62	51.736
260.99	47.119
261.36	51.370
261.73	49.684
262.10	47.720
262.47	46.319
262.85	46.395
263.22	49.538
263.59	51.402
263.96	51.242
264.33	48.485
264.70	48.214
265.07	46.429
265.44	48.442
265.81	46.893
266.18	45.082
266.55	51.671
266.92	47.409
267.29	48.303
267.66	45.013
268.03	49.215
268.40	44.909
268.77	48.930
269.14	48.441
269.51	50.386
269.88	46.135
270.25	47.449
270.62	46.098
270.99	45.780
271.36	44.988
271.73	44.366
272.10	48.175
272.47	46.099
272.84	44.802
273.21	48.724
273.58	47.711
273.95	48.513
274.32	48.268
274.69	45.701
275.06	50.223
275.43	46.712
275.80	47.020
276.17	46.667
276.54	46.039
276.91	48.246
277.28	46.943
277.65	45.868
278.02	42.553
278.39	49.234
278.76	44.444
279.13	40.664
279.50	45.378
279.87	43.413
280.23	42.796
280.60	43.665
280.97	46.263
281.34	44.808
281.71	45.380
282.08	42.331
282.45	44.031
282.82	43.629
283.19	42.747
283.56	42.004
283.92	44.213
284.29	42.500
284.66	43.992
285.03	43.418
285.40	42.155
285.77	43.409
286.14	39.892
286.51	46.125
286.87	40.402
287.24	43.646
287.61	40.564
287.98	41.053
288.35	40.901
288.72	41.856
289.08	40.799
289.45	39.719
289.82	42.483
290.19	40.614
290.56	41.166
290.93	39.057
291.29	36.210
291.66	36.063
292.03	38.756
292.40	40.806
292.77	38.437
293.13	35.065
293.50	37.026
293.87	35.420
294.24	35.240
294.60	34.426
294.97	34.524
295.34	33.436
295.71	35.320
296.08	34.978
296.44	32.148
296.81	34.028
297.18	35.072
297.55	34.417
297.91	32.466
298.28	34.565
298.65	32.157
299.02	30.728
299.38	31.327
299.75	30.621
300.12	32.199
300.48	31.489
300.85	31.939
301.22	31.558
301.59	30.526
301.95	31.519
302.32	33.204
302.69	30.597
303.05	32.178
303.42	31.631
303.79	31.308
304.15	31.780
304.52	28.419
304.89	30.292
305.25	29.298
305.62	29.288
305.99	28.655
306.35	29.249
306.72	28.909
307.09	30.559
307.45	29.621
307.82	29.630
308.19	30.430
308.55	29.226
308.92	29.194
309.29	29.274
309.65	29.709
310.02	27.723
310.38	29.748
310.75	30.055
311.12	29.494
311.48	28.314
311.85	27.120
312.22	29.008
312.58	28.556
312.95	28.495
313.31	28.778
313.68	27.749
314.05	28.673
314.41	28.041
314.78	27.526
315.14	29.805
315.51	28.261
315.87	27.766
316.24	29.929
316.61	27.854
316.97	28.274
317.34	28.906
317.70	27.916
318.07	27.788
318.43	27.157
318.80	27.841
319.16	28.418
319.53	28.490
319.89	29.823
320.26	26.822
320.62	26.580
320.99	26.409
321.35	27.955
321.72	27.726
322.08	28.802
322.45	30.152
322.81	28.193
323.18	28.459
323.54	27.992
323.91	28.627
324.27	28.613
324.64	27.715
325.00	28.102
325.37	28.834
325.73	26.745
326.10	28.792
326.46	29.327
326.83	29.921
327.19	28.248
327.56	29.192
327.92	29.754
328.29	29.018
328.65	28.679
329.01	28.952
329.38	27.742
329.74	28.423
330.11	27.247
330.47	27.365
330.84	29.135
331.20	28.992
331.56	27.315
331.93	27.945
332.29	28.781
332.66	29.593
333.02	27.323
333.38	28.689
333.75	29.212
334.11	28.469
334.48	28.830
334.84	28.388
335.20	26.807
335.57	28.105
335.93	29.720
336.29	29.466
336.66	27.884
337.02	26.673
337.38	26.759
337.75	27.818
338.11	28.404
338.47	27.920
338.84	26.525
339.20	28.154
339.56	27.064
339.93	29.006
340.29	26.789
340.65	28.047
341.02	26.152
341.38	27.611
341.74	26.590
342.11	27.296
342.47	27.758
342.83	26.990
343.20	25.697
343.56	26.783
343.92	27.192
344.28	28.266
344.65	26.857
345.01	26.448
345.37	26.829
345.73	26.778
346.10	26.402
346.46	27.334
346.82	25.777
347.19	25.436
347.55	25.898
347.91	27.104
348.27	26.112
348.63	27.087
349.00	25.513
349.36	26.600
349.72	27.446
350.08	26.721
350.45	26.736
350.81	26.412
351.17	25.326
351.53	27.102
351.89	25.434
352.26	25.920
352.62	25.484
352.98	25.622
353.34	25.201
353.70	27.427
354.07	25.806
354.43	24.900
354.79	26.094
355.15	26.190
355.51	25.475
355.87	26.537
356.24	24.551
356.60	24.980
356.96	26.429
357.32	25.319
357.68	25.489
358.04	25.929
358.40	25.000
358.77	25.837
359.13	23.619
359.49	24.653
359.85	24.805
360.21	24.561
360.57	24.560
360.93	24.584
361.29	23.565
361.66	24.687
362.02	25.152
362.38	24.600
362.74	24.603
363.10	25.056
363.46	24.685
363.82	24.493
364.18	24.354
364.54	24.559
364.90	24.516
365.26	24.309
365.62	25.255
365.98	25.513
366.35	24.399
366.71	25.055
367.07	23.585
367.43	24.515
367.79	24.170
368.15	23.977
368.51	24.472
368.87	23.403
369.23	23.971
369.59	24.344
369.95	25.147
370.31	24.205
370.67	23.657
371.03	23.525
371.39	23.195
371.75	24.469
372.11	23.966
372.47	24.112
372.83	23.918
373.19	23.395
373.55	22.166
373.91	22.678
374.27	24.522
374.63	24.480
374.99	23.617
375.35	23.955
375.71	23.147
376.07	22.612
376.42	23.878
376.78	23.758
377.14	23.290
377.50	23.307
377.86	23.159
378.22	24.123
378.58	22.821
378.94	23.440
379.30	23.581
379.66	22.947
380.02	22.747
380.38	22.824
380.74	23.040
381.09	23.190
381.45	22.813
381.81	22.702
382.17	23.160
382.53	22.049
382.89	23.415
383.25	22.900
383.61	22.927
383.97	22.540
384.32	22.452
384.68	22.229
385.04	21.875
385.40	22.215
385.76	23.145
386.12	23.803
386.48	23.436
386.83	22.448
387.19	22.405
387.55	23.275
387.91	23.166
388.27	22.100
388.62	22.278
388.98	22.591
389.34	22.611
389.70	23.120
390.06	22.152
390.42	22.409
390.77	21.844
391.13	21.879
391.49	21.734
391.85	22.547
392.20	22.599
392.56	21.869
392.92	22.783
393.28	22.642
393.64	22.042
393.99	23.323
394.35	21.885
394.71	22.797
395.07	21.747
395.42	21.494
395.78	22.671
396.14	21.627
396.50	21.940
396.85	22.279
397.21	22.556
397.57	22.382
397.92	21.450
398.28	21.494
398.64	20.964
399.00	22.743
399.35	21.727
399.71	21.999
400.07	22.430
400.42	22.460
400.78	22.413
401.14	22.202
401.49	22.275
401.85	21.755
402.21	21.506
402.57	21.312
402.92	20.765
403.28	22.243
403.63	22.068
403.99	22.385
404.35	22.299
404.70	21.310
405.06	21.210
405.42	22.996
405.77	20.337
406.13	21.187
406.49	21.433
406.84	21.271
407.20	21.975
407.55	21.636
407.91	21.791
408.27	20.650
408.62	23.015
408.98	21.627
409.34	21.561
409.69	20.995
410.05	22.044
410.40	21.728
410.76	21.653
411.11	21.562
411.47	22.288
411.83	20.339
412.18	21.364
412.54	21.473
412.89	20.690
413.25	22.202
413.60	21.056
413.96	21.656
414.31	22.012
414.67	22.194
415.03	21.438
415.38	20.496
415.74	20.912
416.09	21.555
416.45	22.282
416.80	21.481
417.16	20.856
417.51	22.318
417.87	21.578
418.22	20.661
418.58	21.538
418.93	21.944
419.29	20.743
419.64	22.229
420.00	21.599
420.35	20.776
420.71	21.810
421.06	20.503
421.42	20.853
421.77	21.676
422.12	21.226
422.48	21.819
422.83	20.998
423.19	21.840
423.54	21.576
423.90	21.849
424.25	21.010
424.61	21.542
424.96	21.835
425.31	21.433
425.67	21.831
426.02	21.790
426.38	21.039
426.73	21.913
427.09	22.152
427.44	21.529
427.79	21.862
428.15	22.087
428.50	21.623
428.85	20.455
429.21	22.298
429.56	22.156
429.92	21.366
430.27	21.654
430.62	20.125
430.98	21.072
431.33	21.556
431.68	21.559
432.04	21.576
432.39	21.392
432.74	20.325
433.10	21.782
433.45	21.744
433.80	21.242
434.16	20.665
434.51	20.430
434.86	21.719
435.22	21.593
435.57	22.333
435.92	20.958
436.28	20.871
436.63	21.620
436.98	21.147
437.34	21.234
437.69	22.242
438.04	21.652
438.39	21.258
438.75	21.311
439.10	22.184
439.45	21.911
439.81	21.590
440.16	21.378
440.51	21.134
440.86	21.994
441.22	21.550
441.57	21.247
441.92	21.563
442.27	21.064
442.63	22.752
442.98	21.827
443.33	21.870
443.68	21.167
444.03	22.702
444.39	21.938
444.74	22.854
445.09	21.437
445.44	21.538
445.79	23.105
446.15	22.137
446.50	20.854
446.85	20.882
447.20	21.011
447.55	21.763
447.91	21.771
448.26	22.368
448.61	22.107
448.96	22.662
449.31	22.081
449.66	22.184
450.02	21.905
450.37	22.762
450.72	21.478
451.07	22.342
451.42	21.223
451.77	21.157
452.12	20.395
452.47	22.215
452.83	21.260
453.18	21.126
453.53	22.124
453.88	22.101
454.23	21.266
454.58	22.229
454.93	22.036
455.28	21.206
455.63	21.451
455.98	22.189
456.34	21.903
456.69	21.665
457.04	23.314
457.39	21.446
457.74	21.705
458.09	21.719
458.44	20.889
458.79	20.224
459.14	21.453
459.49	22.567
459.84	22.843
460.19	22.148
460.54	22.433
460.89	22.330
461.24	21.925
461.59	22.150
461.94	21.132
462.29	22.557
462.64	22.591
462.99	21.124
463.34	21.558
463.69	20.849
464.04	21.368
464.39	21.953
464.74	21.718
465.09	21.023
465.44	22.504
465.79	21.032
466.14	22.805
466.49	21.162
466.84	22.070
467.19	22.653
467.54	21.392
467.89	21.099
468.24	21.411
468.59	22.730
468.94	21.206
469.29	22.361
469.64	21.873
469.99	22.004
470.34	20.751
470.68	21.924
471.03	22.505
471.38	21.541
471.73	21.639
472.08	21.303
472.43	21.275
472.78	20.905
473.13	21.701
473.48	21.694
473.83	20.922
474.17	21.697
474.52	21.251
474.87	21.091
475.22	21.965
475.57	21.400
475.92	21.942
476.27	21.653
476.61	21.412
476.96	21.026
477.31	21.850
477.66	21.685
478.01	20.550
478.36	21.133
478.70	21.968
479.05	21.209
479.40	21.198
479.75	21.429
480.10	21.403
480.45	21.750
480.79	22.508
481.14	21.670
481.49	21.133
481.84	21.187
482.19	21.282
482.53	21.823
482.88	22.005
483.23	21.401
483.58	21.274
483.92	20.523
484.27	21.376
484.62	21.112
484.97	21.808
485.31	21.857
485.66	20.580
486.01	20.762
486.36	21.582
486.70	22.180
487.05	22.694
487.40	22.699
487.75	22.986
488.09	23.517
488.44	23.693
488.79	22.899
489.13	22.716
489.48	22.403
489.83	21.839
490.17	21.483
490.52	21.293
490.87	21.055
491.22	21.060
491.56	20.968
491.91	20.124
492.26	21.828
492.60	20.873
492.95	22.381
493.30	21.006
493.64	20.972
493.99	21.546
494.34	20.583
494.68	20.905
495.03	21.022
495.37	21.492
495.72	20.697
496.07	20.878
496.41	20.755
496.76	20.497
497.11	20.447
497.45	21.384
497.80	21.847
498.14	21.212
498.49	21.178
498.84	20.958
499.18	21.135
499.53	21.677
499.87	21.158
500.22	21.414
500.56	21.432
500.91	21.084
501.26	20.613
501.60	21.053
501.95	21.058
502.29	20.872
502.64	20.946
502.98	21.214
503.33	21.037
503.67	21.060
504.02	21.163
504.36	21.079
504.71	20.404
505.06	20.332
505.40	21.168
505.75	20.515
506.09	20.730
506.44	21.150
506.78	20.969
507.13	21.355
507.47	21.514
507.82	20.940
508.16	19.704
508.51	22.036
508.85	20.670
509.19	19.745
509.54	21.072
509.88	20.712
510.23	20.441
510.57	20.417
510.92	19.776
511.26	20.786
511.61	21.397
511.95	21.096
512.30	20.565
512.64	20.479
512.98	19.989
513.33	20.705
513.67	19.727
514.02	21.053
514.36	21.714
514.70	21.503
515.05	20.917
515.39	19.953
515.74	20.898
516.08	20.203
516.42	20.730
516.77	21.182
517.11	21.128
517.46	20.527
517.80	21.633
518.14	20.331
518.49	20.553
518.83	19.988
519.17	19.770
519.52	19.775
519.86	20.168
520.20	20.656
520.55	19.637
520.89	20.452
521.23	19.886
521.58	20.883
521.92	20.577
522.26	20.299
522.61	20.325
522.95	20.728
523.29	20.140
523.64	20.902
523.98	20.415
524.32	19.459
524.66	20.102
525.01	20.584
525.35	21.387
525.69	19.933
526.04	20.106
526.38	20.752
526.72	19.424
527.06	19.909
527.41	20.778
527.75	20.040
528.09	20.399
528.43	22.215
528.78	20.066
529.12	20.968
529.46	20.208
529.80	20.773
530.15	20.594
530.49	20.673
530.83	20.862
531.17	21.021
531.51	20.930
531.86	20.598
532.20	20.529
532.54	20.694
532.88	20.123
533.22	20.632
533.57	19.856
533.91	20.757
534.25	20.247
534.59	19.628
534.93	20.390
535.27	20.305
535.62	20.674
535.96	20.417
536.30	21.438
536.64	21.227
536.98	21.045
537.32	21.906
537.66	21.108
538.01	20.979
538.35	21.637
538.69	20.706
539.03	20.437
539.37	21.534
539.71	20.177
540.05	20.231
540.39	20.983
540.73	21.618
541.07	20.994
541.42	20.968
541.76	21.679
542.10	20.509
542.44	20.639
542.78	20.303
543.12	19.780
543.46	20.723
543.80	21.652
544.14	19.693
544.48	20.053
544.82	21.463
545.16	22.131
545.50	21.495
545.84	21.246
546.18	21.560
546.52	21.774
546.86	21.567
547.20	21.745
547.54	18.728
547.88	22.011
548.22	20.316
548.56	21.042
548.90	21.092
549.24	20.317
549.58	21.721
549.92	20.801
550.26	20.586
550.60	20.595
550.94	22.031
551.28	20.866
551.62	21.308
551.96	20.827
552.30	21.637
552.64	20.240
552.98	21.660
553.32	21.113
553.66	20.755
554.00	21.314
554.34	22.304
554.68	21.386
555.02	21.875
555.36	20.419
555.69	21.538
556.03	19.700
556.37	20.498
556.71	20.866
557.05	21.253
557.39	21.264
557.73	21.364
558.07	21.041
558.41	21.057
558.75	20.499
559.08	22.222
559.42	21.190
559.76	20.897
560.10	20.795
560.44	20.253
560.78	20.350
561.12	21.157
561.45	20.942
561.79	20.938
562.13	20.369
562.47	20.791
562.81	21.326
563.15	21.368
563.48	20.721
563.82	21.345
564.16	22.354
564.50	21.081
564.84	21.419
565.17	21.127
565.51	22.063
565.85	21.399
566.19	21.552
566.52	22.051
566.86	22.172
567.20	21.606
567.54	21.715
567.88	22.144
568.21	22.851
568.55	21.957
568.89	22.074
569.23	22.195
569.56	22.154
569.90	22.209
570.24	22.330
570.57	22.873
570.91	23.353
571.25	22.032
571.59	22.703
571.92	22.252
572.26	22.071
572.60	22.357
572.93	22.843
573.27	22.884
573.61	22.375
573.95	22.856
574.28	22.511
574.62	22.578
574.96	22.563
575.29	22.918
575.63	22.311
575.97	23.096
576.30	23.166
576.64	21.987
576.98	23.526
577.31	22.929
577.65	23.234
577.98	22.802
578.32	22.732
578.66	22.867
578.99	22.906
579.33	23.158
579.67	23.467
580.00	23.595
580.34	23.532
580.67	23.096
581.01	23.271
581.35	22.933
581.68	22.870
582.02	22.756
582.35	22.990
582.69	23.315
583.02	22.816
583.36	23.255
583.70	24.195
584.03	24.020
584.37	24.816
584.70	24.148
585.04	22.694
585.37	22.998
585.71	22.957
586.04	23.172
586.38	22.513
586.72	23.128
587.05	23.917
587.39	23.875
587.72	23.182
588.06	23.803
588.39	23.469
588.73	23.199
589.06	24.364
589.40	23.954
589.73	23.330
590.07	23.829
590.40	24.265
590.73	23.600
591.07	23.622
591.40	23.553
591.74	22.851
592.07	23.609
592.41	22.659
592.74	22.780
593.08	22.459
593.41	22.702
593.75	22.931
594.08	22.039
594.41	23.180
594.75	22.672
595.08	23.004
595.42	22.341
595.75	23.545
596.09	23.925
596.42	23.729
596.75	23.268
597.09	23.280
597.42	23.035
597.75	22.904
598.09	22.770
598.42	22.699
598.76	22.909
599.09	22.316
599.42	22.471
599.76	22.724
600.09	22.323
600.42	22.252
600.76	22.251
601.09	22.672
601.42	22.523
601.76	22.390
602.09	23.804
602.42	23.799
602.76	23.345
603.09	23.214
603.42	23.453
603.76	22.460
604.09	22.884
604.42	22.970
604.76	23.632
605.09	23.446
605.42	22.935
605.75	22.417
606.09	23.227
606.42	22.435
606.75	23.420
607.09	23.165
607.42	21.666
607.75	22.869
608.08	22.327
608.42	22.750
608.75	22.651
609.08	22.621
609.41	23.350
609.75	23.437
610.08	22.566
610.41	23.092
610.74	22.282
611.07	22.636
611.41	22.782
611.74	22.601
612.07	22.591
612.40	23.031
612.73	22.316
613.07	22.497
613.40	22.757
613.73	22.272
614.06	21.870
614.39	21.997
614.72	22.409
615.06	21.899
615.39	21.943
615.72	22.121
616.05	22.291
616.38	21.368
616.71	21.835
617.05	22.421
617.38	23.821
617.71	23.333
618.04	22.730
618.37	23.077
618.70	23.564
619.03	23.264
619.36	22.142
619.69	23.275
620.03	22.936
620.36	22.175
620.69	22.769
621.02	21.177
621.35	23.485
621.68	23.724
622.01	21.500
622.34	21.468
622.67	22.319
623.00	20.904
623.33	21.723
623.66	21.242
623.99	21.331
624.32	21.597
624.65	22.256
624.99	21.821
625.32	21.380
625.65	23.016
625.98	21.998
626.31	21.280
626.64	23.137
626.97	22.775
627.30	19.790
627.63	22.270
627.96	21.473
628.29	20.722
628.62	21.632
628.95	21.142
629.28	21.169
629.61	20.937
629.94	21.212
630.26	21.542
630.59	23.517
630.92	22.564
631.25	20.103
631.58	20.925
631.91	20.504
632.24	21.216
632.57	20.682
632.90	19.336
633.23	19.176
633.56	20.781
633.89	20.222
634.22	22.593
634.55	19.441
634.88	20.051
635.20	19.231
635.53	20.800
635.86	19.246
636.19	21.087
636.52	21.811
636.85	20.844
637.18	18.616
637.51	20.000
637.83	21.025
638.16	22.237
638.49	20.981
638.82	19.342
639.15	20.081
639.48	19.532
639.81	20.781
640.13	20.202
640.46	18.367
640.79	21.649
641.12	18.907
641.45	20.721
641.77	21.185
642.10	22.907
642.43	18.328
642.76	20.462
643.09	20.355
643.41	18.932
643.74	19.769
644.07	21.346
644.40	21.791
644.73	21.016
645.05	18.792
645.38	22.399
645.71	18.440
646.04	19.569
646.36	19.326
646.69	21.583
647.02	20.605
647.35	20.709
647.67	19.013
648.00	21.082
648.33	18.771
648.66	19.153
648.98	18.760
649.31	18.017
649.64	18.210
649.96	18.639
650.29	20.784
650.62	19.145
650.94	21.111
651.27	19.553
651.60	22.883
651.92	20.455
652.25	18.650
652.58	21.833
652.90	20.926
653.23	19.832
653.56	17.259
653.88	19.759
654.21	18.214
654.54	21.732
654.86	20.543
655.19	21.053
655.52	22.601
655.84	20.370
656.17	23.061
656.49	32.606
656.82	36.210
657.15	29.394
657.47	22.783
657.80	17.093
658.13	17.543
658.45	28.327
658.78	29.076
659.10	29.770
659.43	29.837
659.75	29.502
660.08	27.724
660.41	26.660
660.73	24.309
661.06	22.010
661.38	21.331
661.71	16.222
662.03	21.030
662.36	18.901
662.68	17.257
663.01	20.742
663.33	20.882
663.66	16.744
663.98	18.372
664.31	19.829
664.63	16.820
664.96	16.304
665.28	15.894
665.61	20.346
665.93	19.783
666.26	21.041
666.58	17.673
666.91	18.353
667.23	21.226
667.56	17.062
667.88	19.424
668.21	21.002
668.53	19.858
668.86	17.453
669.18	18.868
669.50	16.949
669.83	19.302
670.15	16.084
670.48	18.421
670.80	16.359
671.13	17.897
671.45	17.123
671.77	21.674
672.10	17.030
672.42	18.914
672.75	21.492
673.07	22.004
673.39	22.752
673.72	15.187
674.04	17.500
674.37	21.610
674.69	18.415
675.01	21.333
675.34	20.270
675.66	19.444
675.98	19.069
676.31	20.183
676.63	17.577
676.95	18.864
677.28	21.176
677.60	18.313
677.92	19.037
678.25	19.256
678.57	16.234
678.89	15.966
679.22	23.043
679.54	18.675
679.86	20.080
680.18	22.913
680.51	19.886
680.83	17.097
681.15	18.600
681.48	20.492
681.80	19.628
682.12	20.766
682.44	18.828
682.77	18.543
683.09	19.680
683.41	19.545
683.73	19.816
684.06	18.805
684.38	17.849
684.70	18.954
685.02	18.050
685.34	18.577
685.67	18.199
685.99	20.253
686.31	18.938
686.63	20.408
686.96	19.202
687.28	17.576
687.60	17.681
687.92	21.818
688.24	19.556
688.56	18.559
688.89	20.089
689.21	20.667
689.53	18.329
689.85	17.442
690.17	20.089
690.49	19.385
690.82	18.689
691.14	18.095
691.46	20.093
691.78	19.369
692.10	20.215
692.42	17.749
692.74	21.154
693.06	18.468
693.39	19.231
693.71	16.516
694.03	16.859
694.35	17.991
694.67	19.444
694.99	19.060
695.31	22.454
695.63	21.000
695.95	18.687
696.27	17.358
696.59	21.944
696.91	17.647
697.23	17.995
697.56	15.842
697.88	20.430
698.20	20.501
698.52	19.294
698.84	17.464
699.16	19.750
699.48	17.043
699.80	18.362
700.12	17.790
700.44	23.810
700.76	15.698
701.08	16.667
701.40	18.675
701.72	20.370
702.04	23.432
702.36	16.722
702.68	18.018
703.00	16.061
703.32	16.422
703.64	16.102
703.96	20.870
704.28	18.405
704.60	20.000
704.91	20.820
705.23	14.950
705.55	24.735
705.87	16.245
706.19	17.037
706.51	17.182
706.83	18.650
707.15	15.576
707.47	21.289
707.79	17.708
708.11	21.000
708.43	21.250
708.74	19.380
709.06	16.620
709.38	19.572
709.70	21.006
710.02	18.471
710.34	20.124
710.66	15.705
710.98	11.921
711.29	21.311
711.61	17.288
711.93	18.893
712.25	24.399
712.57	16.850
712.89	17.537
713.20	21.453
713.52	20.906
713.84	17.747
714.16	17.182
714.48	18.387
714.80	17.949
715.11	18.237
715.43	14.420
715.75	16.000
716.07	13.953
716.39	17.785
716.70	16.974
717.02	16.794
717.34	19.028
717.66	16.372
717.97	19.565
718.29	21.339
718.61	15.748
718.93	17.442
719.24	15.589
719.56	17.269
719.88	20.619
720.20	18.561
720.51	18.774
720.83	20.463
721.15	17.647
721.46	16.935
721.78	16.601
722.10	17.472
722.42	15.353
722.73	19.592
723.05	21.633
723.37	22.458
723.68	21.622
724.00	17.521
724.32	21.333
724.63	17.727
724.95	20.087
725.27	22.581
725.58	19.915
725.90	12.698
726.22	15.058
726.53	20.000
726.85	19.850
727.16	21.509
727.48	17.814
727.80	23.077
728.11	15.678
728.43	14.510
728.74	17.742
729.06	20.400
729.38	22.180
729.69	18.725
730.01	13.077
730.32	19.776
730.64	22.615
730.96	17.736
731.27	20.667
731.59	21.017
731.90	15.605
732.22	17.350
732.53	19.269
732.85	21.986
733.16	21.212
733.48	16.547
733.80	19.565
734.11	17.966
734.43	19.588
734.74	18.182
735.06	16.287
735.37	19.033
735.69	21.549
736.00	19.512
736.32	17.450
736.63	16.549
736.95	16.724
737.26	17.794
737.58	16.107
737.89	21.612
738.21	20.301
738.52	20.988
738.83	15.721
739.15	13.537
739.46	21.260
739.78	16.850
740.09	18.301
740.41	15.580
740.72	19.291
741.04	19.838
741.35	17.447
741.66	19.905
741.98	16.837
742.29	18.812
742.61	18.848
742.92	10.900
743.23	10.185
743.55	16.290
743.86	20.096
744.18	17.225
744.49	19.149
744.80	10.870
745.12	17.647
745.43	15.610
745.74	16.146
746.06	17.073
746.37	18.325
746.68	24.645
747.00	17.021
747.31	18.905
747.62	16.505
747.94	20.096
748.25	13.861
748.56	14.208
748.88	17.801
749.19	17.553
749.50	17.734
749.82	13.208
750.13	16.514
750.44	21.053
750.75	21.269
751.07	21.168
751.38	22.605
751.69	12.941
752.01	21.318
752.32	19.124
752.63	14.625
752.94	18.103
753.26	24.686
753.57	19.457
753.88	16.814
754.19	15.000
754.51	16.942
754.82	18.219
755.13	23.750
755.44	20.161
755.75	19.141
756.07	20.233
756.38	15.849
756.69	16.858
757.00	21.000
757.31	20.261
757.63	15.244
757.94	16.667
758.25	18.082
758.56	15.957
758.87	16.714
759.18	18.380
759.50	16.364
759.81	19.398
760.12	18.710
760.43	21.212
760.74	20.679
761.05	20.000
761.36	20.170
761.67	23.636
761.99	20.068
762.30	14.545
762.61	19.368
762.92	18.552
763.23	15.766
763.54	16.822
763.85	18.220
764.16	15.768
764.47	12.903
764.78	17.582
765.10	17.508
765.41	17.350
765.72	17.143
766.03	11.654
766.34	17.883
766.65	24.701
766.96	15.657
767.27	15.426
767.58	17.816
767.89	7.801
768.20	19.318
768.51	12.637
768.82	13.300
769.13	15.668
769.44	15.021
769.75	15.068
770.06	20.690
770.37	12.981
770.68	14.721
770.99	16.290
771.30	19.608
771.61	19.457
771.92	23.707
772.23	18.719
772.54	20.968
772.85	20.988
773.16	21.910
773.47	19.608
773.78	16.340
774.09	16.766
774.39	13.333
774.70	21.656
775.01	20.000
775.32	27.857
775.63	19.835
775.94	16.794
776.25	24.409
776.56	13.333
776.87	15.385
777.18	5.983
777.48	18.966
777.79	6.957
778.10	2.857
778.41	18.018
778.72	19.048
779.03	15.789
779.34	18.440
779.65	16.438
779.95	6.164
780.26	17.241
780.57	21.138
780.88	18.898
781.19	17.241
781.50	23.256
781.80	15.976
782.11	13.836
782.42	19.231
782.73	14.388
783.04	17.037
783.34	15.972
783.65	2.564
783.96	17.213
784.27	22.069
784.57	10.569
784.88	8.594
785.19	24.000
785.50	17.000
785.81	18.103
786.11	10.345
786.42	14.563
786.73	20.000
787.04	22.449
787.34	15.179
787.65	16.190
787.96	10.619
788.26	21.818
788.57	4.274
788.88	18.750
789.19	19.048
789.49	11.304
789.80	8.163
790.11	12.121
790.41	5.455
790.72	16.304
791.03	10.227
791.33	16.250
791.64	16.250
791.95	16.279
792.25	17.021
792.56	15.730
792.87	-8.219
793.17	21.739
793.48	5.333
793.79	10.000
794.09	17.500
794.40	12.264
794.70	7.767
795.01	8.943
795.32	15.385
795.62	17.143
795.93	12.745
796.23	12.264
796.54	23.958
796.85	13.235
797.15	14.085
797.46	23.611
797.76	18.182
798.07	12.791
798.37	0.000
798.68	10.606
798.99	20.988
799.29	8.571
799.60	14.493
799.90	18.667
800.21	14.754
800.51	26.154
800.82	8.475
801.12	8.696
801.43	9.836
801.73	23.810
802.04	16.000
802.34	2.985
802.65	13.462
802.95	-3.571
803.26	-5.769
803.56	3.922
803.87	-4.348
804.17	6.667
804.48	20.635
804.78	-9.259
805.09	4.348
805.39	2.222
805.70	24.074
806.00	-5.263
806.30	11.268
806.61	21.429
806.91	2.778
807.22	15.789
807.52	18.667
807.83	-1.818
808.13	9.722
808.43	20.588
808.74	-1.493
809.04	1.695
809.35	-7.692
809.65	17.188
809.95	0.000
810.26	4.545
810.56	20.548
810.86	9.524
811.17	18.000
811.47	4.082
811.77	-2.632
812.08	20.455
812.38	13.208
812.69	12.500
812.99	-18.182
813.29	5.263
813.59	0.000
813.90	9.091
814.20	-12.821
814.50	19.231
814.81	11.321
815.11	-27.660
815.41	1.695
815.72	30.952
816.02	9.804
816.32	0.000
816.62	4.878
816.93	13.514
817.23	25.714
817.53	8.333
817.84	4.348
818.14	5.769
818.44	-2.632
818.74	2.174
819.04	-20.000
819.35	5.405
819.65	0.000
819.95	-5.556
820.25	16.667
820.56	52.500
820.86	-31.034
821.16	30.000
821.46	19.149
821.76	7.500
822.07	11.628
822.37	-40.541
822.67	15.625
822.97	42.857
823.27	17.857
823.57	-40.000
823.88	-40.741
824.18	-28.571
824.48	17.647
824.78	-3.226
825.08	-13.043
825.38	12.121
825.69	-37.500
825.99	34.211
826.29	0.000
826.59	-6.667
826.89	-66.667
827.19	4.348
827.49	0.000
827.79	-20.000
828.09	3.571
828.39	0.000
828.70	51.351
829.00	0.000
829.30	-14.286
829.60	33.333
829.90	9.375
830.20	-2.632
830.50	3.704
830.80	0.000
831.10	-27.273
831.40	18.182
831.70	22.581
832.00	42.857
832.30	-19.048
832.60	-150.000
832.90	-10.345
833.20	-40.000
833.50	15.152
833.80	-11.111
834.10	30.769
834.40	18.750
834.70	-211.111
835.00	52.632
835.30	69.231
835.60	26.667
835.90	0.000
836.20	-27.273
836.50	25.000
836.80	-11.538
837.10	-21.429
837.40	266.667
837.70	-13.636
838.00	-54.545
838.30	-43.478
838.60	-61.538
838.90	-18.182
839.19	10.714
839.49	33.333
839.79	-38.462
840.09	-83.333
840.39	28.571
840.69	7.143
840.99	-15.385
841.29	-15.789
841.59	-170.000
841.88	18.182
842.18	60.000
842.48	68.750
842.78	-26.667
843.08	-33.333
843.38	-80.000
843.68	56.522
843.97	-13.333
844.27	-86.667
844.57	-10.000
844.87	-16.667
845.17	-23.810
845.47	73.333
845.76	-42.857
846.06	-11.765
846.36	10.000
846.66	-78.571
846.96	6.667
847.25	-162.500
847.55	50.000
847.85	-100.000
848.15	-13.636
848.44	-633.333
848.74	20.000
849.04	29.630
849.34	45.455
849.63	-233.333
849.93	-340.000
850.23	-72.222
850.53	20.000
850.82	-15.385
851.12	-44.444
851.42	-6.667
851.71	-26.923
852.01	-7.143
852.31	-25.000
852.61	9.091
852.90	-35.000
853.20	5.263
853.50	-100.000
853.79	30.435
854.09	20.833
854.39	36.842
854.68	0.000
854.98	22.581
855.28	46.154
855.57	35.000
855.87	50.000
856.17	48.148
856.46	28.571
856.76	-46.667
857.05	-100.000
857.35	52.000
857.65	-33.333
857.94	-23.077
858.24	0.000
858.53	22.222
858.83	3.704
859.13	13.636
859.42	-4.348
859.72	0.000
860.01	-666.667
860.31	-8.000
860.60	-14.286
860.90	-333.333
861.20	-66.667
861.49	-300.000
861.79	-53.333
862.08	-25.000
862.38	53.333
862.67	-200.000
862.97	-100.000
863.26	-33.333
863.56	88.889
863.85	-533.333
864.15	5.556
864.44	-20.000
864.74	85.714
865.03	100.000
865.33	-420.000
865.62	-50.000
865.92	0.000
866.21	-166.667
866.51	-25.000
866.80	-63.636
867.10	-350.000
867.39	133.333
867.69	0.000
867.98	7.692
868.27	-200.000
868.57	-6.667
868.86	44.444
869.16	-15.385
869.45	60.000
869.75	-100.000
870.04	0.000
870.33	-214.286
870.63	52.381
870.92	300.000
871.22	-260.000
871.51	-900.000
871.80	-11.111
872.10	533.333
>>>>>End Processed Spectral Data<<<<<
