SpectraSuite Data File
++++++++++++++++++++++++++++++++++++
Date: Fri May 15 20:29:47 PDT 2015
User: schluterlab
Dark Spectrum Present: Yes
Reference Spectrum Present: Yes
Number of Sampled Component Spectra: 1
Spectrometers: USB2E3373
Integration Time (usec): 3000 (USB2E3373)
Spectra Averaged: 3 (USB2E3373)
Boxcar Smoothing: 0 (USB2E3373)
Correct for Electrical Dark: No (USB2E3373)
Strobe/Lamp Enabled: No (USB2E3373)
Correct for Detector Non-linearity: No (USB2E3373)
Correct for Stray Light: No (USB2E3373)
Number of Pixels in Processed Spectrum: 2048
>>>>>Begin Processed Spectral Data<<<<<
178.53	0.000
178.91	0.000
179.29	12.500
179.67	-700.000
180.04	-42.857
180.42	100.000
180.80	500.000
181.18	66.667
181.56	500.000
181.94	50.000
182.31	800.000
182.69	-180.000
183.07	-633.333
183.45	-100.000
183.83	266.667
184.20	27.273
184.58	133.333
184.96	25.000
185.34	66.667
185.72	-300.000
186.09	92.308
186.47	-400.000
186.85	83.333
187.23	200.000
187.61	-800.000
187.98	-33.333
188.36	55.556
188.74	-400.000
189.12	17.647
189.49	16.667
189.87	0.000
190.25	42.857
190.63	200.000
191.00	-100.000
191.38	-10.526
191.76	-50.000
192.14	75.000
192.51	-150.000
192.89	-144.444
193.27	-85.714
193.65	200.000
194.02	154.545
194.40	20.000
194.78	-150.000
195.15	0.000
195.53	-112.500
195.91	75.000
196.29	-200.000
196.66	61.538
197.04	-57.143
197.42	-88.889
197.79	-366.667
198.17	-76.923
198.55	1000.000
198.92	-33.333
199.30	-100.000
199.68	-60.000
200.05	33.333
200.43	0.000
200.81	200.000
201.18	66.667
201.56	1000.000
201.94	-50.000
202.31	133.333
202.69	-80.000
203.07	150.000
203.44	200.000
203.82	0.000
204.19	92.857
204.57	-700.000
204.95	25.000
205.32	-30.000
205.70	71.429
206.08	-50.000
206.45	100.000
206.83	107.143
207.20	-57.143
207.58	300.000
207.96	-333.333
208.33	-100.000
208.71	-175.000
209.08	-33.333
209.46	-400.000
209.84	-160.000
210.21	-800.000
210.59	157.143
210.96	-133.333
211.34	-50.000
211.71	133.333
212.09	-228.571
212.46	-1300.000
212.84	0.000
213.22	50.000
213.59	300.000
213.97	23.077
214.34	54.545
214.72	-33.333
215.09	350.000
215.47	100.000
215.84	-27.273
216.22	33.333
216.59	87.500
216.97	300.000
217.34	-50.000
217.72	-100.000
218.09	87.500
218.47	125.000
218.84	-1200.000
219.22	-77.778
219.59	60.000
219.97	600.000
220.34	325.000
220.72	-28.571
221.09	-300.000
221.47	-50.000
221.84	-600.000
222.22	-550.000
222.59	-18.182
222.97	41.667
223.34	-266.667
223.72	-50.000
224.09	28.571
224.46	28.571
224.84	500.000
225.21	-70.000
225.59	13.333
225.96	100.000
226.34	300.000
226.71	-85.714
227.08	0.000
227.46	0.000
227.83	-250.000
228.21	166.667
228.58	63.636
228.95	12.500
229.33	100.000
229.70	6.250
230.08	-87.500
230.45	-57.143
230.82	85.714
231.20	-33.333
231.57	42.857
231.95	57.143
232.32	-130.000
232.69	21.429
233.07	200.000
233.44	0.000
233.81	-30.000
234.19	100.000
234.56	0.000
234.93	500.000
235.31	25.000
235.68	-220.000
236.05	-23.077
236.43	-5.000
236.80	58.824
237.17	31.250
237.55	-10.000
237.92	7.407
238.29	44.444
238.67	73.333
239.04	8.824
239.41	9.756
239.79	-10.000
240.16	21.951
240.53	47.368
240.91	15.217
241.28	26.984
241.65	44.643
242.02	39.726
242.40	35.000
242.77	40.678
243.14	1.515
243.51	27.500
243.89	17.241
244.26	28.736
244.63	36.905
245.00	24.742
245.38	35.052
245.75	28.090
246.12	37.069
246.49	28.926
246.87	24.038
247.24	36.975
247.61	31.579
247.98	37.398
248.36	26.250
248.73	36.184
249.10	25.325
249.47	34.177
249.84	40.523
250.22	31.176
250.59	30.719
250.96	36.150
251.33	29.070
251.70	28.235
252.08	31.472
252.45	26.238
252.82	32.663
253.19	34.101
253.56	25.701
253.94	26.126
254.31	34.348
254.68	36.842
255.05	32.677
255.42	30.568
255.79	33.591
256.16	36.576
256.54	31.343
256.91	28.137
257.28	28.996
257.65	27.341
258.02	31.915
258.39	32.997
258.76	31.502
259.14	32.558
259.51	33.333
259.88	32.990
260.25	33.333
260.62	35.417
260.99	31.864
261.36	32.192
261.73	30.063
262.10	32.827
262.47	34.969
262.85	31.348
263.22	32.615
263.59	32.710
263.96	35.404
264.33	34.848
264.70	30.357
265.07	36.310
265.44	34.844
265.81	31.921
266.18	38.798
266.55	34.447
266.92	31.606
267.29	31.070
267.66	31.202
268.03	35.864
268.40	31.070
268.77	35.027
269.14	30.935
269.51	33.676
269.88	33.167
270.25	32.398
270.62	30.732
270.99	32.737
271.36	34.963
271.73	31.221
272.10	34.550
272.47	33.570
272.84	32.673
273.21	32.251
273.58	33.735
273.95	33.181
274.32	31.871
274.69	27.828
275.06	34.821
275.43	29.478
275.80	33.333
276.17	32.414
276.54	29.979
276.91	30.702
277.28	31.441
277.65	30.372
278.02	31.915
278.39	33.479
278.76	31.237
279.13	29.046
279.50	32.563
279.87	29.590
280.23	33.978
280.60	32.749
280.97	32.323
281.34	29.423
281.71	31.828
282.08	31.697
282.45	31.703
282.82	30.116
283.19	31.141
283.56	29.094
283.92	29.412
284.29	30.000
284.66	31.202
285.03	34.578
285.40	31.947
285.77	29.701
286.14	30.866
286.51	33.764
286.87	30.896
287.24	29.650
287.61	29.806
287.98	31.404
288.35	30.156
288.72	29.772
289.08	29.514
289.45	29.174
289.82	29.196
290.19	26.109
290.56	27.101
290.93	28.283
291.29	25.886
291.66	27.559
292.03	26.475
292.40	27.258
292.77	25.678
293.13	23.864
293.50	25.493
293.87	25.802
294.24	26.275
294.60	26.230
294.97	24.702
295.34	25.767
295.71	25.037
296.08	26.308
296.44	23.329
296.81	24.167
297.18	24.928
297.55	25.745
297.91	23.699
298.28	25.462
298.65	21.710
299.02	23.315
299.38	20.930
299.75	22.069
300.12	23.822
300.48	23.452
300.85	22.814
301.22	22.078
301.59	23.158
301.95	23.797
302.32	23.346
302.69	23.010
303.05	22.277
303.42	21.669
303.79	23.364
304.15	22.939
304.52	21.760
304.89	21.637
305.25	23.608
305.62	21.470
305.99	21.053
306.35	22.081
306.72	20.360
307.09	22.007
307.45	22.273
307.82	21.528
308.19	21.022
308.55	23.337
308.92	22.440
309.29	21.117
309.65	19.699
310.02	22.112
310.38	21.515
310.75	22.623
311.12	20.775
311.48	19.936
311.85	21.047
312.22	19.831
312.58	22.187
312.95	21.878
313.31	20.807
313.68	20.209
314.05	21.837
314.41	20.825
314.78	22.165
315.14	22.919
315.51	22.360
315.87	22.848
316.24	21.840
316.61	22.835
316.97	22.619
317.34	22.949
317.70	22.180
318.07	21.731
318.43	22.255
318.80	22.538
319.16	22.949
319.53	22.602
319.89	22.441
320.26	22.672
320.62	24.975
320.99	24.113
321.35	24.049
321.72	23.676
322.08	24.673
322.45	25.888
322.81	25.835
323.18	24.730
323.54	24.228
323.91	24.440
324.27	25.684
324.64	25.655
325.00	27.099
325.37	27.181
325.73	26.111
326.10	25.704
326.46	28.072
326.83	28.959
327.19	28.422
327.56	29.192
327.92	30.194
328.29	30.089
328.65	31.132
329.01	29.963
329.38	30.783
329.74	30.123
330.11	30.862
330.47	31.169
330.84	31.058
331.20	34.411
331.56	30.556
331.93	33.242
332.29	33.731
332.66	34.842
333.02	32.621
333.38	33.089
333.75	33.974
334.11	33.393
334.48	33.817
334.84	34.524
335.20	34.675
335.57	33.545
335.93	34.779
336.29	35.083
336.66	33.969
337.02	34.758
337.38	35.185
337.75	35.545
338.11	36.159
338.47	37.318
338.84	36.229
339.20	36.197
339.56	37.248
339.93	37.243
340.29	36.881
340.65	35.842
341.02	35.993
341.38	36.903
341.74	35.071
342.11	35.442
342.47	36.032
342.83	35.467
343.20	35.540
343.56	36.174
343.92	36.050
344.28	35.867
344.65	35.665
345.01	36.214
345.37	36.417
345.73	37.741
346.10	37.187
346.46	36.249
346.82	36.498
347.19	37.074
347.55	36.842
347.91	37.217
348.27	36.217
348.63	36.201
349.00	35.357
349.36	36.991
349.72	38.391
350.08	37.049
350.45	35.994
350.81	38.123
351.17	35.505
351.53	37.551
351.89	36.912
352.26	36.320
352.62	37.823
352.98	36.305
353.34	36.312
353.70	37.379
354.07	37.016
354.43	37.310
354.79	37.490
355.15	37.540
355.51	37.500
355.87	37.702
356.24	35.889
356.60	36.217
356.96	36.825
357.32	35.623
357.68	36.435
358.04	36.834
358.40	36.736
358.77	36.922
359.13	37.870
359.49	35.901
359.85	36.427
360.21	37.002
360.57	37.108
360.93	37.216
361.29	35.121
361.66	37.774
362.02	37.424
362.38	37.548
362.74	36.412
363.10	37.321
363.46	36.842
363.82	37.791
364.18	36.015
364.54	37.574
364.90	37.133
365.26	36.681
365.62	38.759
365.98	37.170
366.35	38.237
366.71	37.694
367.07	38.607
367.43	36.592
367.79	37.456
368.15	37.832
368.51	38.456
368.87	37.760
369.23	37.473
369.59	37.901
369.95	36.950
370.31	37.066
370.67	37.463
371.03	37.640
371.39	38.001
371.75	37.143
372.11	38.017
372.47	37.574
372.83	37.615
373.19	37.589
373.55	36.173
373.91	37.149
374.27	39.334
374.63	38.550
374.99	36.738
375.35	38.928
375.71	38.811
376.07	37.500
376.42	39.184
376.78	38.859
377.14	37.982
377.50	38.579
377.86	38.220
378.22	38.162
378.58	39.103
378.94	37.618
379.30	38.054
379.66	38.370
380.02	38.565
380.38	39.927
380.74	38.360
381.09	39.693
381.45	38.777
381.81	38.618
382.17	38.642
382.53	39.913
382.89	39.360
383.25	39.639
383.61	39.695
383.97	38.413
384.32	39.149
384.68	40.000
385.04	39.032
385.40	39.017
385.76	40.314
386.12	39.780
386.48	40.805
386.83	39.442
387.19	38.767
387.55	39.649
387.91	40.403
388.27	39.194
388.62	40.906
388.98	40.209
389.34	40.475
389.70	40.895
390.06	39.648
390.42	40.220
390.77	41.007
391.13	40.101
391.49	39.069
391.85	40.546
392.20	39.925
392.56	40.051
392.92	39.695
393.28	39.741
393.64	39.880
393.99	39.875
394.35	40.291
394.71	40.421
395.07	39.975
395.42	39.769
395.78	40.912
396.14	40.353
396.50	41.218
396.85	40.309
397.21	40.351
397.57	39.310
397.92	40.623
398.28	39.885
398.64	40.181
399.00	41.309
399.35	39.503
399.71	40.953
400.07	40.447
400.42	41.065
400.78	40.723
401.14	39.806
401.49	40.441
401.85	40.280
402.21	40.843
402.57	40.812
402.92	40.025
403.28	40.100
403.63	42.055
403.99	41.135
404.35	41.349
404.70	39.940
405.06	39.483
405.42	40.460
405.77	40.267
406.13	41.560
406.49	40.912
406.84	41.687
407.20	41.120
407.55	40.631
407.91	39.773
408.27	41.045
408.62	40.800
408.98	40.111
409.34	40.892
409.69	40.052
410.05	39.778
410.40	40.988
410.76	40.229
411.11	41.000
411.47	40.105
411.83	40.615
412.18	41.956
412.54	40.012
412.89	40.825
413.25	41.336
413.60	42.050
413.96	40.245
414.31	41.159
414.67	41.309
415.03	40.546
415.38	41.057
415.74	42.476
416.09	40.170
416.45	41.121
416.80	39.722
417.16	42.403
417.51	41.106
417.87	40.222
418.22	42.163
418.58	40.736
418.93	42.382
419.29	40.653
419.64	39.922
420.00	41.940
420.35	40.955
420.71	42.467
421.06	40.086
421.42	40.565
421.77	41.503
422.12	40.749
422.48	40.336
422.83	40.487
423.19	40.745
423.54	40.447
423.90	40.695
424.25	40.700
424.61	41.616
424.96	40.708
425.31	41.190
425.67	41.608
426.02	40.695
426.38	42.768
426.73	41.949
427.09	41.835
427.44	41.471
427.79	41.662
428.15	41.019
428.50	41.914
428.85	40.602
429.21	40.634
429.56	41.563
429.92	40.935
430.27	40.201
430.62	39.676
430.98	41.773
431.33	41.746
431.68	41.601
432.04	42.314
432.39	39.875
432.74	40.710
433.10	41.667
433.45	40.920
433.80	41.149
434.16	40.831
434.51	42.151
434.86	41.812
435.22	41.167
435.57	41.609
435.92	41.677
436.28	41.622
436.63	41.244
436.98	41.136
437.34	41.077
437.69	42.457
438.04	42.279
438.39	41.478
438.75	42.137
439.10	41.200
439.45	42.179
439.81	41.040
440.16	42.518
440.51	42.030
440.86	42.598
441.22	41.233
441.57	41.998
441.92	41.973
442.27	42.184
442.63	43.522
442.98	42.045
443.33	42.460
443.68	41.698
444.03	42.077
444.39	41.810
444.74	42.419
445.09	42.762
445.44	42.393
445.79	43.528
446.15	42.401
446.50	41.708
446.85	42.030
447.20	42.388
447.55	42.801
447.91	42.358
448.26	42.573
448.61	42.372
448.96	42.972
449.31	42.312
449.66	41.870
450.02	42.556
450.37	42.027
450.72	42.153
451.07	42.975
451.42	41.136
451.77	41.832
452.12	42.404
452.47	41.726
452.83	41.519
453.18	42.505
453.53	42.604
453.88	43.230
454.23	42.532
454.58	43.514
454.93	41.817
455.28	40.762
455.63	42.467
455.98	43.957
456.34	41.571
456.69	42.630
457.04	42.344
457.39	42.406
457.74	41.596
458.09	41.318
458.44	42.305
458.79	41.737
459.14	43.021
459.49	43.164
459.84	42.865
460.19	42.294
460.54	43.460
460.89	43.182
461.24	41.739
461.59	42.577
461.94	41.069
462.29	43.486
462.64	43.455
462.99	43.873
463.34	41.933
463.69	42.214
464.04	42.373
464.39	43.542
464.74	42.393
465.09	43.606
465.44	43.047
465.79	42.687
466.14	42.474
466.49	43.358
466.84	42.891
467.19	43.742
467.54	42.146
467.89	43.083
468.24	43.491
468.59	44.698
468.94	43.048
469.29	44.852
469.64	43.609
469.99	45.480
470.34	44.096
470.68	44.966
471.03	45.294
471.38	44.579
471.73	44.958
472.08	43.623
472.43	45.705
472.78	43.523
473.13	44.762
473.48	44.235
473.83	44.022
474.17	45.078
474.52	44.097
474.87	44.000
475.22	44.600
475.57	43.874
475.92	44.871
476.27	44.354
476.61	43.981
476.96	43.001
477.31	45.863
477.66	43.820
478.01	44.133
478.36	44.063
478.70	45.840
479.05	45.000
479.40	45.098
479.75	43.379
480.10	44.137
480.45	43.650
480.79	45.871
481.14	45.236
481.49	44.483
481.84	44.691
482.19	44.574
482.53	45.228
482.88	44.391
483.23	44.146
483.58	44.906
483.92	43.708
484.27	44.348
484.62	45.361
484.97	42.869
485.31	42.702
485.66	40.543
486.01	40.169
486.36	40.210
486.70	40.775
487.05	42.417
487.40	42.063
487.75	42.845
488.09	43.294
488.44	44.532
488.79	44.042
489.13	45.152
489.48	44.976
489.83	44.439
490.17	44.584
490.52	45.497
490.87	44.794
491.22	45.989
491.56	45.351
491.91	44.790
492.26	47.107
492.60	45.202
492.95	47.172
493.30	45.042
493.64	45.678
493.99	45.797
494.34	45.825
494.68	46.429
495.03	45.547
495.37	45.486
495.72	45.533
496.07	46.488
496.41	45.802
496.76	46.154
497.11	45.319
497.45	47.446
497.80	47.376
498.14	46.398
498.49	45.861
498.84	45.309
499.18	47.088
499.53	47.371
499.87	45.963
500.22	46.340
500.56	47.100
500.91	47.390
501.26	46.614
501.60	46.975
501.95	46.822
502.29	48.281
502.64	46.959
502.98	47.953
503.33	46.158
503.67	46.217
504.02	47.605
504.36	47.353
504.71	48.232
505.06	47.660
505.40	47.817
505.75	48.144
506.09	47.745
506.44	48.101
506.78	48.571
507.13	48.242
507.47	48.042
507.82	48.130
508.16	48.547
508.51	48.216
508.85	48.666
509.19	48.749
509.54	49.705
509.88	48.166
510.23	49.758
510.57	50.561
510.92	49.840
511.26	49.809
511.61	50.385
511.95	51.288
512.30	51.220
512.64	51.085
512.98	49.972
513.33	50.867
513.67	50.256
514.02	51.430
514.36	52.114
514.70	52.564
515.05	53.760
515.39	52.184
515.74	53.772
516.08	52.062
516.42	53.534
516.77	54.359
517.11	52.463
517.46	53.621
517.80	53.337
518.14	53.460
518.49	53.185
518.83	54.678
519.17	52.941
519.52	53.286
519.86	54.142
520.20	54.617
520.55	54.909
520.89	55.521
521.23	55.541
521.58	56.151
521.92	55.769
522.26	54.847
522.61	57.597
522.95	56.225
523.29	54.765
523.64	55.654
523.98	57.032
524.32	56.701
524.66	56.786
525.01	55.779
525.35	56.189
525.69	57.508
526.04	55.886
526.38	57.782
526.72	57.096
527.06	55.966
527.41	57.586
527.75	55.630
528.09	57.010
528.43	58.204
528.78	57.492
529.12	56.839
529.46	56.270
529.80	55.985
530.15	57.162
530.49	57.980
530.83	59.371
531.17	57.018
531.51	58.208
531.86	57.308
532.20	57.620
532.54	57.931
532.88	58.658
533.22	58.535
533.57	57.536
533.91	57.311
534.25	56.901
534.59	58.307
534.93	56.828
535.27	55.838
535.62	56.643
535.96	57.469
536.30	56.860
536.64	58.305
536.98	58.885
537.32	58.464
537.66	58.555
538.01	58.392
538.35	58.322
538.69	56.525
539.03	56.938
539.37	57.066
539.71	57.669
540.05	57.094
540.39	57.964
540.73	57.183
541.07	59.530
541.42	57.460
541.76	59.050
542.10	58.500
542.44	57.748
542.78	56.986
543.12	57.418
543.46	58.971
543.80	57.807
544.14	56.208
544.48	56.895
544.82	57.348
545.16	57.719
545.50	57.009
545.84	58.994
546.18	59.007
546.52	58.544
546.86	58.519
547.20	58.155
547.54	57.597
547.88	59.035
548.22	56.673
548.56	56.135
548.90	57.682
549.24	58.953
549.58	57.052
549.92	57.041
550.26	57.729
550.60	59.628
550.94	59.223
551.28	58.114
551.62	60.077
551.96	60.000
552.30	59.137
552.64	56.559
552.98	58.439
553.32	56.919
553.66	58.708
554.00	59.197
554.34	59.010
554.68	58.481
555.02	59.598
555.36	58.115
555.69	57.582
556.03	57.459
556.37	57.224
556.71	59.856
557.05	60.850
557.39	58.736
557.73	59.745
558.07	60.407
558.41	60.260
558.75	60.171
559.08	58.865
559.42	59.603
559.76	60.048
560.10	58.639
560.44	58.824
560.78	57.273
561.12	58.674
561.45	58.046
561.79	57.773
562.13	59.475
562.47	58.273
562.81	58.285
563.15	57.969
563.48	58.345
563.82	58.133
564.16	57.451
564.50	56.689
564.84	58.568
565.17	57.612
565.51	61.202
565.85	58.299
566.19	58.952
566.52	58.981
566.86	59.254
567.20	57.659
567.54	56.752
567.88	57.118
568.21	56.391
568.55	55.652
568.89	55.852
569.23	54.646
569.56	53.678
569.90	53.877
570.24	51.321
570.57	53.818
570.91	52.632
571.25	51.200
571.59	50.607
571.92	49.481
572.26	50.815
572.60	51.256
572.93	50.988
573.27	50.564
573.61	50.895
573.95	50.382
574.28	50.742
574.62	49.225
574.96	49.115
575.29	49.445
575.63	48.121
575.97	48.983
576.30	50.211
576.64	49.377
576.98	49.884
577.31	49.373
577.65	49.312
577.98	48.774
578.32	48.655
578.66	47.668
578.99	48.339
579.33	48.414
579.67	49.483
580.00	49.165
580.34	49.478
580.67	48.689
581.01	49.424
581.35	48.407
581.68	48.239
582.02	47.385
582.35	47.781
582.69	48.130
583.02	48.601
583.36	49.326
583.70	49.896
584.03	50.097
584.37	50.734
584.70	49.973
585.04	48.990
585.37	49.091
585.71	48.186
586.04	48.638
586.38	49.373
586.72	49.813
587.05	50.520
587.39	49.930
587.72	50.547
588.06	49.516
588.39	50.242
588.73	50.580
589.06	50.913
589.40	50.259
589.73	51.187
590.07	51.360
590.40	51.471
590.73	52.842
591.07	51.781
591.40	51.380
591.74	52.308
592.07	51.623
592.41	52.650
592.74	50.697
593.08	49.494
593.41	49.819
593.75	49.460
594.08	49.262
594.41	50.983
594.75	50.229
595.08	50.776
595.42	51.012
595.75	51.709
596.09	51.564
596.42	51.881
596.75	51.909
597.09	51.891
597.42	51.807
597.75	52.726
598.09	51.335
598.42	51.264
598.76	51.094
599.09	50.962
599.42	49.147
599.76	49.360
600.09	50.490
600.42	49.735
600.76	49.294
601.09	49.924
601.42	49.667
601.76	50.655
602.09	50.825
602.42	51.559
602.76	52.080
603.09	51.993
603.42	51.881
603.76	50.484
604.09	49.980
604.42	51.861
604.76	52.203
605.09	51.737
605.42	51.287
605.75	50.482
606.09	50.021
606.42	49.791
606.75	50.390
607.09	50.725
607.42	50.465
607.75	50.311
608.08	48.742
608.42	50.343
608.75	51.614
609.08	51.320
609.41	52.081
609.75	51.663
610.08	51.123
610.41	50.676
610.74	51.975
611.07	51.525
611.41	51.583
611.74	53.145
612.07	52.034
612.40	52.243
612.73	52.599
613.07	53.318
613.40	51.915
613.73	52.434
614.06	53.033
614.39	53.187
614.72	51.653
615.06	51.117
615.39	51.092
615.72	50.753
616.05	51.788
616.38	50.883
616.71	54.985
617.05	53.613
617.38	52.608
617.71	52.327
618.04	53.778
618.37	54.855
618.70	54.125
619.03	55.417
619.36	53.980
619.69	55.572
620.03	56.318
620.36	54.721
620.69	54.247
621.02	56.040
621.35	56.349
621.68	56.888
622.01	55.583
622.34	56.345
622.67	54.495
623.00	54.900
623.33	56.174
623.66	54.301
623.99	54.841
624.32	55.209
624.65	54.361
624.99	55.079
625.32	52.995
625.65	55.302
625.98	55.681
626.31	55.777
626.64	57.279
626.97	57.155
627.30	56.217
627.63	55.979
627.96	57.323
628.29	56.614
628.62	58.014
628.95	57.916
629.28	59.476
629.61	57.627
629.94	57.576
630.26	57.213
630.59	60.042
630.92	58.872
631.25	56.821
631.58	59.802
631.91	58.224
632.24	58.945
632.57	60.455
632.90	59.786
633.23	59.412
633.56	61.587
633.89	60.912
634.22	61.605
634.55	63.532
634.88	61.941
635.20	58.718
635.53	62.933
635.86	61.769
636.19	61.190
636.52	59.694
636.85	59.926
637.18	59.874
637.51	60.377
637.83	60.710
638.16	63.029
638.49	58.992
638.82	62.500
639.15	61.872
639.48	60.935
639.81	61.227
640.13	63.492
640.46	62.536
640.79	60.972
641.12	59.970
641.45	64.114
641.77	63.407
642.10	62.717
642.43	65.113
642.76	63.696
643.09	61.228
643.41	65.049
643.74	61.450
644.07	61.741
644.40	65.878
644.73	65.674
645.05	61.074
645.38	64.903
645.71	64.184
646.04	65.889
646.36	64.894
646.69	64.928
647.02	67.864
647.35	65.485
647.67	63.071
648.00	66.978
648.33	62.628
648.66	62.203
648.98	59.129
649.31	61.322
649.64	58.870
649.96	58.347
650.29	62.692
650.62	62.222
650.94	64.815
651.27	62.942
651.60	64.505
651.92	61.538
652.25	61.456
652.58	60.500
652.90	63.122
653.23	61.345
653.56	59.391
653.88	60.481
654.21	57.618
654.54	58.404
654.86	59.762
655.19	58.626
655.52	52.245
655.84	41.309
656.17	44.384
656.49	60.394
656.82	63.373
657.15	49.323
657.47	37.671
657.80	28.621
658.13	28.253
658.45	44.738
658.78	45.448
659.10	45.623
659.43	46.474
659.75	48.199
660.08	49.103
660.41	53.422
660.73	55.663
661.06	59.792
661.38	60.470
661.71	61.602
662.03	63.948
662.36	62.198
662.68	61.283
663.01	62.445
663.33	64.037
663.66	65.349
663.98	60.698
664.31	59.488
664.63	61.060
664.96	60.435
665.28	61.148
665.61	59.957
665.93	63.913
666.26	62.690
666.58	59.284
666.91	63.294
667.23	62.972
667.56	63.744
667.88	62.830
668.21	64.200
668.53	64.775
668.86	60.377
669.18	61.557
669.50	60.048
669.83	62.558
670.15	62.238
670.48	61.483
670.80	60.599
671.13	61.298
671.45	58.219
671.77	58.798
672.10	56.040
672.42	54.494
672.75	56.306
673.07	56.351
673.39	56.330
673.72	52.465
674.04	58.125
674.37	58.686
674.69	57.173
675.01	61.778
675.34	56.757
675.66	60.648
675.98	57.428
676.31	61.009
676.63	58.907
676.95	58.409
677.28	60.235
677.60	62.651
677.92	58.716
678.25	57.768
678.57	57.143
678.89	56.513
679.22	57.271
679.54	53.614
679.86	55.666
680.18	55.146
680.51	55.682
680.83	55.467
681.15	53.200
681.48	55.533
681.80	53.719
682.12	53.427
682.44	56.067
682.77	60.486
683.09	56.064
683.41	54.318
683.73	57.143
684.06	57.080
684.38	51.398
684.70	54.684
685.02	54.979
685.34	54.743
685.67	51.032
685.99	52.803
686.31	50.619
686.63	53.803
686.96	51.711
687.28	51.111
687.60	51.711
687.92	53.131
688.24	50.403
688.56	53.275
688.89	55.580
689.21	55.778
689.53	51.508
689.85	54.419
690.17	55.580
690.49	52.955
690.82	52.427
691.14	51.190
691.46	54.439
691.78	51.126
692.10	53.118
692.42	54.545
692.74	52.137
693.06	49.550
693.39	47.285
693.71	48.190
694.03	51.039
694.35	51.636
694.67	53.535
694.99	53.786
695.31	56.397
695.63	53.500
695.95	50.000
696.27	51.813
696.59	55.556
696.91	49.860
697.23	53.213
697.56	51.733
697.88	49.677
698.20	49.431
698.52	52.941
698.84	51.196
699.16	49.500
699.48	50.627
699.80	49.628
700.12	52.291
700.44	51.821
700.76	52.907
701.08	52.424
701.40	54.217
701.72	57.716
702.04	58.086
702.36	59.197
702.68	49.850
703.00	54.242
703.32	48.387
703.64	45.763
703.96	49.855
704.28	53.067
704.60	53.968
704.91	52.366
705.23	52.824
705.55	61.131
705.87	57.040
706.19	53.704
706.51	52.234
706.83	52.090
707.15	49.533
707.47	52.101
707.79	46.875
708.11	49.500
708.43	44.250
708.74	50.388
709.06	53.521
709.38	50.765
709.70	50.888
710.02	51.274
710.34	52.322
710.66	47.436
710.98	52.649
711.29	54.426
711.61	53.898
711.93	48.534
712.25	57.045
712.57	53.846
712.89	51.866
713.20	54.671
713.52	48.084
713.84	49.488
714.16	56.014
714.48	50.000
714.80	53.526
715.11	44.985
715.43	47.335
715.75	47.000
716.07	47.508
716.39	50.000
716.70	47.232
717.02	48.092
717.34	55.466
717.66	52.212
717.97	51.304
718.29	47.699
718.61	51.969
718.93	53.876
719.24	49.430
719.56	51.807
719.88	45.704
720.20	49.242
720.51	45.211
720.83	52.896
721.15	47.059
721.46	52.016
721.78	45.059
722.10	45.353
722.42	52.697
722.73	45.714
723.05	48.980
723.37	50.424
723.68	46.847
724.00	47.436
724.32	48.000
724.63	43.182
724.95	54.148
725.27	51.152
725.58	49.576
725.90	44.444
726.22	45.174
726.53	45.424
726.85	43.071
727.16	50.943
727.48	47.773
727.80	48.583
728.11	53.390
728.43	46.275
728.74	43.952
729.06	43.200
729.38	50.752
729.69	43.028
730.01	39.231
730.32	47.015
730.64	40.636
730.96	51.698
731.27	41.333
731.59	45.085
731.90	44.268
732.22	45.741
732.53	47.176
732.85	48.582
733.16	42.088
733.48	39.568
733.80	46.377
734.11	40.000
734.43	42.612
734.74	42.121
735.06	40.391
735.37	42.900
735.69	48.148
736.00	45.645
736.32	40.940
736.63	40.141
736.95	40.956
737.26	37.367
737.58	43.289
737.89	42.857
738.21	39.850
738.52	45.679
738.83	47.598
739.15	39.738
739.46	41.732
739.78	40.659
740.09	41.176
740.41	42.029
740.72	39.370
741.04	38.866
741.35	36.596
741.66	48.341
741.98	46.939
742.29	40.594
742.61	51.309
742.92	45.972
743.23	38.426
743.55	43.439
743.86	43.541
744.18	40.670
744.49	41.489
744.80	43.478
745.12	55.080
745.43	40.000
745.74	48.438
746.06	45.366
746.37	43.979
746.68	47.393
747.00	45.213
747.31	52.736
747.62	40.777
747.94	38.756
748.25	44.059
748.56	45.902
748.88	47.644
749.19	44.681
749.50	44.828
749.82	44.340
750.13	36.239
750.44	47.368
750.75	43.284
751.07	46.715
751.38	44.828
751.69	40.000
752.01	41.860
752.32	39.044
752.63	40.316
752.94	39.655
753.26	43.933
753.57	40.724
753.88	41.593
754.19	38.750
754.51	41.736
754.82	42.105
755.13	45.833
755.44	45.161
755.75	44.531
756.07	40.467
756.38	37.736
756.69	39.080
757.00	40.667
757.31	39.542
757.63	39.939
757.94	36.944
758.25	34.795
758.56	38.298
758.87	35.694
759.18	38.006
759.50	39.636
759.81	37.124
760.12	36.774
760.43	41.212
760.74	40.123
761.05	39.692
761.36	35.795
761.67	40.606
761.99	40.476
762.30	37.455
762.61	41.107
762.92	43.891
763.23	39.189
763.54	41.121
763.85	38.983
764.16	39.834
764.47	36.694
764.78	34.799
765.10	40.404
765.41	40.063
765.72	35.556
766.03	34.962
766.34	37.226
766.65	42.629
766.96	41.919
767.27	39.894
767.58	42.529
767.89	35.461
768.20	33.523
768.51	38.462
768.82	42.857
769.13	35.484
769.44	38.197
769.75	33.790
770.06	33.621
770.37	35.577
770.68	35.025
770.99	35.747
771.30	41.667
771.61	33.032
771.92	38.362
772.23	41.872
772.54	43.548
772.85	39.506
773.16	35.955
773.47	49.673
773.78	43.137
774.09	34.132
774.39	38.000
774.70	36.943
775.01	35.862
775.32	41.429
775.63	32.231
775.94	44.275
776.25	37.008
776.56	44.167
776.87	44.231
777.18	47.009
777.48	45.690
777.79	35.652
778.10	31.429
778.41	42.342
778.72	36.508
779.03	42.105
779.34	41.844
779.65	46.575
779.95	29.452
780.26	35.862
780.57	35.772
780.88	37.008
781.19	44.828
781.50	36.434
781.80	34.320
782.11	28.302
782.42	45.385
782.73	33.813
783.04	38.519
783.34	34.028
783.65	31.624
783.96	27.869
784.27	38.621
784.57	33.333
784.88	39.844
785.19	39.000
785.50	39.000
785.81	48.276
786.11	39.655
786.42	46.602
786.73	50.909
787.04	40.816
787.34	34.821
787.65	33.333
787.96	33.628
788.26	41.818
788.57	31.624
788.88	40.625
789.19	30.952
789.49	35.652
789.80	44.898
790.11	34.343
790.41	37.273
790.72	45.652
791.03	26.136
791.33	37.500
791.64	36.250
791.95	30.233
792.25	30.851
792.56	31.461
792.87	34.247
793.17	30.435
793.48	29.333
793.79	36.250
794.09	45.000
794.40	27.358
794.70	34.951
795.01	25.203
795.32	31.624
795.62	27.619
795.93	36.275
796.23	43.396
796.54	31.250
796.85	30.882
797.15	33.803
797.46	40.278
797.76	48.485
798.07	37.209
798.37	27.632
798.68	15.152
798.99	24.691
799.29	40.000
799.60	31.884
799.90	37.333
800.21	45.902
800.51	16.923
800.82	44.068
801.12	31.884
801.43	37.705
801.73	49.206
802.04	30.000
802.34	16.418
802.65	30.769
802.95	17.857
803.26	21.154
803.56	49.020
803.87	23.913
804.17	49.333
804.48	42.857
804.78	25.926
805.09	54.348
805.39	46.667
805.70	50.000
806.00	5.263
806.30	33.803
806.61	42.857
806.91	29.167
807.22	38.158
807.52	50.667
807.83	29.091
808.13	36.111
808.43	33.824
808.74	38.806
809.04	28.814
809.35	30.769
809.65	34.375
809.95	29.730
810.26	38.636
810.56	38.356
810.86	30.952
811.17	44.000
811.47	44.898
811.77	31.579
812.08	38.636
812.38	16.981
812.69	32.500
812.99	12.121
813.29	23.684
813.59	0.000
813.90	54.545
814.20	12.821
814.50	36.538
814.81	37.736
815.11	12.766
815.41	33.898
815.72	35.714
816.02	43.137
816.32	14.583
816.62	31.707
816.93	16.216
817.23	5.714
817.53	29.167
817.84	23.913
818.14	34.615
818.44	26.316
818.74	58.696
819.04	-2.500
819.35	8.108
819.65	17.647
819.95	5.556
820.25	4.762
820.56	40.000
820.86	-20.690
821.16	52.500
821.46	27.660
821.76	35.000
822.07	37.209
822.37	0.000
822.67	46.875
822.97	52.381
823.27	21.429
823.57	32.000
823.88	-7.407
824.18	39.286
824.48	8.824
824.78	32.258
825.08	30.435
825.38	42.424
825.69	25.000
825.99	21.053
826.29	5.556
826.59	6.667
826.89	19.048
827.19	47.826
827.49	7.500
827.79	25.714
828.09	39.286
828.39	33.333
828.70	51.351
829.00	28.571
829.30	-42.857
829.60	40.000
829.90	53.125
830.20	13.158
830.50	51.852
830.80	-13.043
831.10	13.636
831.40	72.727
831.70	22.581
832.00	28.571
832.30	28.571
832.60	-66.667
832.90	-3.448
833.20	-10.000
833.50	45.455
833.80	3.704
834.10	57.692
834.40	34.375
834.70	55.556
835.00	47.368
835.30	61.538
835.60	73.333
835.90	32.258
836.20	4.545
836.50	53.571
836.80	11.538
837.10	14.286
837.40	-33.333
837.70	-13.636
838.00	0.000
838.30	47.826
838.60	7.692
838.90	27.273
839.19	7.143
839.49	40.000
839.79	7.692
840.09	-25.000
840.39	42.857
840.69	7.143
840.99	-19.231
841.29	-31.579
841.59	20.000
841.88	0.000
842.18	-50.000
842.48	56.250
842.78	40.000
843.08	44.444
843.38	-70.000
843.68	43.478
843.97	13.333
844.27	40.000
844.57	10.000
844.87	16.667
845.17	33.333
845.47	13.333
845.76	19.048
846.06	-23.529
846.36	20.000
846.66	28.571
846.96	-6.667
847.25	-50.000
847.55	100.000
847.85	0.000
848.15	0.000
848.44	-133.333
848.74	40.000
849.04	37.037
849.34	27.273
849.63	-200.000
849.93	-80.000
850.23	-22.222
850.53	50.000
850.82	38.462
851.12	-55.556
851.42	60.000
851.71	-3.846
852.01	-7.143
852.31	-75.000
852.61	-54.545
852.90	15.000
853.20	42.105
853.50	41.667
853.79	56.522
854.09	79.167
854.39	-31.579
854.68	-37.500
854.98	-9.677
855.28	23.077
855.57	35.000
855.87	61.111
856.17	59.259
856.46	-7.143
856.76	53.333
857.05	22.222
857.35	20.000
857.65	33.333
857.94	23.077
858.24	27.586
858.53	44.444
858.83	40.741
859.13	59.091
859.42	4.348
859.72	50.000
860.01	-200.000
860.31	28.000
860.60	-4.762
860.90	-33.333
861.20	6.667
861.49	-450.000
861.79	-60.000
862.08	-5.000
862.38	80.000
862.67	-180.000
862.97	-66.667
863.26	-66.667
863.56	55.556
863.85	-200.000
864.15	16.667
864.44	-50.000
864.74	7.143
865.03	125.000
865.33	-240.000
865.62	33.333
865.92	-16.667
866.21	-216.667
866.51	68.750
866.80	-72.727
867.10	-150.000
867.39	75.000
867.69	0.000
867.98	15.385
868.27	66.667
868.57	60.000
868.86	50.000
869.16	-46.154
869.45	20.000
869.75	300.000
870.04	0.000
870.33	-85.714
870.63	47.619
870.92	500.000
871.22	-140.000
871.51	-300.000
871.80	0.000
872.10	233.333
>>>>>End Processed Spectral Data<<<<<
