SpectraSuite Data File
++++++++++++++++++++++++++++++++++++
Date: Fri May 15 20:50:03 PDT 2015
User: schluterlab
Dark Spectrum Present: Yes
Reference Spectrum Present: Yes
Number of Sampled Component Spectra: 1
Spectrometers: USB2E3373
Integration Time (usec): 3000 (USB2E3373)
Spectra Averaged: 3 (USB2E3373)
Boxcar Smoothing: 0 (USB2E3373)
Correct for Electrical Dark: No (USB2E3373)
Strobe/Lamp Enabled: No (USB2E3373)
Correct for Detector Non-linearity: No (USB2E3373)
Correct for Stray Light: No (USB2E3373)
Number of Pixels in Processed Spectrum: 2048
>>>>>Begin Processed Spectral Data<<<<<
178.53	0.000
178.91	0.000
179.29	-25.000
179.67	-400.000
180.04	171.429
180.42	0.000
180.80	-1000.000
181.18	233.333
181.56	450.000
181.94	-50.000
182.31	-100.000
182.69	-220.000
183.07	0.000
183.45	-20.000
183.83	233.333
184.20	63.636
184.58	88.889
184.96	300.000
185.34	-166.667
185.72	-100.000
186.09	146.154
186.47	-300.000
186.85	233.333
187.23	77.778
187.61	1200.000
187.98	33.333
188.36	-33.333
188.74	-233.333
189.12	-52.941
189.49	-5.556
189.87	0.000
190.25	42.857
190.63	-200.000
191.00	-333.333
191.38	47.368
191.76	450.000
192.14	25.000
192.51	0.000
192.89	-144.444
193.27	-200.000
193.65	216.667
194.02	190.909
194.40	-50.000
194.78	-200.000
195.15	-16.667
195.53	-112.500
195.91	150.000
196.29	-50.000
196.66	53.846
197.04	100.000
197.42	-55.556
197.79	-666.667
198.17	-100.000
198.55	1100.000
198.92	-166.667
199.30	-200.000
199.68	-80.000
200.05	-300.000
200.43	0.000
200.81	-266.667
201.18	33.333
201.56	1100.000
201.94	-500.000
202.31	66.667
202.69	-280.000
203.07	150.000
203.44	500.000
203.82	0.000
204.19	14.286
204.57	-366.667
204.95	62.500
205.32	80.000
205.70	14.286
206.08	-25.000
206.45	88.889
206.83	85.714
207.20	-200.000
207.58	-0.000
207.96	66.667
208.33	-40.000
208.71	-100.000
209.08	-216.667
209.46	-1300.000
209.84	-160.000
210.21	-800.000
210.59	42.857
210.96	-150.000
211.34	-300.000
211.71	-26.667
212.09	-71.429
212.46	-1800.000
212.84	0.000
213.22	60.000
213.59	700.000
213.97	-7.692
214.34	0.000
214.72	-166.667
215.09	475.000
215.47	-7.692
215.84	-154.545
216.22	-166.667
216.59	-87.500
216.97	-50.000
217.34	-200.000
217.72	-280.000
218.09	-75.000
218.47	250.000
218.84	-1400.000
219.22	-211.111
219.59	20.000
219.97	766.667
220.34	500.000
220.72	-200.000
221.09	-50.000
221.47	-700.000
221.84	-650.000
222.22	-1150.000
222.59	9.091
222.97	66.667
223.34	-733.333
223.72	14.286
224.09	9.524
224.46	-21.429
224.84	666.667
225.21	-60.000
225.59	-6.667
225.96	-200.000
226.34	475.000
226.71	-257.143
227.08	-116.667
227.46	-12.500
227.83	-650.000
228.21	44.444
228.58	9.091
228.95	-62.500
229.33	100.000
229.70	-6.250
230.08	-112.500
230.45	-114.286
230.82	-71.429
231.20	-13.333
231.57	71.429
231.95	0.000
232.32	30.000
232.69	-64.286
233.07	0.000
233.44	-100.000
233.81	-30.000
234.19	-77.778
234.56	11.765
234.93	650.000
235.31	75.000
235.68	-300.000
236.05	-69.231
236.43	20.000
236.80	29.412
237.17	3.125
237.55	-45.000
237.92	-14.815
238.29	22.222
238.67	10.000
239.04	-2.941
239.41	-9.756
239.79	16.667
240.16	41.463
240.53	18.421
240.91	34.783
241.28	31.746
241.65	30.357
242.02	46.575
242.40	20.000
242.77	18.644
243.14	4.545
243.51	32.500
243.89	32.184
244.26	24.138
244.63	30.952
245.00	24.742
245.38	34.021
245.75	19.101
246.12	20.690
246.49	26.446
246.87	32.692
247.24	23.529
247.61	16.667
247.98	22.764
248.36	29.375
248.73	26.316
249.10	24.675
249.47	29.114
249.84	32.680
250.22	23.529
250.59	26.797
250.96	29.108
251.33	30.233
251.70	34.118
252.08	27.919
252.45	25.743
252.82	32.663
253.19	35.023
253.56	30.374
253.94	31.081
254.31	30.870
254.68	30.702
255.05	25.591
255.42	32.751
255.79	28.958
256.16	35.019
256.54	29.104
256.91	27.757
257.28	33.086
257.65	29.213
258.02	25.532
258.39	34.007
258.76	31.502
259.14	28.239
259.51	29.773
259.88	28.866
260.25	32.680
260.62	31.250
260.99	30.169
261.36	27.740
261.73	29.430
262.10	33.435
262.47	30.368
262.85	29.154
263.22	31.692
263.59	33.022
263.96	32.919
264.33	28.485
264.70	29.167
265.07	32.143
265.44	34.278
265.81	31.073
266.18	32.787
266.55	31.105
266.92	31.606
267.29	31.070
267.66	36.829
268.03	29.581
268.40	29.765
268.77	32.086
269.14	30.216
269.51	33.676
269.88	28.928
270.25	30.102
270.62	28.780
270.99	28.389
271.36	29.584
271.73	30.986
272.10	29.197
272.47	31.442
272.84	32.178
273.21	31.090
273.58	33.735
273.95	30.206
274.32	29.330
274.69	30.090
275.06	32.813
275.43	29.705
275.80	31.567
276.17	27.816
276.54	30.835
276.91	34.211
277.28	28.821
277.65	31.612
278.02	29.149
278.39	29.322
278.76	29.979
279.13	28.008
279.50	31.092
279.87	29.590
280.23	28.387
280.60	27.485
280.97	31.717
281.34	28.077
281.71	30.185
282.08	28.016
282.45	27.202
282.82	28.378
283.19	27.660
283.56	30.058
283.92	29.412
284.29	29.808
284.66	27.713
285.03	29.666
285.40	27.977
285.77	26.889
286.14	28.339
286.51	28.044
286.87	27.422
287.24	31.492
287.61	26.455
287.98	27.895
288.35	26.863
288.72	28.546
289.08	27.257
289.45	28.471
289.82	26.923
290.19	24.403
290.56	24.014
290.93	24.242
291.29	24.653
291.66	25.039
292.03	24.880
292.40	24.355
292.77	25.359
293.13	21.591
293.50	22.458
293.87	23.053
294.24	23.957
294.60	24.143
294.97	23.065
295.34	23.926
295.71	24.441
296.08	23.468
296.44	21.764
296.81	22.917
297.18	23.913
297.55	26.287
297.91	21.918
298.28	24.011
298.65	23.066
299.02	22.237
299.38	19.836
299.75	20.552
300.12	21.466
300.48	21.080
300.85	21.546
301.22	20.909
301.59	21.316
301.95	24.051
302.32	21.790
302.69	21.891
303.05	21.658
303.42	21.171
303.79	21.379
304.15	21.266
304.52	20.333
304.89	19.883
305.25	20.823
305.62	18.786
305.99	19.415
306.35	20.809
306.72	21.260
307.09	19.840
307.45	22.273
307.82	20.023
308.19	20.906
308.55	21.701
308.92	22.004
309.29	21.229
309.65	20.990
310.02	19.802
310.38	20.966
310.75	21.311
311.12	20.344
311.48	19.512
311.85	19.686
312.22	20.148
312.58	21.125
312.95	21.665
313.31	21.014
313.68	20.942
314.05	21.122
314.41	21.340
314.78	20.722
315.14	22.302
315.51	22.671
315.87	22.029
316.24	23.559
316.61	21.850
316.97	23.611
317.34	22.656
317.70	21.893
318.07	22.885
318.43	23.725
318.80	23.295
319.16	24.023
319.53	23.742
319.89	22.146
320.26	23.785
320.62	24.875
320.99	23.800
321.35	23.741
321.72	24.403
322.08	25.478
322.45	25.584
322.81	26.031
323.18	25.908
323.54	26.641
323.91	26.874
324.27	25.879
324.64	27.622
325.00	26.551
325.37	27.273
325.73	25.657
326.10	26.975
326.46	27.534
326.83	27.122
327.19	27.463
327.56	27.628
327.92	28.081
328.29	27.857
328.65	26.698
329.01	27.482
329.38	27.834
329.74	26.629
330.11	27.340
330.47	27.087
330.84	27.596
331.20	30.133
331.56	28.704
331.93	28.767
332.29	28.598
332.66	27.873
333.02	26.673
333.38	27.681
333.75	27.564
334.11	27.216
334.48	28.558
334.84	27.564
335.20	28.179
335.57	26.836
335.93	28.907
336.29	28.913
336.66	27.248
337.02	26.022
337.38	26.389
337.75	27.091
338.11	27.502
338.47	28.011
338.84	27.079
339.20	26.691
339.56	27.156
339.93	27.216
340.29	28.165
340.65	27.509
341.02	27.039
341.38	27.876
341.74	25.795
342.11	26.603
342.47	26.957
342.83	27.336
343.20	25.610
343.56	26.261
343.92	27.104
344.28	26.985
344.65	25.907
345.01	25.411
345.37	26.661
345.73	26.695
346.10	27.351
346.46	25.988
346.82	25.859
347.19	26.185
347.55	26.566
347.91	26.780
348.27	25.303
348.63	26.661
349.00	25.267
349.36	27.016
349.72	26.700
350.08	26.393
350.45	25.140
350.81	25.332
351.17	25.407
351.53	25.551
351.89	25.186
352.26	26.720
352.62	25.806
352.98	25.382
353.34	25.443
353.70	26.537
354.07	25.081
354.43	25.460
354.79	24.690
355.15	26.111
355.51	25.870
355.87	25.809
356.24	23.736
356.60	24.899
356.96	24.365
357.32	24.920
357.68	23.847
358.04	23.910
358.40	25.161
358.77	25.439
359.13	23.779
359.49	24.114
359.85	24.727
360.21	24.482
360.57	23.642
360.93	25.189
361.29	22.961
361.66	24.216
362.02	25.379
362.38	24.752
362.74	25.057
363.10	25.282
363.46	23.721
363.82	25.094
364.18	24.428
364.54	23.603
364.90	24.014
365.26	23.581
365.62	25.474
365.98	24.853
366.35	24.545
366.71	24.464
367.07	24.238
367.43	24.012
367.79	23.180
368.15	23.977
368.51	24.545
368.87	23.690
369.23	23.032
369.59	24.125
369.95	23.900
370.31	24.277
370.67	23.582
371.03	23.973
371.39	23.414
371.75	24.469
372.11	22.825
372.47	23.964
372.83	24.627
373.19	23.466
373.55	23.177
373.91	22.750
374.27	23.671
374.63	23.546
374.99	24.397
375.35	23.816
375.71	23.217
376.07	23.315
376.42	24.286
376.78	23.221
377.14	23.155
377.50	22.709
377.86	24.297
378.22	23.357
378.58	23.013
378.94	22.243
379.30	23.456
379.66	24.013
380.02	22.747
380.38	23.250
380.74	22.801
381.09	23.558
381.45	22.324
381.81	23.812
382.17	23.414
382.53	22.548
382.89	22.222
383.25	23.335
383.61	23.232
383.97	22.730
384.32	22.702
384.68	22.848
385.04	21.569
385.40	22.153
385.76	22.767
386.12	23.480
386.48	22.925
386.83	23.399
387.19	23.199
387.55	22.961
387.91	23.655
388.27	22.894
388.62	23.159
388.98	22.959
389.34	22.798
389.70	22.747
390.06	22.907
390.42	22.668
390.77	23.414
391.13	22.573
391.49	22.186
391.85	21.897
392.20	22.285
392.56	22.632
392.92	22.666
393.28	22.052
393.64	21.321
393.99	23.824
394.35	21.885
394.71	23.116
395.07	22.250
395.42	21.797
395.78	22.020
396.14	21.942
396.50	22.448
396.85	22.022
397.21	20.802
397.57	21.818
397.92	21.989
398.28	22.414
398.64	21.687
399.00	21.727
399.35	21.106
399.71	21.252
400.07	22.914
400.42	21.971
400.78	22.290
401.14	21.658
401.49	22.096
401.85	22.060
402.21	21.867
402.57	22.188
402.92	22.146
403.28	22.055
403.63	22.383
403.99	22.321
404.35	22.049
404.70	20.417
405.06	20.975
405.42	21.255
405.77	20.976
406.13	20.955
406.49	20.308
406.84	21.516
407.20	21.915
407.55	21.249
407.91	20.789
408.27	20.905
408.62	21.292
408.98	21.380
409.34	21.561
409.69	19.961
410.05	20.628
410.40	22.037
410.76	20.567
411.11	20.875
411.47	21.368
411.83	20.465
412.18	21.493
412.54	20.911
412.89	20.382
413.25	21.360
413.60	21.863
413.96	20.429
414.31	20.915
414.67	20.654
415.03	19.774
415.38	20.692
415.74	20.651
416.09	21.620
416.45	20.459
416.80	20.687
417.16	20.166
417.51	21.386
417.87	20.274
418.22	20.855
418.58	20.201
418.93	20.502
419.29	19.718
419.64	19.896
420.00	20.970
420.35	20.418
420.71	20.838
421.06	20.933
421.42	20.913
421.77	20.405
422.12	21.396
422.48	20.520
422.83	20.128
423.19	20.147
423.54	19.636
423.90	20.436
424.25	20.379
424.61	19.523
424.96	20.325
425.31	20.971
425.67	20.599
426.02	21.084
426.38	21.039
426.73	20.823
427.09	20.696
427.44	20.941
427.79	20.742
428.15	20.388
428.50	20.109
428.85	19.840
429.21	19.808
429.56	20.323
429.92	20.339
430.27	20.351
430.62	19.707
430.98	19.533
431.33	20.557
431.68	19.414
432.04	19.843
432.39	20.080
432.74	20.084
433.10	20.230
433.45	19.713
433.80	20.197
434.16	19.945
434.51	20.484
434.86	19.280
435.22	20.303
435.57	19.526
435.92	19.461
436.28	19.618
436.63	19.566
436.98	20.046
437.34	19.964
437.69	20.215
438.04	19.259
438.39	18.754
438.75	20.279
439.10	19.808
439.45	19.963
439.81	19.939
440.16	19.477
440.51	20.000
440.86	20.846
441.22	19.853
441.57	19.812
441.92	19.570
442.27	20.455
442.63	20.343
442.98	20.735
443.33	20.812
443.68	19.682
444.03	20.119
444.39	20.167
444.74	20.234
445.09	20.546
445.44	20.342
445.79	20.423
446.15	20.154
446.50	19.523
446.85	20.457
447.20	20.647
447.55	20.480
447.91	20.361
448.26	21.172
448.61	20.725
448.96	20.998
449.31	20.173
449.66	19.977
450.02	19.966
450.37	20.569
450.72	20.389
451.07	21.013
451.42	20.474
451.77	20.253
452.12	19.916
452.47	20.090
452.83	21.260
453.18	20.999
453.53	19.659
453.88	20.947
454.23	20.160
454.58	20.718
454.93	20.490
455.28	19.619
455.63	20.459
455.98	20.866
456.34	20.051
456.69	20.584
457.04	20.983
457.39	21.021
457.74	20.496
458.09	19.305
458.44	19.719
458.79	20.112
459.14	21.224
459.49	22.090
459.84	20.643
460.19	20.449
460.54	20.966
460.89	19.659
461.24	20.807
461.59	20.962
461.94	20.189
462.29	20.748
462.64	20.266
462.99	20.244
463.34	20.097
463.69	20.077
464.04	20.339
464.39	21.164
464.74	20.491
465.09	19.900
465.44	21.177
465.79	20.011
466.14	21.152
466.49	20.357
466.84	20.880
467.19	20.839
467.54	20.498
467.89	20.341
468.24	19.830
468.59	20.381
468.94	20.381
469.29	20.262
469.64	20.848
469.99	19.972
470.34	19.044
470.68	20.880
471.03	20.878
471.38	21.541
471.73	20.658
472.08	20.624
472.43	19.262
472.78	18.574
473.13	19.456
473.48	19.479
473.83	19.614
474.17	20.725
474.52	20.357
474.87	20.727
475.22	19.829
475.57	19.932
475.92	20.900
476.27	20.838
476.61	19.734
476.96	19.967
477.31	20.660
477.66	20.393
478.01	19.876
478.36	19.771
478.70	20.065
479.05	20.385
479.40	20.615
479.75	19.239
480.10	20.533
480.45	19.650
480.79	21.098
481.14	20.441
481.49	19.212
481.84	19.932
482.19	20.112
482.53	20.480
482.88	20.048
483.23	19.962
483.58	20.142
483.92	19.700
484.27	19.462
484.62	19.901
484.97	19.652
485.31	19.147
485.66	19.855
486.01	20.467
486.36	20.214
486.70	20.505
487.05	20.505
487.40	20.191
487.75	20.197
488.09	20.025
488.44	20.014
488.79	20.209
489.13	20.232
489.48	19.581
489.83	19.596
490.17	19.326
490.52	19.630
490.87	19.574
491.22	19.866
491.56	19.639
491.91	18.929
492.26	20.029
492.60	19.674
492.95	19.823
493.30	19.492
493.64	18.861
493.99	19.855
494.34	19.466
494.68	19.143
495.03	18.248
495.37	19.136
495.72	19.031
496.07	19.854
496.41	19.151
496.76	19.438
497.11	18.864
497.45	19.809
497.80	19.526
498.14	19.523
498.49	18.842
498.84	19.212
499.18	18.825
499.53	20.238
499.87	18.872
500.22	18.694
500.56	19.617
500.91	19.478
501.26	19.575
501.60	19.528
501.95	18.971
502.29	19.855
502.64	18.967
502.98	19.043
503.33	17.867
503.67	19.373
504.02	19.648
504.36	19.545
504.71	19.192
505.06	18.973
505.40	18.832
505.75	19.433
506.09	18.956
506.44	19.969
506.78	19.643
507.13	19.390
507.47	18.695
507.82	18.964
508.16	18.436
508.51	19.098
508.85	18.734
509.19	17.882
509.54	18.391
509.88	18.501
510.23	18.827
510.57	19.241
510.92	17.751
511.26	18.494
511.61	19.142
511.95	18.740
512.30	18.902
512.64	18.253
512.98	18.304
513.33	19.194
513.67	18.135
514.02	19.165
514.36	19.429
514.70	19.697
515.05	19.918
515.39	18.123
515.74	19.820
516.08	18.649
516.42	19.317
516.77	19.193
517.11	18.872
517.46	18.372
517.80	20.024
518.14	19.045
518.49	18.810
518.83	18.044
519.17	18.253
519.52	18.117
519.86	19.268
520.20	19.077
520.55	17.886
520.89	18.632
521.23	18.113
521.58	18.927
521.92	19.038
522.26	18.933
522.61	18.442
522.95	19.404
523.29	18.933
523.64	18.361
523.98	18.859
524.32	18.170
524.66	19.142
525.01	19.221
525.35	18.795
525.69	17.912
526.04	17.857
526.38	20.039
526.72	18.247
527.06	18.353
527.41	18.799
527.75	18.834
528.09	18.738
528.43	18.501
528.78	18.746
529.12	18.581
529.46	18.519
529.80	20.076
530.15	18.680
530.49	18.316
530.83	18.673
531.17	18.872
531.51	18.331
531.86	18.695
532.20	17.884
532.54	18.584
532.88	18.891
533.22	18.817
533.57	19.266
533.91	18.603
534.25	18.685
534.59	18.345
534.93	17.495
535.27	17.957
535.62	18.146
535.96	19.113
536.30	19.459
536.64	19.435
536.98	18.188
537.32	19.275
537.66	18.934
538.01	19.161
538.35	18.516
538.69	19.108
539.03	17.977
539.37	18.035
539.71	18.337
540.05	17.923
540.39	18.837
540.73	18.271
541.07	19.337
541.42	19.086
541.76	19.202
542.10	19.064
542.44	17.860
542.78	17.756
543.12	18.132
543.46	18.150
543.80	19.847
544.14	18.425
544.48	19.254
544.82	18.797
545.16	18.784
545.50	18.892
545.84	19.547
546.18	18.865
546.52	19.034
546.86	18.476
547.20	19.099
547.54	17.739
547.88	17.595
548.22	18.080
548.56	18.799
548.90	19.003
549.24	18.388
549.58	17.983
549.92	18.370
550.26	18.168
550.60	18.810
550.94	18.521
551.28	18.006
551.62	18.462
551.96	18.271
552.30	18.494
552.64	17.560
552.98	18.003
553.32	17.832
553.66	17.054
554.00	18.321
554.34	17.799
554.68	18.363
555.02	18.824
555.36	18.624
555.69	18.242
556.03	18.558
556.37	17.936
556.71	18.556
557.05	19.314
557.39	17.844
557.73	18.516
558.07	19.005
558.41	17.841
558.75	17.381
559.08	18.046
559.42	18.016
559.76	18.735
560.10	16.820
560.44	18.987
560.78	17.902
561.12	18.477
561.45	18.623
561.79	17.647
562.13	17.814
562.47	18.489
562.81	18.084
563.15	19.252
563.48	18.741
563.82	18.806
564.16	18.245
564.50	16.959
564.84	18.608
565.17	18.042
565.51	18.511
565.85	19.136
566.19	18.501
566.52	18.365
566.86	19.280
567.20	18.057
567.54	19.161
567.88	19.215
568.21	20.079
568.55	19.022
568.89	19.559
569.23	19.355
569.56	19.352
569.90	20.585
570.24	19.166
570.57	20.291
570.91	20.460
571.25	19.369
571.59	19.682
571.92	19.289
572.26	19.203
572.60	19.411
572.93	20.176
573.27	19.373
573.61	19.391
573.95	19.825
574.28	19.412
574.62	19.578
574.96	19.571
575.29	19.132
575.63	18.969
575.97	18.731
576.30	19.230
576.64	19.152
576.98	19.588
577.31	20.079
577.65	20.138
577.98	19.865
578.32	20.042
578.66	19.600
578.99	19.981
579.33	19.485
579.67	19.304
580.00	19.646
580.34	19.104
580.67	19.659
581.01	19.693
581.35	19.789
581.68	20.311
582.02	19.582
582.35	19.907
582.69	20.238
583.02	19.504
583.36	20.109
583.70	20.353
584.03	20.017
584.37	20.469
584.70	20.055
585.04	19.378
585.37	20.074
585.71	19.946
586.04	19.995
586.38	19.632
586.72	19.742
587.05	20.075
587.39	19.989
587.72	20.448
588.06	20.066
588.39	19.766
588.73	20.116
589.06	20.581
589.40	19.737
589.73	19.715
590.07	19.675
590.40	19.466
590.73	20.016
591.07	18.999
591.40	19.056
591.74	19.548
592.07	19.527
592.41	19.920
592.74	19.793
593.08	19.001
593.41	20.099
593.75	19.235
594.08	19.327
594.41	19.651
594.75	19.084
595.08	19.410
595.42	19.507
595.75	20.015
596.09	19.429
596.42	19.760
596.75	19.538
597.09	19.818
597.42	18.880
597.75	19.927
598.09	18.696
598.42	18.998
598.76	19.133
599.09	19.712
599.42	19.401
599.76	19.676
600.09	19.570
600.42	19.447
600.76	19.279
601.09	19.847
601.42	19.506
601.76	18.896
602.09	19.348
602.42	19.840
602.76	19.270
603.09	19.892
603.42	19.941
603.76	19.315
604.09	19.725
604.42	19.755
604.76	19.493
605.09	19.698
605.42	19.729
605.75	19.221
606.09	19.958
606.42	19.391
606.75	19.437
607.09	19.473
607.42	19.451
607.75	19.139
608.08	19.182
608.42	19.826
608.75	19.566
609.08	19.631
609.41	19.848
609.75	19.960
610.08	19.171
610.41	19.179
610.74	18.918
611.07	19.483
611.41	19.512
611.74	19.670
612.07	18.790
612.40	18.654
612.73	19.322
613.07	19.235
613.40	19.584
613.73	18.579
614.06	20.534
614.39	18.049
614.72	19.608
615.06	19.218
615.39	19.378
615.72	18.837
616.05	19.553
616.38	18.860
616.71	19.388
617.05	18.530
617.38	18.856
617.71	19.308
618.04	19.937
618.37	20.555
618.70	18.284
619.03	19.236
619.36	18.090
619.69	18.878
620.03	18.408
620.36	17.740
620.69	18.986
621.02	19.266
621.35	19.751
621.68	19.218
622.01	18.250
622.34	19.393
622.67	18.849
623.00	18.070
623.33	18.826
623.66	18.100
623.99	18.759
624.32	18.935
624.65	18.571
624.99	18.585
625.32	16.983
625.65	19.324
625.98	19.259
626.31	17.872
626.64	18.804
626.97	18.325
627.30	19.965
627.63	18.544
627.96	17.161
628.29	17.761
628.62	18.879
628.95	19.138
629.28	16.734
629.61	17.547
629.94	19.257
630.26	18.577
630.59	19.771
630.92	19.179
631.25	18.462
631.58	17.952
631.91	17.215
632.24	17.087
632.57	19.091
632.90	17.319
633.23	18.353
633.56	19.521
633.89	18.249
634.22	16.173
634.55	17.789
634.88	17.241
635.20	17.051
635.53	17.867
635.86	16.775
636.19	18.111
636.52	18.367
636.85	17.742
637.18	16.981
637.51	18.994
637.83	17.477
638.16	19.372
638.49	14.305
638.82	18.816
639.15	17.368
639.48	18.845
639.81	16.597
640.13	15.440
640.46	17.201
640.79	16.937
641.12	16.544
641.45	18.619
641.77	18.370
642.10	18.957
642.43	16.881
642.76	17.657
643.09	16.155
643.41	16.181
643.74	16.310
644.07	16.749
644.40	17.568
644.73	17.163
645.05	17.617
645.38	17.284
645.71	16.135
646.04	16.697
646.36	18.440
646.69	18.345
647.02	17.580
647.35	16.604
647.67	16.636
648.00	17.910
648.33	19.283
648.66	17.627
648.98	14.238
649.31	16.198
649.64	16.170
649.96	16.532
650.29	17.036
650.62	15.043
650.94	17.222
651.27	13.780
651.60	16.757
651.92	17.133
652.25	16.341
652.58	17.167
652.90	16.981
653.23	16.134
653.56	15.905
653.88	18.729
654.21	14.186
654.54	15.280
654.86	18.676
655.19	16.082
655.52	19.505
655.84	20.385
656.17	23.078
656.49	30.781
656.82	32.189
657.15	24.129
657.47	18.320
657.80	13.199
658.13	12.970
658.45	19.535
658.78	19.670
659.10	19.052
659.43	19.385
659.75	18.254
660.08	19.034
660.41	17.671
660.73	17.818
661.06	15.771
661.38	16.243
661.71	14.784
662.03	16.524
662.36	17.143
662.68	13.717
663.01	15.502
663.33	15.777
663.66	13.953
663.98	15.349
664.31	14.712
664.63	15.668
664.96	14.348
665.28	11.921
665.61	15.584
665.93	18.261
666.26	17.354
666.58	13.423
666.91	11.294
667.23	17.217
667.56	15.877
667.88	17.026
668.21	14.081
668.53	18.913
668.86	17.453
669.18	16.981
669.50	15.254
669.83	16.279
670.15	17.249
670.48	14.115
670.80	15.668
671.13	14.541
671.45	14.384
671.77	18.670
672.10	16.634
672.42	17.041
672.75	16.874
673.07	18.068
673.39	18.349
673.72	9.665
674.04	17.708
674.37	15.254
674.69	15.418
675.01	18.000
675.34	16.216
675.66	18.287
675.98	16.630
676.31	16.284
676.63	13.302
676.95	15.682
677.28	18.824
677.60	18.795
677.92	14.220
678.25	17.287
678.57	14.286
678.89	15.546
679.22	16.107
679.54	16.667
679.86	13.519
680.18	14.563
680.51	14.962
680.83	15.706
681.15	16.200
681.48	18.443
681.80	15.909
682.12	15.121
682.44	14.854
682.77	16.556
683.09	13.959
683.41	18.409
683.73	15.438
684.06	13.938
684.38	13.978
684.70	17.647
685.02	14.315
685.34	17.194
685.67	15.947
685.99	17.541
686.31	18.407
686.63	16.883
686.96	12.928
687.28	14.747
687.60	15.970
687.92	17.576
688.24	16.532
688.56	16.376
688.89	14.732
689.21	19.111
689.53	12.761
689.85	17.907
690.17	17.857
690.49	13.712
690.82	13.350
691.14	14.524
691.46	14.720
691.78	16.216
692.10	18.280
692.42	13.853
692.74	17.094
693.06	15.090
693.39	14.480
693.71	14.706
694.03	15.012
694.35	16.822
694.67	18.182
694.99	14.099
695.31	17.493
695.63	13.750
695.95	12.374
696.27	15.285
696.59	17.222
696.91	14.566
697.23	12.853
697.56	14.356
697.88	18.710
698.20	18.223
698.52	14.118
698.84	13.876
699.16	16.500
699.48	17.293
699.80	16.377
700.12	15.094
700.44	16.527
700.76	14.826
701.08	14.848
701.40	15.663
701.72	18.827
702.04	9.901
702.36	15.050
702.68	15.616
703.00	16.667
703.32	15.249
703.64	14.407
703.96	18.551
704.28	15.337
704.60	15.238
704.91	16.404
705.23	10.963
705.55	12.721
705.87	15.162
706.19	11.481
706.51	11.684
706.83	15.434
707.15	11.838
707.47	21.849
707.79	14.063
708.11	17.500
708.43	16.750
708.74	15.762
709.06	18.028
709.38	14.985
709.70	20.118
710.02	15.924
710.34	17.337
710.66	12.179
710.98	13.245
711.29	14.426
711.61	13.559
711.93	14.658
712.25	15.464
712.57	13.919
712.89	14.552
713.20	18.339
713.52	14.983
713.84	12.287
714.16	15.808
714.48	12.903
714.80	15.385
715.11	15.502
715.43	12.226
715.75	12.000
716.07	8.970
716.39	12.416
716.70	12.546
717.02	15.267
717.34	15.789
717.66	16.814
717.97	12.609
718.29	15.481
718.61	12.205
718.93	16.667
719.24	13.688
719.56	18.072
719.88	18.213
720.20	17.045
720.51	11.877
720.83	12.355
721.15	20.168
721.46	16.532
721.78	5.929
722.10	11.896
722.42	12.863
722.73	17.143
723.05	20.816
723.37	13.983
723.68	20.270
724.00	14.530
724.32	13.333
724.63	13.182
724.95	20.961
725.27	13.364
725.58	13.559
725.90	11.905
726.22	15.830
726.53	20.000
726.85	17.603
727.16	19.623
727.48	10.526
727.80	19.028
728.11	16.102
728.43	14.510
728.74	10.484
729.06	12.800
729.38	15.789
729.69	11.155
730.01	12.308
730.32	15.299
730.64	16.608
730.96	17.358
731.27	15.333
731.59	13.898
731.90	15.605
732.22	17.350
732.53	16.944
732.85	15.603
733.16	18.519
733.48	15.108
733.80	14.493
734.11	13.220
734.43	14.777
734.74	17.879
735.06	15.961
735.37	18.429
735.69	18.855
736.00	12.892
736.32	12.081
736.63	16.197
736.95	15.700
737.26	12.456
737.58	13.087
737.89	14.652
738.21	12.406
738.52	9.053
738.83	14.410
739.15	10.044
739.46	19.685
739.78	16.117
740.09	15.033
740.41	12.681
740.72	13.386
741.04	14.575
741.35	16.170
741.66	14.692
741.98	13.265
742.29	15.347
742.61	15.707
742.92	4.265
743.23	10.648
743.55	14.027
743.86	13.876
744.18	9.569
744.49	3.191
744.80	9.783
745.12	18.182
745.43	13.171
745.74	11.458
746.06	17.073
746.37	13.613
746.68	13.270
747.00	10.106
747.31	13.930
747.62	11.165
747.94	10.526
748.25	12.376
748.56	14.754
748.88	12.042
749.19	22.340
749.50	17.241
749.82	9.906
750.13	16.514
750.44	19.549
750.75	16.045
751.07	20.438
751.38	16.858
751.69	14.118
752.01	15.504
752.32	15.936
752.63	13.834
752.94	8.621
753.26	18.828
753.57	18.552
753.88	16.372
754.19	12.500
754.51	13.636
754.82	11.336
755.13	19.167
755.44	16.935
755.75	16.797
756.07	16.342
756.38	13.962
756.69	13.027
757.00	16.333
757.31	16.013
757.63	11.585
757.94	14.722
758.25	17.808
758.56	14.894
758.87	16.147
759.18	15.265
759.50	14.182
759.81	19.732
760.12	17.742
760.43	16.364
760.74	17.284
761.05	14.769
761.36	15.909
761.67	17.576
761.99	14.626
762.30	12.727
762.61	17.787
762.92	14.480
763.23	13.514
763.54	6.075
763.85	16.525
764.16	15.353
764.47	14.919
764.78	17.582
765.10	21.212
765.41	16.088
765.72	12.698
766.03	8.647
766.34	14.599
766.65	20.717
766.96	11.111
767.27	15.426
767.58	9.770
767.89	8.511
768.20	9.659
768.51	12.637
768.82	13.793
769.13	14.286
769.44	16.309
769.75	11.416
770.06	14.655
770.37	21.154
770.68	14.213
770.99	11.765
771.30	15.686
771.61	14.932
771.92	20.690
772.23	12.315
772.54	23.656
772.85	12.963
773.16	12.360
773.47	18.954
773.78	13.072
774.09	16.168
774.39	10.667
774.70	20.382
775.01	17.931
775.32	10.714
775.63	4.132
775.94	12.214
776.25	16.535
776.56	21.667
776.87	12.500
777.18	11.966
777.48	8.621
777.79	6.957
778.10	7.619
778.41	8.108
778.72	16.667
779.03	15.789
779.34	17.021
779.65	10.959
779.95	4.110
780.26	20.690
780.57	0.000
780.88	9.449
781.19	15.517
781.50	12.403
781.80	11.834
782.11	11.950
782.42	9.231
782.73	9.353
783.04	5.926
783.34	9.722
783.65	0.855
783.96	13.115
784.27	18.621
784.57	13.821
784.88	14.844
785.19	14.000
785.50	18.000
785.81	16.379
786.11	11.207
786.42	15.534
786.73	14.545
787.04	14.286
787.34	5.357
787.65	15.238
787.96	9.735
788.26	14.545
788.57	11.111
788.88	19.531
789.19	11.111
789.49	17.391
789.80	13.265
790.11	13.131
790.41	11.818
790.72	3.261
791.03	2.273
791.33	21.250
791.64	5.000
791.95	-2.326
792.25	20.213
792.56	17.978
792.87	9.589
793.17	14.493
793.48	4.000
793.79	1.250
794.09	8.750
794.40	10.377
794.70	5.825
795.01	5.691
795.32	11.111
795.62	17.143
795.93	12.745
796.23	11.321
796.54	22.917
796.85	11.765
797.15	5.634
797.46	9.722
797.76	13.636
798.07	11.628
798.37	-1.316
798.68	10.606
798.99	12.346
799.29	21.429
799.60	21.739
799.90	24.000
800.21	14.754
800.51	3.077
800.82	-1.695
801.12	11.594
801.43	11.475
801.73	0.000
802.04	-6.000
802.34	-1.493
802.65	13.462
802.95	1.786
803.26	-7.692
803.56	17.647
803.87	-4.348
804.17	-6.667
804.48	7.937
804.78	0.000
805.09	23.913
805.39	-4.444
805.70	25.926
806.00	-14.035
806.30	12.676
806.61	4.286
806.91	-5.556
807.22	21.053
807.52	14.667
807.83	14.545
808.13	13.889
808.43	23.529
808.74	1.493
809.04	0.000
809.35	-11.538
809.65	0.000
809.95	-43.243
810.26	18.182
810.56	13.699
810.86	2.381
811.17	22.000
811.47	-2.041
811.77	2.632
812.08	11.364
812.38	28.302
812.69	0.000
812.99	-12.121
813.29	5.263
813.59	-34.286
813.90	9.091
814.20	-23.077
814.50	3.846
814.81	0.000
815.11	4.255
815.41	20.339
815.72	7.143
816.02	5.882
816.32	4.167
816.62	-12.195
816.93	-37.838
817.23	-2.857
817.53	8.333
817.84	-6.522
818.14	3.846
818.44	-7.895
818.74	19.565
819.04	-12.500
819.35	16.216
819.65	-23.529
819.95	-2.778
820.25	7.143
820.56	-7.500
820.86	-62.069
821.16	32.500
821.46	2.128
821.76	22.500
822.07	-13.953
822.37	-29.730
822.67	-40.625
822.97	11.905
823.27	-14.286
823.57	-40.000
823.88	-44.444
824.18	14.286
824.48	-20.588
824.78	-16.129
825.08	-4.348
825.38	-15.152
825.69	-12.500
825.99	5.263
826.29	-11.111
826.59	-26.667
826.89	-66.667
827.19	13.043
827.49	-5.000
827.79	8.571
828.09	10.714
828.39	27.273
828.70	18.919
829.00	-7.143
829.30	-14.286
829.60	16.667
829.90	12.500
830.20	13.158
830.50	7.407
830.80	-30.435
831.10	-13.636
831.40	30.303
831.70	3.226
832.00	9.524
832.30	-85.714
832.60	-66.667
832.90	-3.448
833.20	-65.000
833.50	3.030
833.80	-7.407
834.10	-15.385
834.40	31.250
834.70	-88.889
835.00	-15.789
835.30	34.615
835.60	-40.000
835.90	-12.903
836.20	-22.727
836.50	14.286
836.80	-50.000
837.10	-28.571
837.40	-300.000
837.70	45.455
838.00	-90.909
838.30	21.739
838.60	-38.462
838.90	-22.727
839.19	-28.571
839.49	40.000
839.79	0.000
840.09	-133.333
840.39	35.714
840.69	-3.571
840.99	-11.538
841.29	-52.632
841.59	-150.000
841.88	-90.909
842.18	-80.000
842.48	-50.000
842.78	-13.333
843.08	-7.407
843.38	-160.000
843.68	17.391
843.97	-13.333
844.27	-66.667
844.57	-45.000
844.87	11.111
845.17	-47.619
845.47	40.000
845.76	-33.333
846.06	-70.588
846.36	-100.000
846.66	-42.857
846.96	-6.667
847.25	-287.500
847.55	85.714
847.85	12.500
848.15	-27.273
848.44	-633.333
848.74	-35.000
849.04	25.926
849.34	-18.182
849.63	-250.000
849.93	-340.000
850.23	-50.000
850.53	70.000
850.82	-53.846
851.12	-11.111
851.42	-73.333
851.71	-11.538
852.01	0.000
852.31	-375.000
852.61	-18.182
852.90	15.000
853.20	0.000
853.50	-50.000
853.79	8.696
854.09	25.000
854.39	-31.579
854.68	-29.167
854.98	12.903
855.28	-15.385
855.57	-25.000
855.87	-27.778
856.17	11.111
856.46	14.286
856.76	0.000
857.05	77.778
857.35	28.000
857.65	-44.444
857.94	-30.769
858.24	6.897
858.53	27.778
858.83	18.519
859.13	-13.636
859.42	-13.043
859.72	-200.000
860.01	-466.667
860.31	-8.000
860.60	9.524
860.90	-400.000
861.20	-33.333
861.49	-650.000
861.79	6.667
862.08	-55.000
862.38	100.000
862.67	-80.000
862.97	-216.667
863.26	-25.000
863.56	-22.222
863.85	-500.000
864.15	-66.667
864.44	-70.000
864.74	0.000
865.03	625.000
865.33	-220.000
865.62	-33.333
865.92	-75.000
866.21	-150.000
866.51	-25.000
866.80	-72.727
867.10	100.000
867.39	16.667
867.69	0.000
867.98	-69.231
868.27	100.000
868.57	-53.333
868.86	5.556
869.16	-76.923
869.45	-6.667
869.75	-2800.000
870.04	0.000
870.33	-85.714
870.63	9.524
870.92	600.000
871.22	-320.000
871.51	-600.000
871.80	0.000
872.10	300.000
>>>>>End Processed Spectral Data<<<<<
