SpectraSuite Data File
++++++++++++++++++++++++++++++++++++
Date: Fri May 15 20:35:36 PDT 2015
User: schluterlab
Dark Spectrum Present: Yes
Reference Spectrum Present: Yes
Number of Sampled Component Spectra: 1
Spectrometers: USB2E3373
Integration Time (usec): 3000 (USB2E3373)
Spectra Averaged: 3 (USB2E3373)
Boxcar Smoothing: 0 (USB2E3373)
Correct for Electrical Dark: No (USB2E3373)
Strobe/Lamp Enabled: No (USB2E3373)
Correct for Detector Non-linearity: No (USB2E3373)
Correct for Stray Light: No (USB2E3373)
Number of Pixels in Processed Spectrum: 2048
>>>>>Begin Processed Spectral Data<<<<<
178.53	0.000
178.91	0.000
179.29	62.500
179.67	-150.000
180.04	71.429
180.42	-25.000
180.80	0.000
181.18	233.333
181.56	500.000
181.94	200.000
182.31	1500.000
182.69	-20.000
183.07	-366.667
183.45	-80.000
183.83	350.000
184.20	9.091
184.58	177.778
184.96	325.000
185.34	100.000
185.72	-500.000
186.09	169.231
186.47	-1400.000
186.85	266.667
187.23	33.333
187.61	700.000
187.98	-166.667
188.36	-44.444
188.74	-366.667
189.12	5.882
189.49	-5.556
189.87	0.000
190.25	35.714
190.63	-50.000
191.00	-100.000
191.38	21.053
191.76	-50.000
192.14	200.000
192.51	600.000
192.89	-22.222
193.27	-100.000
193.65	116.667
194.02	172.727
194.40	-20.000
194.78	-200.000
195.15	-33.333
195.53	-125.000
195.91	325.000
196.29	-100.000
196.66	123.077
197.04	228.571
197.42	-88.889
197.79	-600.000
198.17	-100.000
198.55	1800.000
198.92	-266.667
199.30	-300.000
199.68	-160.000
200.05	-600.000
200.43	0.000
200.81	-100.000
201.18	-166.667
201.56	1000.000
201.94	-450.000
202.31	-100.000
202.69	-380.000
203.07	-0.000
203.44	-200.000
203.82	0.000
204.19	42.857
204.57	-700.000
204.95	137.500
205.32	-50.000
205.70	-85.714
206.08	-250.000
206.45	22.222
206.83	78.571
207.20	-171.429
207.58	1300.000
207.96	-166.667
208.33	-190.000
208.71	-475.000
209.08	-316.667
209.46	-1100.000
209.84	-140.000
210.21	-1500.000
210.59	-14.286
210.96	-116.667
211.34	-50.000
211.71	13.333
212.09	-242.857
212.46	-2000.000
212.84	0.000
213.22	180.000
213.59	50.000
213.97	53.846
214.34	18.182
214.72	-66.667
215.09	425.000
215.47	-46.154
215.84	-9.091
216.22	-133.333
216.59	-62.500
216.97	-50.000
217.34	-25.000
217.72	-280.000
218.09	37.500
218.47	137.500
218.84	-700.000
219.22	-66.667
219.59	-80.000
219.97	400.000
220.34	375.000
220.72	14.286
221.09	-300.000
221.47	-900.000
221.84	-600.000
222.22	-400.000
222.59	90.909
222.97	-50.000
223.34	-300.000
223.72	-35.714
224.09	-28.571
224.46	17.857
224.84	666.667
225.21	-40.000
225.59	26.667
225.96	-250.000
226.34	300.000
226.71	-142.857
227.08	-66.667
227.46	-62.500
227.83	-1000.000
228.21	-66.667
228.58	-45.455
228.95	-62.500
229.33	120.000
229.70	12.500
230.08	-275.000
230.45	-157.143
230.82	-14.286
231.20	-26.667
231.57	28.571
231.95	-57.143
232.32	-120.000
232.69	57.143
233.07	0.000
233.44	20.000
233.81	-130.000
234.19	22.222
234.56	-82.353
234.93	400.000
235.31	-75.000
235.68	-320.000
236.05	-115.385
236.43	-50.000
236.80	-5.882
237.17	-15.625
237.55	5.000
237.92	-3.704
238.29	0.000
238.67	-30.000
239.04	-29.412
239.41	-2.439
239.79	6.667
240.16	12.195
240.53	-10.526
240.91	-8.696
241.28	-3.175
241.65	1.786
242.02	16.438
242.40	0.000
242.77	-3.390
243.14	-9.091
243.51	10.000
243.89	2.299
244.26	-3.448
244.63	-1.190
245.00	8.247
245.38	3.093
245.75	-12.360
246.12	-3.448
246.49	9.917
246.87	-3.846
247.24	10.924
247.61	-1.754
247.98	-0.813
248.36	4.375
248.73	10.526
249.10	5.195
249.47	8.861
249.84	9.150
250.22	9.412
250.59	10.458
250.96	10.798
251.33	4.070
251.70	5.882
252.08	12.183
252.45	11.386
252.82	8.543
253.19	11.982
253.56	4.206
253.94	9.910
254.31	7.826
254.68	9.649
255.05	9.055
255.42	9.170
255.79	11.969
256.16	9.728
256.54	9.328
256.91	9.506
257.28	5.948
257.65	3.745
258.02	8.156
258.39	8.754
258.76	11.722
259.14	10.963
259.51	11.003
259.88	7.904
260.25	10.784
260.62	9.028
260.99	7.797
261.36	6.507
261.73	7.911
262.10	9.422
262.47	7.055
262.85	7.524
263.22	6.462
263.59	9.969
263.96	9.627
264.33	10.909
264.70	8.036
265.07	9.821
265.44	13.598
265.81	10.169
266.18	10.109
266.55	8.740
266.92	9.326
267.29	10.183
267.66	10.230
268.03	8.639
268.40	8.355
268.77	10.963
269.14	10.072
269.51	6.941
269.88	9.726
270.25	8.163
270.62	7.073
270.99	7.673
271.36	7.579
271.73	10.563
272.10	9.732
272.47	12.293
272.84	7.921
273.21	13.921
273.58	11.807
273.95	13.043
274.32	10.855
274.69	8.371
275.06	13.170
275.43	8.617
275.80	10.155
276.17	11.034
276.54	10.493
276.91	9.868
277.28	9.607
277.65	10.331
278.02	8.723
278.39	7.221
278.76	8.176
279.13	6.432
279.50	8.193
279.87	10.151
280.23	8.172
280.60	11.696
280.97	9.899
281.34	9.231
281.71	8.830
282.08	9.202
282.45	10.176
282.82	10.039
283.19	10.058
283.56	7.322
283.92	8.539
284.29	8.462
284.66	9.109
285.03	8.841
285.40	9.452
285.77	7.206
286.14	8.845
286.51	8.672
286.87	6.947
287.24	9.208
287.61	10.406
287.98	9.825
288.35	10.399
288.72	11.208
289.08	7.465
289.45	8.612
289.82	8.217
290.19	7.850
290.56	7.376
290.93	8.754
291.29	8.783
291.66	10.394
292.03	7.974
292.40	9.839
292.77	7.018
293.13	7.468
293.50	7.284
293.87	7.634
294.24	9.892
294.60	7.899
294.97	7.143
295.34	5.982
295.71	8.793
296.08	9.417
296.44	7.112
296.81	7.500
297.18	7.536
297.55	8.401
297.91	7.671
298.28	8.443
298.65	7.734
299.02	6.739
299.38	5.472
299.75	8.414
300.12	6.021
300.48	7.378
300.85	6.971
301.22	7.403
301.59	6.842
301.95	7.848
302.32	6.615
302.69	6.468
303.05	6.683
303.42	7.223
303.79	8.411
304.15	8.841
304.52	4.875
304.89	7.485
305.25	6.538
305.62	5.951
305.99	6.199
306.35	6.358
306.72	5.287
307.09	7.298
307.45	5.511
307.82	6.134
308.19	7.085
308.55	7.197
308.92	8.279
309.29	7.039
309.65	7.427
310.02	7.811
310.38	7.245
310.75	8.415
311.12	6.674
311.48	7.105
311.85	7.958
312.22	8.228
312.58	8.068
312.95	7.044
313.31	7.453
313.68	6.911
314.05	8.061
314.41	7.938
314.78	7.423
315.14	9.661
315.51	8.696
315.87	9.426
316.24	10.212
316.61	9.547
316.97	10.218
317.34	9.863
317.70	10.038
318.07	10.000
318.43	11.078
318.80	11.553
319.16	11.719
319.53	12.156
319.89	12.205
320.26	13.259
320.62	13.641
320.99	12.526
321.35	15.211
321.72	14.434
322.08	15.206
322.45	16.142
322.81	16.405
323.18	16.977
323.54	17.375
323.91	17.527
324.27	19.727
324.64	20.225
325.00	21.442
325.37	21.947
325.73	20.490
326.10	22.979
326.46	23.587
326.83	24.234
327.19	24.150
327.56	25.456
327.92	26.585
328.29	27.054
328.65	29.151
329.01	27.941
329.38	28.756
329.74	27.195
330.11	29.472
330.47	30.148
330.84	29.808
331.20	32.129
331.56	31.574
331.93	32.146
332.29	33.639
332.66	31.855
333.02	31.970
333.38	32.172
333.75	32.418
334.11	32.677
334.48	34.633
334.84	34.707
335.20	34.767
335.57	32.457
335.93	34.508
336.29	34.438
336.66	34.514
337.02	35.223
337.38	34.352
337.75	34.455
338.11	35.347
338.47	34.763
338.84	36.044
339.20	35.558
339.56	36.789
339.93	37.064
340.29	36.789
340.65	37.993
341.02	36.791
341.38	36.991
341.74	37.456
342.11	36.828
342.47	34.875
342.83	37.716
343.20	36.934
343.56	37.652
343.92	39.593
344.28	37.489
344.65	35.924
345.01	36.560
345.37	36.754
345.73	37.657
346.10	38.223
346.46	38.436
346.82	37.971
347.19	35.411
347.55	38.680
347.91	37.702
348.27	36.783
348.63	38.756
349.00	38.474
349.36	38.820
349.72	39.386
350.08	38.934
350.45	39.106
350.81	39.203
351.17	38.111
351.53	38.612
351.89	37.903
352.26	37.360
352.62	38.387
352.98	37.831
353.34	37.118
353.70	38.107
354.07	37.661
354.43	38.431
354.79	39.802
355.15	38.810
355.51	38.924
355.87	38.107
356.24	38.662
356.60	39.774
356.96	39.524
357.32	36.821
357.68	38.389
358.04	38.934
358.40	39.228
358.77	39.952
359.13	38.671
359.49	37.596
359.85	39.470
360.21	39.952
360.57	38.256
360.93	39.486
361.29	37.311
361.66	40.282
362.02	39.091
362.38	38.842
362.74	40.954
363.10	39.579
363.46	39.956
363.82	41.172
364.18	38.598
364.54	39.853
364.90	39.427
365.26	38.937
365.62	40.584
365.98	40.982
366.35	40.131
366.71	40.798
367.07	40.493
367.43	39.180
367.79	39.364
368.15	39.052
368.51	40.204
368.87	40.201
369.23	40.289
369.59	40.743
369.95	41.422
370.31	40.246
370.67	40.448
371.03	39.955
371.39	39.387
371.75	38.974
372.11	39.230
372.47	40.015
372.83	39.957
373.19	39.800
373.55	39.567
373.91	39.957
374.27	41.673
374.63	40.704
374.99	40.142
375.35	40.529
375.71	41.049
376.07	40.239
376.42	40.136
376.78	40.268
377.14	40.149
377.50	41.833
377.86	38.956
378.22	38.609
378.58	40.705
378.94	42.029
379.30	40.549
379.66	41.630
380.02	40.589
380.38	39.623
380.74	40.455
381.09	40.000
381.45	40.306
381.81	41.086
382.17	40.102
382.53	40.350
382.89	40.992
383.25	41.195
383.61	40.976
383.97	40.254
384.32	39.775
384.68	40.619
385.04	38.848
385.40	39.390
385.76	42.138
386.12	41.915
386.48	40.868
386.83	40.140
387.19	40.171
387.55	40.402
387.91	40.526
388.27	39.133
388.62	41.284
388.98	40.209
389.34	40.162
389.70	40.522
390.06	39.962
390.42	38.342
390.77	40.222
391.13	39.344
391.49	40.362
391.85	40.806
392.20	40.239
392.56	41.004
392.92	40.223
393.28	40.448
393.64	39.459
393.99	40.815
394.35	39.911
394.71	40.421
395.07	39.849
395.42	40.134
395.78	40.456
396.14	39.344
396.50	39.062
396.85	38.764
397.21	38.659
397.57	40.690
397.92	39.245
398.28	40.517
398.64	39.277
399.00	40.463
399.35	38.883
399.71	39.518
400.07	40.145
400.42	40.147
400.78	40.171
401.14	39.685
401.49	40.203
401.85	40.037
402.21	39.096
402.57	39.500
402.92	38.519
403.28	40.100
403.63	38.588
403.99	38.584
404.35	39.850
404.70	38.095
405.06	38.367
405.42	38.844
405.77	37.594
406.13	38.068
406.49	38.840
406.84	40.098
407.20	39.253
407.55	38.957
407.91	39.104
408.27	38.305
408.62	40.062
408.98	39.248
409.34	38.848
409.69	37.791
410.05	37.746
410.40	38.704
410.76	38.963
411.11	39.125
411.47	40.105
411.83	38.167
412.18	38.739
412.54	37.266
412.89	37.192
413.25	38.508
413.60	38.075
413.96	37.178
414.31	37.683
414.67	37.652
415.03	37.683
415.38	37.533
415.74	38.762
416.09	38.145
416.45	38.285
416.80	37.541
417.16	38.467
417.51	37.642
417.87	36.767
418.22	37.889
418.58	38.127
418.93	39.185
419.29	36.364
419.64	38.367
420.00	38.161
420.35	37.015
420.71	38.092
421.06	37.630
421.42	37.680
421.77	37.225
422.12	37.571
422.48	37.087
422.83	36.195
423.19	37.585
423.54	36.155
423.90	36.631
424.25	37.313
424.61	38.311
424.96	38.153
425.31	38.128
425.67	37.852
426.02	37.750
426.38	37.570
426.73	38.015
427.09	37.089
427.44	37.412
427.79	38.833
428.15	37.925
428.50	38.098
428.85	36.241
429.21	38.031
429.56	38.059
429.92	36.775
430.27	36.190
430.62	37.167
430.98	36.093
431.33	37.119
431.68	36.682
432.04	37.060
432.39	36.794
432.74	35.899
433.10	38.161
433.45	36.141
433.80	37.086
434.16	35.789
434.51	37.419
434.86	36.876
435.22	36.960
435.57	36.931
435.92	36.587
436.28	36.076
436.63	37.136
436.98	36.790
437.34	36.116
437.69	37.746
438.04	36.524
438.39	36.225
438.75	37.037
439.10	37.012
439.45	37.188
439.81	35.902
440.16	36.698
440.51	37.672
440.86	37.523
441.22	36.425
441.57	36.976
441.92	36.254
442.27	35.477
442.63	37.473
442.98	36.990
443.33	35.337
443.68	37.347
444.03	36.165
444.39	35.711
444.74	36.901
445.09	37.249
445.44	36.353
445.79	37.236
446.15	35.958
446.50	35.275
446.85	37.301
447.20	35.662
447.55	35.882
447.91	36.041
448.26	36.084
448.61	36.903
448.96	36.317
449.31	35.549
449.66	35.540
450.02	35.368
450.37	36.455
450.72	34.880
451.07	36.899
451.42	35.643
451.77	36.106
452.12	34.809
452.47	34.771
452.83	35.866
453.18	35.927
453.53	35.841
453.88	35.337
454.23	34.911
454.58	35.202
454.93	36.211
455.28	34.540
455.63	35.586
455.98	35.658
456.34	35.185
456.69	36.404
457.04	36.232
457.39	35.480
457.74	34.885
458.09	35.256
458.44	35.810
458.79	34.566
459.14	35.412
459.49	34.746
459.84	35.138
460.19	33.799
460.54	34.413
460.89	34.659
461.24	34.783
461.59	35.511
461.94	34.277
462.29	34.379
462.64	35.282
462.99	33.785
463.34	34.631
463.69	34.041
464.04	34.504
464.39	33.960
464.74	33.252
465.09	34.560
465.44	34.622
465.79	32.483
466.14	34.322
466.49	33.237
466.84	34.741
467.19	33.917
467.54	33.716
467.89	33.607
468.24	33.212
468.59	34.476
468.94	33.143
469.29	33.443
469.64	34.518
469.99	35.319
470.34	33.242
470.68	33.408
471.03	34.253
471.38	34.736
471.73	32.983
472.08	32.564
472.43	33.624
472.78	32.488
473.13	32.721
473.48	33.094
473.83	33.624
474.17	33.355
474.52	32.100
474.87	32.848
475.22	32.154
475.57	32.693
475.92	32.584
476.27	33.003
476.61	32.465
476.96	32.850
477.31	31.693
477.66	31.629
478.01	32.173
478.36	31.863
478.70	32.463
479.05	31.593
479.40	32.220
479.75	31.804
480.10	32.053
480.45	31.450
480.79	32.175
481.14	32.121
481.49	31.921
481.84	31.419
482.19	31.291
482.53	32.422
482.88	32.029
483.23	32.054
483.58	32.170
483.92	30.736
484.27	30.720
484.62	31.914
484.97	30.597
485.31	29.227
485.66	28.802
486.01	29.228
486.36	29.294
486.70	29.279
487.05	29.238
487.40	29.111
487.75	28.958
488.09	29.635
488.44	29.333
488.79	30.146
489.13	29.527
489.48	29.714
489.83	29.552
490.17	29.438
490.52	29.977
490.87	29.107
491.22	30.659
491.56	30.266
491.91	29.924
492.26	31.308
492.60	30.086
492.95	30.448
493.30	28.725
493.64	30.501
493.99	30.048
494.34	29.612
494.68	28.952
495.03	29.246
495.37	29.882
495.72	29.430
496.07	29.756
496.41	29.292
496.76	28.973
497.11	28.365
497.45	29.021
497.80	29.465
498.14	28.862
498.49	28.796
498.84	29.092
499.18	29.367
499.53	28.869
499.87	27.626
500.22	28.289
500.56	28.694
500.91	28.715
501.26	28.324
501.60	28.628
501.95	28.287
502.29	27.893
502.64	28.282
502.98	29.107
503.33	26.753
503.67	27.904
504.02	27.761
504.36	28.352
504.71	27.424
505.06	27.730
505.40	28.528
505.75	27.474
506.09	28.637
506.44	28.131
506.78	27.755
507.13	28.128
507.47	27.363
507.82	27.350
508.16	27.839
508.51	27.912
508.85	26.740
509.19	27.355
509.54	27.078
509.88	26.591
510.23	27.918
510.57	27.365
510.92	26.333
511.26	27.169
511.61	27.558
511.95	27.233
512.30	27.827
512.64	27.101
512.98	28.074
513.33	27.588
513.67	26.151
514.02	28.089
514.36	27.771
514.70	27.331
515.05	27.967
515.39	26.682
515.74	27.545
516.08	27.675
516.42	27.326
516.77	26.565
517.11	26.884
517.46	27.349
517.80	27.414
518.14	27.250
518.49	26.803
518.83	26.671
519.17	25.894
519.52	25.873
519.86	25.990
520.20	26.245
520.55	26.704
520.89	27.353
521.23	26.472
521.58	26.877
521.92	26.154
522.26	26.350
522.61	25.974
522.95	27.417
523.29	26.366
523.64	26.302
523.98	27.220
524.32	25.773
524.66	26.953
525.01	25.455
525.35	27.544
525.69	26.734
526.04	25.860
526.38	26.329
526.72	25.311
527.06	25.681
527.41	26.385
527.75	25.469
528.09	25.914
528.43	26.401
528.78	24.950
529.12	25.742
529.46	25.211
529.80	25.839
530.15	25.677
530.49	24.579
530.83	26.060
531.17	25.789
531.51	24.897
531.86	24.677
532.20	24.217
532.54	26.004
532.88	25.462
533.22	24.664
533.57	24.640
533.91	24.674
534.25	25.195
534.59	24.888
534.93	23.914
535.27	23.794
535.62	24.109
535.96	25.636
536.30	24.208
536.64	24.535
536.98	25.436
537.32	25.320
537.66	25.316
538.01	24.825
538.35	24.064
538.69	24.501
539.03	24.129
539.37	23.755
539.71	23.177
540.05	24.508
540.39	24.792
540.73	24.826
541.07	23.826
541.42	24.395
541.76	24.776
542.10	23.538
542.44	23.836
542.78	22.712
543.12	23.214
543.46	23.505
543.80	23.109
544.14	22.096
544.48	23.718
544.82	23.377
545.16	23.497
545.50	24.166
545.84	23.725
546.18	23.262
546.52	24.081
546.86	23.364
547.20	23.033
547.54	22.544
547.88	23.641
548.22	21.893
548.56	22.955
548.90	23.113
549.24	21.970
549.58	22.073
549.92	21.658
550.26	22.564
550.60	23.420
550.94	22.405
551.28	22.798
551.62	24.000
551.96	21.805
552.30	22.149
552.64	22.496
552.98	22.714
553.32	22.468
553.66	21.626
554.00	22.190
554.34	21.935
554.68	23.230
555.02	22.917
555.36	22.214
555.69	22.125
556.03	21.556
556.37	21.423
556.71	21.733
557.05	21.924
557.39	22.602
557.73	21.514
558.07	21.342
558.41	22.205
558.75	22.603
559.08	22.143
559.42	22.778
559.76	22.018
560.10	21.636
560.44	21.147
560.78	20.420
561.12	21.016
561.45	21.996
561.79	21.709
562.13	21.363
562.47	20.863
562.81	21.254
563.15	20.592
563.48	21.711
563.82	20.933
564.16	21.170
564.50	20.000
564.84	20.950
565.17	19.920
565.51	21.243
565.85	21.605
566.19	21.353
566.52	21.046
566.86	22.044
567.20	19.738
567.54	20.742
567.88	20.387
568.21	20.984
568.55	20.109
568.89	20.534
569.23	19.933
569.56	18.870
569.90	19.326
570.24	18.608
570.57	18.400
570.91	18.717
571.25	18.119
571.59	18.343
571.92	17.896
572.26	17.844
572.60	18.202
572.93	18.042
573.27	18.276
573.61	17.751
573.95	18.323
574.28	18.061
574.62	17.137
574.96	17.627
575.29	17.643
575.63	17.492
575.97	17.132
576.30	17.402
576.64	17.245
576.98	17.889
577.31	17.646
577.65	17.431
577.98	17.181
578.32	17.372
578.66	17.000
578.99	16.869
579.33	16.812
579.67	17.083
580.00	17.114
580.34	17.065
580.67	17.062
581.01	16.835
581.35	16.904
581.68	16.709
582.02	16.352
582.35	16.750
582.69	16.771
583.02	16.727
583.36	17.081
583.70	17.264
584.03	17.070
584.37	17.617
584.70	17.088
585.04	16.399
585.37	16.806
585.71	16.638
586.04	16.742
586.38	16.431
586.72	16.901
587.05	16.984
587.39	17.361
587.72	17.387
588.06	16.358
588.39	17.032
588.73	17.002
589.06	17.091
589.40	17.214
589.73	17.853
590.07	17.409
590.40	17.570
590.73	17.216
591.07	17.218
591.40	16.919
591.74	17.692
592.07	17.996
592.41	17.977
592.74	17.284
593.08	16.381
593.41	16.969
593.75	16.323
594.08	16.341
594.41	16.266
594.75	17.061
595.08	16.459
595.42	17.078
595.75	17.161
596.09	15.872
596.42	16.618
596.75	16.874
597.09	17.312
597.42	17.209
597.75	16.858
598.09	16.433
598.42	17.419
598.76	16.774
599.09	16.546
599.42	16.332
599.76	16.667
600.09	16.629
600.42	16.073
600.76	16.270
601.09	16.336
601.42	16.255
601.76	16.395
602.09	16.130
602.42	17.228
602.76	16.129
603.09	16.819
603.42	16.639
603.76	16.008
604.09	16.039
604.42	16.836
604.76	16.555
605.09	16.636
605.42	16.569
605.75	16.550
606.09	16.221
606.42	15.513
606.75	16.580
607.09	17.143
607.42	16.659
607.75	15.986
608.08	16.038
608.42	15.852
608.75	16.627
609.08	16.542
609.41	16.548
609.75	16.935
610.08	16.825
610.41	16.135
610.74	16.090
611.07	16.899
611.41	16.814
611.74	17.004
612.07	16.435
612.40	17.396
612.73	16.384
613.07	16.142
613.40	16.794
613.73	16.172
614.06	16.249
614.39	16.413
614.72	16.134
615.06	16.704
615.39	15.939
615.72	16.416
616.05	17.263
616.38	16.068
616.71	16.697
617.05	17.295
617.38	16.719
617.71	16.164
618.04	17.079
618.37	17.781
618.70	16.634
619.03	17.500
619.36	16.570
619.69	17.134
620.03	17.166
620.36	16.881
620.69	16.988
621.02	17.737
621.35	18.589
621.68	17.007
622.01	17.500
622.34	17.079
622.67	18.218
623.00	17.994
623.33	17.302
623.66	17.203
623.99	17.852
624.32	17.795
624.65	17.068
624.99	16.930
625.32	15.542
625.65	18.303
625.98	17.325
626.31	16.126
626.64	16.464
626.97	17.801
627.30	18.739
627.63	17.764
627.96	19.587
628.29	17.206
628.62	17.994
628.95	18.737
629.28	18.145
629.61	17.547
629.94	17.986
630.26	17.292
630.59	18.418
630.92	18.667
631.25	17.846
631.58	17.841
631.91	17.215
632.24	18.005
632.57	19.659
632.90	18.980
633.23	20.235
633.56	17.632
633.89	19.112
634.22	20.000
634.55	20.457
634.88	17.625
635.20	17.179
635.53	20.000
635.86	18.466
636.19	19.017
636.52	18.112
636.85	17.122
637.18	18.365
637.51	18.239
637.83	17.740
638.16	19.236
638.49	18.801
638.82	19.605
639.15	18.860
639.48	19.257
639.81	18.968
640.13	19.048
640.46	17.201
640.79	17.526
641.12	18.316
641.45	17.868
641.77	19.259
642.10	20.537
642.43	21.061
642.76	19.142
643.09	18.417
643.41	19.579
643.74	16.969
644.07	20.525
644.40	20.608
644.73	20.841
645.05	17.953
645.38	18.871
645.71	18.972
646.04	19.390
646.36	18.972
646.69	21.043
647.02	18.526
647.35	20.522
647.67	20.475
648.00	22.575
648.33	19.625
648.66	17.966
648.98	14.908
649.31	16.694
649.64	16.484
649.96	17.180
650.29	18.569
650.62	20.513
650.94	17.963
651.27	19.367
651.60	18.919
651.92	18.531
652.25	18.117
652.58	16.333
652.90	21.955
653.23	19.328
653.56	18.274
653.88	18.213
654.21	15.412
654.54	18.166
654.86	17.317
655.19	17.398
655.52	17.260
655.84	13.580
656.17	14.707
656.49	19.637
656.82	20.579
657.15	15.694
657.47	11.660
657.80	8.708
658.13	8.513
658.45	13.587
658.78	13.052
659.10	13.103
659.43	14.033
659.75	14.652
660.08	14.276
660.41	15.730
660.73	15.884
661.06	16.464
661.38	17.613
661.71	17.043
662.03	19.742
662.36	17.582
662.68	18.584
663.01	20.087
663.33	17.633
663.66	18.140
663.98	16.279
664.31	22.388
664.63	17.512
664.96	16.739
665.28	17.881
665.61	19.264
665.93	17.391
666.26	21.041
666.58	17.450
666.91	17.176
667.23	21.226
667.56	21.564
667.88	17.506
668.21	19.093
668.53	21.749
668.86	17.925
669.18	18.868
669.50	16.707
669.83	17.674
670.15	19.347
670.48	17.703
670.80	19.585
671.13	17.450
671.45	17.123
671.77	17.597
672.10	18.614
672.42	19.101
672.75	18.828
673.07	18.784
673.39	17.982
673.72	14.990
674.04	17.917
674.37	18.856
674.69	17.345
675.01	17.333
675.34	18.468
675.66	18.056
675.98	19.512
676.31	17.661
676.63	16.865
676.95	16.818
677.28	22.118
677.60	17.831
677.92	15.826
678.25	19.256
678.57	16.883
678.89	19.748
679.22	18.121
679.54	16.064
679.86	16.700
680.18	18.058
680.51	17.235
680.83	17.097
681.15	20.200
681.48	20.287
681.80	17.355
682.12	17.742
682.44	16.736
682.77	19.868
683.09	17.162
683.41	16.136
683.73	17.972
684.06	19.690
684.38	16.344
684.70	18.301
685.02	14.938
685.34	14.427
685.67	17.824
685.99	17.179
686.31	17.876
686.63	17.811
686.96	13.878
687.28	13.131
687.60	15.779
687.92	16.970
688.24	14.516
688.56	15.939
688.89	16.071
689.21	17.333
689.53	16.009
689.85	17.442
690.17	18.304
690.49	17.494
690.82	15.291
691.14	16.905
691.46	16.822
691.78	17.793
692.10	17.204
692.42	17.965
692.74	14.103
693.06	16.892
693.39	13.348
693.71	14.480
694.03	15.242
694.35	15.888
694.67	18.687
694.99	17.232
695.31	17.755
695.63	20.000
695.95	15.909
696.27	17.098
696.59	18.333
696.91	15.966
697.23	17.738
697.56	13.366
697.88	17.849
698.20	15.945
698.52	15.294
698.84	16.746
699.16	16.500
699.48	16.792
699.80	14.640
700.12	19.137
700.44	19.328
700.76	14.535
701.08	17.576
701.40	20.181
701.72	19.753
702.04	16.832
702.36	15.385
702.68	16.517
703.00	19.091
703.32	14.663
703.64	15.819
703.96	17.101
704.28	15.644
704.60	16.825
704.91	16.088
705.23	17.608
705.55	16.961
705.87	19.134
706.19	13.333
706.51	16.838
706.83	16.077
707.15	14.330
707.47	14.006
707.79	14.844
708.11	14.000
708.43	15.750
708.74	16.537
709.06	18.873
709.38	19.266
709.70	16.864
710.02	13.057
710.34	22.601
710.66	11.218
710.98	16.556
711.29	18.033
711.61	13.559
711.93	19.544
712.25	20.619
712.57	17.216
712.89	16.418
713.20	16.609
713.52	14.634
713.84	17.065
714.16	16.151
714.48	15.161
714.80	18.269
715.11	15.805
715.43	12.539
715.75	15.333
716.07	12.625
716.39	11.745
716.70	13.653
717.02	14.122
717.34	18.623
717.66	14.159
717.97	14.348
718.29	18.410
718.61	16.535
718.93	17.829
719.24	13.308
719.56	14.859
719.88	17.526
720.20	12.121
720.51	11.111
720.83	12.355
721.15	13.866
721.46	16.532
721.78	8.696
722.10	16.729
722.42	13.278
722.73	17.959
723.05	22.041
723.37	18.220
723.68	14.414
724.00	12.393
724.32	15.111
724.63	17.273
724.95	17.031
725.27	19.816
725.58	19.492
725.90	13.889
726.22	15.444
726.53	15.593
726.85	19.101
727.16	20.000
727.48	12.551
727.80	19.028
728.11	14.831
728.43	9.804
728.74	12.903
729.06	15.200
729.38	22.556
729.69	14.343
730.01	13.462
730.32	15.672
730.64	15.194
730.96	13.208
731.27	14.000
731.59	13.559
731.90	18.471
732.22	17.350
732.53	14.286
732.85	17.021
733.16	18.519
733.48	10.432
733.80	15.217
734.11	15.932
734.43	15.808
734.74	16.667
735.06	12.378
735.37	14.199
735.69	14.815
736.00	16.376
736.32	13.087
736.63	15.845
736.95	18.089
737.26	11.744
737.58	11.409
737.89	11.722
738.21	15.038
738.52	11.934
738.83	15.284
739.15	11.790
739.46	16.535
739.78	13.919
740.09	14.379
740.41	15.217
740.72	11.024
741.04	12.551
741.35	13.191
741.66	13.744
741.98	16.327
742.29	12.376
742.61	14.136
742.92	6.635
743.23	11.111
743.55	13.575
743.86	11.483
744.18	16.268
744.49	12.766
744.80	14.130
745.12	21.390
745.43	7.805
745.74	17.708
746.06	11.220
746.37	12.042
746.68	13.744
747.00	9.574
747.31	16.418
747.62	11.650
747.94	17.703
748.25	15.842
748.56	12.568
748.88	14.136
749.19	18.085
749.50	14.286
749.82	5.660
750.13	9.633
750.44	15.038
750.75	16.045
751.07	15.328
751.38	13.793
751.69	14.118
752.01	15.116
752.32	13.147
752.63	11.067
752.94	16.379
753.26	19.665
753.57	15.837
753.88	12.832
754.19	12.083
754.51	11.157
754.82	10.121
755.13	15.000
755.44	13.710
755.75	17.578
756.07	12.451
756.38	10.189
756.69	10.728
757.00	16.000
757.31	14.052
757.63	9.756
757.94	14.722
758.25	12.603
758.56	15.957
758.87	13.031
759.18	12.773
759.50	13.455
759.81	14.381
760.12	15.161
760.43	12.121
760.74	12.346
761.05	14.769
761.36	13.068
761.67	12.121
761.99	15.646
762.30	12.727
762.61	17.391
762.92	11.765
763.23	12.162
763.54	4.206
763.85	12.712
764.16	15.353
764.47	9.274
764.78	10.623
765.10	11.111
765.41	13.880
765.72	13.333
766.03	6.767
766.34	14.964
766.65	16.733
766.96	13.636
767.27	11.170
767.58	5.747
767.89	8.511
768.20	11.932
768.51	8.791
768.82	14.286
769.13	9.677
769.44	13.305
769.75	7.763
770.06	9.914
770.37	12.981
770.68	10.152
770.99	11.312
771.30	12.255
771.61	15.837
771.92	12.069
772.23	15.764
772.54	9.140
772.85	19.753
773.16	11.236
773.47	15.686
773.78	10.458
774.09	14.970
774.39	10.000
774.70	13.376
775.01	18.621
775.32	18.571
775.63	5.785
775.94	13.740
776.25	14.961
776.56	10.833
776.87	4.808
777.18	1.709
777.48	13.793
777.79	1.739
778.10	5.714
778.41	8.108
778.72	14.286
779.03	6.767
779.34	13.475
779.65	9.589
779.95	5.479
780.26	7.586
780.57	2.439
780.88	7.874
781.19	15.517
781.50	8.527
781.80	9.467
782.11	2.516
782.42	9.231
782.73	9.353
783.04	17.037
783.34	5.556
783.65	-5.983
783.96	-2.459
784.27	17.241
784.57	10.569
784.88	15.625
785.19	17.000
785.50	14.000
785.81	8.621
786.11	4.310
786.42	4.854
786.73	13.636
787.04	3.061
787.34	3.571
787.65	13.333
787.96	13.274
788.26	6.364
788.57	5.983
788.88	10.937
789.19	5.556
789.49	11.304
789.80	1.020
790.11	13.131
790.41	10.000
790.72	13.043
791.03	1.136
791.33	13.750
791.64	-1.250
791.95	12.791
792.25	12.766
792.56	20.225
792.87	2.740
793.17	20.290
793.48	2.667
793.79	8.750
794.09	17.500
794.40	9.434
794.70	0.000
795.01	8.130
795.32	0.855
795.62	7.619
795.93	5.882
796.23	12.264
796.54	15.625
796.85	1.471
797.15	4.225
797.46	15.278
797.76	18.182
798.07	5.814
798.37	-13.158
798.68	4.545
798.99	24.691
799.29	15.714
799.60	18.841
799.90	18.667
800.21	13.115
800.51	0.000
800.82	16.949
801.12	20.290
801.43	3.279
801.73	7.937
802.04	-10.000
802.34	-1.493
802.65	7.692
802.95	0.000
803.26	-7.692
803.56	15.686
803.87	-4.348
804.17	13.333
804.48	7.937
804.78	20.370
805.09	13.043
805.39	-31.111
805.70	-12.963
806.00	-7.018
806.30	11.268
806.61	20.000
806.91	-23.611
807.22	15.789
807.52	26.667
807.83	-21.818
808.13	18.056
808.43	13.235
808.74	14.925
809.04	10.169
809.35	-11.538
809.65	18.750
809.95	-32.432
810.26	-11.364
810.56	15.068
810.86	9.524
811.17	-4.000
811.47	6.122
811.77	-7.895
812.08	18.182
812.38	-15.094
812.69	-22.500
812.99	-21.212
813.29	7.895
813.59	-34.286
813.90	11.364
814.20	-35.897
814.50	21.154
814.81	26.415
815.11	-6.383
815.41	16.949
815.72	-9.524
816.02	1.961
816.32	10.417
816.62	17.073
816.93	-8.108
817.23	-14.286
817.53	-6.250
817.84	2.174
818.14	7.692
818.44	-26.316
818.74	10.870
819.04	-7.500
819.35	16.216
819.65	-2.941
819.95	-13.889
820.25	2.381
820.56	5.000
820.86	-27.586
821.16	15.000
821.46	-2.128
821.76	12.500
822.07	0.000
822.37	-21.622
822.67	-25.000
822.97	38.095
823.27	-39.286
823.57	-20.000
823.88	-22.222
824.18	-17.857
824.48	-8.824
824.78	-6.452
825.08	-60.870
825.38	-9.091
825.69	-29.167
825.99	15.789
826.29	-2.778
826.59	-40.000
826.89	-114.286
827.19	32.609
827.49	5.000
827.79	20.000
828.09	-10.714
828.39	6.061
828.70	16.216
829.00	-39.286
829.30	-19.048
829.60	-30.000
829.90	-6.250
830.20	-13.158
830.50	-3.704
830.80	8.696
831.10	13.636
831.40	30.303
831.70	-22.581
832.00	-33.333
832.30	-47.619
832.60	-108.333
832.90	17.241
833.20	-45.000
833.50	3.030
833.80	-11.111
834.10	34.615
834.40	9.375
834.70	-66.667
835.00	-15.789
835.30	57.692
835.60	-20.000
835.90	3.226
836.20	36.364
836.50	28.571
836.80	-3.846
837.10	-25.000
837.40	0.000
837.70	-13.636
838.00	-118.182
838.30	21.739
838.60	-76.923
838.90	-13.636
839.19	-10.714
839.49	20.000
839.79	-7.692
840.09	-16.667
840.39	32.143
840.69	-3.571
840.99	-26.923
841.29	0.000
841.59	-90.000
841.88	9.091
842.18	-170.000
842.48	-18.750
842.78	-26.667
843.08	-3.704
843.38	-210.000
843.68	47.826
843.97	0.000
844.27	-120.000
844.57	-10.000
844.87	-38.889
845.17	-42.857
845.47	0.000
845.76	-28.571
846.06	-29.412
846.36	-60.000
846.66	-64.286
846.96	0.000
847.25	-262.500
847.55	-50.000
847.85	-12.500
848.15	-31.818
848.44	-433.333
848.74	0.000
849.04	44.444
849.34	-27.273
849.63	-133.333
849.93	-140.000
850.23	-16.667
850.53	70.000
850.82	-46.154
851.12	-66.667
851.42	20.000
851.71	-26.923
852.01	7.143
852.31	-575.000
852.61	-100.000
852.90	-10.000
853.20	5.263
853.50	-83.333
853.79	-47.826
854.09	37.500
854.39	-15.789
854.68	-25.000
854.98	-48.387
855.28	23.077
855.57	-20.000
855.87	16.667
856.17	-14.815
856.46	-42.857
856.76	-80.000
857.05	22.222
857.35	-4.000
857.65	-22.222
857.94	-15.385
858.24	-3.448
858.53	-5.556
858.83	37.037
859.13	-4.545
859.42	-26.087
859.72	150.000
860.01	-466.667
860.31	16.000
860.60	-14.286
860.90	-466.667
861.20	-53.333
861.49	-900.000
861.79	-53.333
862.08	-5.000
862.38	80.000
862.67	-320.000
862.97	-50.000
863.26	-58.333
863.56	-5.556
863.85	-733.333
864.15	-33.333
864.44	-150.000
864.74	-14.286
865.03	300.000
865.33	-200.000
865.62	-66.667
865.92	-83.333
866.21	-150.000
866.51	50.000
866.80	-36.364
867.10	-350.000
867.39	100.000
867.69	0.000
867.98	23.077
868.27	-66.667
868.57	53.333
868.86	-50.000
869.16	0.000
869.45	80.000
869.75	-1000.000
870.04	0.000
870.33	-114.286
870.63	-19.048
870.92	166.667
871.22	-180.000
871.51	-700.000
871.80	77.778
872.10	500.000
>>>>>End Processed Spectral Data<<<<<
