SpectraSuite Data File
++++++++++++++++++++++++++++++++++++
Date: Fri May 15 20:33:53 PDT 2015
User: schluterlab
Dark Spectrum Present: Yes
Reference Spectrum Present: Yes
Number of Sampled Component Spectra: 1
Spectrometers: USB2E3373
Integration Time (usec): 3000 (USB2E3373)
Spectra Averaged: 3 (USB2E3373)
Boxcar Smoothing: 0 (USB2E3373)
Correct for Electrical Dark: No (USB2E3373)
Strobe/Lamp Enabled: No (USB2E3373)
Correct for Detector Non-linearity: No (USB2E3373)
Correct for Stray Light: No (USB2E3373)
Number of Pixels in Processed Spectrum: 2048
>>>>>Begin Processed Spectral Data<<<<<
178.53	0.000
178.91	0.000
179.29	-125.000
179.67	-250.000
180.04	14.286
180.42	175.000
180.80	0.000
181.18	366.667
181.56	550.000
181.94	-250.000
182.31	-0.000
182.69	-60.000
183.07	-33.333
183.45	-180.000
183.83	50.000
184.20	-63.636
184.58	177.778
184.96	-0.000
185.34	200.000
185.72	-700.000
186.09	23.077
186.47	-800.000
186.85	300.000
187.23	177.778
187.61	-200.000
187.98	-100.000
188.36	-22.222
188.74	-366.667
189.12	47.059
189.49	16.667
189.87	0.000
190.25	-35.714
190.63	-50.000
191.00	-333.333
191.38	5.263
191.76	750.000
192.14	325.000
192.51	50.000
192.89	77.778
193.27	-57.143
193.65	200.000
194.02	236.364
194.40	10.000
194.78	-125.000
195.15	-75.000
195.53	-212.500
195.91	350.000
196.29	-200.000
196.66	100.000
197.04	-28.571
197.42	44.444
197.79	-733.333
198.17	-130.769
198.55	2000.000
198.92	-600.000
199.30	-100.000
199.68	-160.000
200.05	-600.000
200.43	0.000
200.81	-33.333
201.18	-100.000
201.56	1000.000
201.94	-300.000
202.31	233.333
202.69	-180.000
203.07	375.000
203.44	-700.000
203.82	0.000
204.19	0.000
204.57	-600.000
204.95	312.500
205.32	-100.000
205.70	-42.857
206.08	75.000
206.45	155.556
206.83	64.286
207.20	-171.429
207.58	1700.000
207.96	-433.333
208.33	-60.000
208.71	-150.000
209.08	-250.000
209.46	-1700.000
209.84	-120.000
210.21	-800.000
210.59	-100.000
210.96	-133.333
211.34	-100.000
211.71	53.333
212.09	-85.714
212.46	-1500.000
212.84	0.000
213.22	-50.000
213.59	850.000
213.97	-84.615
214.34	-36.364
214.72	-66.667
215.09	350.000
215.47	7.692
215.84	-9.091
216.22	-66.667
216.59	37.500
216.97	0.000
217.34	-75.000
217.72	-80.000
218.09	-62.500
218.47	250.000
218.84	-1500.000
219.22	-111.111
219.59	-60.000
219.97	966.667
220.34	325.000
220.72	-85.714
221.09	-450.000
221.47	-600.000
221.84	-850.000
222.22	-850.000
222.59	-72.727
222.97	-16.667
223.34	-366.667
223.72	-28.571
224.09	-33.333
224.46	14.286
224.84	333.333
225.21	10.000
225.59	60.000
225.96	100.000
226.34	425.000
226.71	-28.571
227.08	-16.667
227.46	-100.000
227.83	-600.000
228.21	-44.444
228.58	9.091
228.95	12.500
229.33	140.000
229.70	-12.500
230.08	-75.000
230.45	-114.286
230.82	-128.571
231.20	-6.667
231.57	71.429
231.95	-28.571
232.32	-170.000
232.69	-35.714
233.07	33.333
233.44	40.000
233.81	-140.000
234.19	-77.778
234.56	-17.647
234.93	900.000
235.31	0.000
235.68	-260.000
236.05	-107.692
236.43	10.000
236.80	0.000
237.17	21.875
237.55	0.000
237.92	14.815
238.29	41.667
238.67	23.333
239.04	-20.588
239.41	-4.878
239.79	30.000
240.16	46.341
240.53	23.684
240.91	6.522
241.28	15.873
241.65	55.357
242.02	31.507
242.40	41.667
242.77	38.983
243.14	28.788
243.51	41.250
243.89	43.678
244.26	27.586
244.63	40.476
245.00	37.113
245.38	51.546
245.75	35.955
246.12	30.172
246.49	38.017
246.87	45.192
247.24	31.092
247.61	29.825
247.98	43.902
248.36	38.750
248.73	44.079
249.10	35.714
249.47	40.506
249.84	40.523
250.22	43.529
250.59	39.216
250.96	40.376
251.33	40.116
251.70	41.765
252.08	39.594
252.45	44.059
252.82	42.714
253.19	41.935
253.56	37.383
253.94	40.090
254.31	42.609
254.68	44.298
255.05	43.307
255.42	39.301
255.79	44.788
256.16	43.191
256.54	47.015
256.91	41.445
257.28	43.866
257.65	42.322
258.02	43.617
258.39	45.791
258.76	50.183
259.14	43.854
259.51	47.249
259.88	43.299
260.25	45.425
260.62	44.792
260.99	41.017
261.36	45.548
261.73	42.405
262.10	44.073
262.47	44.785
262.85	43.574
263.22	44.308
263.59	42.056
263.96	48.137
264.33	43.636
264.70	41.964
265.07	46.726
265.44	46.742
265.81	46.893
266.18	46.995
266.55	45.244
266.92	45.337
267.29	46.736
267.66	42.199
268.03	47.906
268.40	42.298
268.77	44.118
269.14	40.767
269.51	46.530
269.88	40.898
270.25	43.622
270.62	42.683
270.99	41.432
271.36	44.010
271.73	45.070
272.10	45.255
272.47	44.917
272.84	45.545
273.21	41.299
273.58	47.229
273.95	43.249
274.32	41.339
274.69	40.271
275.06	43.973
275.43	44.671
275.80	41.060
276.17	43.908
276.54	41.542
276.91	45.175
277.28	41.266
277.65	40.702
278.02	41.702
278.39	43.764
278.76	42.977
279.13	35.270
279.50	43.487
279.87	40.821
280.23	40.000
280.60	45.224
280.97	41.616
281.34	43.462
281.71	45.791
282.08	40.082
282.45	39.922
282.82	41.506
283.19	41.779
283.56	40.848
283.92	41.556
284.29	41.538
284.66	41.279
285.03	41.257
285.40	41.777
285.77	38.137
286.14	38.628
286.51	43.542
286.87	38.757
287.24	42.541
287.61	39.330
287.98	41.754
288.35	40.035
288.72	41.681
289.08	38.542
289.45	39.367
289.82	38.462
290.19	39.249
290.56	38.593
290.93	37.542
291.29	34.977
291.66	37.323
292.03	35.407
292.40	36.290
292.77	34.450
293.13	34.578
293.50	33.839
293.87	34.046
294.24	34.003
294.60	32.936
294.97	35.417
295.34	32.822
295.71	33.234
296.08	33.483
296.44	31.294
296.81	31.528
297.18	32.899
297.55	34.959
297.91	31.233
298.28	33.377
298.65	30.122
299.02	30.189
299.38	29.822
299.75	30.621
300.12	31.021
300.48	29.908
300.85	31.052
301.22	30.390
301.59	30.921
301.95	30.633
302.32	32.425
302.69	29.851
303.05	29.703
303.42	31.507
303.79	30.374
304.15	29.032
304.52	27.348
304.89	27.953
305.25	28.814
305.62	27.071
305.99	26.082
306.35	28.671
306.72	27.672
307.09	28.734
307.45	27.784
307.82	28.241
308.19	29.268
308.55	28.571
308.92	29.303
309.29	28.603
309.65	27.772
310.02	28.273
310.38	27.333
310.75	29.399
311.12	28.418
311.48	27.466
311.85	27.749
312.22	26.899
312.58	26.752
312.95	26.361
313.31	26.605
313.68	26.178
314.05	26.224
314.41	27.732
314.78	27.113
315.14	27.852
315.51	28.675
315.87	27.357
316.24	28.109
316.61	27.559
316.97	28.075
317.34	27.832
317.70	27.725
318.07	26.827
318.43	28.333
318.80	25.663
319.16	27.734
319.53	27.825
319.89	27.854
320.26	27.834
320.62	27.081
320.99	26.618
321.35	25.797
321.72	28.764
322.08	26.485
322.45	26.294
322.81	27.308
323.18	26.202
323.54	26.255
323.91	27.264
324.27	27.734
324.64	27.154
325.00	28.832
325.37	26.905
325.73	26.383
326.10	28.247
326.46	27.713
326.83	27.384
327.19	27.637
327.56	27.628
327.92	27.201
328.29	26.071
328.65	27.453
329.01	27.022
329.38	28.387
329.74	26.723
330.11	27.525
330.47	26.160
330.84	25.769
331.20	27.376
331.56	25.926
331.93	27.397
332.29	27.498
332.66	26.878
333.02	25.465
333.38	26.398
333.75	27.106
334.11	25.604
334.48	27.743
334.84	26.099
335.20	27.539
335.57	26.473
335.93	27.191
336.29	26.703
336.66	25.159
337.02	25.743
337.38	25.833
337.75	25.909
338.11	27.142
338.47	25.821
338.84	26.617
339.20	26.874
339.56	25.596
339.93	26.947
340.29	25.413
340.65	26.882
341.02	26.418
341.38	26.460
341.74	25.353
342.11	24.783
342.47	25.089
342.83	27.336
343.20	25.871
343.56	25.826
343.92	26.129
344.28	26.985
344.65	24.870
345.01	24.287
345.37	24.643
345.73	26.192
346.10	27.092
346.46	25.736
346.82	25.614
347.19	24.855
347.55	24.144
347.91	25.647
348.27	24.010
348.63	24.957
349.00	24.036
349.36	24.605
349.72	25.539
350.08	25.820
350.45	25.299
350.81	24.086
351.17	24.349
351.53	25.143
351.89	24.195
352.26	24.720
352.62	26.532
352.98	24.016
353.34	24.960
353.70	25.809
354.07	24.355
354.43	23.539
354.79	23.534
355.15	26.190
355.51	23.972
355.87	24.919
356.24	23.899
356.60	24.252
356.96	23.968
357.32	25.000
357.68	24.707
358.04	23.910
358.40	24.518
358.77	24.880
359.13	22.978
359.49	23.035
359.85	25.039
360.21	23.844
360.57	23.948
360.93	24.584
361.29	23.565
361.66	24.060
362.02	23.939
362.38	24.296
362.74	22.861
363.10	24.379
363.46	24.537
363.82	25.094
364.18	23.469
364.54	23.015
364.90	23.943
365.26	24.090
365.62	24.380
365.98	24.120
366.35	23.234
366.71	24.021
367.07	24.456
367.43	23.149
367.79	22.686
368.15	23.475
368.51	23.598
368.87	23.044
369.23	23.538
369.59	22.959
369.95	23.094
370.31	24.061
370.67	23.806
371.03	22.778
371.39	23.632
371.75	23.297
372.11	23.609
372.47	22.707
372.83	23.421
373.19	22.397
373.55	22.383
373.91	22.750
374.27	23.459
374.63	23.116
374.99	22.624
375.35	23.050
375.71	24.336
376.07	23.315
376.42	23.333
376.78	22.886
377.14	22.817
377.50	22.709
377.86	23.159
378.22	23.357
378.58	22.115
378.94	22.621
379.30	22.895
379.66	24.138
380.02	22.195
380.38	22.824
380.74	22.083
381.09	23.190
381.45	22.202
381.81	22.764
382.17	22.208
382.53	22.923
382.89	22.913
383.25	23.273
383.61	23.110
383.97	21.905
384.32	21.889
384.68	22.663
385.04	22.426
385.40	21.406
385.76	22.893
386.12	23.286
386.48	22.925
386.83	22.321
387.19	22.405
387.55	23.212
387.91	21.210
388.27	21.734
388.62	22.970
388.98	22.284
389.34	22.174
389.70	23.493
390.06	22.089
390.42	22.409
390.77	22.498
391.13	21.311
391.49	22.380
391.85	22.872
392.20	22.599
392.56	23.140
392.92	22.666
393.28	22.406
393.64	21.982
393.99	22.633
394.35	22.328
394.71	22.669
395.07	21.370
395.42	22.101
395.78	22.345
396.14	21.942
396.50	21.940
396.85	22.151
397.21	21.554
397.57	22.257
397.92	22.469
398.28	21.839
398.64	21.325
399.00	22.235
399.35	21.388
399.71	21.941
400.07	22.310
400.42	21.665
400.78	22.107
401.14	21.900
401.49	22.394
401.85	22.121
402.21	22.470
402.57	22.250
402.92	21.832
403.28	22.368
403.63	22.194
403.99	21.939
404.35	22.299
404.70	22.143
405.06	21.915
405.42	21.690
405.77	21.034
406.13	22.119
406.49	21.847
406.84	21.760
407.20	21.613
407.55	20.734
407.91	20.922
408.27	20.778
408.62	21.292
408.98	22.304
409.34	22.181
409.69	21.705
410.05	22.229
410.40	21.914
410.76	22.618
411.11	21.938
411.47	21.433
411.83	21.343
412.18	21.815
412.54	22.722
412.89	21.367
413.25	22.202
413.60	21.553
413.96	22.147
414.31	21.768
414.67	21.745
415.03	21.172
415.38	21.671
415.74	21.954
416.09	21.424
416.45	20.932
416.80	20.423
417.16	21.754
417.51	21.386
417.87	20.795
418.22	21.567
418.58	21.338
418.93	22.571
419.29	20.551
419.64	22.618
420.00	21.788
420.35	21.612
420.71	22.357
421.06	21.915
421.42	22.356
421.77	21.387
422.12	20.999
422.48	22.306
422.83	21.520
423.19	21.727
423.54	21.693
423.90	20.966
424.25	21.929
424.61	22.093
424.96	22.358
425.31	22.299
425.67	21.772
426.02	22.203
426.38	21.540
426.73	23.002
427.09	22.468
427.44	21.412
427.79	21.626
428.15	22.148
428.50	21.320
428.85	21.376
429.21	22.071
429.56	21.833
429.92	21.880
430.27	22.055
430.62	21.432
430.98	21.231
431.33	22.187
431.68	21.455
432.04	22.135
432.39	21.164
432.74	21.046
433.10	22.759
433.45	20.908
433.80	22.171
434.16	21.662
434.51	21.989
434.86	21.545
435.22	21.817
435.57	21.896
435.92	20.958
436.28	21.049
436.63	21.392
436.98	21.147
437.34	21.900
437.69	21.527
438.04	21.140
438.39	21.197
438.75	20.826
439.10	21.505
439.45	21.972
439.81	21.223
440.16	21.734
440.51	22.328
440.86	21.450
441.22	21.210
441.57	22.130
441.92	22.088
442.27	21.563
442.63	22.698
442.98	22.114
443.33	21.925
443.68	20.690
444.03	21.908
444.39	21.692
444.74	22.018
445.09	21.771
445.44	21.766
445.79	22.950
446.15	21.806
446.50	21.520
446.85	21.201
447.20	21.429
447.55	22.600
447.91	21.771
448.26	22.026
448.61	22.625
448.96	21.916
449.31	21.098
449.66	21.312
450.02	22.362
450.37	21.577
450.72	21.993
451.07	21.709
451.42	21.910
451.77	22.544
452.12	21.830
452.47	21.185
452.83	22.556
453.18	22.897
453.53	21.239
453.88	22.465
454.23	21.205
454.58	22.481
454.93	22.552
455.28	21.524
455.63	21.885
455.98	21.467
456.34	21.328
456.69	21.982
457.04	22.873
457.39	22.296
457.74	22.068
458.09	21.542
458.44	22.001
458.79	21.513
459.14	21.968
459.49	22.328
459.84	22.504
460.19	21.117
460.54	21.944
460.89	22.102
461.24	21.925
461.59	22.209
461.94	21.635
462.29	21.713
462.64	22.724
462.99	22.478
463.34	20.654
463.69	21.429
464.04	21.973
464.39	21.953
464.74	22.147
465.09	22.458
465.44	22.389
465.79	21.485
466.14	22.748
466.49	21.277
466.84	21.654
467.19	23.279
467.54	22.669
467.89	21.352
468.24	22.445
468.59	22.095
468.94	21.524
469.29	22.557
469.64	21.873
469.99	22.495
470.34	21.502
470.68	22.521
471.03	21.868
471.38	22.397
471.73	21.639
472.08	21.845
472.43	21.812
472.78	20.973
473.13	22.177
473.48	22.085
473.83	20.922
474.17	21.762
474.52	22.527
474.87	21.697
475.22	22.026
475.57	21.739
475.92	22.436
476.27	21.420
476.61	21.817
476.96	21.584
477.31	22.066
477.66	21.798
478.01	21.954
478.36	22.386
478.70	22.240
479.05	22.143
479.40	23.052
479.75	21.429
480.10	22.171
480.45	22.200
480.79	22.608
481.14	22.080
481.49	21.823
481.84	22.249
482.19	22.077
482.53	21.631
482.88	21.432
483.23	21.545
483.58	21.792
483.92	21.588
484.27	21.559
484.62	21.739
484.97	21.725
485.31	21.676
485.66	22.219
486.01	22.373
486.36	22.701
486.70	22.739
487.05	22.426
487.40	21.743
487.75	21.634
488.09	20.859
488.44	21.114
488.79	20.844
489.13	22.155
489.48	21.548
489.83	21.928
490.17	22.022
490.52	22.032
490.87	21.518
491.22	22.111
491.56	21.964
491.91	21.989
492.26	22.849
492.60	21.785
492.95	22.233
493.30	21.397
493.64	22.446
493.99	22.802
494.34	21.456
494.68	21.952
495.03	21.703
495.37	21.933
495.72	21.807
496.07	21.902
496.41	21.509
496.76	22.294
497.11	21.518
497.45	22.912
497.80	22.301
498.14	22.504
498.49	21.991
498.84	22.305
499.18	22.088
499.53	21.974
499.87	21.158
500.22	21.860
500.56	21.634
500.91	21.687
501.26	21.700
501.60	22.282
501.95	22.174
502.29	21.453
502.64	22.297
502.98	21.559
503.33	21.278
503.67	21.446
504.02	22.190
504.36	22.365
504.71	21.566
505.06	21.993
505.40	21.929
505.75	22.165
506.09	21.997
506.44	23.049
506.78	22.347
507.13	22.285
507.47	21.253
507.82	21.528
508.16	21.500
508.51	22.246
508.85	21.612
509.19	21.554
509.54	23.110
509.88	21.953
510.23	22.324
510.57	22.715
510.92	21.535
511.26	21.495
511.61	22.882
511.95	22.356
512.30	22.450
512.64	22.983
512.98	21.449
513.33	22.328
513.67	21.148
514.02	22.769
514.36	22.629
514.70	22.611
515.05	22.797
515.39	21.842
515.74	21.677
516.08	22.773
516.42	22.909
516.77	23.054
517.11	22.671
517.46	22.083
517.80	22.527
518.14	20.821
518.49	21.755
518.83	22.296
519.17	21.649
519.52	21.433
519.86	21.849
520.20	22.236
520.55	21.451
520.89	22.396
521.23	22.103
521.58	23.155
521.92	22.051
522.26	21.666
522.61	22.727
522.95	22.252
523.29	22.808
523.64	22.046
523.98	23.007
524.32	21.907
524.66	22.599
525.01	22.273
525.35	22.683
525.69	22.626
526.04	22.421
526.38	23.411
526.72	22.041
527.06	21.336
527.41	23.087
527.75	22.051
528.09	21.927
528.43	23.565
528.78	22.376
529.12	23.226
529.46	22.807
529.80	23.116
530.15	23.366
530.49	22.559
530.83	22.914
531.17	22.633
531.51	22.093
531.86	22.094
532.20	22.756
532.54	22.464
532.88	22.519
533.22	23.320
533.57	22.412
533.91	22.063
534.25	23.893
534.59	22.386
534.93	21.901
535.27	21.447
535.62	22.294
535.96	21.983
536.30	23.483
536.64	22.261
536.98	22.300
537.32	23.542
537.66	22.651
538.01	22.657
538.35	22.191
538.69	23.968
539.03	22.488
539.37	22.476
539.71	22.222
540.05	22.403
540.39	23.269
540.73	22.664
541.07	22.307
541.42	23.790
541.76	23.400
542.10	22.712
542.44	22.029
542.78	22.023
543.12	22.115
543.46	22.740
543.80	22.554
544.14	22.697
544.48	22.585
544.82	23.445
545.16	23.224
545.50	23.364
545.84	22.521
546.18	23.191
546.52	22.278
546.86	22.430
547.20	22.818
547.54	21.767
547.88	22.826
548.22	22.485
548.56	22.625
548.90	23.248
549.24	21.694
549.58	22.426
549.92	22.445
550.26	22.930
550.60	22.677
550.94	23.077
551.28	22.798
551.62	23.000
551.96	23.383
552.30	22.149
552.64	22.144
552.98	22.433
553.32	22.539
553.66	23.004
554.00	22.409
554.34	22.747
554.68	22.345
555.02	22.545
555.36	22.513
555.69	21.978
556.03	21.913
556.37	21.779
556.71	22.383
557.05	23.490
557.39	22.230
557.73	23.238
558.07	22.474
558.41	22.971
558.75	23.383
559.08	22.459
559.42	22.698
559.76	22.898
560.10	22.554
560.44	22.487
560.78	23.427
561.12	23.625
561.45	23.331
561.79	23.109
562.13	23.563
562.47	22.518
562.81	22.983
563.15	22.496
563.48	22.843
563.82	23.061
564.16	23.050
564.50	23.716
564.84	24.163
565.17	23.005
565.51	23.907
565.85	23.731
566.19	24.204
566.52	23.123
566.86	23.650
567.20	23.288
567.54	23.479
567.88	23.960
568.21	23.699
568.55	23.370
568.89	23.717
569.23	23.592
569.56	23.599
569.90	23.670
570.24	24.042
570.57	23.455
570.91	23.771
571.25	23.512
571.59	23.388
571.92	22.993
572.26	22.736
572.60	22.884
572.93	22.749
573.27	23.009
573.61	23.419
573.95	23.348
574.28	23.385
574.62	22.934
574.96	23.012
575.29	23.069
575.63	22.545
575.97	22.391
576.30	22.519
576.64	22.464
576.98	23.320
577.31	23.028
577.65	22.982
577.98	23.478
578.32	22.982
578.66	22.609
578.99	23.023
579.33	22.608
579.67	22.382
580.00	22.608
580.34	22.537
580.67	22.552
581.01	22.526
581.35	23.450
581.68	23.440
582.02	23.509
582.35	23.454
582.69	23.120
583.02	23.008
583.36	23.066
583.70	23.105
584.03	22.435
584.37	23.094
584.70	22.582
585.04	22.668
585.37	22.875
585.71	23.081
586.04	22.769
586.38	22.593
586.72	23.529
587.05	23.166
587.39	23.092
587.72	23.756
588.06	23.083
588.39	23.099
588.73	23.016
589.06	23.516
589.40	23.056
589.73	22.782
590.07	23.338
590.40	22.485
590.73	23.229
591.07	23.325
591.40	23.464
591.74	23.213
592.07	23.145
592.41	23.719
592.74	22.859
593.08	23.018
593.41	23.493
593.75	23.422
594.08	23.412
594.41	23.326
594.75	22.748
595.08	23.156
595.42	22.967
595.75	23.432
596.09	23.182
596.42	24.018
596.75	23.712
597.09	22.825
597.42	23.216
597.75	22.675
598.09	22.589
598.42	22.924
598.76	23.123
599.09	23.758
599.42	22.887
599.76	22.874
600.09	23.002
600.42	23.161
600.76	22.920
601.09	23.053
601.42	22.327
601.76	22.271
602.09	22.649
602.42	23.799
602.76	22.835
603.09	23.380
603.42	24.498
603.76	22.056
604.09	22.762
604.42	22.758
604.76	23.899
605.09	23.080
605.42	23.025
605.75	22.767
606.09	23.312
606.42	22.644
606.75	22.727
607.09	23.297
607.42	22.995
607.75	22.780
608.08	22.866
608.42	23.298
608.75	22.795
609.08	23.817
609.41	22.843
609.75	22.782
610.08	23.465
610.41	22.029
610.74	23.257
611.07	23.101
611.41	23.716
611.74	24.041
612.07	23.073
612.40	22.812
612.73	23.051
613.07	23.228
613.40	23.031
613.73	22.384
614.06	22.705
614.39	23.237
614.72	21.849
615.06	22.737
615.39	22.980
615.72	23.412
616.05	23.240
616.38	22.165
616.71	23.119
617.05	23.224
617.38	23.130
617.71	23.082
618.04	24.127
618.37	23.329
618.70	23.564
619.03	23.750
619.36	23.661
619.69	23.882
620.03	23.448
620.36	23.891
620.69	22.198
621.02	22.401
621.35	24.232
621.68	23.299
622.01	23.500
622.34	24.900
622.67	23.423
623.00	23.660
623.33	23.095
623.66	23.635
623.99	22.920
624.32	22.890
624.65	22.707
624.99	24.153
625.32	22.062
625.65	23.331
625.98	24.496
626.31	22.361
626.64	23.830
626.97	23.298
627.30	23.643
627.63	23.657
627.96	23.720
628.29	23.867
628.62	22.812
628.95	22.545
629.28	23.589
629.61	22.832
629.94	23.851
630.26	21.937
630.59	24.974
630.92	22.974
631.25	21.436
631.58	24.339
631.91	22.917
632.24	21.674
632.57	24.318
632.90	23.250
633.23	21.412
633.56	22.418
633.89	22.441
634.22	23.457
634.55	22.745
634.88	21.967
635.20	22.308
635.53	21.600
635.86	22.107
636.19	24.062
636.52	25.000
636.85	21.588
637.18	22.767
637.51	23.019
637.83	23.127
638.16	24.557
638.49	23.569
638.82	24.868
639.15	23.881
639.48	22.696
639.81	24.407
640.13	23.665
640.46	21.574
640.79	21.060
641.12	22.747
641.45	20.270
641.77	22.667
642.10	25.118
642.43	22.990
642.76	24.917
643.09	20.840
643.41	21.521
643.74	21.746
644.07	23.974
644.40	24.831
644.73	22.942
645.05	22.315
645.38	22.222
645.71	23.050
646.04	22.980
646.36	23.582
646.69	25.719
647.02	22.873
647.35	23.321
647.67	23.218
648.00	24.440
648.33	22.867
648.66	22.712
648.98	19.263
649.31	20.331
649.64	22.763
649.96	22.366
650.29	23.680
650.62	23.077
650.94	22.037
651.27	24.953
651.60	25.225
651.92	23.776
652.25	23.801
652.58	21.500
652.90	25.729
653.23	22.857
653.56	22.166
653.88	22.680
654.21	19.790
654.54	22.581
654.86	23.090
655.19	22.368
655.52	26.625
655.84	25.974
656.17	29.166
656.49	38.591
656.82	38.790
657.15	28.500
657.47	20.492
657.80	14.852
658.13	13.995
658.45	20.867
658.78	20.111
659.10	19.108
659.43	18.373
659.75	19.092
660.08	18.414
660.41	21.655
660.73	20.166
661.06	20.451
661.38	21.722
661.71	22.793
662.03	23.391
662.36	22.857
662.68	24.115
663.01	25.328
663.33	20.882
663.66	19.302
663.98	21.628
664.31	23.667
664.63	21.659
664.96	20.652
665.28	21.192
665.61	18.615
665.93	21.522
666.26	21.258
666.58	22.148
666.91	23.294
667.23	23.585
667.56	21.090
667.88	20.624
668.21	23.150
668.53	23.641
668.86	22.406
669.18	22.170
669.50	20.097
669.83	22.791
670.15	23.310
670.48	22.488
670.80	21.198
671.13	21.924
671.45	23.516
671.77	24.464
672.10	22.178
672.42	24.719
672.75	21.847
673.07	26.476
673.39	22.202
673.72	18.146
674.04	21.458
674.37	21.610
674.69	22.270
675.01	22.000
675.34	20.045
675.66	23.843
675.98	24.834
676.31	23.165
676.63	22.328
676.95	22.045
677.28	24.000
677.60	22.892
677.92	21.101
678.25	22.757
678.57	22.511
678.89	23.109
679.22	22.819
679.54	23.092
679.86	20.278
680.18	23.883
680.51	25.000
680.83	23.260
681.15	22.000
681.48	23.975
681.80	22.521
682.12	20.363
682.44	21.548
682.77	22.517
683.09	23.341
683.41	22.727
683.73	22.811
684.06	24.336
684.38	20.430
684.70	24.837
685.02	22.407
685.34	20.949
685.67	21.388
685.99	23.327
686.31	23.363
686.63	21.150
686.96	19.011
687.28	17.778
687.60	22.624
687.92	26.465
688.24	21.976
688.56	23.144
688.89	21.875
689.21	24.444
689.53	23.666
689.85	20.698
690.17	24.777
690.49	22.459
690.82	21.117
691.14	23.571
691.46	23.131
691.78	24.099
692.10	21.720
692.42	23.810
692.74	23.718
693.06	22.297
693.39	21.041
693.71	21.041
694.03	20.323
694.35	23.598
694.67	21.465
694.99	19.582
695.31	22.193
695.63	22.000
695.95	21.717
696.27	20.725
696.59	23.333
696.91	19.608
697.23	22.622
697.56	25.248
697.88	23.226
698.20	23.462
698.52	20.706
698.84	21.531
699.16	17.750
699.48	24.060
699.80	20.596
700.12	25.067
700.44	19.608
700.76	16.279
701.08	19.091
701.40	21.687
701.72	26.235
702.04	22.112
702.36	23.411
702.68	20.120
703.00	22.121
703.32	21.701
703.64	18.644
703.96	20.870
704.28	23.620
704.60	24.444
704.91	19.874
705.23	21.927
705.55	26.502
705.87	20.939
706.19	19.259
706.51	21.306
706.83	21.865
707.15	20.872
707.47	23.529
707.79	21.875
708.11	22.250
708.43	26.000
708.74	21.447
709.06	25.070
709.38	18.960
709.70	20.118
710.02	22.293
710.34	25.387
710.66	21.154
710.98	20.530
711.29	23.934
711.61	18.983
711.93	22.476
712.25	24.399
712.57	21.978
712.89	19.403
713.20	21.799
713.52	21.951
713.84	22.526
714.16	18.557
714.48	23.226
714.80	25.000
715.11	21.581
715.43	19.436
715.75	22.333
716.07	20.266
716.39	20.805
716.70	18.819
717.02	19.084
717.34	25.101
717.66	18.584
717.97	23.913
718.29	21.339
718.61	22.047
718.93	19.380
719.24	20.152
719.56	22.088
719.88	21.649
720.20	17.803
720.51	19.540
720.83	20.463
721.15	22.689
721.46	25.000
721.78	20.949
722.10	20.074
722.42	16.598
722.73	20.816
723.05	20.816
723.37	23.305
723.68	22.973
724.00	19.658
724.32	18.222
724.63	22.727
724.95	24.891
725.27	22.120
725.58	20.339
725.90	20.238
726.22	22.780
726.53	23.729
726.85	21.348
727.16	20.377
727.48	17.004
727.80	21.862
728.11	17.797
728.43	18.824
728.74	12.500
729.06	19.200
729.38	26.692
729.69	24.303
730.01	18.462
730.32	22.015
730.64	20.495
730.96	23.774
731.27	23.000
731.59	19.661
731.90	25.159
732.22	22.397
732.53	27.575
732.85	18.440
733.16	26.263
733.48	19.784
733.80	21.377
734.11	24.746
734.43	21.649
734.74	22.727
735.06	18.241
735.37	19.940
735.69	23.906
736.00	17.770
736.32	21.812
736.63	22.887
736.95	24.232
737.26	20.996
737.58	23.154
737.89	21.612
738.21	23.684
738.52	22.634
738.83	20.087
739.15	15.721
739.46	23.622
739.78	21.612
740.09	18.627
740.41	20.290
740.72	17.323
741.04	23.887
741.35	22.128
741.66	19.431
741.98	23.980
742.29	22.772
742.61	20.419
742.92	18.009
743.23	18.981
743.55	19.005
743.86	18.660
744.18	21.053
744.49	21.809
744.80	20.652
745.12	25.134
745.43	14.634
745.74	21.354
746.06	23.415
746.37	22.513
746.68	25.118
747.00	21.277
747.31	24.378
747.62	14.078
747.94	22.488
748.25	17.327
748.56	18.579
748.88	16.230
749.19	18.617
749.50	22.660
749.82	16.509
750.13	18.807
750.44	27.444
750.75	27.239
751.07	28.832
751.38	24.138
751.69	21.569
752.01	28.682
752.32	23.506
752.63	21.344
752.94	16.810
753.26	26.360
753.57	20.362
753.88	17.257
754.19	16.667
754.51	21.074
754.82	21.457
755.13	30.000
755.44	23.387
755.75	27.344
756.07	22.957
756.38	21.509
756.69	21.456
757.00	18.333
757.31	19.281
757.63	23.476
757.94	23.056
758.25	19.452
758.56	22.340
758.87	18.130
759.18	19.626
759.50	20.364
759.81	23.077
760.12	26.452
760.43	20.606
760.74	24.074
761.05	23.077
761.36	21.875
761.67	27.273
761.99	24.830
762.30	19.273
762.61	22.530
762.92	21.719
763.23	23.423
763.54	17.290
763.85	24.576
764.16	20.332
764.47	16.935
764.78	21.978
765.10	27.946
765.41	23.659
765.72	22.857
766.03	17.669
766.34	23.358
766.65	23.108
766.96	23.232
767.27	19.149
767.58	14.368
767.89	18.440
768.20	18.182
768.51	24.725
768.82	26.108
769.13	20.737
769.44	19.742
769.75	16.895
770.06	26.724
770.37	25.000
770.68	20.305
770.99	23.982
771.30	27.451
771.61	25.339
771.92	25.000
772.23	20.197
772.54	23.118
772.85	28.395
773.16	16.292
773.47	29.412
773.78	24.837
774.09	22.156
774.39	27.333
774.70	21.019
775.01	20.690
775.32	16.429
775.63	14.876
775.94	19.084
776.25	16.535
776.56	24.167
776.87	16.346
777.18	23.932
777.48	13.793
777.79	8.696
778.10	9.524
778.41	13.514
778.72	20.635
779.03	23.308
779.34	30.496
779.65	26.027
779.95	21.233
780.26	20.690
780.57	22.764
780.88	16.535
781.19	20.690
781.50	13.953
781.80	18.935
782.11	15.723
782.42	18.462
782.73	22.302
783.04	15.556
783.34	14.583
783.65	10.256
783.96	13.934
784.27	26.897
784.57	20.325
784.88	21.875
785.19	20.000
785.50	26.000
785.81	19.828
786.11	17.241
786.42	18.447
786.73	27.273
787.04	6.122
787.34	10.714
787.65	13.333
787.96	15.044
788.26	13.636
788.57	15.385
788.88	20.312
789.19	19.841
789.49	22.609
789.80	13.265
790.11	13.131
790.41	17.273
790.72	21.739
791.03	7.955
791.33	2.500
791.64	18.750
791.95	18.605
792.25	12.766
792.56	15.730
792.87	13.699
793.17	14.493
793.48	5.333
793.79	6.250
794.09	30.000
794.40	20.755
794.70	9.709
795.01	12.195
795.32	21.368
795.62	16.190
795.93	21.569
796.23	26.415
796.54	16.667
796.85	26.471
797.15	25.352
797.46	16.667
797.76	19.697
798.07	17.442
798.37	2.632
798.68	4.545
798.99	19.753
799.29	18.571
799.60	10.145
799.90	12.000
800.21	24.590
800.51	7.692
800.82	8.475
801.12	23.188
801.43	6.557
801.73	22.222
802.04	20.000
802.34	10.448
802.65	11.538
802.95	5.357
803.26	7.692
803.56	21.569
803.87	-8.696
804.17	21.333
804.48	31.746
804.78	25.926
805.09	17.391
805.39	11.111
805.70	12.963
806.00	19.298
806.30	8.451
806.61	27.143
806.91	13.889
807.22	15.789
807.52	28.000
807.83	7.273
808.13	12.500
808.43	16.176
808.74	7.463
809.04	5.085
809.35	9.615
809.65	10.938
809.95	-18.919
810.26	9.091
810.56	15.068
810.86	7.143
811.17	2.000
811.47	30.612
811.77	0.000
812.08	4.545
812.38	28.302
812.69	0.000
812.99	-36.364
813.29	13.158
813.59	-37.143
813.90	25.000
814.20	-17.949
814.50	25.000
814.81	16.981
815.11	-8.511
815.41	22.034
815.72	-7.143
816.02	9.804
816.32	6.250
816.62	9.756
816.93	5.405
817.23	8.571
817.53	18.750
817.84	-2.174
818.14	32.692
818.44	-34.211
818.74	6.522
819.04	-12.500
819.35	27.027
819.65	-5.882
819.95	-33.333
820.25	16.667
820.56	20.000
820.86	3.448
821.16	35.000
821.46	8.511
821.76	10.000
822.07	-2.326
822.37	-35.135
822.67	-34.375
822.97	0.000
823.27	-3.571
823.57	-28.000
823.88	-3.704
824.18	0.000
824.48	5.882
824.78	9.677
825.08	-26.087
825.38	18.182
825.69	8.333
825.99	15.789
826.29	-2.778
826.59	-53.333
826.89	-9.524
827.19	-4.348
827.49	2.500
827.79	11.429
828.09	39.286
828.39	18.182
828.70	35.135
829.00	-21.429
829.30	-61.905
829.60	-3.333
829.90	0.000
830.20	-21.053
830.50	-25.926
830.80	-4.348
831.10	18.182
831.40	33.333
831.70	45.161
832.00	-9.524
832.30	-9.524
832.60	0.000
832.90	24.138
833.20	-35.000
833.50	0.000
833.80	-11.111
834.10	0.000
834.40	46.875
834.70	-111.111
835.00	15.789
835.30	65.385
835.60	0.000
835.90	6.452
836.20	-31.818
836.50	0.000
836.80	-38.462
837.10	-17.857
837.40	-66.667
837.70	-36.364
838.00	-90.909
838.30	21.739
838.60	76.923
838.90	0.000
839.19	0.000
839.49	53.333
839.79	-7.692
840.09	-91.667
840.39	57.143
840.69	0.000
840.99	-26.923
841.29	-89.474
841.59	-10.000
841.88	-163.636
842.18	-120.000
842.48	-37.500
842.78	0.000
843.08	37.037
843.38	-80.000
843.68	4.348
843.97	13.333
844.27	-26.667
844.57	-55.000
844.87	-5.556
845.17	-47.619
845.47	13.333
845.76	-9.524
846.06	-58.824
846.36	-60.000
846.66	-114.286
846.96	-53.333
847.25	-200.000
847.55	85.714
847.85	-175.000
848.15	-40.909
848.44	-866.667
848.74	15.000
849.04	22.222
849.34	-36.364
849.63	-333.333
849.93	-200.000
850.23	0.000
850.53	20.000
850.82	-53.846
851.12	-33.333
851.42	6.667
851.71	19.231
852.01	-21.429
852.31	-325.000
852.61	-118.182
852.90	-40.000
853.20	-36.842
853.50	-41.667
853.79	21.739
854.09	41.667
854.39	31.579
854.68	0.000
854.98	25.806
855.28	3.846
855.57	40.000
855.87	33.333
856.17	11.111
856.46	-35.714
856.76	-6.667
857.05	88.889
857.35	-4.000
857.65	-11.111
857.94	-69.231
858.24	51.724
858.53	77.778
858.83	25.926
859.13	-4.545
859.42	-30.435
859.72	-375.000
860.01	-400.000
860.31	4.000
860.60	14.286
860.90	-866.667
861.20	-66.667
861.49	-550.000
861.79	-33.333
862.08	15.000
862.38	26.667
862.67	-220.000
862.97	-50.000
863.26	-8.333
863.56	27.778
863.85	-66.667
864.15	0.000
864.44	-50.000
864.74	50.000
865.03	375.000
865.33	-160.000
865.62	50.000
865.92	-83.333
866.21	-100.000
866.51	18.750
866.80	-63.636
867.10	100.000
867.39	50.000
867.69	0.000
867.98	-30.769
868.27	-300.000
868.57	0.000
868.86	44.444
869.16	0.000
869.45	46.667
869.75	-700.000
870.04	0.000
870.33	28.571
870.63	9.524
870.92	333.333
871.22	-40.000
871.51	-1100.000
871.80	100.000
872.10	566.667
>>>>>End Processed Spectral Data<<<<<
