SpectraSuite Data File
++++++++++++++++++++++++++++++++++++
Date: Fri May 15 20:45:38 PDT 2015
User: schluterlab
Dark Spectrum Present: Yes
Reference Spectrum Present: Yes
Number of Sampled Component Spectra: 1
Spectrometers: USB2E3373
Integration Time (usec): 3000 (USB2E3373)
Spectra Averaged: 3 (USB2E3373)
Boxcar Smoothing: 0 (USB2E3373)
Correct for Electrical Dark: No (USB2E3373)
Strobe/Lamp Enabled: No (USB2E3373)
Correct for Detector Non-linearity: No (USB2E3373)
Correct for Stray Light: No (USB2E3373)
Number of Pixels in Processed Spectrum: 2048
>>>>>Begin Processed Spectral Data<<<<<
178.53	0.000
178.91	0.000
179.29	100.000
179.67	-100.000
180.04	-71.429
180.42	-150.000
180.80	-500.000
181.18	233.333
181.56	700.000
181.94	50.000
182.31	-300.000
182.69	-40.000
183.07	-266.667
183.45	-240.000
183.83	133.333
184.20	0.000
184.58	33.333
184.96	-50.000
185.34	-66.667
185.72	-300.000
186.09	146.154
186.47	-500.000
186.85	250.000
187.23	155.556
187.61	100.000
187.98	-100.000
188.36	-77.778
188.74	-600.000
189.12	0.000
189.49	-16.667
189.87	0.000
190.25	-28.571
190.63	-350.000
191.00	-266.667
191.38	-31.579
191.76	-100.000
192.14	175.000
192.51	650.000
192.89	-44.444
193.27	-71.429
193.65	300.000
194.02	218.182
194.40	70.000
194.78	-37.500
195.15	25.000
195.53	-175.000
195.91	125.000
196.29	-50.000
196.66	84.615
197.04	185.714
197.42	-77.778
197.79	-466.667
198.17	-115.385
198.55	900.000
198.92	-433.333
199.30	-300.000
199.68	-200.000
200.05	-400.000
200.43	0.000
200.81	-166.667
201.18	0.000
201.56	600.000
201.94	-200.000
202.31	-133.333
202.69	-80.000
203.07	175.000
203.44	100.000
203.82	0.000
204.19	7.143
204.57	-533.333
204.95	225.000
205.32	10.000
205.70	14.286
206.08	-25.000
206.45	122.222
206.83	85.714
207.20	-171.429
207.58	600.000
207.96	-266.667
208.33	-230.000
208.71	-150.000
209.08	-166.667
209.46	600.000
209.84	-120.000
210.21	-700.000
210.59	-114.286
210.96	-16.667
211.34	-300.000
211.71	26.667
212.09	-85.714
212.46	-1200.000
212.84	0.000
213.22	40.000
213.59	450.000
213.97	7.692
214.34	36.364
214.72	0.000
215.09	325.000
215.47	-69.231
215.84	-36.364
216.22	-233.333
216.59	-87.500
216.97	-50.000
217.34	-275.000
217.72	-160.000
218.09	12.500
218.47	212.500
218.84	-500.000
219.22	44.444
219.59	40.000
219.97	266.667
220.34	225.000
220.72	-14.286
221.09	-200.000
221.47	0.000
221.84	-400.000
222.22	-1150.000
222.59	-72.727
222.97	8.333
223.34	-366.667
223.72	-78.571
224.09	33.333
224.46	14.286
224.84	700.000
225.21	-10.000
225.59	-33.333
225.96	-450.000
226.34	225.000
226.71	-57.143
227.08	-216.667
227.46	-37.500
227.83	-450.000
228.21	-22.222
228.58	0.000
228.95	-100.000
229.33	150.000
229.70	-56.250
230.08	-187.500
230.45	71.429
230.82	-157.143
231.20	-6.667
231.57	-21.429
231.95	-100.000
232.32	-140.000
232.69	-21.429
233.07	166.667
233.44	-200.000
233.81	0.000
234.19	-22.222
234.56	-29.412
234.93	-0.000
235.31	-100.000
235.68	-280.000
236.05	-30.769
236.43	-65.000
236.80	0.000
237.17	18.750
237.55	-20.000
237.92	-37.037
238.29	19.444
238.67	-10.000
239.04	-20.588
239.41	-31.707
239.79	-26.667
240.16	4.878
240.53	-15.789
240.91	-10.870
241.28	3.175
241.65	16.071
242.02	17.808
242.40	11.667
242.77	13.559
243.14	4.545
243.51	15.000
243.89	18.391
244.26	6.897
244.63	16.667
245.00	9.278
245.38	16.495
245.75	5.618
246.12	3.448
246.49	8.264
246.87	11.538
247.24	11.765
247.61	0.000
247.98	11.382
248.36	13.125
248.73	17.105
249.10	11.039
249.47	20.253
249.84	11.111
250.22	12.941
250.59	13.072
250.96	18.779
251.33	8.721
251.70	12.941
252.08	11.168
252.45	13.366
252.82	15.578
253.19	13.825
253.56	10.748
253.94	21.622
254.31	16.087
254.68	17.982
255.05	11.417
255.42	12.227
255.79	12.741
256.16	13.619
256.54	17.910
256.91	13.688
257.28	14.126
257.65	14.232
258.02	13.830
258.39	15.825
258.76	14.286
259.14	14.618
259.51	13.916
259.88	15.464
260.25	13.072
260.62	16.319
260.99	12.881
261.36	12.671
261.73	12.975
262.10	16.109
262.47	12.270
262.85	14.734
263.22	13.538
263.59	14.642
263.96	16.460
264.33	15.455
264.70	13.095
265.07	12.500
265.44	17.280
265.81	16.384
266.18	15.027
266.55	13.625
266.92	12.176
267.29	19.060
267.66	17.391
268.03	14.398
268.40	16.188
268.77	19.519
269.14	13.429
269.51	17.224
269.88	15.711
270.25	12.500
270.62	14.390
270.99	13.811
271.36	12.225
271.73	15.962
272.10	14.355
272.47	15.603
272.84	12.871
273.21	16.705
273.58	14.940
273.95	15.561
274.32	15.242
274.69	14.480
275.06	13.170
275.43	13.832
275.80	13.907
276.17	14.253
276.54	14.133
276.91	15.351
277.28	15.284
277.65	15.702
278.02	17.021
278.39	13.786
278.76	13.627
279.13	12.656
279.50	15.336
279.87	14.687
280.23	14.194
280.60	15.595
280.97	15.758
281.34	15.385
281.71	15.811
282.08	14.110
282.45	11.937
282.82	14.865
283.19	14.120
283.56	15.222
283.92	13.093
284.29	12.115
284.66	13.566
285.03	11.591
285.40	12.665
285.77	13.005
286.14	15.343
286.51	15.498
286.87	13.346
287.24	13.260
287.61	14.815
287.98	15.263
288.35	12.478
288.72	15.061
289.08	13.194
289.45	15.114
289.82	15.210
290.19	13.311
290.56	13.379
290.93	12.121
291.29	12.943
291.66	13.228
292.03	13.557
292.40	14.355
292.77	12.919
293.13	11.201
293.50	11.381
293.87	12.824
294.24	11.901
294.60	11.624
294.97	12.202
295.34	11.810
295.71	13.413
296.08	10.762
296.44	10.669
296.81	11.111
297.18	10.145
297.55	12.873
297.91	10.685
298.28	13.720
298.65	11.262
299.02	11.590
299.38	8.755
299.75	10.621
300.12	10.340
300.48	10.804
300.85	10.266
301.22	12.338
301.59	11.184
301.95	10.000
302.32	14.656
302.69	10.448
303.05	10.149
303.42	11.831
303.79	12.033
304.15	13.381
304.52	10.464
304.89	10.409
305.25	11.138
305.62	9.685
305.99	11.111
306.35	11.561
306.72	10.574
307.09	10.604
307.45	11.137
307.82	11.111
308.19	11.382
308.55	10.796
308.92	11.656
309.29	11.955
309.65	11.087
310.02	11.441
310.38	11.306
310.75	11.913
311.12	12.056
311.48	11.771
311.85	12.565
312.22	11.709
312.58	11.996
312.95	11.206
313.31	12.008
313.68	12.042
314.05	11.939
314.41	13.608
314.78	12.680
315.14	13.155
315.51	13.147
315.87	14.652
316.24	14.257
316.61	15.059
316.97	15.179
317.34	15.625
317.70	15.679
318.07	15.962
318.43	16.471
318.80	15.814
319.16	16.211
319.53	17.759
319.89	16.339
320.26	17.915
320.62	18.455
320.99	16.910
321.35	17.780
321.72	18.276
322.08	19.335
322.45	20.711
322.81	18.271
323.18	19.038
323.54	20.270
323.91	19.961
324.27	20.410
324.64	21.067
325.00	20.347
325.37	21.763
325.73	20.399
326.10	22.616
326.46	22.601
326.83	23.447
327.19	22.406
327.56	23.197
327.92	24.296
328.29	23.482
328.65	25.094
329.01	23.897
329.38	24.516
329.74	23.135
330.11	23.818
330.47	23.469
330.84	22.308
331.20	25.665
331.56	23.889
331.93	26.119
332.29	24.290
332.66	25.520
333.02	25.465
333.38	23.831
333.75	24.908
334.11	24.261
334.48	26.564
334.84	26.740
335.20	25.984
335.57	25.113
335.93	26.197
336.29	26.151
336.66	26.703
337.02	23.978
337.38	24.815
337.75	26.545
338.11	26.240
338.47	26.825
338.84	26.340
339.20	25.411
339.56	26.422
339.93	26.321
340.29	26.239
340.65	24.821
341.02	25.798
341.38	26.814
341.74	23.233
342.11	25.303
342.47	26.779
342.83	26.038
343.20	25.784
343.56	26.348
343.92	25.598
344.28	25.961
344.65	24.870
345.01	26.016
345.37	24.727
345.73	25.858
346.10	26.833
346.46	24.558
346.82	25.859
347.19	24.106
347.55	24.896
347.91	26.861
348.27	25.141
348.63	25.554
349.00	24.528
349.36	25.021
349.72	25.539
350.08	25.574
350.45	25.379
350.81	23.837
351.17	23.779
351.53	25.469
351.89	25.599
352.26	24.560
352.62	25.403
352.98	24.498
353.34	23.027
353.70	24.757
354.07	25.000
354.43	24.339
354.79	25.021
355.15	25.317
355.51	25.237
355.87	25.566
356.24	24.633
356.60	24.091
356.96	24.921
357.32	24.042
357.68	23.925
358.04	24.960
358.40	23.232
358.77	24.641
359.13	24.339
359.49	24.576
359.85	24.415
360.21	25.040
360.57	25.478
360.93	24.433
361.29	22.281
361.66	25.235
362.02	24.318
362.38	24.676
362.74	24.451
363.10	25.959
363.46	24.907
363.82	25.620
364.18	24.502
364.54	25.000
364.90	24.803
365.26	23.217
365.62	25.401
365.98	24.267
366.35	24.982
366.71	25.647
367.07	26.125
367.43	24.587
367.79	25.088
368.15	24.192
368.51	25.419
368.87	25.700
369.23	23.682
369.59	25.219
369.95	24.707
370.31	25.000
370.67	24.925
371.03	24.944
371.39	26.039
371.75	25.495
372.11	26.106
372.47	24.630
372.83	25.692
373.19	25.464
373.55	24.404
373.91	24.910
374.27	25.372
374.63	26.346
374.99	25.461
375.35	25.279
375.71	26.713
376.07	25.562
376.42	25.306
376.78	25.503
377.14	26.269
377.50	25.432
377.86	26.238
378.22	25.846
378.58	25.833
378.94	26.087
379.30	25.452
379.66	26.834
380.02	25.935
380.38	26.172
380.74	26.391
381.09	26.810
381.45	25.443
381.81	25.725
382.17	26.459
382.53	26.546
382.89	26.930
383.25	26.945
383.61	26.951
383.97	26.730
384.32	27.330
384.68	27.121
385.04	25.123
385.40	25.576
385.76	27.736
386.12	27.814
386.48	27.522
386.83	27.013
387.19	26.618
387.55	26.725
387.91	26.161
388.27	26.679
388.62	27.816
388.98	27.010
389.34	26.921
389.70	27.160
390.06	26.432
390.42	27.332
390.77	27.469
391.13	26.986
391.49	27.878
391.85	27.875
392.20	27.244
392.56	26.828
392.92	27.540
393.28	27.653
393.64	27.267
393.99	28.464
394.35	27.641
394.71	28.097
395.07	27.027
395.42	27.930
395.78	28.013
396.14	26.734
396.50	27.901
396.85	27.495
397.21	27.820
397.57	27.524
397.92	27.801
398.28	27.356
398.64	26.566
399.00	28.160
399.35	26.411
399.71	26.939
400.07	27.751
400.42	27.907
400.78	28.230
401.14	27.647
401.49	28.648
401.85	27.849
402.21	28.012
402.57	27.375
402.92	25.847
403.28	28.195
403.63	28.121
403.99	27.105
404.35	28.420
404.70	27.143
405.06	26.792
405.42	28.092
405.77	26.438
406.13	27.357
406.49	27.472
406.84	27.323
407.20	27.574
407.55	27.624
407.91	27.874
408.27	27.470
408.62	27.877
408.98	27.726
409.34	27.076
409.69	26.938
410.05	25.924
410.40	27.407
410.76	27.624
411.11	26.375
411.47	28.534
411.83	25.989
412.18	27.477
412.54	26.280
412.89	26.601
413.25	27.377
413.60	26.957
413.96	26.687
414.31	27.012
414.67	26.620
415.03	28.162
415.38	26.762
415.74	27.362
416.09	27.890
416.45	27.076
416.80	26.702
417.16	26.865
417.51	27.249
417.87	26.336
418.22	27.396
418.58	27.090
418.93	27.273
419.29	25.480
419.64	27.155
420.00	27.330
420.35	26.388
420.71	26.488
421.06	27.072
421.42	26.683
421.77	26.012
422.12	26.788
422.48	26.421
422.83	26.740
423.19	27.652
423.54	26.396
423.90	27.032
424.25	27.268
424.61	26.438
424.96	26.829
425.31	26.863
425.67	26.408
426.02	27.208
426.38	26.550
426.73	27.119
427.09	27.089
427.44	26.412
427.79	26.458
428.15	27.306
428.50	26.529
428.85	25.921
429.21	27.391
429.56	27.170
429.92	25.886
430.27	26.366
430.62	25.823
430.98	26.327
431.33	26.814
431.68	26.269
432.04	26.998
432.39	26.412
432.74	25.195
433.10	27.586
433.45	26.284
433.80	27.684
434.16	26.150
434.51	26.720
434.86	26.713
435.22	26.809
435.57	26.825
435.92	25.988
436.28	25.462
436.63	26.583
436.98	26.246
437.34	26.134
437.69	27.072
438.04	25.698
438.39	26.329
438.75	26.897
439.10	26.146
439.45	26.172
439.81	26.239
440.16	26.900
440.51	27.403
440.86	27.251
441.22	26.414
441.57	27.152
441.92	26.705
442.27	26.718
442.63	27.570
442.98	26.364
443.33	26.656
443.68	26.207
444.03	26.428
444.39	26.119
444.74	27.146
445.09	27.171
445.44	26.838
445.79	26.715
446.15	25.936
446.50	26.733
446.85	27.046
447.20	25.965
447.55	26.283
447.91	26.622
448.26	26.352
448.61	27.231
448.96	26.965
449.31	25.838
449.66	26.016
450.02	26.355
450.37	25.845
450.72	26.632
451.07	26.582
451.42	25.905
451.77	27.185
452.12	26.136
452.47	25.241
452.83	26.443
453.18	25.364
453.53	25.727
453.88	26.169
454.23	26.245
454.58	26.763
454.93	26.418
455.28	24.889
455.63	26.906
455.98	25.977
456.34	26.692
456.69	26.684
457.04	26.843
457.39	26.428
457.74	27.025
458.09	25.015
458.44	25.863
458.79	25.826
459.14	26.316
459.49	26.985
459.84	26.622
460.19	25.971
460.54	26.100
460.89	27.216
461.24	25.528
461.59	25.594
461.94	26.541
462.29	26.779
462.64	26.711
462.99	26.134
463.34	26.426
463.69	25.611
464.04	26.453
464.39	25.288
464.74	26.380
465.09	26.263
465.44	26.255
465.79	25.454
466.14	25.599
466.49	25.704
466.84	26.591
467.19	26.158
467.54	25.351
467.89	25.648
468.24	26.156
468.59	25.905
468.94	25.016
469.29	25.967
469.64	26.179
469.99	26.489
470.34	25.939
470.68	26.846
471.03	26.822
471.38	27.033
471.73	27.031
472.08	25.441
472.43	25.973
472.78	25.360
473.13	25.034
473.48	25.081
473.83	25.592
474.17	26.231
474.52	25.590
474.87	26.061
475.22	25.686
475.57	25.466
475.92	26.385
476.27	26.484
476.61	25.463
476.96	24.707
477.31	25.041
477.66	25.056
478.01	24.930
478.36	24.728
478.70	25.938
479.05	25.330
479.40	25.225
479.75	25.078
480.10	25.346
480.45	24.700
480.79	25.327
481.14	25.717
481.49	24.877
481.84	25.434
482.19	24.977
482.53	25.276
482.88	24.964
483.23	24.520
483.58	25.377
483.92	24.831
484.27	24.339
484.62	24.697
484.97	23.881
485.31	24.277
485.66	23.160
486.01	23.807
486.36	24.286
486.70	24.360
487.05	24.347
487.40	24.586
487.75	24.479
488.09	24.382
488.44	24.381
488.79	24.206
489.13	24.800
489.48	24.925
489.83	23.991
490.17	23.955
490.52	24.296
490.87	23.970
491.22	23.973
491.56	24.573
491.91	23.423
492.26	25.036
492.60	24.712
492.95	25.578
493.30	23.889
493.64	24.509
493.99	24.155
494.34	24.515
494.68	23.524
495.03	23.893
495.37	24.043
495.72	24.079
496.07	24.732
496.41	24.151
496.76	24.275
497.11	23.568
497.45	25.203
497.80	24.622
498.14	25.335
498.49	23.768
498.84	24.152
499.18	24.096
499.53	24.405
499.87	23.346
500.22	23.492
500.56	24.508
500.91	24.347
501.26	23.875
501.60	23.414
501.95	23.872
502.29	24.116
502.64	23.938
502.98	23.976
503.33	22.574
503.67	24.434
504.02	23.705
504.36	23.850
504.71	24.242
505.06	23.704
505.40	23.147
505.75	23.505
506.09	23.872
506.44	24.435
506.78	24.286
507.13	24.302
507.47	23.655
507.82	23.451
508.16	23.508
508.51	23.347
508.85	23.653
509.19	23.789
509.54	24.182
509.88	23.409
510.23	23.400
510.57	23.143
510.92	22.708
511.26	23.513
511.61	24.202
511.95	23.781
512.30	23.115
512.64	24.374
512.98	23.245
513.33	23.951
513.67	23.138
514.02	23.799
514.36	24.343
514.70	24.417
515.05	24.207
515.39	24.439
515.74	24.850
516.08	23.849
516.42	23.734
516.77	23.757
517.11	24.510
517.46	23.339
517.80	23.659
518.14	23.637
518.49	23.918
518.83	23.329
519.17	23.226
519.52	23.564
519.86	23.049
520.20	23.086
520.55	22.827
520.89	24.216
521.23	24.509
521.58	24.038
521.92	24.359
522.26	23.162
522.61	24.026
522.95	23.709
523.29	23.507
523.64	23.888
523.98	24.044
524.32	23.260
524.66	24.328
525.01	23.896
525.35	25.016
525.69	23.098
526.04	23.810
526.38	23.865
526.72	24.068
527.06	23.606
527.41	24.604
527.75	22.654
528.09	22.591
528.43	24.713
528.78	22.838
529.12	23.742
529.46	23.457
529.80	23.053
530.15	23.828
530.49	23.300
530.83	23.735
531.17	23.506
531.51	23.256
531.86	22.502
532.20	22.825
532.54	23.077
532.88	23.751
533.22	22.782
533.57	23.460
533.91	23.499
534.25	23.568
534.59	23.797
534.93	23.033
535.27	23.096
535.62	22.618
535.96	24.397
536.30	23.945
536.64	22.674
536.98	22.857
537.32	24.182
537.66	23.562
538.01	23.566
538.35	23.717
538.69	23.702
539.03	23.035
539.37	23.015
539.71	23.517
540.05	22.064
540.39	24.030
540.73	23.501
541.07	23.619
541.42	22.715
541.76	22.643
542.10	22.505
542.44	23.836
542.78	22.918
543.12	22.253
543.46	23.018
543.80	23.456
544.14	21.829
544.48	22.785
544.82	24.402
545.16	23.361
545.50	23.097
545.84	23.159
546.18	23.759
546.52	23.288
546.86	22.214
547.20	22.675
547.54	22.403
547.88	22.826
548.22	22.748
548.56	22.230
548.90	22.911
549.24	22.658
549.58	21.932
549.92	22.802
550.26	22.637
550.60	23.048
550.94	22.554
551.28	22.179
551.62	23.538
551.96	22.406
552.30	22.368
552.64	22.708
552.98	21.941
553.32	22.254
553.66	22.787
554.00	22.117
554.34	22.157
554.68	21.976
555.02	22.321
555.36	21.990
555.69	21.465
556.03	22.056
556.37	21.993
556.71	23.105
557.05	22.222
557.39	21.933
557.73	22.264
558.07	22.172
558.41	22.358
558.75	22.136
559.08	22.695
559.42	21.825
559.76	21.297
560.10	21.254
560.44	22.115
560.78	22.448
561.12	21.791
561.45	22.488
561.79	22.549
562.13	21.647
562.47	22.374
562.81	21.758
563.15	22.285
563.48	22.984
563.82	23.267
564.16	21.448
564.50	22.432
564.84	22.088
565.17	21.127
565.51	22.473
565.85	21.742
566.19	21.088
566.52	22.319
566.86	21.915
567.20	21.357
567.54	21.533
567.88	21.675
568.21	22.002
568.55	21.033
568.89	21.817
569.23	22.003
569.56	21.497
569.90	22.006
570.24	20.990
570.57	21.418
570.91	21.785
571.25	21.638
571.59	20.959
571.92	21.304
572.26	21.135
572.60	21.116
572.93	21.399
573.27	21.129
573.61	21.360
573.95	20.754
574.28	20.657
574.62	20.849
574.96	20.893
575.29	20.419
575.63	20.601
575.97	20.710
576.30	20.804
576.64	20.901
576.98	20.644
577.31	21.086
577.65	21.055
577.98	20.985
578.32	20.730
578.66	20.159
578.99	20.590
579.33	19.885
579.67	20.641
580.00	20.430
580.34	20.622
580.67	20.351
581.01	20.725
581.35	20.478
581.68	20.350
582.02	20.756
582.35	20.390
582.69	20.491
583.02	20.444
583.36	21.008
583.70	21.158
584.03	21.435
584.37	21.062
584.70	20.962
585.04	20.311
585.37	20.541
585.71	20.415
586.04	20.071
586.38	20.405
586.72	20.086
587.05	21.028
587.39	20.716
587.72	21.022
588.06	20.454
588.39	20.678
588.73	20.055
589.06	20.874
589.40	20.221
589.73	20.993
590.07	21.073
590.40	20.820
590.73	21.623
591.07	20.271
591.40	20.570
591.74	20.452
592.07	20.547
592.41	21.157
592.74	20.510
593.08	20.468
593.41	20.329
593.75	20.183
594.08	20.426
594.41	20.852
594.75	20.420
595.08	20.696
595.42	20.685
595.75	20.466
596.09	20.680
596.42	20.959
596.75	20.648
597.09	20.911
597.42	20.641
597.75	20.568
598.09	20.462
598.42	20.532
598.76	19.691
599.09	20.072
599.42	19.629
599.76	19.977
600.09	20.098
600.42	19.901
600.76	19.279
601.09	19.237
601.42	19.702
601.76	19.770
602.09	19.926
602.42	20.725
602.76	20.416
603.09	20.473
603.42	20.987
603.76	19.718
604.09	19.279
604.42	20.347
604.76	20.160
605.09	20.567
605.42	20.226
605.75	19.702
606.09	20.000
606.42	19.975
606.75	20.303
607.09	19.868
607.42	19.406
607.75	19.538
608.08	19.542
608.42	20.192
608.75	20.482
609.08	20.578
609.41	20.254
609.75	19.909
610.08	20.170
610.41	19.275
610.74	19.698
611.07	20.155
611.41	20.861
611.74	20.309
612.07	19.647
612.40	19.858
612.73	19.831
613.07	20.641
613.40	21.061
613.73	19.586
614.06	20.256
614.39	19.346
614.72	19.272
615.06	19.274
615.39	19.596
615.72	19.483
616.05	19.721
616.38	19.544
616.71	20.306
617.05	19.456
617.38	19.296
617.71	20.000
618.04	20.825
618.37	21.501
618.70	20.066
619.03	20.208
619.36	19.537
619.69	20.925
620.03	21.183
620.36	20.029
620.69	20.057
621.02	20.107
621.35	20.083
621.68	20.493
622.01	20.333
622.34	20.910
622.67	19.716
623.00	19.908
623.33	19.893
623.66	20.419
623.99	20.424
624.32	20.456
624.65	19.699
624.99	20.015
625.32	20.015
625.65	20.346
625.98	20.387
626.31	19.368
626.64	20.797
626.97	21.117
627.30	20.315
627.63	19.757
627.96	19.317
628.29	20.259
628.62	20.846
628.95	20.441
629.28	19.052
629.61	18.843
629.94	21.896
630.26	19.368
630.59	20.708
630.92	20.205
631.25	19.590
631.58	20.154
631.91	18.969
632.24	17.546
632.57	20.682
632.90	17.794
633.23	21.412
633.56	18.262
633.89	19.359
634.22	21.358
634.55	19.695
634.88	19.285
635.20	19.359
635.53	20.000
635.86	18.336
636.19	20.310
636.52	20.918
636.85	19.603
637.18	18.113
637.51	18.994
637.83	20.237
638.16	21.692
638.49	21.253
638.82	21.184
639.15	20.488
639.48	20.633
639.81	19.665
640.13	21.068
640.46	18.950
640.79	17.968
641.12	20.975
641.45	19.369
641.77	20.000
642.10	21.011
642.43	17.685
642.76	20.627
643.09	20.517
643.41	20.388
643.74	20.428
644.07	20.854
644.40	20.777
644.73	19.965
645.05	18.960
645.38	21.340
645.71	19.149
646.04	21.544
646.36	18.972
646.69	20.504
647.02	18.526
647.35	21.082
647.67	18.099
648.00	22.015
648.33	20.478
648.66	20.000
648.98	19.765
649.31	17.025
649.64	20.094
649.96	19.611
650.29	19.421
650.62	19.487
650.94	17.963
651.27	18.063
651.60	19.820
651.92	21.154
652.25	18.828
652.58	19.167
652.90	19.554
653.23	18.319
653.56	20.981
653.88	19.416
654.21	16.988
654.54	17.148
654.86	21.222
655.19	19.883
655.52	20.588
655.84	18.353
656.17	20.072
656.49	27.379
656.82	28.066
657.15	21.522
657.47	15.953
657.80	11.861
658.13	11.724
658.45	18.003
658.78	18.207
659.10	18.238
659.43	17.613
659.75	18.352
660.08	18.414
660.41	19.101
660.73	19.613
661.06	20.104
661.38	18.004
661.71	18.275
662.03	17.811
662.36	20.659
662.68	18.363
663.01	21.397
663.33	17.865
663.66	17.907
663.98	15.349
664.31	19.403
664.63	18.664
664.96	15.870
665.28	16.115
665.61	17.749
665.93	18.478
666.26	19.740
666.58	17.226
666.91	17.412
667.23	20.755
667.56	18.246
667.88	20.624
668.21	17.184
668.53	19.385
668.86	21.462
669.18	16.981
669.50	15.981
669.83	16.512
670.15	18.415
670.48	16.986
670.80	19.355
671.13	16.331
671.45	18.037
671.77	20.601
672.10	21.188
672.42	17.790
672.75	19.183
673.07	19.857
673.39	20.000
673.72	16.371
674.04	18.750
674.37	18.008
674.69	18.201
675.01	18.444
675.34	16.441
675.66	16.898
675.98	21.064
676.31	19.495
676.63	18.290
676.95	18.409
677.28	20.000
677.60	18.554
677.92	19.725
678.25	19.912
678.57	17.316
678.89	18.908
679.22	17.002
679.54	17.068
679.86	16.103
680.18	18.252
680.51	20.455
680.83	16.700
681.15	21.200
681.48	20.492
681.80	19.628
682.12	19.556
682.44	17.155
682.77	19.205
683.09	19.908
683.41	18.409
683.73	15.668
684.06	20.354
684.38	16.989
684.70	17.647
685.02	15.975
685.34	17.984
685.67	17.448
685.99	15.913
686.31	17.699
686.63	18.367
686.96	16.730
687.28	13.535
687.60	17.681
687.92	20.808
688.24	15.524
688.56	16.157
688.89	18.304
689.21	17.556
689.53	15.081
689.85	16.744
690.17	18.527
690.49	17.258
690.82	16.019
691.14	16.429
691.46	19.626
691.78	17.793
692.10	17.849
692.42	16.667
692.74	18.162
693.06	17.793
693.39	14.253
693.71	16.516
694.03	15.935
694.35	15.187
694.67	18.434
694.99	18.538
695.31	16.971
695.63	18.750
695.95	15.909
696.27	16.062
696.59	18.056
696.91	15.966
697.23	16.195
697.56	15.594
697.88	19.570
698.20	17.995
698.52	17.412
698.84	15.550
699.16	15.000
699.48	18.546
699.80	20.099
700.12	15.903
700.44	17.367
700.76	14.826
701.08	16.667
701.40	18.072
701.72	19.444
702.04	14.851
702.36	18.729
702.68	16.517
703.00	16.061
703.32	19.355
703.64	15.254
703.96	18.841
704.28	15.951
704.60	15.873
704.91	13.880
705.23	18.605
705.55	15.194
705.87	17.690
706.19	19.259
706.51	16.495
706.83	19.936
707.15	14.642
707.47	20.168
707.79	16.146
708.11	16.500
708.43	16.750
708.74	16.796
709.06	16.338
709.38	17.737
709.70	20.118
710.02	17.516
710.34	18.576
710.66	11.538
710.98	14.901
711.29	19.344
711.61	19.322
711.93	16.938
712.25	17.869
712.57	16.484
712.89	12.313
713.20	16.955
713.52	16.725
713.84	14.676
714.16	13.402
714.48	18.387
714.80	19.231
715.11	15.805
715.43	11.285
715.75	17.667
716.07	14.286
716.39	17.450
716.70	13.653
717.02	15.649
717.34	15.789
717.66	12.389
717.97	16.522
718.29	13.808
718.61	13.780
718.93	14.341
719.24	17.490
719.56	16.064
719.88	17.182
720.20	10.985
720.51	14.943
720.83	16.216
721.15	19.748
721.46	14.919
721.78	14.229
722.10	12.639
722.42	10.373
722.73	12.245
723.05	22.449
723.37	16.949
723.68	20.270
724.00	11.111
724.32	11.556
724.63	11.364
724.95	14.410
725.27	16.590
725.58	22.881
725.90	13.095
726.22	16.988
726.53	17.288
726.85	16.479
727.16	18.868
727.48	14.575
727.80	16.599
728.11	15.678
728.43	15.686
728.74	11.290
729.06	14.000
729.38	21.053
729.69	15.139
730.01	15.385
730.32	16.418
730.64	15.548
730.96	17.736
731.27	15.333
731.59	15.254
731.90	15.924
732.22	19.243
732.53	14.950
732.85	18.085
733.16	17.172
733.48	14.388
733.80	14.855
734.11	14.915
734.43	15.808
734.74	17.879
735.06	11.075
735.37	17.523
735.69	16.835
736.00	16.725
736.32	14.765
736.63	16.549
736.95	16.382
737.26	13.523
737.58	13.758
737.89	16.484
738.21	12.406
738.52	17.284
738.83	15.721
739.15	11.790
739.46	16.142
739.78	10.989
740.09	16.340
740.41	19.565
740.72	8.268
741.04	17.004
741.35	10.213
741.66	16.114
741.98	14.796
742.29	18.317
742.61	18.848
742.92	9.479
743.23	10.648
743.55	17.195
743.86	15.789
744.18	11.483
744.49	14.894
744.80	4.348
745.12	18.182
745.43	11.220
745.74	13.021
746.06	14.634
746.37	16.230
746.68	22.275
747.00	14.362
747.31	20.398
747.62	9.223
747.94	17.703
748.25	15.842
748.56	10.929
748.88	8.901
749.19	14.362
749.50	15.271
749.82	5.189
750.13	11.927
750.44	16.165
750.75	19.403
751.07	14.964
751.38	16.092
751.69	7.843
752.01	16.279
752.32	16.733
752.63	16.601
752.94	8.190
753.26	17.992
753.57	15.837
753.88	13.717
754.19	12.083
754.51	14.463
754.82	14.575
755.13	21.667
755.44	15.323
755.75	15.234
756.07	17.510
756.38	13.585
756.69	13.027
757.00	18.667
757.31	14.052
757.63	13.110
757.94	14.444
758.25	16.986
758.56	12.500
758.87	12.465
759.18	12.461
759.50	11.636
759.81	17.726
760.12	16.774
760.43	15.455
760.74	13.889
761.05	14.154
761.36	16.477
761.67	15.152
761.99	19.728
762.30	11.636
762.61	15.415
762.92	18.100
763.23	12.613
763.54	6.075
763.85	13.559
764.16	14.523
764.47	12.097
764.78	14.652
765.10	23.232
765.41	14.511
765.72	16.190
766.03	10.902
766.34	15.693
766.65	19.124
766.96	17.677
767.27	14.894
767.58	7.471
767.89	0.000
768.20	5.114
768.51	13.187
768.82	11.823
769.13	7.834
769.44	12.017
769.75	10.046
770.06	10.776
770.37	11.538
770.68	11.168
770.99	14.480
771.30	10.784
771.61	13.575
771.92	21.121
772.23	13.300
772.54	15.054
772.85	17.284
773.16	15.169
773.47	19.608
773.78	15.033
774.09	15.569
774.39	8.667
774.70	12.102
775.01	21.379
775.32	12.857
775.63	2.479
775.94	14.504
776.25	22.047
776.56	5.000
776.87	6.731
777.18	12.821
777.48	6.034
777.79	-2.609
778.10	9.524
778.41	12.613
778.72	14.286
779.03	9.023
779.34	6.383
779.65	11.644
779.95	8.904
780.26	11.724
780.57	4.065
780.88	11.024
781.19	12.931
781.50	6.977
781.80	22.485
782.11	3.774
782.42	8.462
782.73	12.950
783.04	10.370
783.34	11.111
783.65	1.709
783.96	9.016
784.27	23.448
784.57	13.821
784.88	17.188
785.19	8.000
785.50	13.000
785.81	11.207
786.11	11.207
786.42	7.767
786.73	17.273
787.04	4.082
787.34	9.821
787.65	8.571
787.96	7.080
788.26	9.091
788.57	11.111
788.88	17.969
789.19	7.143
789.49	11.304
789.80	14.286
790.11	8.081
790.41	13.636
790.72	6.522
791.03	11.364
791.33	20.000
791.64	-3.750
791.95	16.279
792.25	11.702
792.56	7.865
792.87	-4.110
793.17	-8.696
793.48	-8.000
793.79	11.250
794.09	13.750
794.40	5.660
794.70	5.825
795.01	8.130
795.32	6.838
795.62	3.810
795.93	6.863
796.23	8.491
796.54	7.292
796.85	-1.471
797.15	15.493
797.46	8.333
797.76	15.152
798.07	0.000
798.37	-3.947
798.68	7.576
798.99	1.235
799.29	11.429
799.60	0.000
799.90	22.667
800.21	14.754
800.51	-3.077
800.82	1.695
801.12	15.942
801.43	13.115
801.73	3.175
802.04	0.000
802.34	-1.493
802.65	7.692
802.95	7.143
803.26	13.462
803.56	1.961
803.87	-15.217
804.17	20.000
804.48	17.460
804.78	0.000
805.09	-8.696
805.39	-11.111
805.70	16.667
806.00	5.263
806.30	2.817
806.61	1.429
806.91	-2.778
807.22	18.421
807.52	1.333
807.83	-9.091
808.13	9.722
808.43	20.588
808.74	8.955
809.04	1.695
809.35	-11.538
809.65	0.000
809.95	-32.432
810.26	2.273
810.56	2.740
810.86	7.143
811.17	-6.000
811.47	8.163
811.77	-23.684
812.08	-6.818
812.38	5.660
812.69	0.000
812.99	6.061
813.29	-18.421
813.59	-28.571
813.90	-9.091
814.20	-38.462
814.50	26.923
814.81	-7.547
815.11	-12.766
815.41	22.034
815.72	14.286
816.02	31.373
816.32	10.417
816.62	4.878
816.93	5.405
817.23	2.857
817.53	18.750
817.84	-6.522
818.14	15.385
818.44	-2.632
818.74	28.261
819.04	-12.500
819.35	5.405
819.65	-23.529
819.95	8.333
820.25	-7.143
820.56	2.500
820.86	-48.276
821.16	15.000
821.46	12.766
821.76	10.000
822.07	9.302
822.37	-10.811
822.67	-21.875
822.97	11.905
823.27	3.571
823.57	4.000
823.88	-25.926
824.18	-3.571
824.48	8.824
824.78	-12.903
825.08	-30.435
825.38	0.000
825.69	-16.667
825.99	7.895
826.29	8.333
826.59	-73.333
826.89	-57.143
827.19	15.217
827.49	-17.500
827.79	25.714
828.09	-3.571
828.39	18.182
828.70	16.216
829.00	-17.857
829.30	19.048
829.60	-20.000
829.90	12.500
830.20	-5.263
830.50	-33.333
830.80	-4.348
831.10	13.636
831.40	36.364
831.70	32.258
832.00	-42.857
832.30	-38.095
832.60	-116.667
832.90	-34.483
833.20	-30.000
833.50	12.121
833.80	22.222
834.10	-11.538
834.40	3.125
834.70	-44.444
835.00	-31.579
835.30	57.692
835.60	-6.667
835.90	6.452
836.20	-13.636
836.50	35.714
836.80	-19.231
837.10	-3.571
837.40	-33.333
837.70	18.182
838.00	-118.182
838.30	-4.348
838.60	-30.769
838.90	-40.909
839.19	-3.571
839.49	0.000
839.79	-30.769
840.09	-150.000
840.39	21.429
840.69	-32.143
840.99	-23.077
841.29	-68.421
841.59	-220.000
841.88	45.455
842.18	-100.000
842.48	-12.500
842.78	-106.667
843.08	7.407
843.38	-130.000
843.68	-8.696
843.97	6.667
844.27	-93.333
844.57	-5.000
844.87	-27.778
845.17	14.286
845.47	-66.667
845.76	-23.810
846.06	23.529
846.36	-100.000
846.66	64.286
846.96	53.333
847.25	-87.500
847.55	14.286
847.85	-25.000
848.15	-13.636
848.44	-400.000
848.74	0.000
849.04	62.963
849.34	-54.545
849.63	-216.667
849.93	-300.000
850.23	-22.222
850.53	0.000
850.82	-46.154
851.12	-22.222
851.42	26.667
851.71	-7.692
852.01	42.857
852.31	-300.000
852.61	-90.909
852.90	-30.000
853.20	15.789
853.50	0.000
853.79	0.000
854.09	50.000
854.39	-5.263
854.68	-29.167
854.98	3.226
855.28	11.538
855.57	-15.000
855.87	16.667
856.17	22.222
856.46	-35.714
856.76	-60.000
857.05	-11.111
857.35	-16.000
857.65	11.111
857.94	-23.077
858.24	41.379
858.53	-22.222
858.83	18.519
859.13	-18.182
859.42	21.739
859.72	-25.000
860.01	-66.667
860.31	36.000
860.60	9.524
860.90	-266.667
861.20	-13.333
861.49	-450.000
861.79	13.333
862.08	-10.000
862.38	40.000
862.67	-260.000
862.97	-150.000
863.26	8.333
863.56	-5.556
863.85	-266.667
864.15	22.222
864.44	-50.000
864.74	28.571
865.03	250.000
865.33	-200.000
865.62	-216.667
865.92	-83.333
866.21	-166.667
866.51	-12.500
866.80	-72.727
867.10	-300.000
867.39	8.333
867.69	0.000
867.98	0.000
868.27	-366.667
868.57	-60.000
868.86	33.333
869.16	-92.308
869.45	0.000
869.75	-600.000
870.04	0.000
870.33	-314.286
870.63	33.333
870.92	700.000
871.22	-260.000
871.51	-1100.000
871.80	55.556
872.10	633.333
>>>>>End Processed Spectral Data<<<<<
