SpectraSuite Data File
++++++++++++++++++++++++++++++++++++
Date: Fri May 15 20:34:16 PDT 2015
User: schluterlab
Dark Spectrum Present: Yes
Reference Spectrum Present: Yes
Number of Sampled Component Spectra: 1
Spectrometers: USB2E3373
Integration Time (usec): 3000 (USB2E3373)
Spectra Averaged: 3 (USB2E3373)
Boxcar Smoothing: 0 (USB2E3373)
Correct for Electrical Dark: No (USB2E3373)
Strobe/Lamp Enabled: No (USB2E3373)
Correct for Detector Non-linearity: No (USB2E3373)
Correct for Stray Light: No (USB2E3373)
Number of Pixels in Processed Spectrum: 2048
>>>>>Begin Processed Spectral Data<<<<<
178.53	0.000
178.91	0.000
179.29	25.000
179.67	-650.000
180.04	42.857
180.42	-150.000
180.80	-900.000
181.18	-66.667
181.56	550.000
181.94	-450.000
182.31	1700.000
182.69	20.000
183.07	-366.667
183.45	-220.000
183.83	316.667
184.20	-45.455
184.58	177.778
184.96	225.000
185.34	133.333
185.72	-50.000
186.09	169.231
186.47	-1800.000
186.85	133.333
187.23	200.000
187.61	-0.000
187.98	-466.667
188.36	-88.889
188.74	-233.333
189.12	-17.647
189.49	5.556
189.87	0.000
190.25	28.571
190.63	-150.000
191.00	-333.333
191.38	31.579
191.76	100.000
192.14	275.000
192.51	-200.000
192.89	-33.333
193.27	-128.571
193.65	150.000
194.02	200.000
194.40	80.000
194.78	-175.000
195.15	-116.667
195.53	-137.500
195.91	225.000
196.29	-25.000
196.66	176.923
197.04	142.857
197.42	-100.000
197.79	-766.667
198.17	-146.154
198.55	1600.000
198.92	-233.333
199.30	-700.000
199.68	-60.000
200.05	-166.667
200.43	0.000
200.81	0.000
201.18	-366.667
201.56	700.000
201.94	-650.000
202.31	200.000
202.69	-260.000
203.07	450.000
203.44	-500.000
203.82	0.000
204.19	57.143
204.57	-366.667
204.95	137.500
205.32	-100.000
205.70	-100.000
206.08	-75.000
206.45	122.222
206.83	71.429
207.20	-28.571
207.58	1000.000
207.96	-266.667
208.33	-40.000
208.71	-125.000
209.08	-250.000
209.46	-800.000
209.84	-20.000
210.21	-1400.000
210.59	0.000
210.96	-50.000
211.34	-200.000
211.71	-6.667
212.09	28.571
212.46	-600.000
212.84	0.000
213.22	60.000
213.59	300.000
213.97	69.231
214.34	18.182
214.72	-83.333
215.09	375.000
215.47	-100.000
215.84	-81.818
216.22	33.333
216.59	-50.000
216.97	-50.000
217.34	-200.000
217.72	-120.000
218.09	-50.000
218.47	212.500
218.84	-1700.000
219.22	-11.111
219.59	-80.000
219.97	466.667
220.34	200.000
220.72	28.571
221.09	-175.000
221.47	-450.000
221.84	-750.000
222.22	-750.000
222.59	-63.636
222.97	41.667
223.34	-300.000
223.72	-21.429
224.09	42.857
224.46	21.429
224.84	700.000
225.21	30.000
225.59	13.333
225.96	-500.000
226.34	475.000
226.71	-142.857
227.08	-83.333
227.46	12.500
227.83	-400.000
228.21	100.000
228.58	-18.182
228.95	-25.000
229.33	110.000
229.70	-37.500
230.08	-87.500
230.45	-185.714
230.82	28.571
231.20	-80.000
231.57	-21.429
231.95	57.143
232.32	-140.000
232.69	-64.286
233.07	-100.000
233.44	-180.000
233.81	-170.000
234.19	-44.444
234.56	35.294
234.93	150.000
235.31	-225.000
235.68	-420.000
236.05	-107.692
236.43	-30.000
236.80	0.000
237.17	-3.125
237.55	-40.000
237.92	7.407
238.29	-8.333
238.67	6.667
239.04	-41.176
239.41	-31.707
239.79	-43.333
240.16	17.073
240.53	-31.579
240.91	-15.217
241.28	1.587
241.65	-10.714
242.02	12.329
242.40	11.667
242.77	-15.254
243.14	-12.121
243.51	0.000
243.89	2.299
244.26	4.598
244.63	-1.190
245.00	-2.062
245.38	8.247
245.75	-1.124
246.12	-5.172
246.49	1.653
246.87	-9.615
247.24	4.202
247.61	-0.877
247.98	2.439
248.36	4.375
248.73	6.579
249.10	0.000
249.47	6.962
249.84	8.497
250.22	7.647
250.59	2.614
250.96	4.225
251.33	2.326
251.70	7.059
252.08	6.091
252.45	0.990
252.82	9.045
253.19	3.226
253.56	4.206
253.94	1.351
254.31	10.435
254.68	12.281
255.05	2.756
255.42	1.747
255.79	5.792
256.16	1.167
256.54	7.090
256.91	3.422
257.28	4.461
257.65	2.622
258.02	1.773
258.39	5.387
258.76	7.326
259.14	7.641
259.51	9.385
259.88	4.811
260.25	6.536
260.62	7.639
260.99	3.729
261.36	1.027
261.73	2.215
262.10	5.775
262.47	4.908
262.85	1.254
263.22	3.692
263.59	4.673
263.96	7.453
264.33	3.939
264.70	3.869
265.07	3.869
265.44	5.099
265.81	7.345
266.18	5.191
266.55	5.656
266.92	5.959
267.29	6.005
267.66	5.115
268.03	3.927
268.40	3.655
268.77	9.091
269.14	5.995
269.51	6.941
269.88	5.736
270.25	4.592
270.62	1.951
270.99	1.023
271.36	3.912
271.73	5.634
272.10	5.109
272.47	7.092
272.84	4.703
273.21	4.640
273.58	7.229
273.95	6.178
274.32	3.233
274.69	3.846
275.06	9.375
275.43	5.215
275.80	6.623
276.17	4.138
276.54	5.782
276.91	7.237
277.28	5.895
277.65	7.438
278.02	6.170
278.39	6.346
278.76	5.451
279.13	3.527
279.50	4.832
279.87	4.104
280.23	1.505
280.60	7.602
280.97	4.242
281.34	3.077
281.71	6.160
282.08	6.135
282.45	5.284
282.82	4.826
283.19	5.416
283.56	5.395
283.92	5.123
284.29	5.000
284.66	3.101
285.03	3.929
285.40	5.104
285.77	6.327
286.14	3.971
286.51	6.642
286.87	5.119
287.24	5.341
287.61	3.704
287.98	6.491
288.35	5.719
288.72	4.203
289.08	3.993
289.45	4.921
289.82	6.643
290.19	3.754
290.56	4.288
290.93	5.892
291.29	5.393
291.66	6.299
292.03	5.582
292.40	6.129
292.77	3.509
293.13	2.110
293.50	3.794
293.87	3.664
294.24	6.955
294.60	5.067
294.97	5.060
295.34	5.368
295.71	4.620
296.08	3.438
296.44	3.129
296.81	6.389
297.18	4.783
297.55	5.691
297.91	5.068
298.28	5.673
298.65	5.020
299.02	4.313
299.38	3.830
299.75	3.172
300.12	3.796
300.48	2.108
300.85	6.210
301.22	4.026
301.59	3.947
301.95	4.937
302.32	5.577
302.69	4.104
303.05	4.455
303.42	4.608
303.79	4.556
304.15	4.062
304.52	3.448
304.89	3.509
305.25	4.237
305.62	3.384
305.99	2.807
306.35	3.699
306.72	3.937
307.09	3.991
307.45	5.166
307.82	4.051
308.19	5.226
308.55	3.162
308.92	4.902
309.29	4.022
309.65	3.875
310.02	4.180
310.38	5.269
310.75	4.918
311.12	4.844
311.48	3.818
311.85	3.770
312.22	3.797
312.58	3.822
312.95	3.308
313.31	3.623
313.68	3.037
314.05	4.082
314.41	5.773
314.78	4.124
315.14	5.036
315.51	4.969
315.87	5.123
316.24	7.280
316.61	6.594
316.97	6.250
317.34	4.883
317.70	6.023
318.07	6.058
318.43	6.863
318.80	7.292
319.16	7.227
319.53	7.882
319.89	7.480
320.26	7.692
320.62	9.127
320.99	7.307
321.35	8.119
321.72	9.450
322.08	9.567
322.45	10.761
322.81	11.690
323.18	10.893
323.54	11.390
323.91	11.392
324.27	12.891
324.64	13.390
325.00	13.504
325.37	14.417
325.73	13.962
326.10	15.077
326.46	15.964
326.83	15.573
327.19	15.955
327.56	17.029
327.92	17.254
328.29	18.125
328.65	18.774
329.01	19.118
329.38	19.631
329.74	19.924
330.11	19.926
330.47	19.481
330.84	20.481
331.20	21.863
331.56	21.111
331.93	21.826
332.29	23.006
332.66	21.448
333.02	22.119
333.38	21.815
333.75	23.901
334.11	22.023
334.48	23.663
334.84	22.253
335.20	23.056
335.57	23.572
335.93	23.306
336.29	24.770
336.66	23.615
337.02	23.885
337.38	23.241
337.75	24.000
338.11	24.346
338.47	25.730
338.84	25.878
339.20	23.035
339.56	24.862
339.93	26.500
340.29	25.872
340.65	25.179
341.02	27.039
341.38	25.221
341.74	23.410
342.11	24.263
342.47	25.000
342.83	24.913
343.20	24.477
343.56	25.217
343.92	25.509
344.28	26.388
344.65	25.043
345.01	24.373
345.37	25.147
345.73	25.272
346.10	25.971
346.46	24.306
346.82	23.977
347.19	24.771
347.55	26.149
347.91	25.890
348.27	24.818
348.63	24.361
349.00	24.692
349.36	24.938
349.72	25.041
350.08	25.246
350.45	25.698
350.81	24.336
351.17	24.349
351.53	25.796
351.89	25.516
352.26	24.320
352.62	24.839
352.98	24.016
353.34	23.752
353.70	26.133
354.07	26.129
354.43	24.500
354.79	24.030
355.15	25.238
355.51	25.158
355.87	25.081
356.24	24.144
356.60	24.737
356.96	25.476
357.32	24.201
357.68	24.941
358.04	24.717
358.40	23.633
358.77	23.604
359.13	23.939
359.49	24.807
359.85	25.429
360.21	24.721
360.57	24.178
360.93	24.584
361.29	24.471
361.66	24.138
362.02	24.091
362.38	25.666
362.74	24.073
363.10	25.357
363.46	24.463
363.82	25.545
364.18	24.871
364.54	23.676
364.90	24.158
365.26	24.891
365.62	25.328
365.98	25.293
366.35	24.399
366.71	26.681
367.07	26.415
367.43	24.515
367.79	24.664
368.15	25.485
368.51	25.564
368.87	23.905
369.23	24.404
369.59	24.563
369.95	24.927
370.31	25.506
370.67	25.373
371.03	25.616
371.39	24.726
371.75	25.641
372.11	25.036
372.47	25.592
372.83	25.763
373.19	24.893
373.55	24.043
373.91	24.406
374.27	24.380
374.63	25.772
374.99	24.894
375.35	24.791
375.71	25.035
376.07	24.087
376.42	24.898
376.78	25.839
377.14	24.374
377.50	25.232
377.86	25.100
378.22	25.144
378.58	24.679
378.94	24.071
379.30	25.203
379.66	26.270
380.02	25.199
380.38	24.407
380.74	25.673
381.09	26.258
381.45	25.382
381.81	25.046
382.17	25.761
382.53	24.922
382.89	24.922
383.25	25.078
383.61	25.732
383.97	24.381
384.32	24.140
384.68	25.944
385.04	23.591
385.40	24.144
385.76	24.528
386.12	25.485
386.48	24.904
386.83	24.921
387.19	25.336
387.55	25.157
387.91	24.511
388.27	24.725
388.62	24.733
388.98	24.248
389.34	25.297
389.70	25.171
390.06	25.488
390.42	25.065
390.77	25.245
391.13	23.707
391.49	23.674
391.85	24.496
392.20	24.984
392.56	24.984
392.92	24.839
393.28	24.882
393.64	23.904
393.99	25.705
394.35	24.731
394.71	25.351
395.07	24.450
395.42	23.922
395.78	24.430
396.14	24.968
396.50	25.428
396.85	24.855
397.21	25.063
397.57	24.263
397.92	24.146
398.28	24.713
398.64	24.217
399.00	24.605
399.35	24.097
399.71	23.952
400.07	25.151
400.42	24.051
400.78	24.434
401.14	24.440
401.49	24.122
401.85	23.949
402.21	24.096
402.57	23.625
402.92	24.341
403.28	23.810
403.63	23.518
403.99	23.916
404.35	24.235
404.70	24.048
405.06	24.031
405.42	23.617
405.77	23.010
406.13	23.632
406.49	23.446
406.84	24.083
407.20	24.202
407.55	23.310
407.91	23.061
408.27	23.072
408.62	24.062
408.98	22.859
409.34	22.986
409.69	22.868
410.05	23.091
410.40	23.148
410.76	24.548
411.11	23.563
411.47	23.537
411.83	22.473
412.18	22.780
412.54	22.597
412.89	22.167
413.25	22.984
413.60	22.733
413.96	22.393
414.31	22.683
414.67	22.835
415.03	23.369
415.38	22.846
415.74	23.062
416.09	22.404
416.45	22.957
416.80	23.067
417.16	23.964
417.51	22.585
417.87	22.751
418.22	23.251
418.58	23.545
418.93	22.696
419.29	22.535
419.64	23.396
420.00	23.111
420.35	22.627
420.71	22.783
421.06	23.143
421.42	22.957
421.77	22.832
422.12	22.304
422.48	22.469
422.83	22.796
423.19	22.573
423.54	22.340
423.90	21.908
424.25	22.560
424.61	23.501
424.96	23.055
425.31	23.339
425.67	22.887
426.02	23.322
426.38	23.231
426.73	23.305
427.09	23.671
427.44	22.235
427.79	22.157
428.15	23.301
428.50	22.835
428.85	22.052
429.21	22.637
429.56	22.534
429.92	23.010
430.27	22.456
430.62	21.589
430.98	22.505
431.33	22.082
431.68	22.135
432.04	22.191
432.39	22.476
432.74	22.489
433.10	23.161
433.45	22.282
433.80	22.171
434.16	22.493
434.51	22.634
434.86	22.300
435.22	22.658
435.57	22.707
435.92	22.754
436.28	22.421
436.63	23.503
436.98	22.306
437.34	22.202
437.69	23.792
438.04	22.450
438.39	22.786
438.75	23.679
439.10	23.430
439.45	23.494
439.81	22.508
440.16	23.278
440.51	23.343
440.86	24.471
441.22	22.907
441.57	23.179
441.92	23.767
442.27	23.337
442.63	24.304
442.98	23.894
443.33	22.816
443.68	23.289
444.03	23.547
444.39	24.004
444.74	24.192
445.09	23.998
445.44	24.387
445.79	24.910
446.15	23.733
446.50	23.738
446.85	24.176
447.20	23.775
447.55	24.944
447.91	24.083
448.26	25.100
448.61	23.777
448.96	24.785
449.31	24.162
449.66	24.158
450.02	24.472
450.37	24.363
450.72	24.112
451.07	25.000
451.42	24.906
451.77	24.533
452.12	24.522
452.47	24.404
452.83	23.675
453.18	24.099
453.53	24.463
453.88	24.772
454.23	23.663
454.58	24.937
454.93	24.420
455.28	22.984
455.63	24.737
455.98	25.015
456.34	23.946
456.69	25.032
457.04	24.890
457.39	23.937
457.74	23.519
458.09	23.190
458.44	23.815
458.79	23.473
459.14	24.542
459.49	24.358
459.84	23.801
460.19	23.786
460.54	24.572
460.89	23.693
461.24	24.037
461.59	24.228
461.94	24.025
462.29	24.668
462.64	24.784
462.99	24.983
463.34	23.713
463.69	24.517
464.04	23.547
464.39	23.772
464.74	22.883
465.09	24.205
465.44	23.716
465.79	23.299
466.14	23.660
466.49	23.059
466.84	23.736
467.19	23.154
467.54	23.819
467.89	23.500
468.24	24.209
468.59	24.127
468.94	24.381
469.29	24.656
469.64	23.718
469.99	24.527
470.34	22.457
470.68	24.609
471.03	23.850
471.38	23.110
471.73	23.599
472.08	23.541
472.43	24.295
472.78	23.029
473.13	24.014
473.48	23.844
473.83	22.354
474.17	23.251
474.52	24.059
474.87	24.364
475.22	23.185
475.57	23.207
475.92	22.545
476.27	23.399
476.61	24.074
476.96	23.257
477.31	23.634
477.66	22.303
478.01	23.077
478.36	23.148
478.70	23.545
479.05	23.407
479.40	23.953
479.75	22.628
480.10	23.758
480.45	22.750
480.79	22.961
481.14	22.746
481.49	22.118
481.84	22.973
482.19	22.778
482.53	22.590
482.88	22.721
483.23	22.601
483.58	22.689
483.92	22.023
484.27	21.696
484.62	22.367
484.97	22.264
485.31	21.965
485.66	20.634
486.01	20.762
486.36	20.414
486.70	20.865
487.05	21.287
487.40	21.846
487.75	21.549
488.09	21.632
488.44	21.527
488.79	21.890
489.13	21.715
489.48	22.274
489.83	21.928
490.17	21.483
490.52	21.386
490.87	21.425
491.22	21.347
491.56	21.442
491.91	21.893
492.26	21.633
492.60	21.545
492.95	21.987
493.30	21.788
493.64	22.102
493.99	22.126
494.34	20.437
494.68	21.524
495.03	21.265
495.37	21.688
495.72	21.353
496.07	20.927
496.41	20.991
496.76	20.636
497.11	20.633
497.45	21.909
497.80	21.746
498.14	20.864
498.49	21.026
498.84	21.307
499.18	20.984
499.53	21.528
499.87	20.720
500.22	21.464
500.56	20.575
500.91	20.783
501.26	20.514
501.60	20.069
501.95	20.864
502.29	20.484
502.64	20.512
502.98	19.536
503.33	19.693
503.67	20.819
504.02	20.479
504.36	20.287
504.71	20.253
505.06	20.282
505.40	20.863
505.75	20.722
506.09	19.615
506.44	21.150
506.78	20.816
507.13	20.476
507.47	20.000
507.82	19.818
508.16	20.866
508.51	20.199
508.85	20.042
509.19	19.638
509.54	19.786
509.88	19.741
510.23	20.118
510.57	20.524
510.92	19.136
511.26	19.585
511.61	19.527
511.95	20.110
512.30	19.623
512.64	19.922
512.98	19.090
513.33	19.978
513.67	18.988
514.02	20.137
514.36	19.657
514.70	20.396
515.05	20.035
515.39	19.362
515.74	20.778
516.08	20.562
516.42	20.318
516.77	19.719
517.11	20.059
517.46	19.808
517.80	19.726
518.14	19.902
518.49	18.990
518.83	19.137
519.17	18.557
519.52	18.591
519.86	18.908
520.20	19.806
520.55	17.886
520.89	19.762
521.23	20.076
521.58	19.811
521.92	19.359
522.26	18.738
522.61	19.675
522.95	20.265
523.29	19.632
523.64	20.013
523.98	19.831
524.32	18.750
524.66	18.630
525.01	19.675
525.35	20.091
525.69	18.653
526.04	19.180
526.38	19.780
526.72	18.378
527.06	18.158
527.41	19.987
527.75	18.097
528.09	18.007
528.43	17.961
528.78	19.208
529.12	19.097
529.46	18.259
529.80	18.556
530.15	18.416
530.49	18.653
530.83	18.605
531.17	17.999
531.51	19.015
531.86	17.607
532.20	17.745
532.54	17.631
532.88	18.960
533.22	18.414
533.57	18.087
533.91	18.473
534.25	19.076
534.59	18.089
534.93	17.747
535.27	17.069
535.62	17.498
535.96	18.200
536.30	18.734
536.64	18.815
536.98	17.909
537.32	18.065
537.66	18.303
538.01	17.972
538.35	17.545
538.69	17.776
539.03	15.721
539.37	17.699
539.71	16.973
540.05	17.447
540.39	18.075
540.73	17.085
541.07	17.265
541.42	17.944
541.76	17.963
542.10	17.068
542.44	16.400
542.78	15.898
543.12	16.690
543.46	17.385
543.80	17.488
544.14	16.555
544.48	18.055
544.82	17.157
545.16	16.872
545.50	17.957
545.84	17.493
546.18	18.014
546.52	17.952
546.86	17.182
547.20	16.953
547.54	16.042
547.88	17.052
548.22	16.042
548.56	17.612
548.90	17.722
549.24	16.460
549.58	15.797
549.92	16.655
550.26	17.289
550.60	15.762
550.94	16.953
551.28	16.847
551.62	16.308
551.96	15.865
552.30	16.374
552.64	15.162
552.98	15.752
553.32	16.049
553.66	15.893
554.00	15.547
554.34	16.174
554.68	15.708
555.02	16.592
555.36	15.782
555.69	15.604
556.03	14.704
556.37	15.160
556.71	16.751
557.05	14.765
557.39	15.316
557.73	15.892
558.07	16.440
558.41	15.850
558.75	15.588
559.08	15.839
559.42	15.794
559.76	15.693
560.10	15.061
560.44	15.637
560.78	15.874
561.12	16.008
561.45	15.601
561.79	15.686
562.13	15.543
562.47	14.460
562.81	15.346
563.15	16.008
563.48	15.417
563.82	15.717
564.16	14.972
564.50	15.473
564.84	15.127
565.17	15.761
565.51	15.505
565.85	15.432
566.19	14.987
566.52	15.483
566.86	15.231
567.20	15.255
567.54	14.173
567.88	14.880
568.21	15.385
568.55	14.022
568.89	14.476
569.23	14.829
569.56	13.573
569.90	14.048
570.24	13.919
570.57	13.491
570.91	14.116
571.25	13.647
571.59	13.360
571.92	12.919
572.26	13.074
572.60	13.085
572.93	13.210
573.27	12.978
573.61	12.828
573.95	12.916
574.28	12.606
574.62	12.230
574.96	12.890
575.29	12.771
575.63	12.205
575.97	12.551
576.30	12.539
576.64	12.583
576.98	12.973
577.31	12.681
577.65	12.867
577.98	12.743
578.32	12.492
578.66	12.530
578.99	12.471
579.33	12.740
579.67	12.642
580.00	12.962
580.34	12.164
580.67	12.413
581.01	12.656
581.35	12.468
581.68	12.183
582.02	12.094
582.35	12.182
582.69	12.388
583.02	12.091
583.36	12.751
583.70	12.747
584.03	12.788
584.37	12.846
584.70	12.775
585.04	12.332
585.37	12.187
585.71	12.244
586.04	12.103
586.38	11.790
586.72	12.740
587.05	12.536
587.39	12.385
587.72	12.603
588.06	12.759
588.39	12.931
588.73	12.149
589.06	12.753
589.40	12.824
589.73	13.326
590.07	12.915
590.40	12.771
590.73	12.727
591.07	12.553
591.40	12.956
591.74	12.805
592.07	13.080
592.41	13.163
592.74	12.585
593.08	12.260
593.41	11.862
593.75	12.071
594.08	11.843
594.41	12.191
594.75	12.176
595.08	12.372
595.42	12.477
595.75	12.092
596.09	12.080
596.42	12.650
596.75	13.277
597.09	12.437
597.42	12.918
597.75	12.231
598.09	12.856
598.42	12.229
598.76	11.969
599.09	12.099
599.42	12.164
599.76	12.453
600.09	12.104
600.42	11.865
600.76	11.478
601.09	12.061
601.42	11.868
601.76	12.346
602.09	11.881
602.42	12.468
602.76	11.842
603.09	12.334
603.42	12.375
603.76	11.411
604.09	11.179
604.42	12.775
604.76	12.951
605.09	12.751
605.42	12.190
605.75	12.347
606.09	11.720
606.42	12.135
606.75	11.861
607.09	12.308
607.42	11.830
607.75	11.279
608.08	11.905
608.42	11.969
608.75	12.386
609.08	12.207
609.41	12.893
609.75	12.399
610.08	12.581
610.41	12.802
610.74	12.384
611.07	12.145
611.41	12.714
611.74	12.953
612.07	12.313
612.40	11.980
612.73	12.316
613.07	11.811
613.40	13.512
613.73	11.640
614.06	12.799
614.39	12.465
614.72	11.877
615.06	12.458
615.39	11.900
615.72	12.110
616.05	12.011
616.38	11.852
616.71	11.804
617.05	12.909
617.38	12.256
617.71	12.327
618.04	12.254
618.37	12.736
618.70	12.409
619.03	13.958
619.36	12.808
619.69	13.268
620.03	13.221
620.36	12.732
620.69	13.348
621.02	13.379
621.35	13.527
621.68	13.435
622.01	13.083
622.34	12.690
622.67	13.407
623.00	12.787
623.33	13.262
623.66	12.790
623.99	12.330
624.32	13.460
624.65	12.932
624.99	12.566
625.32	11.827
625.65	13.276
625.98	14.102
626.31	12.552
626.64	14.125
626.97	14.136
627.30	13.485
627.63	14.471
627.96	13.208
628.29	14.524
628.62	13.471
628.95	13.928
629.28	13.508
629.61	13.260
629.94	13.490
630.26	13.439
630.59	13.736
630.92	13.128
631.25	13.128
631.58	13.436
631.91	12.500
632.24	13.876
632.57	13.409
632.90	13.405
633.23	14.588
633.56	12.846
633.89	13.194
634.22	15.062
634.55	13.596
634.88	12.899
635.20	12.564
635.53	13.467
635.86	13.264
636.19	14.618
636.52	12.500
636.85	12.655
637.18	12.830
637.51	13.333
637.83	14.060
638.16	15.689
638.49	12.534
638.82	16.184
639.15	14.383
639.48	13.343
639.81	15.063
640.13	14.286
640.46	12.828
640.79	14.286
641.12	12.703
641.45	13.363
641.77	16.148
642.10	14.692
642.43	13.826
642.76	15.347
643.09	15.024
643.41	14.563
643.74	13.509
644.07	14.122
644.40	15.709
644.73	14.711
645.05	14.933
645.38	14.462
645.71	12.411
646.04	15.081
646.36	14.894
646.69	15.468
647.02	15.501
647.35	13.060
647.67	14.077
648.00	15.485
648.33	15.358
648.66	12.203
648.98	12.060
649.31	12.397
649.64	13.972
649.96	12.642
650.29	14.310
650.62	14.017
650.94	13.333
651.27	11.918
651.60	14.054
651.92	14.336
652.25	11.190
652.58	14.167
652.90	14.751
653.23	14.118
653.56	12.690
653.88	13.402
654.21	12.434
654.54	11.545
654.86	15.280
655.19	12.719
655.52	11.455
655.84	9.500
656.17	10.074
656.49	13.830
656.82	14.676
657.15	11.681
657.47	9.003
657.80	6.851
658.13	6.760
658.45	10.543
658.78	11.124
659.10	10.887
659.43	11.248
659.75	11.939
660.08	11.793
660.41	12.564
660.73	12.017
661.06	14.558
661.38	12.524
661.71	10.472
662.03	13.519
662.36	13.846
662.68	14.602
663.01	14.410
663.33	11.833
663.66	11.628
663.98	12.791
664.31	14.286
664.63	11.521
664.96	11.739
665.28	10.596
665.61	11.905
665.93	13.261
666.26	13.666
666.58	11.857
666.91	13.176
667.23	15.566
667.56	13.744
667.88	14.868
668.21	13.365
668.53	14.894
668.86	16.981
669.18	12.028
669.50	11.380
669.83	13.488
670.15	13.520
670.48	11.244
670.80	15.668
671.13	13.647
671.45	10.731
671.77	15.665
672.10	12.673
672.42	14.419
672.75	12.611
673.07	15.206
673.39	14.128
673.72	12.032
674.04	10.625
674.37	13.347
674.69	13.490
675.01	13.333
675.34	13.514
675.66	13.194
675.98	17.073
676.31	13.303
676.63	14.252
676.95	13.409
677.28	14.824
677.60	14.940
677.92	14.679
678.25	12.035
678.57	10.823
678.89	14.286
679.22	11.857
679.54	13.052
679.86	9.742
680.18	12.233
680.51	12.689
680.83	10.736
681.15	13.200
681.48	14.344
681.80	14.256
682.12	11.290
682.44	11.088
682.77	13.907
683.09	11.442
683.41	12.955
683.73	11.060
684.06	12.389
684.38	9.892
684.70	12.636
685.02	10.373
685.34	12.055
685.67	9.944
685.99	13.924
686.31	13.805
686.63	12.987
686.96	12.928
687.28	8.889
687.60	10.646
687.92	11.313
688.24	12.702
688.56	10.917
688.89	12.054
689.21	15.556
689.53	14.849
689.85	11.163
690.17	14.062
690.49	12.057
690.82	13.592
691.14	10.714
691.46	11.916
691.78	13.964
692.10	10.968
692.42	13.203
692.74	12.393
693.06	11.036
693.39	11.312
693.71	10.181
694.03	12.933
694.35	10.981
694.67	13.131
694.99	11.227
695.31	12.272
695.63	13.500
695.95	11.111
696.27	11.917
696.59	11.389
696.91	10.644
697.23	11.568
697.56	10.644
697.88	11.398
698.20	10.478
698.52	11.529
698.84	6.459
699.16	9.250
699.48	14.035
699.80	12.407
700.12	11.051
700.44	11.204
700.76	9.884
701.08	10.000
701.40	9.940
701.72	12.037
702.04	12.541
702.36	12.040
702.68	12.913
703.00	10.606
703.32	9.971
703.64	8.757
703.96	12.754
704.28	11.350
704.60	13.968
704.91	8.833
705.23	13.289
705.55	19.081
705.87	14.801
706.19	11.111
706.51	8.591
706.83	11.897
707.15	6.231
707.47	12.325
707.79	8.854
708.11	13.750
708.43	12.750
708.74	12.145
709.06	14.366
709.38	10.703
709.70	10.947
710.02	14.331
710.34	13.003
710.66	12.821
710.98	9.272
711.29	13.443
711.61	9.153
711.93	16.612
712.25	15.120
712.57	11.722
712.89	8.955
713.20	11.765
713.52	11.150
713.84	10.580
714.16	10.997
714.48	12.903
714.80	8.654
715.11	10.030
715.43	8.777
715.75	10.667
716.07	10.963
716.39	11.745
716.70	10.701
717.02	8.015
717.34	8.097
717.66	11.504
717.97	12.174
718.29	10.879
718.61	12.205
718.93	10.853
719.24	7.605
719.56	9.639
719.88	12.027
720.20	12.500
720.51	9.195
720.83	11.197
721.15	6.723
721.46	13.710
721.78	5.929
722.10	7.807
722.42	8.714
722.73	11.837
723.05	13.469
723.37	13.559
723.68	12.613
724.00	12.393
724.32	7.556
724.63	9.545
724.95	12.664
725.27	11.521
725.58	12.712
725.90	13.889
726.22	11.583
726.53	14.915
726.85	10.112
727.16	12.830
727.48	5.668
727.80	12.551
728.11	5.085
728.43	9.412
728.74	7.258
729.06	10.800
729.38	13.534
729.69	9.562
730.01	7.308
730.32	11.940
730.64	12.721
730.96	7.925
731.27	8.667
731.59	11.186
731.90	8.599
732.22	15.142
732.53	12.292
732.85	12.057
733.16	12.795
733.48	6.475
733.80	6.522
734.11	8.136
734.43	9.966
734.74	7.576
735.06	6.189
735.37	7.251
735.69	9.764
736.00	10.105
736.32	9.060
736.63	11.972
736.95	12.969
737.26	4.982
737.58	8.054
737.89	9.524
738.21	11.278
738.52	10.288
738.83	6.987
739.15	5.240
739.46	12.992
739.78	10.256
740.09	10.458
740.41	14.130
740.72	9.055
741.04	6.073
741.35	7.660
741.66	8.531
741.98	10.714
742.29	12.871
742.61	10.995
742.92	3.318
743.23	5.556
743.55	7.240
743.86	14.833
744.18	11.005
744.49	9.574
744.80	9.239
745.12	16.043
745.43	7.317
745.74	14.062
746.06	8.780
746.37	7.853
746.68	15.166
747.00	4.787
747.31	10.448
747.62	6.796
747.94	7.177
748.25	5.941
748.56	2.186
748.88	6.283
749.19	17.021
749.50	9.852
749.82	5.660
750.13	1.835
750.44	11.654
750.75	7.463
751.07	12.409
751.38	11.877
751.69	9.412
752.01	9.302
752.32	12.749
752.63	7.905
752.94	4.741
753.26	16.736
753.57	6.787
753.88	7.965
754.19	7.917
754.51	5.785
754.82	8.502
755.13	14.167
755.44	11.290
755.75	12.500
756.07	11.284
756.38	3.396
756.69	8.812
757.00	11.000
757.31	9.804
757.63	6.707
757.94	8.889
758.25	8.493
758.56	9.840
758.87	9.348
759.18	6.542
759.50	4.000
759.81	7.358
760.12	9.355
760.43	8.485
760.74	9.877
761.05	4.615
761.36	7.670
761.67	11.212
761.99	10.204
762.30	5.091
762.61	6.719
762.92	8.597
763.23	5.856
763.54	6.542
763.85	11.864
764.16	8.714
764.47	8.468
764.78	7.692
765.10	14.141
765.41	7.256
765.72	9.524
766.03	4.135
766.34	6.934
766.65	11.952
766.96	5.051
767.27	9.043
767.58	0.575
767.89	-3.546
768.20	9.091
768.51	5.495
768.82	3.941
769.13	5.530
769.44	9.013
769.75	7.763
770.06	10.776
770.37	3.846
770.68	10.152
770.99	7.240
771.30	7.843
771.61	7.240
771.92	11.638
772.23	10.837
772.54	6.452
772.85	5.556
773.16	7.865
773.47	3.922
773.78	11.765
774.09	7.784
774.39	6.000
774.70	7.006
775.01	11.034
775.32	3.571
775.63	0.826
775.94	5.344
776.25	8.661
776.56	-1.667
776.87	0.000
777.18	5.128
777.48	5.172
777.79	1.739
778.10	0.000
778.41	-1.802
778.72	13.492
779.03	3.008
779.34	7.092
779.65	12.329
779.95	2.740
780.26	8.966
780.57	-5.691
780.88	3.150
781.19	4.310
781.50	0.000
781.80	5.917
782.11	-1.258
782.42	1.538
782.73	7.194
783.04	4.444
783.34	4.861
783.65	-10.256
783.96	9.016
784.27	10.345
784.57	5.691
784.88	7.813
785.19	8.000
785.50	17.000
785.81	5.172
786.11	2.586
786.42	-9.709
786.73	17.273
787.04	2.041
787.34	8.929
787.65	5.714
787.96	-2.655
788.26	13.636
788.57	2.564
788.88	11.719
789.19	1.587
789.49	3.478
789.80	-5.102
790.11	3.030
790.41	4.545
790.72	11.957
791.03	12.500
791.33	18.750
791.64	13.750
791.95	9.302
792.25	10.638
792.56	11.236
792.87	-9.589
793.17	-8.696
793.48	4.000
793.79	2.500
794.09	12.500
794.40	0.943
794.70	5.825
795.01	2.439
795.32	2.564
795.62	0.952
795.93	3.922
796.23	3.774
796.54	9.375
796.85	8.824
797.15	4.225
797.46	5.556
797.76	30.303
798.07	10.465
798.37	-6.579
798.68	-7.576
798.99	3.704
799.29	8.571
799.60	-13.043
799.90	-4.000
800.21	9.836
800.51	12.308
800.82	5.085
801.12	4.348
801.43	0.000
801.73	12.698
802.04	-10.000
802.34	17.910
802.65	-11.538
802.95	-7.143
803.26	-7.692
803.56	7.843
803.87	-2.174
804.17	10.667
804.48	25.397
804.78	-12.963
805.09	-6.522
805.39	-31.111
805.70	-1.852
806.00	-14.035
806.30	0.000
806.61	11.429
806.91	-4.167
807.22	10.526
807.52	9.333
807.83	-18.182
808.13	6.944
808.43	11.765
808.74	-5.970
809.04	-10.169
809.35	0.000
809.65	-7.812
809.95	-56.757
810.26	-27.273
810.56	4.110
810.86	4.762
811.17	10.000
811.47	-4.082
811.77	-26.316
812.08	6.818
812.38	-1.887
812.69	-45.000
812.99	-33.333
813.29	-10.526
813.59	-20.000
813.90	-2.273
814.20	7.692
814.50	-5.769
814.81	28.302
815.11	-10.638
815.41	6.780
815.72	-19.048
816.02	7.843
816.32	-10.417
816.62	-7.317
816.93	-16.216
817.23	-20.000
817.53	6.250
817.84	-17.391
818.14	1.923
818.44	-21.053
818.74	17.391
819.04	-32.500
819.35	-27.027
819.65	-17.647
819.95	-13.889
820.25	-19.048
820.56	15.000
820.86	-62.069
821.16	2.500
821.46	0.000
821.76	25.000
822.07	-4.651
822.37	-37.838
822.67	-37.500
822.97	21.429
823.27	21.429
823.57	4.000
823.88	-33.333
824.18	-78.571
824.48	-29.412
824.78	-9.677
825.08	-21.739
825.38	9.091
825.69	-66.667
825.99	-26.316
826.29	0.000
826.59	-73.333
826.89	-71.429
827.19	19.565
827.49	5.000
827.79	-20.000
828.09	3.571
828.39	-30.303
828.70	0.000
829.00	3.571
829.30	-47.619
829.60	-10.000
829.90	-9.375
830.20	2.632
830.50	-51.852
830.80	-39.130
831.10	-13.636
831.40	9.091
831.70	22.581
832.00	14.286
832.30	-66.667
832.60	-108.333
832.90	0.000
833.20	-100.000
833.50	30.303
833.80	-18.519
834.10	-3.846
834.40	-12.500
834.70	-155.556
835.00	-5.263
835.30	42.308
835.60	-40.000
835.90	3.226
836.20	-50.000
836.50	28.571
836.80	-46.154
837.10	-14.286
837.40	-433.333
837.70	4.545
838.00	-109.091
838.30	-52.174
838.60	-92.308
838.90	-27.273
839.19	14.286
839.49	16.667
839.79	-7.692
840.09	-150.000
840.39	10.714
840.69	-17.857
840.99	-26.923
841.29	-126.316
841.59	-180.000
841.88	-63.636
842.18	-50.000
842.48	-6.250
842.78	-26.667
843.08	14.815
843.38	-160.000
843.68	34.783
843.97	66.667
844.27	-80.000
844.57	-25.000
844.87	-5.556
845.17	-42.857
845.47	-66.667
845.76	-42.857
846.06	0.000
846.36	-90.000
846.66	-35.714
846.96	13.333
847.25	-212.500
847.55	21.429
847.85	-125.000
848.15	-36.364
848.44	-533.333
848.74	60.000
849.04	14.815
849.34	-54.545
849.63	-283.333
849.93	-220.000
850.23	-16.667
850.53	10.000
850.82	-53.846
851.12	-77.778
851.42	-6.667
851.71	-19.231
852.01	-21.429
852.31	-325.000
852.61	-36.364
852.90	-45.000
853.20	-5.263
853.50	-83.333
853.79	-4.348
854.09	33.333
854.39	-21.053
854.68	-45.833
854.98	9.677
855.28	-26.923
855.57	-10.000
855.87	-38.889
856.17	7.407
856.46	-71.429
856.76	-66.667
857.05	-100.000
857.35	-24.000
857.65	-16.667
857.94	-53.846
858.24	-34.483
858.53	-72.222
858.83	25.926
859.13	-27.273
859.42	-17.391
859.72	-25.000
860.01	-333.333
860.31	4.000
860.60	-4.762
860.90	-500.000
861.20	-86.667
861.49	-450.000
861.79	-26.667
862.08	-25.000
862.38	0.000
862.67	-340.000
862.97	-116.667
863.26	-8.333
863.56	5.556
863.85	-766.667
864.15	-22.222
864.44	-100.000
864.74	-14.286
865.03	250.000
865.33	-140.000
865.62	50.000
865.92	-66.667
866.21	-183.333
866.51	12.500
866.80	-118.182
867.10	-600.000
867.39	16.667
867.69	0.000
867.98	-38.462
868.27	-366.667
868.57	-60.000
868.86	-22.222
869.16	-123.077
869.45	-13.333
869.75	-1300.000
870.04	0.000
870.33	-157.143
870.63	14.286
870.92	133.333
871.22	-400.000
871.51	-1800.000
871.80	44.444
872.10	233.333
>>>>>End Processed Spectral Data<<<<<
