SpectraSuite Data File
++++++++++++++++++++++++++++++++++++
Date: Fri May 15 20:46:36 PDT 2015
User: schluterlab
Dark Spectrum Present: Yes
Reference Spectrum Present: Yes
Number of Sampled Component Spectra: 1
Spectrometers: USB2E3373
Integration Time (usec): 3000 (USB2E3373)
Spectra Averaged: 3 (USB2E3373)
Boxcar Smoothing: 0 (USB2E3373)
Correct for Electrical Dark: No (USB2E3373)
Strobe/Lamp Enabled: No (USB2E3373)
Correct for Detector Non-linearity: No (USB2E3373)
Correct for Stray Light: No (USB2E3373)
Number of Pixels in Processed Spectrum: 2048
>>>>>Begin Processed Spectral Data<<<<<
178.53	0.000
178.91	0.000
179.29	-25.000
179.67	-600.000
180.04	71.429
180.42	25.000
180.80	-500.000
181.18	100.000
181.56	400.000
181.94	0.000
182.31	1500.000
182.69	-240.000
183.07	-233.333
183.45	-160.000
183.83	233.333
184.20	-81.818
184.58	-0.000
184.96	-125.000
185.34	233.333
185.72	-1000.000
186.09	92.308
186.47	100.000
186.85	366.667
187.23	122.222
187.61	100.000
187.98	-433.333
188.36	44.444
188.74	33.333
189.12	29.412
189.49	-11.111
189.87	0.000
190.25	50.000
190.63	100.000
191.00	-266.667
191.38	31.579
191.76	500.000
192.14	-50.000
192.51	-50.000
192.89	11.111
193.27	-114.286
193.65	166.667
194.02	136.364
194.40	70.000
194.78	-25.000
195.15	0.000
195.53	-75.000
195.91	150.000
196.29	0.000
196.66	76.923
197.04	185.714
197.42	-88.889
197.79	-300.000
198.17	-100.000
198.55	1800.000
198.92	-200.000
199.30	-300.000
199.68	-180.000
200.05	-300.000
200.43	0.000
200.81	133.333
201.18	-200.000
201.56	1500.000
201.94	-550.000
202.31	66.667
202.69	-240.000
203.07	-25.000
203.44	300.000
203.82	0.000
204.19	14.286
204.57	-400.000
204.95	187.500
205.32	-30.000
205.70	-14.286
206.08	0.000
206.45	166.667
206.83	28.571
207.20	-228.571
207.58	1900.000
207.96	-400.000
208.33	-50.000
208.71	-25.000
209.08	-150.000
209.46	-900.000
209.84	40.000
210.21	-800.000
210.59	14.286
210.96	-183.333
211.34	-50.000
211.71	26.667
212.09	-142.857
212.46	-1600.000
212.84	0.000
213.22	40.000
213.59	800.000
213.97	-7.692
214.34	18.182
214.72	-33.333
215.09	725.000
215.47	-69.231
215.84	9.091
216.22	-433.333
216.59	-87.500
216.97	-100.000
217.34	-300.000
217.72	-200.000
218.09	-75.000
218.47	125.000
218.84	-400.000
219.22	-33.333
219.59	-160.000
219.97	533.333
220.34	25.000
220.72	0.000
221.09	-225.000
221.47	-350.000
221.84	-250.000
222.22	-550.000
222.59	-36.364
222.97	8.333
223.34	-266.667
223.72	-100.000
224.09	9.524
224.46	14.286
224.84	300.000
225.21	-20.000
225.59	-53.333
225.96	0.000
226.34	300.000
226.71	-214.286
227.08	-100.000
227.46	-87.500
227.83	-550.000
228.21	11.111
228.58	-36.364
228.95	-87.500
229.33	70.000
229.70	31.250
230.08	-75.000
230.45	-157.143
230.82	100.000
231.20	-60.000
231.57	57.143
231.95	-100.000
232.32	-80.000
232.69	35.714
233.07	-233.333
233.44	-200.000
233.81	-70.000
234.19	66.667
234.56	-41.176
234.93	450.000
235.31	-175.000
235.68	-340.000
236.05	-30.769
236.43	-45.000
236.80	-11.765
237.17	21.875
237.55	-15.000
237.92	-22.222
238.29	2.778
238.67	20.000
239.04	-8.824
239.41	-21.951
239.79	-3.333
240.16	-9.756
240.53	-5.263
240.91	2.174
241.28	11.111
241.65	28.571
242.02	9.589
242.40	6.667
242.77	0.000
243.14	-6.061
243.51	2.500
243.89	22.989
244.26	1.149
244.63	19.048
245.00	9.278
245.38	5.155
245.75	-5.618
246.12	4.310
246.49	17.355
246.87	6.731
247.24	8.403
247.61	7.895
247.98	9.756
248.36	8.750
248.73	13.816
249.10	10.390
249.47	10.759
249.84	9.150
250.22	11.176
250.59	15.686
250.96	20.188
251.33	14.535
251.70	14.706
252.08	17.259
252.45	19.802
252.82	13.065
253.19	15.668
253.56	14.019
253.94	15.766
254.31	17.826
254.68	14.474
255.05	12.598
255.42	16.594
255.79	18.533
256.16	14.397
256.54	17.164
256.91	12.928
257.28	17.100
257.65	13.483
258.02	14.184
258.39	14.478
258.76	17.582
259.14	19.269
259.51	16.181
259.88	16.495
260.25	18.301
260.62	21.528
260.99	15.254
261.36	15.411
261.73	17.405
262.10	17.629
262.47	14.417
262.85	16.614
263.22	13.538
263.59	14.019
263.96	16.770
264.33	16.061
264.70	15.774
265.07	17.262
265.44	18.980
265.81	18.362
266.18	17.213
266.55	16.195
266.92	19.430
267.29	16.449
267.66	16.113
268.03	17.801
268.40	14.360
268.77	17.914
269.14	17.266
269.51	16.967
269.88	15.461
270.25	15.306
270.62	16.341
270.99	15.601
271.36	12.714
271.73	16.901
272.10	16.545
272.47	15.130
272.84	16.337
273.21	16.241
273.58	17.831
273.95	15.332
274.32	16.166
274.69	12.896
275.06	16.071
275.43	17.460
275.80	15.453
276.17	15.862
276.54	13.062
276.91	17.105
277.28	15.939
277.65	13.223
278.02	15.957
278.39	13.786
278.76	15.514
279.13	11.203
279.50	16.597
279.87	16.199
280.23	15.054
280.60	15.010
280.97	17.172
281.34	16.154
281.71	18.275
282.08	14.519
282.45	16.047
282.82	13.514
283.19	14.120
283.56	15.992
283.92	15.750
284.29	15.962
284.66	14.341
285.03	15.717
285.40	13.800
285.77	15.466
286.14	16.426
286.51	17.897
286.87	14.625
287.24	13.260
287.61	13.933
287.98	15.965
288.35	14.385
288.72	16.988
289.08	13.368
289.45	14.587
289.82	14.685
290.19	12.628
290.56	14.580
290.93	14.646
291.29	12.018
291.66	15.118
292.03	12.759
292.40	14.516
292.77	14.195
293.13	11.201
293.50	13.505
293.87	13.282
294.24	13.910
294.60	12.966
294.97	12.946
295.34	11.810
295.71	13.264
296.08	13.004
296.44	10.242
296.81	12.083
297.18	10.290
297.55	13.821
297.91	11.644
298.28	13.720
298.65	11.805
299.02	10.512
299.38	10.534
299.75	11.724
300.12	11.257
300.48	10.804
300.85	11.787
301.22	10.909
301.59	11.184
301.95	11.519
302.32	12.192
302.69	12.189
303.05	11.634
303.42	12.329
303.79	12.033
304.15	11.350
304.52	10.583
304.89	10.058
305.25	11.259
305.62	9.802
305.99	10.058
306.35	10.983
306.72	9.336
307.09	10.376
307.45	11.022
307.82	11.806
308.19	10.918
308.55	10.251
308.92	11.002
309.29	9.832
309.65	11.518
310.02	10.011
310.38	11.745
310.75	12.240
311.12	11.195
311.48	11.453
311.85	11.623
312.22	10.232
312.58	11.040
312.95	10.779
313.31	11.491
313.68	10.471
314.05	9.592
314.41	11.753
314.78	10.722
315.14	11.922
315.51	11.801
315.87	11.270
316.24	13.448
316.61	11.811
316.97	13.194
317.34	12.500
317.70	13.002
318.07	12.981
318.43	12.843
318.80	11.648
319.16	12.207
319.53	13.960
319.89	14.173
320.26	14.676
320.62	14.744
320.99	12.944
321.35	14.902
321.72	15.472
322.08	15.710
322.45	16.041
322.81	15.128
323.18	14.818
323.54	15.927
323.91	16.066
324.27	17.676
324.64	17.228
325.00	17.701
325.37	20.018
325.73	17.951
326.10	20.708
326.46	19.372
326.83	19.860
327.19	19.355
327.56	21.286
327.92	21.743
328.29	21.071
328.65	22.830
329.01	21.967
329.38	21.935
329.74	23.135
330.11	22.057
330.47	22.263
330.84	22.500
331.20	23.479
331.56	23.333
331.93	23.653
332.29	23.281
332.66	23.891
333.02	23.141
333.38	24.840
333.75	24.176
334.11	23.993
334.48	24.932
334.84	25.641
335.20	24.794
335.57	23.753
335.93	24.571
336.29	23.941
336.66	24.342
337.02	25.465
337.38	24.074
337.75	25.182
338.11	25.969
338.47	26.186
338.84	25.693
339.20	24.954
339.56	25.046
339.93	25.067
340.29	25.872
340.65	25.806
341.02	25.443
341.38	25.044
341.74	24.735
342.11	24.177
342.47	24.822
342.83	25.260
343.20	24.913
343.56	25.913
343.92	26.218
344.28	25.448
344.65	24.611
345.01	26.102
345.37	25.147
345.73	25.607
346.10	27.006
346.46	25.904
346.82	25.368
347.19	25.686
347.55	25.564
347.91	26.052
348.27	24.656
348.63	25.894
349.00	25.923
349.36	26.600
349.72	25.871
350.08	25.902
350.45	25.140
350.81	24.834
351.17	26.547
351.53	26.939
351.89	24.112
352.26	26.880
352.62	26.774
352.98	25.060
353.34	26.329
353.70	26.699
354.07	25.726
354.43	25.941
354.79	25.434
355.15	26.429
355.51	26.266
355.87	26.133
356.24	26.509
356.60	24.818
356.96	27.302
357.32	26.518
357.68	25.723
358.04	26.656
358.40	26.688
358.77	27.512
359.13	25.620
359.49	25.886
359.85	26.365
360.21	26.077
360.57	25.784
360.93	27.156
361.29	25.831
361.66	27.116
362.02	26.667
362.38	27.342
362.74	26.571
363.10	27.239
363.46	28.243
363.82	27.724
364.18	26.568
364.54	27.059
364.90	26.595
365.26	26.346
365.62	27.810
365.98	27.493
366.35	27.385
366.71	27.125
367.07	27.794
367.43	26.815
367.79	27.067
368.15	27.423
368.51	27.240
368.87	26.274
369.23	26.931
369.59	27.770
369.95	27.859
370.31	27.240
370.67	28.358
371.03	27.633
371.39	28.009
371.75	27.253
372.11	28.103
372.47	28.550
372.83	28.176
373.19	27.033
373.55	28.014
373.91	29.086
374.27	28.703
374.63	29.361
374.99	28.723
375.35	28.412
375.71	29.650
376.07	28.862
376.42	28.571
376.78	29.463
377.14	28.978
377.50	28.884
377.86	28.849
378.22	28.845
378.58	28.846
378.94	28.922
379.30	29.382
379.66	29.216
380.02	28.939
380.38	28.545
380.74	29.084
381.09	29.877
381.45	29.358
381.81	29.981
382.17	30.076
382.53	28.982
382.89	29.379
383.25	29.932
383.61	29.817
383.97	29.016
384.32	30.269
384.68	29.907
385.04	29.350
385.40	29.060
385.76	30.818
386.12	30.466
386.48	30.843
386.83	28.662
387.19	30.586
387.55	30.678
387.91	30.685
388.27	30.037
388.62	30.963
388.98	29.711
389.34	29.794
389.70	30.764
390.06	30.459
390.42	29.858
390.77	30.281
391.13	30.580
391.49	31.307
391.85	31.449
392.20	30.006
392.56	30.896
392.92	30.711
393.28	32.134
393.64	30.931
393.99	32.539
394.35	30.740
394.71	31.418
395.07	30.421
395.42	29.994
395.78	31.401
396.14	30.769
396.50	31.579
396.85	32.131
397.21	31.955
397.57	30.721
397.92	31.216
398.28	31.667
398.64	30.181
399.00	31.885
399.35	30.756
399.71	29.983
400.07	31.681
400.42	31.028
400.78	31.904
401.14	31.397
401.49	31.983
401.85	31.322
402.21	31.084
402.57	31.188
402.92	30.928
403.28	31.642
403.63	31.463
403.99	31.569
404.35	32.979
404.70	30.595
405.06	31.022
405.42	31.510
405.77	32.191
406.13	31.141
406.49	32.268
406.84	32.518
407.20	31.487
407.55	30.586
407.91	31.484
408.27	32.505
408.62	32.492
408.98	32.101
409.34	32.280
409.69	30.879
410.05	31.219
410.40	31.605
410.76	32.630
411.11	32.812
411.47	31.755
411.83	31.513
412.18	32.239
412.54	32.210
412.89	31.897
413.25	32.010
413.60	32.919
413.96	32.393
414.31	32.805
414.67	32.264
415.03	31.425
415.38	32.702
415.74	32.834
416.09	32.985
416.45	32.546
416.80	31.593
417.16	33.425
417.51	33.311
417.87	31.747
418.22	32.383
418.58	32.107
418.93	32.665
419.29	31.242
419.64	31.951
420.00	33.438
420.35	32.537
420.71	31.652
421.06	32.781
421.42	32.933
421.77	32.948
422.12	31.612
422.48	33.135
422.83	31.671
423.19	32.336
423.54	32.099
423.90	32.155
424.25	33.123
424.61	32.681
424.96	31.882
425.31	34.662
425.67	34.272
426.02	33.628
426.38	34.314
426.73	33.898
427.09	34.430
427.44	33.471
427.79	33.353
428.15	34.648
428.50	34.282
428.85	32.617
429.21	33.899
429.56	33.639
429.92	32.614
430.27	33.484
430.62	32.619
430.98	33.917
431.33	34.280
431.68	33.490
432.04	33.874
432.39	33.485
432.74	33.434
433.10	33.966
433.45	33.453
433.80	33.430
434.16	33.130
434.51	33.548
434.86	34.727
435.22	33.707
435.57	34.248
435.92	33.772
436.28	34.168
436.63	33.086
436.98	32.966
437.34	33.394
437.69	34.884
438.04	34.131
438.39	33.415
438.75	35.458
439.10	33.673
439.45	34.814
439.81	34.985
440.16	35.986
440.51	35.224
440.86	35.710
441.22	34.842
441.57	34.823
441.92	35.519
442.27	35.033
442.63	34.636
442.98	34.980
443.33	34.502
443.68	34.907
444.03	34.923
444.39	34.924
444.74	36.232
445.09	36.247
445.44	36.125
445.79	36.926
446.15	35.518
446.50	35.053
446.85	36.663
447.20	35.506
447.55	35.435
447.91	35.646
448.26	35.913
448.61	35.003
448.96	36.890
449.31	36.474
449.66	35.714
450.02	35.083
450.37	36.218
450.72	36.541
451.07	36.456
451.42	35.893
451.77	36.046
452.12	35.467
452.47	35.222
452.83	36.042
453.18	34.978
453.53	35.651
453.88	35.823
454.23	36.939
454.58	36.965
454.93	36.340
455.28	35.365
455.63	35.896
455.98	36.861
456.34	35.824
456.69	36.595
457.04	37.681
457.39	35.723
457.74	36.518
458.09	35.609
458.44	35.810
458.79	35.742
459.14	35.812
459.49	35.821
459.84	35.533
460.19	36.044
460.54	36.186
460.89	35.852
461.24	37.329
461.59	36.520
461.94	35.975
462.29	36.731
462.64	37.542
462.99	37.102
463.34	36.787
463.69	36.486
464.04	36.380
464.39	37.235
464.74	35.644
465.09	37.430
465.44	37.796
465.79	37.132
466.14	36.887
466.49	36.343
466.84	37.359
467.19	36.984
467.54	36.462
467.89	37.840
468.24	36.922
468.59	37.333
468.94	36.889
469.29	37.443
469.64	36.910
469.99	39.173
470.34	37.065
470.68	38.777
471.03	38.004
471.38	38.802
471.73	38.515
472.08	37.246
472.43	37.785
472.78	38.108
473.13	38.571
473.48	37.850
473.83	37.547
474.17	38.212
474.52	37.396
474.87	38.606
475.22	38.621
475.57	37.211
475.92	38.563
476.27	39.173
476.61	39.873
476.96	35.862
477.31	38.886
477.66	38.652
478.01	38.069
478.36	36.819
478.70	39.804
479.05	38.846
479.40	37.573
479.75	38.425
480.10	38.505
480.45	37.600
480.79	38.066
481.14	39.344
481.49	37.094
481.84	37.983
482.19	38.447
482.53	38.417
482.88	38.282
483.23	38.004
483.58	37.783
483.92	38.480
484.27	37.420
484.62	37.831
484.97	37.521
485.31	37.175
485.66	34.901
486.01	34.590
486.36	35.270
486.70	35.658
487.05	36.319
487.40	36.841
487.75	36.479
488.09	36.279
488.44	36.348
488.79	37.355
489.13	38.862
489.48	38.948
489.83	37.982
490.17	38.067
490.52	37.182
490.87	38.223
491.22	38.682
491.56	38.188
491.91	37.524
492.26	39.135
492.60	38.484
492.95	39.547
493.30	38.837
493.64	38.605
493.99	39.517
494.34	38.350
494.68	38.429
495.03	39.173
495.37	39.058
495.72	39.273
496.07	40.293
496.41	38.632
496.76	39.199
497.11	38.426
497.45	38.473
497.80	39.707
498.14	39.295
498.49	39.766
498.84	39.022
499.18	39.408
499.53	39.038
499.87	38.230
500.22	39.416
500.56	40.192
500.91	39.207
501.26	38.655
501.60	38.810
501.95	39.350
502.29	39.419
502.64	39.913
502.98	40.701
503.33	38.761
503.67	39.663
504.02	39.638
504.36	39.782
504.71	39.192
505.06	39.004
505.40	40.203
505.75	40.619
506.09	40.091
506.44	40.862
506.78	40.612
507.13	39.814
507.47	40.574
507.82	40.171
508.16	41.310
508.51	41.028
508.85	41.183
509.19	41.831
509.54	41.930
509.88	40.992
510.23	42.873
510.57	41.529
510.92	39.925
511.26	41.953
511.61	41.804
511.95	41.151
512.30	41.519
512.64	41.736
512.98	42.392
513.33	42.473
513.67	41.558
514.02	42.449
514.36	42.800
514.70	43.298
515.05	42.949
515.39	43.684
515.74	45.150
516.08	44.112
516.42	43.816
516.77	44.061
517.11	43.680
517.46	44.524
517.80	45.352
518.14	43.601
518.49	43.810
518.83	44.957
519.17	44.209
519.52	43.339
519.86	44.478
520.20	45.383
520.55	44.278
520.89	44.918
521.23	44.015
521.58	45.678
521.92	45.641
522.26	45.283
522.61	44.286
522.95	45.430
523.29	46.315
523.64	44.790
523.98	46.403
524.32	45.425
524.66	46.031
525.01	46.494
525.35	46.662
525.69	46.330
526.04	45.569
526.38	46.757
526.72	44.343
527.06	45.460
527.41	46.636
527.75	45.442
528.09	46.445
528.43	48.346
528.78	44.950
529.12	45.935
529.46	45.549
529.80	45.282
530.15	46.403
530.49	45.993
530.83	45.691
531.17	46.004
531.51	46.033
531.86	45.819
532.20	45.372
532.54	46.358
532.88	46.954
533.22	44.556
533.57	45.085
533.91	44.191
534.25	46.289
534.59	44.965
534.93	44.997
535.27	44.353
535.62	45.690
535.96	46.053
536.30	46.702
536.64	46.933
536.98	45.505
537.32	46.586
537.66	46.073
538.01	46.224
538.35	46.255
538.69	45.539
539.03	44.566
539.37	45.155
539.71	45.126
540.05	44.807
540.39	46.330
540.73	46.234
541.07	45.304
541.42	46.102
541.76	45.836
542.10	45.630
542.44	44.684
542.78	45.423
543.12	45.536
543.46	45.063
543.80	45.593
544.14	44.526
544.48	45.103
544.82	44.908
545.16	45.765
545.50	44.192
545.84	46.105
546.18	46.099
546.52	46.359
546.86	44.716
547.20	45.780
547.54	44.382
547.88	44.293
548.22	44.247
548.56	44.855
548.90	44.609
549.24	44.904
549.58	45.769
549.92	44.889
550.26	44.908
550.60	46.468
550.94	46.154
551.28	45.981
551.62	46.308
551.96	45.188
552.30	45.541
552.64	44.922
552.98	46.132
553.32	44.437
553.66	45.283
554.00	45.255
554.34	45.864
554.68	44.764
555.02	45.536
555.36	44.503
555.69	45.128
556.03	44.825
556.37	44.413
556.71	44.693
557.05	44.892
557.39	43.494
557.73	46.552
558.07	46.078
558.41	46.937
558.75	45.207
559.08	45.863
559.42	45.794
559.76	46.277
560.10	44.954
560.44	44.006
560.78	44.056
561.12	45.487
561.45	46.030
561.79	44.188
562.13	45.564
562.47	45.108
562.81	45.821
563.15	44.076
563.48	44.837
563.82	44.544
564.16	46.031
564.50	44.122
564.84	44.980
565.17	44.333
565.51	46.448
565.85	44.582
566.19	44.164
566.52	44.303
566.86	44.344
567.20	43.524
567.54	43.856
567.88	44.405
568.21	44.005
568.55	42.174
568.89	42.864
569.23	41.984
569.56	41.594
569.90	40.885
570.24	39.821
570.57	41.091
570.91	40.119
571.25	39.658
571.59	38.524
571.92	38.370
572.26	38.647
572.60	38.884
572.93	38.594
573.27	38.339
573.61	38.246
573.95	38.886
574.28	38.030
574.62	37.656
574.96	37.622
575.29	37.759
575.63	37.367
575.97	37.381
576.30	37.813
576.64	37.775
576.98	37.761
577.31	37.995
577.65	37.133
577.98	37.701
578.32	36.934
578.66	36.278
578.99	37.155
579.33	36.972
579.67	37.118
580.00	37.443
580.34	37.786
580.67	36.548
581.01	37.560
581.35	37.059
581.68	36.115
582.02	36.043
582.35	36.472
582.69	36.833
583.02	36.552
583.36	37.213
583.70	38.136
584.03	38.588
584.37	37.945
584.70	37.912
585.04	36.658
585.37	36.953
585.71	37.423
586.04	37.141
586.38	36.863
586.72	37.704
587.05	37.695
587.39	37.769
587.72	37.698
588.06	37.116
588.39	37.710
588.73	38.065
589.06	38.389
589.40	38.196
589.73	38.810
590.07	38.935
590.40	38.971
590.73	40.404
591.07	38.931
591.40	39.359
591.74	39.593
592.07	39.610
592.41	39.620
592.74	38.431
593.08	36.884
593.41	37.858
593.75	37.259
594.08	37.281
594.41	37.809
594.75	38.244
595.08	37.571
595.42	37.909
595.75	38.903
596.09	38.546
596.42	38.776
596.75	38.632
597.09	39.043
597.42	38.437
597.75	39.304
598.09	38.207
598.42	38.538
598.76	38.610
599.09	37.420
599.42	37.059
599.76	37.547
600.09	37.783
600.42	37.225
600.76	37.147
601.09	37.290
601.42	36.976
601.76	37.753
602.09	37.748
602.42	39.090
602.76	38.031
603.09	38.621
603.42	39.799
603.76	37.782
604.09	37.667
604.42	37.648
604.76	38.852
605.09	39.077
605.42	38.826
605.75	37.522
606.09	37.410
606.42	37.406
606.75	38.355
607.09	38.154
607.42	37.749
607.75	37.522
608.08	38.679
608.42	37.095
608.75	38.795
609.08	37.469
609.41	37.563
609.75	38.962
610.08	39.491
610.41	38.406
610.74	38.176
611.07	38.915
611.41	39.491
611.74	39.499
612.07	38.223
612.40	39.770
612.73	39.435
613.07	38.976
613.40	38.731
613.73	37.997
614.06	38.843
614.39	39.989
614.72	38.319
615.06	38.883
615.39	36.954
615.72	38.052
616.05	37.877
616.38	37.721
616.71	39.266
617.05	38.851
617.38	39.661
617.71	40.000
618.04	41.206
618.37	40.479
618.70	39.472
619.03	40.486
619.36	39.942
619.69	42.002
620.03	41.490
620.36	41.917
620.69	39.686
621.02	39.602
621.35	42.407
621.68	42.687
622.01	42.583
622.34	39.824
622.67	41.009
623.00	40.735
623.33	40.777
623.66	41.137
623.99	40.091
624.32	41.217
624.65	40.602
624.99	41.610
625.32	40.030
625.65	41.241
625.98	42.546
626.31	39.983
626.64	42.114
626.97	43.106
627.30	41.944
627.63	42.808
627.96	42.498
628.29	41.906
628.62	43.559
628.95	43.788
629.28	44.052
629.61	41.675
629.94	43.891
630.26	42.194
630.59	44.329
630.92	43.179
631.25	41.231
631.58	43.612
631.91	43.969
632.24	45.069
632.57	43.977
632.90	44.721
633.23	43.647
633.56	46.222
633.89	44.143
634.22	45.556
634.55	46.633
634.88	45.466
635.20	45.513
635.53	46.400
635.86	43.693
636.19	44.373
636.52	46.429
636.85	43.424
637.18	41.761
637.51	45.660
637.83	45.598
638.16	47.476
638.49	44.959
638.82	44.474
639.15	44.640
639.48	46.355
639.81	43.654
640.13	43.579
640.46	45.190
640.79	44.183
641.12	45.938
641.45	44.595
641.77	44.741
642.10	48.183
642.43	45.820
642.76	47.030
643.09	46.365
643.41	47.411
643.74	46.623
644.07	47.619
644.40	45.946
644.73	47.110
645.05	47.651
645.38	47.795
645.71	46.277
646.04	50.090
646.36	47.518
646.69	47.662
647.02	48.393
647.35	46.269
647.67	48.812
648.00	49.813
648.33	45.392
648.66	46.102
648.98	43.384
649.31	45.455
649.64	44.427
649.96	41.653
650.29	47.019
650.62	44.103
650.94	47.222
651.27	46.555
651.60	45.405
651.92	46.853
652.25	44.405
652.58	42.833
652.90	47.170
653.23	44.538
653.56	42.301
653.88	45.533
654.21	43.608
654.54	42.445
654.86	45.671
655.19	42.398
655.52	40.015
655.84	32.825
656.17	35.476
656.49	47.101
656.82	48.433
657.15	37.088
657.47	27.987
657.80	21.132
658.13	20.469
658.45	32.325
658.78	32.490
659.10	32.856
659.43	33.562
659.75	34.090
660.08	35.172
660.41	39.122
660.73	40.884
661.06	43.674
661.38	44.618
661.71	42.916
662.03	46.996
662.36	45.495
662.68	46.903
663.01	47.380
663.33	45.940
663.66	47.674
663.98	47.907
664.31	47.335
664.63	44.931
664.96	46.304
665.28	43.267
665.61	44.372
665.93	45.000
666.26	47.072
666.58	46.756
666.91	46.824
667.23	45.755
667.56	47.156
667.88	43.885
668.21	49.881
668.53	49.645
668.86	49.057
669.18	46.226
669.50	46.973
669.83	44.419
670.15	46.853
670.48	47.608
670.80	45.392
671.13	42.953
671.45	43.379
671.77	45.708
672.10	41.782
672.42	41.199
672.75	42.984
673.07	41.145
673.39	41.651
673.72	38.856
674.04	45.208
674.37	44.492
674.69	45.182
675.01	46.222
675.34	43.468
675.66	43.056
675.98	45.455
676.31	45.183
676.63	45.131
676.95	41.591
677.28	48.235
677.60	47.229
677.92	41.514
678.25	42.451
678.57	41.558
678.89	42.857
679.22	43.624
679.54	41.767
679.86	40.159
680.18	39.223
680.51	40.530
680.83	40.358
681.15	43.400
681.48	42.623
681.80	40.909
682.12	41.532
682.44	41.004
682.77	39.956
683.09	42.563
683.41	42.045
683.73	40.092
684.06	43.805
684.38	38.280
684.70	44.009
685.02	36.100
685.34	39.526
685.67	38.086
685.99	39.241
686.31	38.584
686.63	36.549
686.96	37.262
687.28	37.980
687.60	35.171
687.92	40.606
688.24	39.718
688.56	40.611
688.89	40.848
689.21	45.111
689.53	39.675
689.85	37.674
690.17	37.723
690.49	44.681
690.82	39.563
691.14	43.333
691.46	42.523
691.78	40.315
692.10	40.000
692.42	40.693
692.74	36.752
693.06	39.865
693.39	38.462
693.71	37.557
694.03	38.337
694.35	39.720
694.67	40.152
694.99	38.903
695.31	39.948
695.63	42.750
695.95	37.121
696.27	40.415
696.59	43.333
696.91	40.336
697.23	38.046
697.56	42.574
697.88	38.710
698.20	37.130
698.52	37.647
698.84	34.211
699.16	38.500
699.48	38.346
699.80	40.199
700.12	36.927
700.44	39.496
700.76	39.826
701.08	40.606
701.40	40.663
701.72	42.901
702.04	39.934
702.36	44.147
702.68	41.441
703.00	40.303
703.32	36.657
703.64	36.441
703.96	39.420
704.28	40.184
704.60	42.857
704.91	36.909
705.23	40.864
705.55	44.523
705.87	43.321
706.19	36.667
706.51	43.299
706.83	41.479
707.15	34.268
707.47	40.336
707.79	33.594
708.11	39.750
708.43	36.750
708.74	36.693
709.06	37.746
709.38	37.309
709.70	39.349
710.02	36.624
710.34	37.461
710.66	34.936
710.98	36.093
711.29	42.623
711.61	38.644
711.93	40.717
712.25	41.237
712.57	40.659
712.89	36.194
713.20	37.024
713.52	39.024
713.84	39.590
714.16	36.082
714.48	36.774
714.80	34.295
715.11	36.170
715.43	35.423
715.75	35.667
716.07	34.884
716.39	38.255
716.70	32.103
717.02	38.931
717.34	39.271
717.66	38.496
717.97	40.870
718.29	38.494
718.61	35.433
718.93	38.372
719.24	40.304
719.56	33.735
719.88	35.739
720.20	35.227
720.51	37.931
720.83	38.224
721.15	41.597
721.46	38.710
721.78	33.992
722.10	35.316
722.42	34.440
722.73	34.694
723.05	40.816
723.37	40.254
723.68	41.892
724.00	34.188
724.32	37.778
724.63	38.182
724.95	31.441
725.27	39.631
725.58	33.475
725.90	30.159
726.22	34.363
726.53	31.864
726.85	36.704
727.16	38.868
727.48	31.174
727.80	38.057
728.11	34.322
728.43	32.941
728.74	35.484
729.06	32.800
729.38	39.098
729.69	35.060
730.01	32.692
730.32	34.328
730.64	34.982
730.96	36.226
731.27	29.000
731.59	35.254
731.90	36.306
732.22	35.331
732.53	34.219
732.85	36.525
733.16	35.017
733.48	32.374
733.80	35.145
734.11	31.186
734.43	31.959
734.74	32.727
735.06	30.945
735.37	34.743
735.69	32.323
736.00	31.707
736.32	29.530
736.63	34.507
736.95	40.273
737.26	29.537
737.58	31.208
737.89	30.037
738.21	33.083
738.52	34.156
738.83	38.428
739.15	32.314
739.46	29.921
739.78	29.304
740.09	31.046
740.41	30.797
740.72	29.528
741.04	33.198
741.35	32.766
741.66	36.493
741.98	34.184
742.29	35.149
742.61	32.984
742.92	28.910
743.23	27.315
743.55	39.819
743.86	35.885
744.18	33.493
744.49	35.106
744.80	30.978
745.12	40.642
745.43	30.244
745.74	37.500
746.06	33.171
746.37	32.984
746.68	35.545
747.00	35.638
747.31	41.294
747.62	32.039
747.94	36.364
748.25	33.168
748.56	36.066
748.88	38.743
749.19	29.255
749.50	32.512
749.82	33.019
750.13	27.982
750.44	33.459
750.75	35.821
751.07	37.226
751.38	31.418
751.69	30.196
752.01	30.233
752.32	33.068
752.63	28.063
752.94	29.310
753.26	34.310
753.57	33.032
753.88	32.743
754.19	29.583
754.51	32.645
754.82	34.818
755.13	36.250
755.44	27.419
755.75	32.812
756.07	24.903
756.38	27.925
756.69	26.437
757.00	31.333
757.31	32.353
757.63	27.134
757.94	30.278
758.25	28.767
758.56	25.532
758.87	25.212
759.18	25.234
759.50	30.182
759.81	32.776
760.12	27.097
760.43	29.394
760.74	31.481
761.05	32.308
761.36	30.398
761.67	31.515
761.99	32.653
762.30	28.364
762.61	28.854
762.92	32.127
763.23	30.631
763.54	29.439
763.85	28.814
764.16	32.365
764.47	29.839
764.78	27.839
765.10	31.650
765.41	26.498
765.72	27.619
766.03	28.195
766.34	27.737
766.65	32.271
766.96	27.778
767.27	36.170
767.58	32.759
767.89	24.113
768.20	29.545
768.51	32.418
768.82	28.079
769.13	26.267
769.44	31.760
769.75	25.114
770.06	30.603
770.37	32.692
770.68	30.457
770.99	28.054
771.30	38.725
771.61	27.602
771.92	31.466
772.23	31.034
772.54	29.570
772.85	28.395
773.16	30.899
773.47	39.869
773.78	32.026
774.09	27.545
774.39	31.333
774.70	29.936
775.01	37.241
775.32	35.000
775.63	28.099
775.94	33.588
776.25	25.197
776.56	30.000
776.87	23.077
777.18	29.060
777.48	27.586
777.79	20.000
778.10	26.667
778.41	28.829
778.72	26.984
779.03	23.308
779.34	31.206
779.65	30.137
779.95	31.507
780.26	33.103
780.57	27.642
780.88	24.409
781.19	24.138
781.50	31.008
781.80	23.077
782.11	20.755
782.42	19.231
782.73	27.338
783.04	21.481
783.34	24.306
783.65	13.675
783.96	27.049
784.27	26.207
784.57	35.772
784.88	23.437
785.19	38.000
785.50	50.000
785.81	24.138
786.11	30.172
786.42	22.330
786.73	35.455
787.04	24.490
787.34	23.214
787.65	27.619
787.96	25.664
788.26	32.727
788.57	28.205
788.88	27.344
789.19	19.841
789.49	16.522
789.80	30.612
790.11	25.253
790.41	18.182
790.72	21.739
791.03	26.136
791.33	33.750
791.64	13.750
791.95	27.907
792.25	28.723
792.56	21.348
792.87	23.288
793.17	36.232
793.48	9.333
793.79	18.750
794.09	21.250
794.40	16.038
794.70	23.301
795.01	30.081
795.32	18.803
795.62	19.048
795.93	26.471
796.23	28.302
796.54	11.458
796.85	20.588
797.15	19.718
797.46	33.333
797.76	27.273
798.07	16.279
798.37	18.421
798.68	9.091
798.99	20.988
799.29	7.143
799.60	27.536
799.90	33.333
800.21	22.951
800.51	10.769
800.82	30.508
801.12	33.333
801.43	26.230
801.73	19.048
802.04	4.000
802.34	11.940
802.65	26.923
802.95	8.929
803.26	5.769
803.56	27.451
803.87	13.043
804.17	17.333
804.48	47.619
804.78	24.074
805.09	21.739
805.39	13.333
805.70	24.074
806.00	-5.263
806.30	19.718
806.61	10.000
806.91	5.556
807.22	26.316
807.52	20.000
807.83	7.273
808.13	23.611
808.43	22.059
808.74	17.910
809.04	16.949
809.35	15.385
809.65	6.250
809.95	-18.919
810.26	20.455
810.56	19.178
810.86	19.048
811.17	14.000
811.47	12.245
811.77	10.526
812.08	22.727
812.38	22.642
812.69	2.500
812.99	27.273
813.29	5.263
813.59	-5.714
813.90	27.273
814.20	-10.256
814.50	7.692
814.81	16.981
815.11	10.638
815.41	35.593
815.72	16.667
816.02	27.451
816.32	20.833
816.62	-2.439
816.93	8.108
817.23	11.429
817.53	14.583
817.84	36.957
818.14	17.308
818.44	-15.789
818.74	8.696
819.04	-10.000
819.35	13.514
819.65	11.765
819.95	27.778
820.25	26.190
820.56	17.500
820.86	0.000
821.16	12.500
821.46	10.638
821.76	17.500
822.07	6.977
822.37	2.703
822.67	34.375
822.97	21.429
823.27	-3.571
823.57	-16.000
823.88	18.519
824.18	28.571
824.48	23.529
824.78	0.000
825.08	4.348
825.38	6.061
825.69	-45.833
825.99	18.421
826.29	25.000
826.59	-46.667
826.89	-4.762
827.19	26.087
827.49	-10.000
827.79	17.143
828.09	14.286
828.39	18.182
828.70	45.946
829.00	-28.571
829.30	4.762
829.60	6.667
829.90	25.000
830.20	0.000
830.50	-37.037
830.80	0.000
831.10	36.364
831.40	33.333
831.70	29.032
832.00	42.857
832.30	14.286
832.60	-83.333
832.90	20.690
833.20	-20.000
833.50	15.152
833.80	29.630
834.10	-7.692
834.40	-9.375
834.70	11.111
835.00	21.053
835.30	15.385
835.60	-20.000
835.90	-3.226
836.20	13.636
836.50	42.857
836.80	-3.846
837.10	-21.429
837.40	-33.333
837.70	18.182
838.00	-109.091
838.30	8.696
838.60	-30.769
838.90	0.000
839.19	21.429
839.49	16.667
839.79	-15.385
840.09	-166.667
840.39	46.429
840.69	14.286
840.99	15.385
841.29	-47.368
841.59	-50.000
841.88	-36.364
842.18	-90.000
842.48	-50.000
842.78	46.667
843.08	25.926
843.38	-120.000
843.68	52.174
843.97	-33.333
844.27	-140.000
844.57	30.000
844.87	-38.889
845.17	0.000
845.47	-33.333
845.76	-61.905
846.06	52.941
846.36	-60.000
846.66	7.143
846.96	40.000
847.25	25.000
847.55	14.286
847.85	-87.500
848.15	9.091
848.44	-633.333
848.74	-10.000
849.04	25.926
849.34	9.091
849.63	-133.333
849.93	-400.000
850.23	-5.556
850.53	60.000
850.82	-92.308
851.12	0.000
851.42	-6.667
851.71	-7.692
852.01	14.286
852.31	-425.000
852.61	0.000
852.90	-20.000
853.20	42.105
853.50	-83.333
853.79	26.087
854.09	8.333
854.39	0.000
854.68	-16.667
854.98	25.806
855.28	-34.615
855.57	5.000
855.87	5.556
856.17	14.815
856.46	-14.286
856.76	-26.667
857.05	-22.222
857.35	32.000
857.65	-27.778
857.94	-115.385
858.24	31.034
858.53	-16.667
858.83	3.704
859.13	-13.636
859.42	-30.435
859.72	-300.000
860.01	-466.667
860.31	8.000
860.60	-33.333
860.90	-566.667
861.20	-60.000
861.49	-450.000
861.79	-13.333
862.08	-25.000
862.38	13.333
862.67	-40.000
862.97	-66.667
863.26	-66.667
863.56	44.444
863.85	-200.000
864.15	44.444
864.44	-50.000
864.74	35.714
865.03	200.000
865.33	-120.000
865.62	16.667
865.92	-50.000
866.21	-250.000
866.51	31.250
866.80	9.091
867.10	-400.000
867.39	-16.667
867.69	0.000
867.98	-15.385
868.27	-100.000
868.57	33.333
868.86	16.667
869.16	-92.308
869.45	46.667
869.75	-1500.000
870.04	0.000
870.33	-85.714
870.63	42.857
870.92	433.333
871.22	-280.000
871.51	-1200.000
871.80	22.222
872.10	266.667
>>>>>End Processed Spectral Data<<<<<
