SpectraSuite Data File
++++++++++++++++++++++++++++++++++++
Date: Fri May 15 21:03:04 PDT 2015
User: schluterlab
Dark Spectrum Present: Yes
Reference Spectrum Present: Yes
Number of Sampled Component Spectra: 1
Spectrometers: USB2E3373
Integration Time (usec): 3000 (USB2E3373)
Spectra Averaged: 3 (USB2E3373)
Boxcar Smoothing: 0 (USB2E3373)
Correct for Electrical Dark: No (USB2E3373)
Strobe/Lamp Enabled: No (USB2E3373)
Correct for Detector Non-linearity: No (USB2E3373)
Correct for Stray Light: No (USB2E3373)
Number of Pixels in Processed Spectrum: 2048
>>>>>Begin Processed Spectral Data<<<<<
178.53	0.000
178.91	0.000
179.29	0.000
179.67	-600.000
180.04	57.143
180.42	0.000
180.80	-1200.000
181.18	400.000
181.56	550.000
181.94	-450.000
182.31	200.000
182.69	-240.000
183.07	-433.333
183.45	-60.000
183.83	216.667
184.20	-100.000
184.58	100.000
184.96	275.000
185.34	233.333
185.72	-1050.000
186.09	123.077
186.47	-300.000
186.85	183.333
187.23	177.778
187.61	100.000
187.98	-700.000
188.36	-33.333
188.74	-400.000
189.12	-5.882
189.49	5.556
189.87	0.000
190.25	78.571
190.63	-100.000
191.00	-166.667
191.38	21.053
191.76	400.000
192.14	100.000
192.51	0.000
192.89	-100.000
193.27	-157.143
193.65	233.333
194.02	218.182
194.40	-70.000
194.78	-75.000
195.15	-25.000
195.53	-100.000
195.91	300.000
196.29	-350.000
196.66	107.692
197.04	200.000
197.42	-55.556
197.79	-366.667
198.17	-130.769
198.55	600.000
198.92	-66.667
199.30	-500.000
199.68	-320.000
200.05	-400.000
200.43	0.000
200.81	-400.000
201.18	-433.333
201.56	1300.000
201.94	-350.000
202.31	66.667
202.69	-260.000
203.07	400.000
203.44	-1300.000
203.82	0.000
204.19	-7.143
204.57	-366.667
204.95	112.500
205.32	-30.000
205.70	-114.286
206.08	-25.000
206.45	55.556
206.83	7.143
207.20	-128.571
207.58	2200.000
207.96	-66.667
208.33	-160.000
208.71	-175.000
209.08	-216.667
209.46	-1300.000
209.84	80.000
210.21	-1100.000
210.59	100.000
210.96	100.000
211.34	25.000
211.71	33.333
212.09	-142.857
212.46	-2000.000
212.84	0.000
213.22	0.000
213.59	550.000
213.97	-30.769
214.34	-45.455
214.72	-333.333
215.09	400.000
215.47	-38.462
215.84	-18.182
216.22	0.000
216.59	-100.000
216.97	-600.000
217.34	-300.000
217.72	-260.000
218.09	25.000
218.47	112.500
218.84	-1600.000
219.22	-211.111
219.59	-340.000
219.97	666.667
220.34	275.000
220.72	-114.286
221.09	-200.000
221.47	-150.000
221.84	-950.000
222.22	-1000.000
222.59	-18.182
222.97	-41.667
223.34	0.000
223.72	-71.429
224.09	9.524
224.46	25.000
224.84	700.000
225.21	-70.000
225.59	26.667
225.96	-550.000
226.34	325.000
226.71	-71.429
227.08	-216.667
227.46	50.000
227.83	-1100.000
228.21	22.222
228.58	-27.273
228.95	-50.000
229.33	200.000
229.70	-37.500
230.08	-37.500
230.45	-71.429
230.82	42.857
231.20	-33.333
231.57	57.143
231.95	-57.143
232.32	-120.000
232.69	-50.000
233.07	-266.667
233.44	-300.000
233.81	-120.000
234.19	11.111
234.56	-41.176
234.93	250.000
235.31	50.000
235.68	-320.000
236.05	-23.077
236.43	-35.000
236.80	64.706
237.17	34.375
237.55	-40.000
237.92	0.000
238.29	-22.222
238.67	23.333
239.04	-2.941
239.41	-29.268
239.79	3.333
240.16	21.951
240.53	15.789
240.91	-8.696
241.28	7.937
241.65	12.500
242.02	20.548
242.40	10.000
242.77	16.949
243.14	6.061
243.51	1.250
243.89	22.989
244.26	10.345
244.63	3.571
245.00	14.433
245.38	23.711
245.75	12.360
246.12	12.931
246.49	14.050
246.87	16.346
247.24	6.723
247.61	9.649
247.98	13.008
248.36	16.250
248.73	23.026
249.10	16.883
249.47	21.519
249.84	19.608
250.22	16.471
250.59	22.222
250.96	17.840
251.33	13.372
251.70	21.765
252.08	18.274
252.45	18.317
252.82	20.603
253.19	20.737
253.56	21.495
253.94	21.171
254.31	23.478
254.68	28.070
255.05	17.717
255.42	31.004
255.79	22.394
256.16	22.568
256.54	24.627
256.91	23.194
257.28	20.074
257.65	20.599
258.02	15.603
258.39	20.875
258.76	21.978
259.14	21.927
259.51	19.094
259.88	21.649
260.25	22.876
260.62	23.264
260.99	24.068
261.36	22.260
261.73	26.582
262.10	25.532
262.47	19.018
262.85	20.690
263.22	23.077
263.59	22.741
263.96	22.050
264.33	26.667
264.70	17.560
265.07	20.536
265.44	26.629
265.81	24.011
266.18	21.311
266.55	23.136
266.92	22.539
267.29	24.804
267.66	21.995
268.03	24.346
268.40	21.410
268.77	26.203
269.14	23.261
269.51	22.622
269.88	23.691
270.25	21.429
270.62	20.244
270.99	21.739
271.36	19.071
271.73	23.005
272.10	23.114
272.47	22.459
272.84	26.980
273.21	25.986
273.58	23.855
273.95	21.968
274.32	22.633
274.69	19.683
275.06	23.438
275.43	21.769
275.80	22.737
276.17	22.529
276.54	21.199
276.91	21.053
277.28	22.052
277.65	25.620
278.02	23.617
278.39	21.882
278.76	22.013
279.13	20.539
279.50	26.681
279.87	21.598
280.23	21.290
280.60	24.366
280.97	22.424
281.34	23.077
281.71	25.051
282.08	20.859
282.45	21.526
282.82	20.270
283.19	23.211
283.56	23.507
283.92	21.063
284.29	21.923
284.66	21.899
285.03	24.558
285.40	22.117
285.77	20.914
286.14	19.495
286.51	23.247
286.87	21.207
287.24	22.284
287.61	20.106
287.98	21.754
288.35	19.064
288.72	21.191
289.08	20.139
289.45	21.090
289.82	20.455
290.19	18.601
290.56	18.182
290.93	19.024
291.29	18.490
291.66	20.945
292.03	18.820
292.40	20.645
292.77	18.979
293.13	17.857
293.50	17.754
293.87	17.863
294.24	18.547
294.60	16.692
294.97	19.940
295.34	17.638
295.71	18.480
296.08	17.489
296.44	16.501
296.81	17.361
297.18	17.391
297.55	19.512
297.91	18.767
298.28	18.470
298.65	17.368
299.02	17.790
299.38	15.185
299.75	16.414
300.12	16.361
300.48	16.733
300.85	17.490
301.22	17.532
301.59	15.263
301.95	17.215
302.32	17.510
302.69	15.920
303.05	16.337
303.42	14.072
303.79	14.720
304.15	15.651
304.52	15.815
304.89	14.854
305.25	14.165
305.62	15.519
305.99	14.386
306.35	15.954
306.72	14.286
307.09	15.165
307.45	15.270
307.82	14.583
308.19	17.189
308.55	15.812
308.92	15.033
309.29	14.190
309.65	13.348
310.02	14.961
310.38	15.587
310.75	14.208
311.12	15.608
311.48	14.634
311.85	14.031
312.22	14.135
312.58	15.180
312.95	14.941
313.31	15.424
313.68	12.565
314.05	14.694
314.41	14.639
314.78	14.433
315.14	16.341
315.51	15.114
315.87	15.471
316.24	15.774
316.61	15.748
316.97	15.575
317.34	14.453
317.70	15.010
318.07	15.577
318.43	16.275
318.80	15.720
319.16	16.504
319.53	17.284
319.89	16.339
320.26	16.194
320.62	16.148
320.99	15.553
321.35	15.725
321.72	17.965
322.08	17.825
322.45	17.157
322.81	18.664
323.18	16.585
323.54	19.015
323.91	18.695
324.27	19.727
324.64	19.944
325.00	19.982
325.37	19.835
325.73	19.583
326.10	20.163
326.46	20.090
326.83	21.172
327.19	22.668
327.56	23.023
327.92	22.975
328.29	23.036
328.65	23.113
329.01	24.357
329.38	24.700
329.74	22.946
330.11	25.950
330.47	25.788
330.84	24.808
331.20	27.186
331.56	26.019
331.93	26.210
332.29	27.131
332.66	26.878
333.02	27.695
333.38	26.214
333.75	27.015
334.11	27.574
334.48	28.105
334.84	27.564
335.20	26.990
335.57	27.652
335.93	28.726
336.29	27.440
336.66	27.339
337.02	28.067
337.38	27.685
337.75	28.364
338.11	29.125
338.47	27.190
338.84	29.298
339.20	28.336
339.56	28.807
339.93	28.111
340.29	28.624
340.65	28.495
341.02	28.014
341.38	27.168
341.74	28.357
342.11	28.076
342.47	27.936
342.83	29.585
343.20	28.571
343.56	29.304
343.92	30.027
344.28	29.718
344.65	28.670
345.01	27.831
345.37	29.016
345.73	30.377
346.10	30.285
346.46	29.184
346.82	28.069
347.19	28.678
347.55	28.822
347.91	30.583
348.27	29.588
348.63	29.813
349.00	28.384
349.36	29.260
349.72	29.934
350.08	30.492
350.45	30.088
350.81	28.738
351.17	29.886
351.53	28.490
351.89	29.645
352.26	29.120
352.62	30.645
352.98	29.237
353.34	29.549
353.70	29.531
354.07	29.194
354.43	29.944
354.79	28.984
355.15	30.556
355.51	30.617
355.87	30.016
356.24	28.467
356.60	28.375
356.96	31.111
357.32	29.872
357.68	30.180
358.04	30.129
358.40	30.145
358.77	29.266
359.13	28.823
359.49	29.661
359.85	30.421
360.21	30.383
360.57	28.921
360.93	32.148
361.29	28.097
361.66	30.486
362.02	31.136
362.38	30.617
362.74	30.659
363.10	30.850
363.46	30.838
363.82	30.428
364.18	30.701
364.54	31.176
364.90	31.470
365.26	30.277
365.62	32.336
365.98	30.352
366.35	31.974
366.71	31.633
367.07	31.132
367.43	31.560
367.79	30.954
368.15	31.443
368.51	30.736
368.87	31.515
369.23	31.841
369.59	31.560
369.95	31.598
370.31	31.720
370.67	31.343
371.03	30.695
371.39	32.531
371.75	30.989
372.11	30.742
372.47	32.988
372.83	32.009
373.19	32.097
373.55	31.191
373.91	31.749
374.27	32.814
374.63	32.879
374.99	31.986
375.35	32.730
375.71	34.545
376.07	33.357
376.42	32.925
376.78	32.819
377.14	33.243
377.50	32.736
377.86	34.337
378.22	33.440
378.58	33.782
378.94	33.522
379.30	33.375
379.66	34.483
380.02	33.231
380.38	32.867
380.74	33.214
381.09	34.356
381.45	34.128
381.81	33.498
382.17	34.264
382.53	33.854
382.89	34.149
383.25	34.661
383.61	35.488
383.97	33.841
384.32	34.021
384.68	35.232
385.04	34.252
385.40	33.043
385.76	35.786
386.12	36.999
386.48	36.271
386.83	35.130
387.19	35.653
387.55	36.575
387.91	35.819
388.27	35.409
388.62	35.997
388.98	35.912
389.34	35.915
389.70	37.663
390.06	35.683
390.42	36.593
390.77	37.672
391.13	37.137
391.49	37.128
391.85	37.687
392.20	37.476
392.56	36.872
392.92	36.876
393.28	37.264
393.64	37.417
393.99	38.307
394.35	37.445
394.71	37.165
395.07	37.021
395.42	37.219
395.78	37.785
396.14	38.651
396.50	38.174
396.85	38.120
397.21	37.970
397.57	37.618
397.92	38.526
398.28	38.391
398.64	38.253
399.00	39.165
399.35	38.036
399.71	38.254
400.07	39.843
400.42	37.638
400.78	39.130
401.14	39.201
401.49	39.786
401.85	38.757
402.21	39.940
402.57	39.938
402.92	39.900
403.28	39.286
403.63	40.605
403.99	39.094
404.35	39.788
404.70	38.214
405.06	39.483
405.42	38.968
405.77	39.163
406.13	39.173
406.49	39.609
406.84	41.198
407.20	40.638
407.55	40.631
407.91	41.043
408.27	39.962
408.62	41.169
408.98	40.049
409.34	41.512
409.69	40.181
410.05	39.347
410.40	40.000
410.76	39.988
411.11	40.812
411.47	40.565
411.83	41.557
412.18	41.313
412.54	40.449
412.89	39.347
413.25	41.516
413.60	39.938
413.96	40.552
414.31	41.951
414.67	40.988
415.03	42.277
415.38	41.188
415.74	42.150
416.09	41.084
416.45	41.999
416.80	41.970
417.16	43.992
417.51	42.172
417.87	42.829
418.22	42.293
418.58	42.809
418.93	42.947
419.29	41.357
419.64	41.607
420.00	43.010
420.35	41.373
420.71	42.041
421.06	41.621
421.42	42.248
421.77	42.312
422.12	41.714
422.48	42.014
422.83	43.039
423.19	42.607
423.54	43.034
423.90	42.992
424.25	43.226
424.61	43.207
424.96	41.812
425.31	43.270
425.67	43.897
426.02	44.876
426.38	44.709
426.73	44.310
427.09	43.861
427.44	43.941
427.79	42.546
428.15	43.811
428.50	44.216
428.85	42.260
429.21	43.973
429.56	45.229
429.92	43.862
430.27	43.509
430.62	42.812
430.98	43.524
431.33	43.796
431.68	43.747
432.04	44.718
432.39	43.639
432.74	43.536
433.10	44.195
433.45	43.489
433.80	44.283
434.16	43.989
434.51	44.194
434.86	45.470
435.22	44.756
435.57	45.041
435.92	45.329
436.28	43.828
436.63	44.894
436.98	44.844
437.34	44.525
437.69	45.677
438.04	44.900
438.39	43.433
438.75	45.537
439.10	43.860
439.45	44.796
439.81	45.015
440.16	45.487
440.51	45.672
440.86	46.042
441.22	44.796
441.57	45.199
441.92	46.222
442.27	46.175
442.63	46.895
442.98	45.549
443.33	44.908
443.68	45.836
444.03	44.511
444.39	44.860
444.74	47.101
445.09	46.437
445.44	46.895
445.79	46.674
446.15	45.154
446.50	45.813
446.85	46.440
447.20	46.298
447.55	46.708
447.91	45.911
448.26	47.069
448.61	46.978
448.96	46.357
449.31	46.358
449.66	46.690
450.02	46.378
450.37	47.007
450.72	45.762
451.07	47.468
451.42	46.442
451.77	47.137
452.12	44.438
452.47	46.491
452.83	45.819
453.18	46.363
453.53	46.713
453.88	48.330
454.23	46.589
454.58	45.907
454.93	47.487
455.28	45.841
455.63	48.481
455.98	46.302
456.34	46.807
456.69	46.315
457.04	47.511
457.39	47.995
457.74	46.554
458.09	45.026
458.44	46.401
458.79	45.882
459.14	47.712
459.49	46.627
459.84	47.152
460.19	46.541
460.54	47.861
460.89	47.045
461.24	47.516
461.59	45.962
461.94	45.849
462.29	47.829
462.64	47.973
462.99	46.716
463.34	47.427
463.69	47.040
464.04	46.731
464.39	45.482
464.74	46.074
465.09	47.286
465.44	47.086
465.79	45.181
466.14	46.693
466.49	46.003
466.84	46.222
467.19	46.370
467.54	45.402
467.89	47.694
468.24	46.898
468.59	48.635
468.94	46.603
469.29	46.230
469.64	47.847
469.99	48.423
470.34	46.485
470.68	49.590
471.03	46.921
471.38	48.217
471.73	47.899
472.08	47.015
472.43	47.584
472.78	47.224
473.13	47.891
473.48	47.622
473.83	47.447
474.17	48.575
474.52	47.224
474.87	47.576
475.22	46.126
475.57	47.657
475.92	47.724
476.27	48.952
476.61	48.090
476.96	45.287
477.31	48.513
477.66	46.910
478.01	47.782
478.36	46.678
478.70	47.308
479.05	48.022
479.40	48.649
479.75	47.445
480.10	47.312
480.45	47.800
480.79	47.633
481.14	47.695
481.49	46.995
481.84	48.166
482.19	47.521
482.53	48.058
482.88	48.305
483.23	47.505
483.58	48.019
483.92	46.273
484.27	46.627
484.62	47.019
484.97	46.725
485.31	45.990
485.66	43.068
486.01	43.921
486.36	44.667
486.70	45.640
487.05	46.571
487.40	46.329
487.75	46.901
488.09	46.539
488.44	46.905
488.79	47.815
489.13	48.478
489.48	47.029
489.83	47.489
490.17	47.281
490.52	47.344
490.87	48.311
491.22	49.045
491.56	47.201
491.91	47.036
492.26	47.934
492.60	47.601
492.95	48.303
493.30	47.142
493.64	48.870
493.99	48.261
494.34	48.155
494.68	48.619
495.03	47.105
495.37	48.135
495.72	48.662
496.07	48.878
496.41	48.302
496.76	48.273
497.11	47.368
497.45	47.733
497.80	50.050
498.14	47.293
498.49	48.603
498.84	49.102
499.18	49.096
499.53	47.966
499.87	47.276
500.22	47.923
500.56	48.916
500.91	48.594
501.26	47.701
501.60	49.139
501.95	48.763
502.29	48.959
502.64	48.552
502.98	48.989
503.33	48.127
503.67	48.867
504.02	50.098
504.36	48.887
504.71	48.333
505.06	47.962
505.40	48.579
505.75	49.639
506.09	47.795
506.44	49.281
506.78	49.694
507.13	49.018
507.47	48.094
507.82	48.771
508.16	50.185
508.51	50.052
508.85	49.451
509.19	50.080
509.54	50.349
509.88	49.299
510.23	49.597
510.57	49.706
510.92	48.348
511.26	49.264
511.61	50.990
511.95	49.808
512.30	50.055
512.64	51.085
512.98	50.140
513.33	50.588
513.67	51.563
514.02	51.659
514.36	51.371
514.70	51.573
515.05	51.293
515.39	50.708
515.74	52.874
516.08	51.943
516.42	51.296
516.77	52.428
517.11	51.869
517.46	51.765
517.80	51.609
518.14	52.174
518.49	50.901
518.83	51.640
519.17	51.122
519.52	50.562
519.86	51.501
520.20	52.369
520.55	51.094
520.89	52.321
521.23	52.818
521.58	53.438
521.92	52.500
522.26	52.440
522.61	53.247
522.95	54.305
523.29	53.240
523.64	52.795
523.98	54.958
524.32	53.286
524.66	53.777
525.01	53.831
525.35	54.504
525.69	52.997
526.04	53.241
526.38	53.178
526.72	51.733
527.06	53.178
527.41	53.298
527.75	54.021
528.09	53.754
528.43	54.018
528.78	54.191
529.12	54.065
529.46	54.191
529.80	52.502
530.15	54.587
530.49	53.468
530.83	54.651
531.17	55.138
531.51	56.361
531.86	54.249
532.20	54.210
532.54	54.391
532.88	55.510
533.22	53.696
533.57	54.980
533.91	53.264
534.25	54.883
534.59	53.817
534.93	53.493
535.27	53.553
535.62	53.078
535.96	52.903
536.30	54.420
536.64	55.203
536.98	54.634
537.32	55.761
537.66	55.189
538.01	55.455
538.35	54.300
538.69	54.527
539.03	52.700
539.37	54.845
539.71	54.601
540.05	54.243
540.39	54.709
540.73	54.812
541.07	54.972
541.42	54.368
541.76	55.471
542.10	54.783
542.44	55.942
542.78	54.095
543.12	54.876
543.46	54.798
543.80	54.892
544.14	53.805
544.48	54.763
544.82	54.135
545.16	54.440
545.50	54.806
545.84	54.674
546.18	57.021
546.52	54.867
546.86	56.722
547.20	55.079
547.54	54.276
547.88	54.144
548.22	53.715
548.56	53.958
548.90	54.245
549.24	53.306
549.58	55.148
549.92	54.182
550.26	54.799
550.60	55.539
550.94	55.116
551.28	55.719
551.62	56.462
551.96	56.391
552.30	55.848
552.64	54.937
552.98	54.641
553.32	54.208
553.66	55.370
554.00	56.350
554.34	57.164
554.68	56.268
555.02	56.994
555.36	57.442
555.69	56.044
556.03	54.461
556.37	54.875
556.71	55.235
557.05	57.718
557.39	55.836
557.73	56.372
558.07	56.863
558.41	55.743
558.75	57.677
559.08	56.501
559.42	56.349
559.76	57.326
560.10	55.887
560.44	56.813
560.78	55.455
561.12	56.629
561.45	55.517
561.79	56.653
562.13	56.210
562.47	55.827
562.81	54.107
563.15	55.078
563.48	56.719
563.82	55.662
564.16	56.476
564.50	54.662
564.84	55.823
565.17	54.930
565.51	57.445
565.85	57.476
566.19	54.841
566.52	56.635
566.86	57.326
567.20	55.915
567.54	56.691
567.88	55.946
568.21	54.808
568.55	55.054
568.89	54.928
569.23	54.117
569.56	53.546
569.90	53.512
570.24	52.363
570.57	52.982
570.91	52.736
571.25	51.332
571.59	50.763
571.92	50.370
572.26	51.963
572.60	51.256
572.93	51.459
573.27	50.878
573.61	50.358
573.95	50.847
574.28	49.311
574.62	49.911
574.96	49.838
575.29	50.101
575.63	48.976
575.97	50.068
576.30	50.745
576.64	49.377
576.98	50.373
577.31	50.504
577.65	50.206
577.98	50.127
578.32	49.635
578.66	49.645
578.99	49.626
579.33	50.037
579.67	50.164
580.00	50.127
580.34	49.851
580.67	50.297
581.01	50.600
581.35	49.569
581.68	48.829
582.02	49.055
582.35	49.322
582.69	49.610
583.02	50.310
583.36	50.603
583.70	51.584
584.03	51.877
584.37	52.033
584.70	50.989
585.04	49.430
585.37	49.730
585.71	49.593
586.04	50.101
586.38	50.227
586.72	51.478
587.05	51.791
587.39	51.076
587.72	52.078
588.06	50.567
588.39	51.324
588.73	51.587
589.06	52.674
589.40	52.506
589.73	53.450
590.07	53.285
590.40	52.902
590.73	53.913
591.07	53.223
591.40	53.829
591.74	53.348
592.07	53.386
592.41	53.357
592.74	51.693
593.08	50.506
593.41	50.511
593.75	50.867
594.08	51.493
594.41	52.038
594.75	50.649
595.08	51.835
595.42	51.748
595.75	52.347
596.09	52.385
596.42	52.501
596.75	53.330
597.09	53.349
597.42	52.258
597.75	53.825
598.09	51.788
598.42	52.211
598.76	51.437
599.09	51.843
599.42	50.436
599.76	50.903
600.09	51.508
600.42	51.175
600.76	50.371
601.09	51.336
601.42	50.999
601.76	51.687
602.09	51.279
602.42	52.696
602.76	51.995
603.09	52.076
603.42	53.637
603.76	51.855
604.09	51.721
604.42	52.580
604.76	53.271
605.09	52.285
605.42	52.641
605.75	51.839
606.09	51.762
606.42	50.917
606.75	51.818
607.09	52.044
607.42	51.661
607.75	51.199
608.08	51.078
608.42	50.799
608.75	53.157
609.08	53.812
609.41	53.299
609.75	52.873
610.08	54.069
610.41	52.367
610.74	52.121
611.07	53.643
611.41	53.399
611.74	54.264
612.07	52.677
612.40	53.009
612.73	53.785
613.07	53.375
613.40	52.735
613.73	52.658
614.06	52.977
614.39	52.848
614.72	52.213
615.06	52.737
615.39	51.801
615.72	52.260
616.05	53.128
616.38	51.738
616.71	53.089
617.05	54.972
617.38	53.928
617.71	54.277
618.04	55.111
618.37	55.296
618.70	54.851
619.03	57.431
619.36	54.269
619.69	56.179
620.03	54.785
620.36	54.435
620.69	53.819
621.02	54.664
621.35	56.929
621.68	56.888
622.01	56.583
622.34	57.063
622.67	54.732
623.00	54.671
623.33	55.107
623.66	52.954
623.99	53.933
624.32	55.437
624.65	54.436
624.99	55.455
625.32	54.284
625.65	55.145
625.98	55.600
626.31	56.941
626.64	57.799
626.97	57.330
627.30	56.567
627.63	56.326
627.96	57.323
628.29	56.799
628.62	56.244
628.95	57.114
629.28	57.762
629.61	57.029
629.94	58.749
630.26	55.830
630.59	58.793
630.92	57.949
631.25	56.615
631.58	57.819
631.91	57.675
632.24	58.716
632.57	57.386
632.90	58.482
633.23	58.235
633.56	60.202
633.89	58.076
634.22	59.136
634.55	62.135
634.88	59.515
635.20	59.103
635.53	59.200
635.86	59.038
636.19	59.638
636.52	58.163
636.85	58.189
637.18	56.478
637.51	58.239
637.83	58.081
638.16	62.483
638.49	57.357
638.82	58.684
639.15	57.938
639.48	60.110
639.81	58.298
640.13	60.317
640.46	61.224
640.79	59.057
641.12	61.743
641.45	58.559
641.77	60.741
642.10	61.295
642.43	62.058
642.76	61.551
643.09	60.582
643.41	59.709
643.74	60.297
644.07	59.770
644.40	60.811
644.73	62.172
645.05	59.564
645.38	61.728
645.71	59.397
646.04	62.118
646.36	60.816
646.69	60.612
647.02	61.626
647.35	61.754
647.67	61.609
648.00	62.500
648.33	58.532
648.66	61.017
648.98	58.124
649.31	55.702
649.64	55.416
649.96	57.050
650.29	57.922
650.62	59.487
650.94	61.296
651.27	62.197
651.60	58.919
651.92	59.615
652.25	57.904
652.58	57.167
652.90	59.348
653.23	55.126
653.56	54.822
653.88	56.529
654.21	55.692
654.54	56.876
654.86	58.744
655.19	53.801
655.52	52.090
655.84	42.864
656.17	46.325
656.49	62.628
656.82	65.707
657.15	51.214
657.47	39.375
657.80	29.618
658.13	29.373
658.45	46.767
658.78	47.236
659.10	47.250
659.43	47.812
659.75	50.074
660.08	49.034
660.41	53.115
660.73	54.558
661.06	57.712
661.38	57.339
661.71	58.111
662.03	60.515
662.36	56.044
662.68	53.982
663.01	62.009
663.33	54.988
663.66	58.605
663.98	54.651
664.31	55.224
664.63	58.525
664.96	54.783
665.28	57.395
665.61	56.061
665.93	57.609
666.26	56.182
666.58	53.691
666.91	58.353
667.23	60.142
667.56	60.427
667.88	56.835
668.21	59.666
668.53	60.520
668.86	60.849
669.18	56.132
669.50	56.174
669.83	54.884
670.15	56.177
670.48	57.416
670.80	54.608
671.13	57.047
671.45	52.740
671.77	55.150
672.10	52.475
672.42	52.996
672.75	51.510
673.07	52.594
673.39	52.294
673.72	48.323
674.04	55.000
674.37	52.542
674.69	51.606
675.01	57.556
675.34	51.802
675.66	54.630
675.98	56.098
676.31	54.358
676.63	55.107
676.95	53.636
677.28	55.059
677.60	56.386
677.92	57.798
678.25	51.422
678.57	52.814
678.89	55.252
679.22	57.494
679.54	50.602
679.86	48.907
680.18	50.680
680.51	49.053
680.83	47.515
681.15	52.000
681.48	52.459
681.80	52.273
682.12	50.000
682.44	46.653
682.77	51.214
683.09	53.089
683.41	51.136
683.73	53.687
684.06	51.770
684.38	51.828
684.70	50.980
685.02	51.660
685.34	49.012
685.67	45.779
685.99	47.740
686.31	47.257
686.63	47.681
686.96	47.719
687.28	44.242
687.60	46.768
687.92	47.677
688.24	47.984
688.56	48.690
688.89	50.223
689.21	50.222
689.53	47.100
689.85	50.233
690.17	48.884
690.49	50.355
690.82	50.000
691.14	47.619
691.46	50.467
691.78	46.171
692.10	48.817
692.42	46.970
692.74	48.718
693.06	46.622
693.39	48.869
693.71	45.249
694.03	44.342
694.35	47.897
694.67	50.758
694.99	50.131
695.31	47.520
695.63	45.000
695.95	46.212
696.27	48.446
696.59	50.556
696.91	50.140
697.23	46.015
697.56	49.257
697.88	46.667
698.20	46.469
698.52	44.706
698.84	42.344
699.16	46.250
699.48	44.862
699.80	43.672
700.12	50.135
700.44	51.821
700.76	45.349
701.08	43.939
701.40	49.398
701.72	51.852
702.04	53.135
702.36	49.498
702.68	46.847
703.00	45.758
703.32	45.455
703.64	44.350
703.96	48.116
704.28	46.319
704.60	45.397
704.91	45.426
705.23	51.163
705.55	54.770
705.87	50.903
706.19	52.222
706.51	46.735
706.83	49.839
707.15	40.498
707.47	45.378
707.79	39.063
708.11	45.750
708.43	45.750
708.74	42.377
709.06	48.169
709.38	46.177
709.70	42.899
710.02	43.949
710.34	47.368
710.66	42.628
710.98	45.364
711.29	45.902
711.61	50.508
711.93	44.625
712.25	47.766
712.57	43.223
712.89	41.418
713.20	44.291
713.52	42.509
713.84	42.321
714.16	41.237
714.48	43.871
714.80	48.718
715.11	40.122
715.43	41.066
715.75	41.333
716.07	43.522
716.39	42.617
716.70	45.018
717.02	46.947
717.34	45.749
717.66	47.345
717.97	43.478
718.29	39.331
718.61	42.520
718.93	40.698
719.24	44.867
719.56	47.791
719.88	38.488
720.20	44.697
720.51	37.165
720.83	44.788
721.15	50.420
721.46	39.516
721.78	41.107
722.10	42.751
722.42	39.004
722.73	44.490
723.05	48.571
723.37	43.644
723.68	43.694
724.00	40.171
724.32	43.111
724.63	47.727
724.95	40.611
725.27	47.005
725.58	46.186
725.90	38.492
726.22	40.154
726.53	44.407
726.85	41.573
727.16	43.019
727.48	37.652
727.80	42.510
728.11	39.407
728.43	34.118
728.74	35.887
729.06	40.800
729.38	46.617
729.69	38.247
730.01	40.000
730.32	37.687
730.64	38.869
730.96	43.019
731.27	39.000
731.59	36.271
731.90	34.395
732.22	40.694
732.53	39.867
732.85	42.908
733.16	39.394
733.48	35.612
733.80	39.855
734.11	36.271
734.43	39.863
734.74	39.394
735.06	33.876
735.37	38.973
735.69	39.394
736.00	36.585
736.32	36.242
736.63	37.324
736.95	40.956
737.26	37.367
737.58	33.893
737.89	36.630
738.21	35.338
738.52	38.683
738.83	40.611
739.15	34.498
739.46	37.402
739.78	35.897
740.09	32.680
740.41	42.029
740.72	36.220
741.04	39.676
741.35	37.872
741.66	39.810
741.98	39.796
742.29	34.653
742.61	43.979
742.92	29.384
743.23	26.852
743.55	39.819
743.86	40.191
744.18	34.928
744.49	41.489
744.80	33.152
745.12	45.989
745.43	35.610
745.74	39.062
746.06	37.561
746.37	36.649
746.68	32.701
747.00	39.894
747.31	41.791
747.62	38.835
747.94	39.234
748.25	36.139
748.56	45.902
748.88	36.649
749.19	39.894
749.50	33.990
749.82	33.019
750.13	30.734
750.44	40.226
750.75	39.925
751.07	42.701
751.38	36.782
751.69	36.471
752.01	40.310
752.32	37.052
752.63	35.968
752.94	33.190
753.26	41.841
753.57	37.557
753.88	35.841
754.19	31.667
754.51	35.124
754.82	34.413
755.13	36.667
755.44	37.097
755.75	40.234
756.07	35.019
756.38	28.679
756.69	35.632
757.00	33.000
757.31	37.255
757.63	32.317
757.94	30.278
758.25	32.329
758.56	31.383
758.87	27.479
759.18	31.153
759.50	34.182
759.81	39.465
760.12	32.258
760.43	34.848
760.74	34.877
761.05	32.308
761.36	34.375
761.67	36.667
761.99	37.755
762.30	22.545
762.61	33.202
762.92	33.484
763.23	32.883
763.54	27.103
763.85	33.051
764.16	32.365
764.47	35.081
764.78	28.205
765.10	35.017
765.41	28.391
765.72	35.238
766.03	28.195
766.34	29.927
766.65	37.052
766.96	37.879
767.27	30.319
767.58	34.483
767.89	25.532
768.20	34.091
768.51	34.615
768.82	36.453
769.13	32.258
769.44	31.330
769.75	30.594
770.06	31.897
770.37	32.212
770.68	27.919
770.99	29.864
771.30	34.314
771.61	34.842
771.92	30.603
772.23	37.438
772.54	39.785
772.85	35.802
773.16	34.831
773.47	41.176
773.78	38.562
774.09	32.335
774.39	25.333
774.70	28.662
775.01	37.241
775.32	35.000
775.63	22.314
775.94	37.405
776.25	35.433
776.56	29.167
776.87	39.423
777.18	27.350
777.48	34.483
777.79	26.957
778.10	18.095
778.41	27.928
778.72	29.365
779.03	30.075
779.34	35.461
779.65	37.671
779.95	26.712
780.26	34.483
780.57	17.886
780.88	31.496
781.19	28.448
781.50	39.535
781.80	32.544
782.11	22.013
782.42	35.385
782.73	30.935
783.04	32.593
783.34	29.861
783.65	17.094
783.96	25.410
784.27	28.966
784.57	14.634
784.88	28.125
785.19	42.000
785.50	43.000
785.81	18.966
786.11	21.552
786.42	29.126
786.73	28.182
787.04	26.531
787.34	31.250
787.65	18.095
787.96	24.779
788.26	30.000
788.57	20.513
788.88	28.125
789.19	26.190
789.49	27.826
789.80	25.510
790.11	22.222
790.41	10.909
790.72	27.174
791.03	22.727
791.33	25.000
791.64	22.500
791.95	29.070
792.25	31.915
792.56	33.708
792.87	26.027
793.17	36.232
793.48	12.000
793.79	16.250
794.09	36.250
794.40	16.981
794.70	20.388
795.01	27.642
795.32	26.496
795.62	15.238
795.93	30.392
796.23	35.849
796.54	23.958
796.85	35.294
797.15	18.310
797.46	33.333
797.76	34.848
798.07	29.070
798.37	25.000
798.68	24.242
798.99	20.988
799.29	22.857
799.60	40.580
799.90	17.333
800.21	36.066
800.51	23.077
800.82	25.424
801.12	26.087
801.43	16.393
801.73	30.159
802.04	18.000
802.34	4.478
802.65	36.538
802.95	10.714
803.26	7.692
803.56	11.765
803.87	4.348
804.17	28.000
804.48	34.921
804.78	12.963
805.09	21.739
805.39	0.000
805.70	27.778
806.00	17.544
806.30	23.944
806.61	21.429
806.91	12.500
807.22	30.263
807.52	26.667
807.83	12.727
808.13	13.889
808.43	23.529
808.74	34.328
809.04	1.695
809.35	-7.692
809.65	23.437
809.95	-35.135
810.26	25.000
810.56	15.068
810.86	26.190
811.17	12.000
811.47	40.816
811.77	-2.632
812.08	27.273
812.38	5.660
812.69	-10.000
812.99	27.273
813.29	-2.632
813.59	2.857
813.90	18.182
814.20	5.128
814.50	13.462
814.81	30.189
815.11	8.511
815.41	6.780
815.72	23.810
816.02	25.490
816.32	4.167
816.62	17.073
816.93	-5.405
817.23	14.286
817.53	18.750
817.84	4.348
818.14	9.615
818.44	-15.789
818.74	50.000
819.04	15.000
819.35	13.514
819.65	32.353
819.95	-8.333
820.25	14.286
820.56	25.000
820.86	-27.586
821.16	15.000
821.46	8.511
821.76	37.500
822.07	18.605
822.37	-21.622
822.67	9.375
822.97	9.524
823.27	-3.571
823.57	4.000
823.88	-3.704
824.18	0.000
824.48	8.824
824.78	-9.677
825.08	-13.043
825.38	-3.030
825.69	-45.833
825.99	-5.263
826.29	-8.333
826.59	26.667
826.89	-33.333
827.19	34.783
827.49	5.000
827.79	8.571
828.09	32.143
828.39	15.152
828.70	48.649
829.00	0.000
829.30	-19.048
829.60	3.333
829.90	-9.375
830.20	5.263
830.50	18.519
830.80	21.739
831.10	0.000
831.40	12.121
831.70	9.677
832.00	47.619
832.30	-33.333
832.60	-75.000
832.90	17.241
833.20	-45.000
833.50	21.212
833.80	-3.704
834.10	15.385
834.40	-9.375
834.70	11.111
835.00	5.263
835.30	23.077
835.60	66.667
835.90	-19.355
836.20	-4.545
836.50	-25.000
836.80	-50.000
837.10	17.857
837.40	-100.000
837.70	-13.636
838.00	0.000
838.30	0.000
838.60	-23.077
838.90	-22.727
839.19	21.429
839.49	30.000
839.79	-69.231
840.09	-83.333
840.39	7.143
840.69	-10.714
840.99	-19.231
841.29	-26.316
841.59	-60.000
841.88	45.455
842.18	-90.000
842.48	0.000
842.78	26.667
843.08	29.630
843.38	-130.000
843.68	4.348
843.97	-13.333
844.27	-66.667
844.57	30.000
844.87	-11.111
845.17	-66.667
845.47	-13.333
845.76	-47.619
846.06	-5.882
846.36	0.000
846.66	50.000
846.96	-33.333
847.25	-75.000
847.55	-7.143
847.85	-137.500
848.15	-40.909
848.44	-600.000
848.74	-40.000
849.04	7.407
849.34	-27.273
849.63	-183.333
849.93	-180.000
850.23	-55.556
850.53	0.000
850.82	-30.769
851.12	-44.444
851.42	0.000
851.71	3.846
852.01	0.000
852.31	-175.000
852.61	-18.182
852.90	-20.000
853.20	-5.263
853.50	-66.667
853.79	-13.043
854.09	66.667
854.39	-10.526
854.68	-20.833
854.98	22.581
855.28	23.077
855.57	-5.000
855.87	-44.444
856.17	48.148
856.46	-7.143
856.76	-80.000
857.05	77.778
857.35	52.000
857.65	5.556
857.94	-15.385
858.24	10.345
858.53	11.111
858.83	14.815
859.13	-31.818
859.42	-30.435
859.72	-325.000
860.01	-500.000
860.31	60.000
860.60	0.000
860.90	-400.000
861.20	-40.000
861.49	-600.000
861.79	-13.333
862.08	-40.000
862.38	-6.667
862.67	-260.000
862.97	-116.667
863.26	-41.667
863.56	22.222
863.85	-633.333
864.15	0.000
864.44	-110.000
864.74	35.714
865.03	75.000
865.33	-260.000
865.62	-50.000
865.92	-41.667
866.21	-350.000
866.51	-37.500
866.80	-109.091
867.10	-550.000
867.39	25.000
867.69	0.000
867.98	-61.538
868.27	-333.333
868.57	-33.333
868.86	72.222
869.16	-192.308
869.45	-20.000
869.75	-1300.000
870.04	0.000
870.33	-214.286
870.63	4.762
870.92	333.333
871.22	-240.000
871.51	-700.000
871.80	22.222
872.10	300.000
>>>>>End Processed Spectral Data<<<<<
