SpectraSuite Data File
++++++++++++++++++++++++++++++++++++
Date: Fri May 15 20:49:22 PDT 2015
User: schluterlab
Dark Spectrum Present: Yes
Reference Spectrum Present: Yes
Number of Sampled Component Spectra: 1
Spectrometers: USB2E3373
Integration Time (usec): 3000 (USB2E3373)
Spectra Averaged: 3 (USB2E3373)
Boxcar Smoothing: 0 (USB2E3373)
Correct for Electrical Dark: No (USB2E3373)
Strobe/Lamp Enabled: No (USB2E3373)
Correct for Detector Non-linearity: No (USB2E3373)
Correct for Stray Light: No (USB2E3373)
Number of Pixels in Processed Spectrum: 2048
>>>>>Begin Processed Spectral Data<<<<<
178.53	0.000
178.91	0.000
179.29	12.500
179.67	-1150.000
180.04	42.857
180.42	-25.000
180.80	-800.000
181.18	266.667
181.56	100.000
181.94	-150.000
182.31	-100.000
182.69	-120.000
183.07	-100.000
183.45	-160.000
183.83	-16.667
184.20	-100.000
184.58	200.000
184.96	-150.000
185.34	-33.333
185.72	-700.000
186.09	130.769
186.47	-900.000
186.85	316.667
187.23	188.889
187.61	-300.000
187.98	-233.333
188.36	-22.222
188.74	-266.667
189.12	-35.294
189.49	-44.444
189.87	0.000
190.25	64.286
190.63	-50.000
191.00	-333.333
191.38	21.053
191.76	0.000
192.14	-100.000
192.51	400.000
192.89	-233.333
193.27	-114.286
193.65	150.000
194.02	172.727
194.40	-30.000
194.78	-187.500
195.15	41.667
195.53	-225.000
195.91	400.000
196.29	125.000
196.66	146.154
197.04	128.571
197.42	-144.444
197.79	-600.000
198.17	-146.154
198.55	2000.000
198.92	-400.000
199.30	-300.000
199.68	-40.000
200.05	-533.333
200.43	0.000
200.81	-266.667
201.18	-100.000
201.56	1400.000
201.94	-450.000
202.31	200.000
202.69	-160.000
203.07	325.000
203.44	-800.000
203.82	0.000
204.19	-28.571
204.57	-500.000
204.95	-50.000
205.32	-10.000
205.70	-71.429
206.08	-75.000
206.45	122.222
206.83	-14.286
207.20	-57.143
207.58	-0.000
207.96	-400.000
208.33	-120.000
208.71	-25.000
209.08	-233.333
209.46	-1100.000
209.84	-200.000
210.21	-1400.000
210.59	-28.571
210.96	-200.000
211.34	-175.000
211.71	-20.000
212.09	-100.000
212.46	-1000.000
212.84	0.000
213.22	70.000
213.59	750.000
213.97	23.077
214.34	0.000
214.72	66.667
215.09	275.000
215.47	-23.077
215.84	-118.182
216.22	-366.667
216.59	12.500
216.97	-400.000
217.34	-125.000
217.72	-260.000
218.09	12.500
218.47	162.500
218.84	-300.000
219.22	-66.667
219.59	-120.000
219.97	800.000
220.34	400.000
220.72	-114.286
221.09	-150.000
221.47	-550.000
221.84	-850.000
222.22	-650.000
222.59	-36.364
222.97	-16.667
223.34	-233.333
223.72	-28.571
224.09	4.762
224.46	-14.286
224.84	466.667
225.21	-40.000
225.59	-20.000
225.96	-450.000
226.34	475.000
226.71	-142.857
227.08	-16.667
227.46	-50.000
227.83	-450.000
228.21	0.000
228.58	-45.455
228.95	-100.000
229.33	160.000
229.70	56.250
230.08	-125.000
230.45	-114.286
230.82	-85.714
231.20	-106.667
231.57	71.429
231.95	14.286
232.32	-100.000
232.69	-35.714
233.07	-100.000
233.44	-180.000
233.81	-30.000
234.19	66.667
234.56	47.059
234.93	700.000
235.31	-75.000
235.68	-220.000
236.05	-76.923
236.43	-85.000
236.80	35.294
237.17	-21.875
237.55	0.000
237.92	-14.815
238.29	-5.556
238.67	-10.000
239.04	-32.353
239.41	-21.951
239.79	-30.000
240.16	39.024
240.53	-5.263
240.91	-4.348
241.28	20.635
241.65	25.000
242.02	16.438
242.40	16.667
242.77	5.085
243.14	-3.030
243.51	8.750
243.89	22.989
244.26	4.598
244.63	11.905
245.00	10.309
245.38	9.278
245.75	11.236
246.12	9.483
246.49	14.876
246.87	25.962
247.24	9.244
247.61	8.772
247.98	8.130
248.36	13.750
248.73	18.421
249.10	21.429
249.47	13.291
249.84	15.686
250.22	20.000
250.59	16.993
250.96	21.596
251.33	18.023
251.70	20.000
252.08	15.228
252.45	13.366
252.82	22.613
253.19	13.825
253.56	7.477
253.94	19.369
254.31	19.130
254.68	23.684
255.05	16.535
255.42	18.777
255.79	19.691
256.16	15.953
256.54	20.149
256.91	17.490
257.28	18.216
257.65	17.978
258.02	16.667
258.39	20.875
258.76	20.147
259.14	22.591
259.51	16.505
259.88	18.900
260.25	11.438
260.62	22.569
260.99	18.644
261.36	15.411
261.73	18.671
262.10	19.149
262.47	18.712
262.85	18.495
263.22	15.692
263.59	19.938
263.96	21.118
264.33	20.606
264.70	18.452
265.07	17.560
265.44	18.130
265.81	19.492
266.18	20.765
266.55	17.995
266.92	18.912
267.29	19.321
267.66	20.972
268.03	20.942
268.40	18.277
268.77	22.995
269.14	19.424
269.51	20.566
269.88	17.955
270.25	19.388
270.62	16.829
270.99	17.391
271.36	18.826
271.73	17.840
272.10	19.221
272.47	18.440
272.84	20.050
273.21	20.418
273.58	19.036
273.95	18.307
274.32	18.707
274.69	17.421
275.06	18.973
275.43	21.088
275.80	20.971
276.17	18.851
276.54	20.985
276.91	18.421
277.28	18.996
277.65	19.215
278.02	16.596
278.39	17.287
278.76	18.658
279.13	16.805
279.50	18.908
279.87	19.438
280.23	16.344
280.60	21.053
280.97	18.586
281.34	18.462
281.71	20.945
282.08	17.178
282.45	17.221
282.82	15.444
283.19	18.762
283.56	20.039
283.92	17.837
284.29	18.462
284.66	18.798
285.03	20.039
285.40	17.202
285.77	17.223
286.14	19.314
286.51	18.450
286.87	17.916
287.24	16.575
287.61	18.342
287.98	18.246
288.35	14.905
288.72	20.841
289.08	17.708
289.45	17.223
289.82	16.434
290.19	15.870
290.56	16.467
290.93	15.825
291.29	16.179
291.66	17.953
292.03	15.949
292.40	15.968
292.77	15.789
293.13	14.448
293.50	14.871
293.87	15.115
294.24	14.992
294.60	17.139
294.97	15.327
295.34	14.724
295.71	15.350
296.08	15.097
296.44	12.660
296.81	13.472
297.18	15.652
297.55	16.396
297.91	14.384
298.28	16.227
298.65	14.247
299.02	14.420
299.38	12.175
299.75	12.276
300.12	13.613
300.48	13.307
300.85	15.843
301.22	13.636
301.59	13.289
301.95	13.038
302.32	14.527
302.69	15.174
303.05	13.243
303.42	13.450
303.79	14.720
304.15	13.740
304.52	11.058
304.89	12.515
305.25	14.891
305.62	11.319
305.99	12.865
306.35	13.410
306.72	13.048
307.09	13.683
307.45	14.351
307.82	12.500
308.19	12.195
308.55	13.413
308.92	13.181
309.29	13.073
309.65	13.132
310.02	12.651
310.38	13.063
310.75	12.787
311.12	13.348
311.48	11.877
311.85	12.670
312.22	12.553
312.58	11.996
312.95	12.380
313.31	12.008
313.68	12.984
314.05	12.041
314.41	13.711
314.78	12.887
315.14	13.772
315.51	14.182
315.87	12.295
316.24	14.661
316.61	12.697
316.97	13.294
317.34	12.598
317.70	13.002
318.07	13.173
318.43	13.333
318.80	13.447
319.16	13.184
319.53	12.631
319.89	12.205
320.26	12.449
320.62	13.541
320.99	12.526
321.35	12.025
321.72	12.876
322.08	13.293
322.45	12.589
322.81	12.868
323.18	12.758
323.54	12.355
323.91	12.171
324.27	13.281
324.64	12.172
325.00	12.774
325.37	13.315
325.73	12.874
326.10	13.806
326.46	13.094
326.83	13.473
327.19	12.816
327.56	13.032
327.92	13.908
328.29	13.125
328.65	13.302
329.01	11.857
329.38	13.917
329.74	14.164
330.11	12.234
330.47	13.358
330.84	13.558
331.20	15.779
331.56	11.759
331.93	13.059
332.29	12.557
332.66	13.937
333.02	12.732
333.38	11.549
333.75	12.729
334.11	11.459
334.48	13.871
334.84	12.912
335.20	12.992
335.57	13.599
335.93	13.460
336.29	13.444
336.66	13.261
337.02	12.546
337.38	12.500
337.75	13.364
338.11	13.255
338.47	13.321
338.84	13.401
339.20	13.163
339.56	13.945
339.93	13.071
340.29	13.670
340.65	15.143
341.02	12.855
341.38	13.717
341.74	12.014
342.11	12.652
342.47	12.633
342.83	13.841
343.20	12.108
343.56	13.478
343.92	12.489
344.28	12.895
344.65	13.644
345.01	11.755
345.37	13.120
345.73	13.222
346.10	12.425
346.46	13.457
346.82	12.111
347.19	11.305
347.55	13.033
347.91	13.269
348.27	13.015
348.63	13.714
349.00	12.715
349.36	12.968
349.72	13.599
350.08	11.967
350.45	12.690
350.81	11.462
351.17	12.052
351.53	12.490
351.89	11.974
352.26	12.720
352.62	12.339
352.98	11.486
353.34	13.205
353.70	12.379
354.07	12.661
354.43	11.849
354.79	12.469
355.15	13.175
355.51	14.003
355.87	12.540
356.24	11.909
356.60	13.258
356.96	13.413
357.32	13.019
357.68	13.057
358.04	12.278
358.40	11.736
358.77	12.998
359.13	11.609
359.49	11.787
359.85	11.934
360.21	12.360
360.57	11.553
360.93	12.708
361.29	10.347
361.66	12.382
362.02	12.500
362.38	12.643
362.74	10.901
363.10	11.813
363.46	11.564
363.82	12.697
364.18	12.177
364.54	11.471
364.90	12.258
365.26	11.936
365.62	13.431
365.98	12.537
366.35	12.600
366.71	11.604
367.07	11.538
367.43	11.503
367.79	12.367
368.15	12.060
368.51	11.799
368.87	11.630
369.23	11.264
369.59	11.443
369.95	11.364
370.31	11.922
370.67	11.642
371.03	11.725
371.39	11.087
371.75	11.282
372.11	11.270
372.47	11.908
372.83	11.214
373.19	10.842
373.55	10.903
373.91	12.239
374.27	11.977
374.63	12.635
374.99	11.135
375.35	11.003
375.71	11.888
376.07	12.219
376.42	11.429
376.78	11.879
377.14	11.781
377.50	11.355
377.86	11.312
378.22	12.125
378.58	11.282
378.94	10.712
379.30	12.227
379.66	11.473
380.02	10.730
380.38	10.590
380.74	10.712
381.09	12.454
381.45	11.315
381.81	11.104
382.17	11.358
382.53	11.118
382.89	11.237
383.25	11.574
383.61	10.793
383.97	10.794
384.32	10.694
384.68	11.641
385.04	9.743
385.40	10.579
385.76	11.006
386.12	10.931
386.48	10.600
386.83	10.843
387.19	11.477
387.55	11.292
387.91	10.636
388.27	11.416
388.62	11.705
388.98	10.988
389.34	11.993
389.70	12.057
390.06	10.195
390.42	11.269
390.77	10.857
391.13	10.340
391.49	10.543
391.85	10.721
392.20	11.237
392.56	11.316
392.92	11.216
393.28	10.967
393.64	11.231
393.99	12.163
394.35	9.804
394.71	11.175
395.07	11.062
395.42	10.625
395.78	10.945
396.14	11.980
396.50	11.414
396.85	11.462
397.21	10.965
397.57	10.094
397.92	10.845
398.28	10.862
398.64	10.422
399.00	11.287
399.35	10.327
399.71	10.856
400.07	11.125
400.42	11.383
400.78	11.574
401.14	11.010
401.49	10.304
401.85	10.725
402.21	11.145
402.57	11.250
402.92	10.665
403.28	11.153
403.63	11.349
403.99	9.885
404.35	11.305
404.70	10.714
405.06	10.693
405.42	10.876
405.77	10.517
406.13	10.244
406.49	10.894
406.84	11.186
407.20	11.198
407.55	10.238
407.91	11.096
408.27	10.325
408.62	11.262
408.98	11.337
409.34	11.772
409.69	10.336
410.05	10.776
410.40	10.864
410.76	10.676
411.11	11.437
411.47	10.848
411.83	10.483
412.18	9.910
412.54	10.549
412.89	10.653
413.25	10.770
413.60	10.559
413.96	10.920
414.31	11.341
414.67	10.006
415.03	11.119
415.38	11.031
415.74	10.684
416.09	10.647
416.45	10.804
416.80	10.905
417.16	10.773
417.51	11.126
417.87	10.756
418.22	11.399
418.58	10.569
418.93	11.348
419.29	9.795
419.64	11.017
420.00	11.398
420.35	10.328
420.71	12.090
421.06	10.866
421.42	11.478
421.77	10.867
422.12	10.499
422.48	10.883
422.83	11.369
423.19	11.230
423.54	10.406
423.90	10.306
424.25	10.850
424.61	10.343
424.96	10.743
425.31	11.901
425.67	11.385
426.02	11.837
426.38	10.582
426.73	11.199
427.09	11.139
427.44	11.765
427.79	11.137
428.15	11.286
428.50	10.721
428.85	10.258
429.21	11.319
429.56	11.914
429.92	11.043
430.27	10.677
430.62	9.984
430.98	10.297
431.33	10.831
431.68	11.041
432.04	10.509
432.39	10.667
432.74	10.283
433.10	12.126
433.45	10.514
433.80	10.969
434.16	10.139
434.51	11.398
434.86	10.976
435.22	11.217
435.57	11.104
435.92	11.078
436.28	10.793
436.63	11.352
436.98	10.603
437.34	10.284
437.69	10.376
438.04	10.769
438.39	11.240
438.75	11.354
439.10	11.658
439.45	11.260
439.81	11.009
440.16	11.223
440.51	10.925
440.86	12.689
441.22	10.803
441.57	11.369
441.92	11.700
442.27	10.865
442.63	11.831
442.98	10.856
443.33	11.297
443.68	11.088
444.03	12.270
444.39	11.215
444.74	11.706
445.09	11.359
445.44	10.199
445.79	12.171
446.15	10.958
446.50	10.760
446.85	11.052
447.20	11.470
447.55	11.886
447.91	11.506
448.26	11.611
448.61	11.169
448.96	11.188
449.31	11.676
449.66	11.324
450.02	11.352
450.37	10.907
450.72	10.997
451.07	11.329
451.42	11.923
451.77	11.332
452.12	11.065
452.47	11.397
452.83	10.660
453.18	11.195
453.53	11.757
453.88	11.536
454.23	10.940
454.58	10.894
454.93	12.113
455.28	10.984
455.63	12.151
455.98	12.026
456.34	11.877
456.69	11.245
457.04	12.035
457.39	12.272
457.74	10.701
458.09	11.065
458.44	11.469
458.79	11.597
459.14	11.842
459.49	12.060
459.84	11.732
460.19	10.680
460.54	11.614
460.89	11.591
461.24	11.366
461.59	11.580
461.94	11.572
462.29	12.063
462.64	12.159
462.99	11.510
463.34	10.987
463.69	11.068
464.04	12.530
464.39	11.765
464.74	11.779
465.09	11.291
465.44	12.291
465.79	11.735
466.14	11.859
466.49	10.868
466.84	11.184
467.19	11.640
467.54	11.622
467.89	11.181
468.24	11.192
468.59	11.937
468.94	11.111
469.29	12.000
469.64	12.235
469.99	12.824
470.34	10.785
470.68	12.975
471.03	12.314
471.38	11.341
471.73	11.555
472.08	12.144
472.43	11.544
472.78	11.515
473.13	11.429
473.48	11.792
473.83	12.329
474.17	11.658
474.52	11.295
474.87	10.788
475.22	11.959
475.57	11.067
475.92	11.739
476.27	12.165
476.61	12.211
476.96	11.433
477.31	11.790
477.66	11.798
478.01	11.510
478.36	11.874
478.70	12.235
479.05	11.813
479.40	12.030
479.75	12.669
480.10	11.879
480.45	12.500
480.79	12.185
481.14	11.936
481.49	11.429
481.84	12.114
482.19	11.459
482.53	11.415
482.88	11.647
483.23	11.468
483.58	12.075
483.92	12.294
484.27	11.440
484.62	11.564
484.97	11.692
485.31	11.416
485.66	10.908
486.01	10.862
486.36	10.933
486.70	11.586
487.05	11.369
487.40	11.918
487.75	11.465
488.09	11.836
488.44	11.761
488.79	11.804
489.13	12.420
489.48	11.800
489.83	10.942
490.17	11.685
490.52	11.686
490.87	11.939
491.22	12.273
491.56	11.670
491.91	11.424
492.26	11.911
492.60	11.900
492.95	12.395
493.30	11.773
493.64	11.984
493.99	12.077
494.34	11.456
494.68	11.524
495.03	11.144
495.37	12.120
495.72	12.065
496.07	11.805
496.41	11.321
496.76	12.621
497.11	11.411
497.45	12.315
497.80	12.815
498.14	12.221
498.49	11.478
498.84	12.625
499.18	12.098
499.53	12.252
499.87	10.992
500.22	12.166
500.56	12.456
500.91	12.349
501.26	11.962
501.60	12.199
501.95	12.082
502.29	11.671
502.64	12.259
502.98	12.481
503.33	11.479
503.67	12.241
504.02	12.317
504.36	11.875
504.71	11.970
505.06	11.877
505.40	11.726
505.75	12.216
506.09	12.266
506.44	12.166
506.78	12.347
507.13	13.185
507.47	11.645
507.82	11.912
508.16	12.361
508.51	11.962
508.85	13.239
509.19	12.134
509.54	12.440
509.88	12.244
510.23	12.480
510.57	12.453
510.92	11.354
511.26	12.220
511.61	12.156
511.95	12.603
512.30	12.639
512.64	13.022
512.98	12.016
513.33	12.983
513.67	12.450
514.02	12.414
514.36	12.914
514.70	13.287
515.05	12.867
515.39	12.928
515.74	13.114
516.08	13.030
516.42	13.192
516.77	13.049
517.11	12.878
517.46	12.926
517.80	13.945
518.14	12.860
518.49	13.161
518.83	13.183
519.17	11.765
519.52	12.315
519.86	12.065
520.20	12.637
520.55	13.446
520.89	12.923
521.23	12.856
521.58	12.808
521.92	12.115
522.26	12.101
522.61	13.636
522.95	13.775
523.29	12.897
523.64	13.723
523.98	13.415
524.32	11.856
524.66	13.316
525.01	12.857
525.35	13.610
525.69	11.987
526.04	12.831
526.38	13.489
526.72	11.838
527.06	13.878
527.41	13.259
527.75	13.204
528.09	13.355
528.43	14.112
528.78	13.399
529.12	12.000
529.46	13.385
529.80	13.490
530.15	12.871
530.49	12.862
530.83	13.543
531.17	13.365
531.51	14.090
531.86	12.984
532.20	12.735
532.54	13.819
532.88	13.552
533.22	13.105
533.57	12.713
533.91	12.402
534.25	13.021
534.59	13.470
534.93	12.964
535.27	13.198
535.62	12.767
535.96	12.851
536.30	13.259
536.64	12.819
536.98	12.822
537.32	13.087
537.66	14.165
538.01	13.846
538.35	13.245
538.69	14.248
539.03	13.124
539.37	13.661
539.71	12.747
540.05	12.356
540.39	12.950
540.73	13.040
541.07	13.674
541.42	13.710
541.76	13.352
542.10	13.145
542.44	13.482
542.78	12.526
543.12	12.981
543.46	12.031
543.80	12.838
544.14	12.283
544.48	13.391
544.82	12.850
545.16	13.251
545.50	13.418
545.84	13.244
546.18	13.333
546.52	13.050
546.86	13.228
547.20	13.805
547.54	13.074
547.88	13.043
548.22	12.689
548.56	12.071
548.90	12.736
549.24	13.085
549.58	14.739
549.92	12.938
550.26	13.114
550.60	13.160
550.94	13.966
551.28	13.215
551.62	13.769
551.96	12.707
552.30	13.012
552.64	12.694
552.98	12.940
553.32	13.124
553.66	13.353
554.00	12.701
554.34	14.254
554.68	12.758
555.02	13.318
555.36	13.164
555.69	13.114
556.03	13.062
556.37	12.669
556.71	14.007
557.05	13.199
557.39	12.565
557.73	13.118
558.07	14.555
558.41	12.711
558.75	13.874
559.08	12.924
559.42	13.016
559.76	14.331
560.10	13.532
560.44	12.211
560.78	12.797
561.12	13.258
561.45	13.212
561.79	13.235
562.13	13.698
562.47	12.374
562.81	13.112
563.15	12.906
563.48	13.366
563.82	13.933
564.16	12.883
564.50	12.500
564.84	13.119
565.17	12.408
565.51	13.320
565.85	13.169
566.19	12.931
566.52	13.070
566.86	13.625
567.20	12.765
567.54	12.226
567.88	13.767
568.21	13.235
568.55	12.391
568.89	12.782
569.23	12.855
569.56	12.566
569.90	12.343
570.24	12.542
570.57	12.945
570.91	12.757
571.25	12.562
571.59	11.803
571.92	12.089
572.26	12.077
572.60	12.372
572.93	12.833
573.27	12.163
573.61	12.232
573.95	12.343
574.28	12.156
574.62	12.052
574.96	12.042
575.29	12.166
575.63	12.127
575.97	11.792
576.30	11.976
576.64	11.947
576.98	12.381
577.31	12.067
577.65	12.087
577.98	11.919
578.32	11.804
578.66	11.777
578.99	11.979
579.33	11.791
579.67	12.087
580.00	12.076
580.34	12.040
580.67	11.894
581.01	12.008
581.35	12.145
581.68	11.927
582.02	11.470
582.35	11.978
582.69	11.843
583.02	12.006
583.36	12.231
583.70	12.669
584.03	12.455
584.37	12.592
584.70	12.253
585.04	11.554
585.37	11.892
585.71	12.071
586.04	12.052
586.38	11.603
586.72	12.568
587.05	12.536
587.39	12.385
587.72	12.685
588.06	12.455
588.39	12.447
588.73	11.905
589.06	12.720
589.40	12.859
589.73	13.290
590.07	13.066
590.40	12.616
590.73	12.521
591.07	12.214
591.40	13.134
591.74	13.258
592.07	13.033
592.41	12.633
592.74	12.107
593.08	12.365
593.41	11.928
593.75	11.744
594.08	12.358
594.41	12.263
594.75	12.481
595.08	12.372
595.42	11.962
595.75	12.017
596.09	11.767
596.42	12.650
596.75	13.144
597.09	13.075
597.42	12.737
597.75	12.643
598.09	12.087
598.42	12.410
598.76	12.184
599.09	11.779
599.42	12.012
599.76	11.926
600.09	12.066
600.42	12.472
600.76	11.701
601.09	12.137
601.42	12.378
601.76	12.465
602.09	12.459
602.42	11.963
602.76	12.012
603.09	12.874
603.42	13.127
603.76	11.694
604.09	12.029
604.42	12.056
604.76	12.684
605.09	12.294
605.42	12.280
605.75	12.434
606.09	12.357
606.42	11.802
606.75	12.814
607.09	12.923
607.42	12.007
607.75	12.123
608.08	11.995
608.42	11.741
608.75	12.434
609.08	12.656
609.41	11.523
609.75	12.601
610.08	11.932
610.41	11.981
610.74	12.628
611.07	12.661
611.41	12.662
611.74	12.687
612.07	11.938
612.40	13.020
612.73	11.808
613.07	12.598
613.40	12.746
613.73	12.255
614.06	12.632
614.39	12.296
614.72	11.989
615.06	12.402
615.39	11.627
615.72	12.540
616.05	12.793
616.38	12.194
616.71	11.498
617.05	11.983
617.38	12.571
617.71	12.767
618.04	12.952
618.37	13.367
618.70	12.277
619.03	13.542
619.36	11.795
619.69	12.813
620.03	13.806
620.36	13.305
620.69	12.562
621.02	13.685
621.35	12.946
621.68	13.520
622.01	12.167
622.34	13.807
622.67	13.644
623.00	14.319
623.33	12.119
623.66	12.266
623.99	12.935
624.32	13.308
624.65	13.158
624.99	12.867
625.32	12.509
625.65	13.668
625.98	13.457
626.31	12.386
626.64	12.305
626.97	13.525
627.30	14.536
627.63	14.125
627.96	12.579
628.29	13.043
628.62	14.061
628.95	13.126
629.28	13.105
629.61	12.762
629.94	14.467
630.26	12.846
630.59	13.424
630.92	13.949
631.25	13.333
631.58	15.308
631.91	12.610
632.24	12.156
632.57	13.068
632.90	12.693
633.23	13.647
633.56	13.728
633.89	13.933
634.22	13.704
634.55	12.961
634.88	13.665
635.20	14.872
635.53	12.267
635.86	13.134
636.19	15.524
636.52	11.862
636.85	12.159
637.18	13.082
637.51	12.956
637.83	12.615
638.16	13.370
638.49	12.125
638.82	15.132
639.15	14.790
639.48	13.067
639.81	14.365
640.13	13.420
640.46	14.431
640.79	13.991
641.12	14.328
641.45	13.063
641.77	13.926
642.10	14.376
642.43	12.219
642.76	15.347
643.09	14.378
643.41	12.945
643.74	14.003
644.07	13.300
644.40	15.203
644.73	12.609
645.05	15.268
645.38	12.875
645.71	13.652
646.04	13.285
646.36	13.652
646.69	14.748
647.02	12.476
647.35	15.672
647.67	15.174
648.00	15.485
648.33	13.140
648.66	14.746
648.98	11.725
649.31	12.562
649.64	12.245
649.96	12.966
650.29	13.288
650.62	14.017
650.94	10.556
651.27	12.291
651.60	13.153
651.92	14.685
652.25	12.966
652.58	13.500
652.90	16.467
653.23	14.454
653.56	12.183
653.88	13.402
654.21	10.508
654.54	10.187
654.86	14.601
655.19	12.719
655.52	12.074
655.84	10.808
656.17	11.718
656.49	16.269
656.82	17.658
657.15	13.964
657.47	10.732
657.80	7.890
658.13	7.943
658.45	12.134
658.78	12.750
659.10	12.767
659.43	12.803
659.75	13.370
660.08	12.552
660.41	13.790
660.73	12.983
661.06	14.905
661.38	12.524
661.71	9.651
662.03	13.734
662.36	12.747
662.68	11.726
663.01	13.319
663.33	13.921
663.66	12.791
663.98	13.256
664.31	14.712
664.63	14.055
664.96	11.739
665.28	12.804
665.61	14.719
665.93	13.696
666.26	14.967
666.58	12.081
666.91	11.765
667.23	14.858
667.56	16.825
667.88	12.710
668.21	15.513
668.53	18.203
668.86	13.208
669.18	13.208
669.50	14.044
669.83	12.558
670.15	12.121
670.48	13.158
670.80	15.438
671.13	11.633
671.45	9.361
671.77	14.807
672.10	13.663
672.42	12.734
672.75	12.966
673.07	13.238
673.39	13.761
673.72	10.256
674.04	13.125
674.37	13.983
674.69	13.062
675.01	13.111
675.34	11.937
675.66	14.815
675.98	12.639
676.31	15.367
676.63	8.076
676.95	10.227
677.28	13.412
677.60	15.663
677.92	11.239
678.25	14.442
678.57	9.091
678.89	13.235
679.22	14.318
679.54	14.659
679.86	10.736
680.18	14.369
680.51	13.636
680.83	11.531
681.15	12.400
681.48	12.090
681.80	13.017
682.12	12.903
682.44	11.297
682.77	13.907
683.09	10.984
683.41	13.864
683.73	13.825
684.06	14.159
684.38	9.462
684.70	13.725
685.02	10.581
685.34	11.067
685.67	12.195
685.99	13.562
686.31	12.389
686.63	12.430
686.96	12.167
687.28	9.091
687.60	11.407
687.92	13.333
688.24	14.516
688.56	13.100
688.89	12.500
689.21	13.778
689.53	12.065
689.85	11.395
690.17	13.839
690.49	13.002
690.82	14.806
691.14	13.333
691.46	13.785
691.78	11.486
692.10	12.903
692.42	11.688
692.74	12.607
693.06	12.838
693.39	12.217
693.71	12.443
694.03	9.238
694.35	13.551
694.67	14.394
694.99	13.316
695.31	14.621
695.63	11.250
695.95	10.101
696.27	10.881
696.59	15.000
696.91	12.605
697.23	10.283
697.56	11.634
697.88	13.548
698.20	11.617
698.52	13.412
698.84	11.962
699.16	12.000
699.48	15.288
699.80	10.174
700.12	11.860
700.44	12.885
700.76	11.047
701.08	8.485
701.40	10.241
701.72	13.272
702.04	14.191
702.36	10.033
702.68	12.012
703.00	10.303
703.32	9.384
703.64	7.627
703.96	12.754
704.28	9.202
704.60	11.746
704.91	10.410
705.23	10.299
705.55	14.841
705.87	15.162
706.19	12.222
706.51	12.371
706.83	18.006
707.15	6.854
707.47	12.885
707.79	5.990
708.11	15.500
708.43	11.500
708.74	10.853
709.06	13.239
709.38	12.844
709.70	13.609
710.02	12.420
710.34	14.861
710.66	8.013
710.98	9.934
711.29	14.754
711.61	10.847
711.93	12.378
712.25	18.213
712.57	12.454
712.89	13.060
713.20	14.187
713.52	11.150
713.84	8.191
714.16	9.966
714.48	12.903
714.80	12.179
715.11	14.590
715.43	6.270
715.75	9.333
716.07	10.299
716.39	11.409
716.70	9.594
717.02	9.924
717.34	10.931
717.66	9.292
717.97	7.391
718.29	13.389
718.61	12.598
718.93	10.078
719.24	11.407
719.56	14.056
719.88	11.340
720.20	12.879
720.51	7.663
720.83	12.741
721.15	10.504
721.46	12.097
721.78	6.324
722.10	10.037
722.42	10.788
722.73	8.980
723.05	15.918
723.37	17.373
723.68	16.667
724.00	7.265
724.32	8.000
724.63	8.636
724.95	12.227
725.27	9.217
725.58	13.136
725.90	8.730
726.22	8.108
726.53	14.915
726.85	10.487
727.16	14.717
727.48	8.097
727.80	16.194
728.11	7.627
728.43	10.980
728.74	7.661
729.06	11.200
729.38	14.286
729.69	7.968
730.01	7.692
730.32	10.448
730.64	12.721
730.96	8.679
731.27	14.667
731.59	8.136
731.90	8.917
732.22	10.726
732.53	14.286
732.85	15.248
733.16	13.468
733.48	7.194
733.80	10.870
734.11	14.237
734.43	6.529
734.74	12.727
735.06	8.143
735.37	13.595
735.69	13.805
736.00	11.847
736.32	7.047
736.63	11.972
736.95	12.969
737.26	13.167
737.58	11.745
737.89	9.890
738.21	9.023
738.52	11.523
738.83	10.917
739.15	7.860
739.46	13.780
739.78	9.158
740.09	12.745
740.41	14.130
740.72	6.693
741.04	13.765
741.35	8.511
741.66	7.583
741.98	9.694
742.29	12.871
742.61	5.759
742.92	4.739
743.23	7.407
743.55	9.502
743.86	11.483
744.18	9.569
744.49	3.191
744.80	3.804
745.12	12.834
745.43	8.293
745.74	7.812
746.06	12.195
746.37	9.948
746.68	13.270
747.00	5.319
747.31	13.433
747.62	8.252
747.94	9.091
748.25	14.851
748.56	4.918
748.88	6.283
749.19	15.957
749.50	10.345
749.82	7.547
750.13	6.422
750.44	15.038
750.75	12.313
751.07	19.708
751.38	9.962
751.69	11.373
752.01	11.240
752.32	11.155
752.63	9.881
752.94	8.190
753.26	15.900
753.57	12.217
753.88	10.177
754.19	5.833
754.51	7.851
754.82	6.073
755.13	10.417
755.44	11.290
755.75	12.109
756.07	13.619
756.38	8.679
756.69	7.663
757.00	11.000
757.31	15.686
757.63	8.232
757.94	10.000
758.25	10.959
758.56	11.968
758.87	6.516
759.18	12.773
759.50	7.636
759.81	15.050
760.12	10.000
760.43	6.364
760.74	8.025
761.05	13.538
761.36	10.511
761.67	14.545
761.99	11.224
762.30	9.455
762.61	11.858
762.92	13.122
763.23	8.108
763.54	8.411
763.85	9.746
764.16	10.788
764.47	10.887
764.78	8.791
765.10	11.448
765.41	12.303
765.72	11.111
766.03	2.632
766.34	10.219
766.65	11.155
766.96	11.616
767.27	7.447
767.58	8.046
767.89	-0.709
768.20	5.682
768.51	9.890
768.82	8.374
769.13	6.452
769.44	7.296
769.75	5.936
770.06	12.500
770.37	14.904
770.68	9.137
770.99	10.860
771.30	10.294
771.61	8.597
771.92	15.948
772.23	8.374
772.54	5.914
772.85	8.642
773.16	14.045
773.47	13.725
773.78	5.882
774.09	8.982
774.39	2.667
774.70	0.637
775.01	18.621
775.32	13.571
775.63	0.826
775.94	10.687
776.25	7.874
776.56	6.667
776.87	6.731
777.18	5.128
777.48	0.862
777.79	-8.696
778.10	-6.667
778.41	0.000
778.72	5.556
779.03	8.271
779.34	17.021
779.65	8.904
779.95	6.849
780.26	18.621
780.57	5.691
780.88	5.512
781.19	0.862
781.50	11.628
781.80	11.834
782.11	1.887
782.42	11.538
782.73	9.353
783.04	7.407
783.34	2.083
783.65	-3.419
783.96	13.934
784.27	9.655
784.57	14.634
784.88	14.844
785.19	21.000
785.50	11.000
785.81	12.069
786.11	9.483
786.42	7.767
786.73	7.273
787.04	4.082
787.34	8.036
787.65	9.524
787.96	10.619
788.26	12.727
788.57	2.564
788.88	14.063
789.19	11.905
789.49	1.739
789.80	3.061
790.11	2.020
790.41	5.455
790.72	2.174
791.03	4.545
791.33	12.500
791.64	1.250
791.95	0.000
792.25	1.064
792.56	8.989
792.87	0.000
793.17	-4.348
793.48	-1.333
793.79	0.000
794.09	16.250
794.40	3.774
794.70	2.913
795.01	4.065
795.32	5.983
795.62	-1.905
795.93	0.980
796.23	10.377
796.54	15.625
796.85	8.824
797.15	-7.042
797.46	6.944
797.76	24.242
798.07	1.163
798.37	-5.263
798.68	-4.545
798.99	7.407
799.29	1.429
799.60	4.348
799.90	2.667
800.21	-1.639
800.51	16.923
800.82	0.000
801.12	10.145
801.43	21.311
801.73	-3.175
802.04	10.000
802.34	7.463
802.65	5.769
802.95	-7.143
803.26	-3.846
803.56	29.412
803.87	-13.043
804.17	22.667
804.48	12.698
804.78	-5.556
805.09	-19.565
805.39	-35.556
805.70	9.259
806.00	-10.526
806.30	-7.042
806.61	2.857
806.91	5.556
807.22	2.632
807.52	14.667
807.83	-14.545
808.13	-1.389
808.43	16.176
808.74	7.463
809.04	-1.695
809.35	-9.615
809.65	7.813
809.95	-48.649
810.26	-20.455
810.56	-5.479
810.86	4.762
811.17	2.000
811.47	-4.082
811.77	13.158
812.08	-9.091
812.38	1.887
812.69	-35.000
812.99	-12.121
813.29	-26.316
813.59	-25.714
813.90	-2.273
814.20	-17.949
814.50	0.000
814.81	20.755
815.11	-12.766
815.41	25.424
815.72	16.667
816.02	5.882
816.32	10.417
816.62	0.000
816.93	-5.405
817.23	-8.571
817.53	8.333
817.84	-8.696
818.14	0.000
818.44	-21.053
818.74	13.043
819.04	-22.500
819.35	-27.027
819.65	-17.647
819.95	-30.556
820.25	4.762
820.56	12.500
820.86	-41.379
821.16	27.500
821.46	19.149
821.76	-5.000
822.07	-4.651
822.37	-35.135
822.67	-43.750
822.97	11.905
823.27	-17.857
823.57	16.000
823.88	-25.926
824.18	-3.571
824.48	-17.647
824.78	0.000
825.08	-17.391
825.38	15.152
825.69	-54.167
825.99	-2.632
826.29	-2.778
826.59	-73.333
826.89	-71.429
827.19	4.348
827.49	-12.500
827.79	-8.571
828.09	-7.143
828.39	0.000
828.70	8.108
829.00	-25.000
829.30	-38.095
829.60	16.667
829.90	3.125
830.20	-34.211
830.50	-25.926
830.80	-34.783
831.10	-40.909
831.40	42.424
831.70	-6.452
832.00	14.286
832.30	-33.333
832.60	-91.667
832.90	3.448
833.20	-75.000
833.50	-9.091
833.80	-18.519
834.10	-15.385
834.40	-6.250
834.70	-188.889
835.00	-73.684
835.30	57.692
835.60	33.333
835.90	-3.226
836.20	0.000
836.50	53.571
836.80	-3.846
837.10	-17.857
837.40	-500.000
837.70	36.364
838.00	-181.818
838.30	-8.696
838.60	-30.769
838.90	27.273
839.19	-39.286
839.49	-6.667
839.79	-38.462
840.09	-141.667
840.39	17.857
840.69	-14.286
840.99	-57.692
841.29	-131.579
841.59	-90.000
841.88	-18.182
842.18	30.000
842.48	50.000
842.78	20.000
843.08	-18.519
843.38	-130.000
843.68	-39.130
843.97	-6.667
844.27	-46.667
844.57	-55.000
844.87	-11.111
845.17	-42.857
845.47	-73.333
845.76	-52.381
846.06	11.765
846.36	-70.000
846.66	-42.857
846.96	33.333
847.25	-112.500
847.55	21.429
847.85	-187.500
848.15	-63.636
848.44	-566.667
848.74	-55.000
849.04	29.630
849.34	-18.182
849.63	-166.667
849.93	-380.000
850.23	-11.111
850.53	70.000
850.82	-53.846
851.12	-177.778
851.42	-80.000
851.71	-46.154
852.01	-28.571
852.31	-525.000
852.61	-81.818
852.90	-45.000
853.20	-47.368
853.50	-108.333
853.79	13.043
854.09	29.167
854.39	0.000
854.68	-29.167
854.98	-12.903
855.28	-11.538
855.57	-25.000
855.87	-16.667
856.17	33.333
856.46	-14.286
856.76	13.333
857.05	-100.000
857.35	12.000
857.65	-50.000
857.94	7.692
858.24	55.172
858.53	0.000
858.83	22.222
859.13	-22.727
859.42	-21.739
859.72	-200.000
860.01	-300.000
860.31	-4.000
860.60	14.286
860.90	-133.333
861.20	-60.000
861.49	-850.000
861.79	-46.667
862.08	10.000
862.38	60.000
862.67	-500.000
862.97	-183.333
863.26	-66.667
863.56	44.444
863.85	-433.333
864.15	-33.333
864.44	-70.000
864.74	28.571
865.03	325.000
865.33	-340.000
865.62	-66.667
865.92	33.333
866.21	-200.000
866.51	0.000
866.80	-81.818
867.10	-500.000
867.39	100.000
867.69	0.000
867.98	-92.308
868.27	-366.667
868.57	-60.000
868.86	16.667
869.16	-61.538
869.45	-20.000
869.75	-2400.000
870.04	0.000
870.33	-157.143
870.63	9.524
870.92	500.000
871.22	-140.000
871.51	-500.000
871.80	11.111
872.10	466.667
>>>>>End Processed Spectral Data<<<<<
