SpectraSuite Data File
++++++++++++++++++++++++++++++++++++
Date: Fri May 15 20:34:04 PDT 2015
User: schluterlab
Dark Spectrum Present: Yes
Reference Spectrum Present: Yes
Number of Sampled Component Spectra: 1
Spectrometers: USB2E3373
Integration Time (usec): 3000 (USB2E3373)
Spectra Averaged: 3 (USB2E3373)
Boxcar Smoothing: 0 (USB2E3373)
Correct for Electrical Dark: No (USB2E3373)
Strobe/Lamp Enabled: No (USB2E3373)
Correct for Detector Non-linearity: No (USB2E3373)
Correct for Stray Light: No (USB2E3373)
Number of Pixels in Processed Spectrum: 2048
>>>>>Begin Processed Spectral Data<<<<<
178.53	0.000
178.91	0.000
179.29	-12.500
179.67	-650.000
180.04	128.571
180.42	-50.000
180.80	-200.000
181.18	-33.333
181.56	150.000
181.94	150.000
182.31	200.000
182.69	-20.000
183.07	0.000
183.45	-200.000
183.83	283.333
184.20	-45.455
184.58	211.111
184.96	175.000
185.34	-66.667
185.72	-150.000
186.09	84.615
186.47	-800.000
186.85	233.333
187.23	133.333
187.61	700.000
187.98	-233.333
188.36	-44.444
188.74	-266.667
189.12	5.882
189.49	5.556
189.87	0.000
190.25	21.429
190.63	-100.000
191.00	-366.667
191.38	-89.474
191.76	-150.000
192.14	75.000
192.51	0.000
192.89	-100.000
193.27	-185.714
193.65	133.333
194.02	172.727
194.40	50.000
194.78	-175.000
195.15	-58.333
195.53	-25.000
195.91	325.000
196.29	-200.000
196.66	169.231
197.04	185.714
197.42	-111.111
197.79	-366.667
198.17	-153.846
198.55	1400.000
198.92	-300.000
199.30	-400.000
199.68	20.000
200.05	-533.333
200.43	0.000
200.81	-400.000
201.18	133.333
201.56	1400.000
201.94	-50.000
202.31	400.000
202.69	-320.000
203.07	200.000
203.44	200.000
203.82	0.000
204.19	42.857
204.57	-600.000
204.95	200.000
205.32	-10.000
205.70	42.857
206.08	-200.000
206.45	133.333
206.83	85.714
207.20	-157.143
207.58	-0.000
207.96	-600.000
208.33	-80.000
208.71	-250.000
209.08	-183.333
209.46	-400.000
209.84	80.000
210.21	-600.000
210.59	114.286
210.96	-50.000
211.34	-225.000
211.71	-33.333
212.09	-14.286
212.46	-1200.000
212.84	0.000
213.22	-10.000
213.59	600.000
213.97	-30.769
214.34	-63.636
214.72	-83.333
215.09	400.000
215.47	-15.385
215.84	-27.273
216.22	-333.333
216.59	-62.500
216.97	100.000
217.34	50.000
217.72	-180.000
218.09	12.500
218.47	62.500
218.84	-1500.000
219.22	-155.556
219.59	-120.000
219.97	300.000
220.34	300.000
220.72	-42.857
221.09	-175.000
221.47	0.000
221.84	-650.000
222.22	-900.000
222.59	-18.182
222.97	-50.000
223.34	-566.667
223.72	-35.714
224.09	14.286
224.46	25.000
224.84	300.000
225.21	-60.000
225.59	-46.667
225.96	-300.000
226.34	225.000
226.71	-114.286
227.08	-166.667
227.46	-37.500
227.83	-50.000
228.21	-66.667
228.58	-27.273
228.95	-25.000
229.33	30.000
229.70	0.000
230.08	-137.500
230.45	-114.286
230.82	-14.286
231.20	-46.667
231.57	-28.571
231.95	57.143
232.32	-70.000
232.69	-7.143
233.07	-33.333
233.44	40.000
233.81	-10.000
234.19	33.333
234.56	11.765
234.93	350.000
235.31	-125.000
235.68	-380.000
236.05	-53.846
236.43	-15.000
236.80	17.647
237.17	15.625
237.55	-25.000
237.92	18.519
238.29	-11.111
238.67	20.000
239.04	11.765
239.41	-7.317
239.79	16.667
240.16	39.024
240.53	-2.632
240.91	45.652
241.28	30.159
241.65	39.286
242.02	28.767
242.40	11.667
242.77	32.203
243.14	31.818
243.51	21.250
243.89	42.529
244.26	24.138
244.63	32.143
245.00	24.742
245.38	21.649
245.75	19.101
246.12	19.828
246.49	22.314
246.87	37.500
247.24	21.008
247.61	35.965
247.98	30.081
248.36	28.125
248.73	33.553
249.10	33.117
249.47	33.544
249.84	30.719
250.22	31.176
250.59	38.562
250.96	31.455
251.33	24.419
251.70	42.941
252.08	31.472
252.45	30.693
252.82	33.668
253.19	35.023
253.56	26.636
253.94	27.928
254.31	35.652
254.68	39.474
255.05	34.252
255.42	33.188
255.79	34.363
256.16	32.685
256.54	30.970
256.91	31.559
257.28	32.342
257.65	27.715
258.02	31.915
258.39	35.690
258.76	34.799
259.14	34.219
259.51	31.068
259.88	36.082
260.25	34.314
260.62	37.500
260.99	35.932
261.36	29.795
261.73	36.076
262.10	36.474
262.47	33.742
262.85	34.796
263.22	34.769
263.59	36.137
263.96	37.267
264.33	36.061
264.70	34.226
265.07	33.929
265.44	38.527
265.81	35.593
266.18	35.792
266.55	37.018
266.92	36.788
267.29	34.465
267.66	33.760
268.03	33.770
268.40	34.204
268.77	37.968
269.14	35.731
269.51	35.219
269.88	35.411
270.25	32.908
270.62	33.659
270.99	32.481
271.36	32.518
271.73	32.394
272.10	33.820
272.47	33.806
272.84	33.663
273.21	34.339
273.58	36.145
273.95	32.494
274.32	29.792
274.69	33.258
275.06	33.036
275.43	31.293
275.80	35.541
276.17	31.954
276.54	31.692
276.91	33.333
277.28	29.694
277.65	31.818
278.02	31.277
278.39	31.072
278.76	33.962
279.13	29.461
279.50	33.613
279.87	33.477
280.23	31.183
280.60	33.333
280.97	32.525
281.34	30.000
281.71	33.676
282.08	32.515
282.45	32.290
282.82	30.888
283.19	30.948
283.56	31.407
283.92	29.602
284.29	28.269
284.66	30.620
285.03	31.238
285.40	30.813
285.77	28.647
286.14	30.144
286.51	34.686
286.87	29.799
287.24	33.333
287.61	29.101
287.98	32.105
288.35	30.503
288.72	30.823
289.08	28.646
289.45	31.107
289.82	31.119
290.19	27.816
290.56	28.302
290.93	29.461
291.29	28.351
291.66	28.346
292.03	29.984
292.40	26.935
292.77	28.230
293.13	27.273
293.50	24.431
293.87	24.885
294.24	27.512
294.60	25.484
294.97	26.042
295.34	26.074
295.71	25.186
296.08	23.916
296.44	23.755
296.81	22.778
297.18	25.797
297.55	25.745
297.91	25.205
298.28	24.538
298.65	22.931
299.02	23.450
299.38	22.572
299.75	22.621
300.12	22.382
300.48	23.057
300.85	22.560
301.22	23.766
301.59	21.842
301.95	23.797
302.32	24.514
302.69	22.512
303.05	24.010
303.42	21.544
303.79	22.547
304.15	22.700
304.52	20.095
304.89	21.520
305.25	22.639
305.62	20.537
305.99	20.234
306.35	22.890
306.72	21.935
307.09	22.007
307.45	22.044
307.82	22.222
308.19	22.067
308.55	21.156
308.92	22.658
309.29	21.564
309.65	23.143
310.02	21.232
310.38	20.307
310.75	21.530
311.12	22.067
311.48	21.421
311.85	21.361
312.22	20.042
312.58	22.187
312.95	21.985
313.31	20.807
313.68	22.199
314.05	21.531
314.41	22.165
314.78	21.856
315.14	21.994
315.51	23.085
315.87	21.311
316.24	23.357
316.61	22.835
316.97	21.627
317.34	22.168
317.70	22.849
318.07	21.923
318.43	23.039
318.80	21.875
319.16	23.242
319.53	24.217
319.89	23.622
320.26	23.988
320.62	23.370
320.99	22.756
321.35	23.947
321.72	25.545
322.08	25.579
322.45	26.294
322.81	24.754
323.18	25.417
323.54	26.448
323.91	25.316
324.27	25.586
324.64	26.779
325.00	26.004
325.37	27.824
325.73	27.108
326.10	27.157
326.46	27.175
326.83	27.472
327.19	28.073
327.56	26.933
327.92	28.169
328.29	28.036
328.65	27.547
329.01	28.125
329.38	27.834
329.74	27.290
330.11	28.452
330.47	26.902
330.84	27.500
331.20	32.129
331.56	27.870
331.93	29.954
332.29	28.689
332.66	28.326
333.02	27.602
333.38	28.598
333.75	28.571
334.11	29.185
334.48	29.918
334.84	28.938
335.20	29.826
335.57	28.105
335.93	29.720
336.29	28.361
336.66	28.156
337.02	28.253
337.38	28.704
337.75	28.545
338.11	29.306
338.47	28.923
338.84	27.357
339.20	28.428
339.56	28.165
339.93	28.201
340.29	29.725
340.65	29.659
341.02	28.280
341.38	28.407
341.74	28.622
342.11	27.470
342.47	28.648
342.83	28.806
343.20	28.484
343.56	28.261
343.92	28.167
344.28	29.633
344.65	28.325
345.01	27.053
345.37	28.848
345.73	28.368
346.10	28.041
346.46	27.250
346.82	28.314
347.19	27.182
347.55	27.820
347.91	28.964
348.27	27.809
348.63	29.727
349.00	27.646
349.36	28.263
349.72	28.275
350.08	28.197
350.45	27.614
350.81	28.156
351.17	26.466
351.53	27.755
351.89	27.333
352.26	27.440
352.62	28.226
352.98	27.791
353.34	27.456
353.70	29.126
354.07	26.452
354.43	26.501
354.79	27.746
355.15	27.381
355.51	27.927
355.87	27.427
356.24	27.080
356.60	26.758
356.96	27.540
357.32	26.917
357.68	27.600
358.04	26.737
358.40	26.929
358.77	27.751
359.13	26.982
359.49	26.733
359.85	27.067
360.21	28.549
360.57	27.238
360.93	26.929
361.29	25.755
361.66	26.803
362.02	26.515
362.38	27.266
362.74	26.192
363.10	27.239
363.46	28.095
363.82	27.573
364.18	26.642
364.54	27.059
364.90	27.240
365.26	26.565
365.62	27.226
365.98	27.493
366.35	27.895
366.71	26.608
367.07	27.939
367.43	26.312
367.79	26.643
368.15	25.485
368.51	26.147
368.87	26.561
369.23	26.209
369.59	26.895
369.95	27.566
370.31	27.673
370.67	26.716
371.03	28.006
371.39	27.425
371.75	26.960
372.11	27.175
372.47	27.367
372.83	27.537
373.19	27.318
373.55	26.931
373.91	26.278
374.27	27.640
374.63	27.782
374.99	26.099
375.35	27.437
375.71	28.322
376.07	27.037
376.42	27.007
376.78	27.517
377.14	27.014
377.50	27.357
377.86	27.778
378.22	26.484
378.58	28.013
378.94	27.473
379.30	25.702
379.66	27.398
380.02	27.100
380.38	26.111
380.74	27.469
381.09	28.160
381.45	27.462
381.81	26.342
382.17	26.586
382.53	28.357
382.89	27.307
383.25	27.691
383.61	27.805
383.97	27.429
384.32	27.517
384.68	28.235
385.04	27.145
385.40	27.318
385.76	28.805
386.12	28.072
386.48	28.736
386.83	27.457
387.19	28.144
387.55	28.419
387.91	26.834
388.27	27.839
388.62	28.508
388.98	28.484
389.34	27.795
389.70	28.154
390.06	27.376
390.42	28.174
390.77	28.646
391.13	27.301
391.49	28.266
391.85	28.785
392.20	27.997
392.56	28.163
392.92	29.301
393.28	28.125
393.64	27.988
393.99	28.652
394.35	28.843
394.71	28.991
395.07	28.410
395.42	28.537
395.78	27.818
396.14	28.625
396.50	29.360
396.85	28.783
397.21	28.571
397.57	29.467
397.92	28.580
398.28	29.368
398.64	27.289
399.00	29.402
399.35	28.047
399.71	29.294
400.07	28.839
400.42	29.009
400.78	29.271
401.14	28.675
401.49	28.708
401.85	28.885
402.21	28.976
402.57	30.000
402.92	28.795
403.28	29.449
403.63	30.076
403.99	29.209
404.35	29.357
404.70	28.512
405.06	29.436
405.42	29.149
405.77	28.762
406.13	28.813
406.49	29.248
406.84	30.257
407.20	30.704
407.55	29.041
407.91	30.080
408.27	28.681
408.62	29.846
408.98	28.897
409.34	29.740
409.69	29.587
410.05	29.002
410.40	29.630
410.76	30.217
411.11	30.125
411.47	30.506
411.83	28.751
412.18	30.438
412.54	30.212
412.89	28.941
413.25	29.783
413.60	30.186
413.96	29.264
414.31	30.000
414.67	30.661
415.03	30.093
415.38	29.700
415.74	31.140
416.09	31.287
416.45	31.465
416.80	30.205
417.16	30.525
417.51	30.313
417.87	29.531
418.22	31.153
418.58	31.104
418.93	30.846
419.29	30.474
419.64	30.655
420.00	31.738
420.35	29.493
420.71	31.531
421.06	30.755
421.42	31.550
421.77	30.983
422.12	30.760
422.48	30.374
422.83	30.858
423.19	31.151
423.54	30.453
423.90	30.448
424.25	31.688
424.61	32.803
424.96	31.940
425.31	31.889
425.67	31.631
426.02	31.861
426.38	31.684
426.73	32.324
427.09	32.595
427.44	32.529
427.79	32.292
428.15	31.675
428.50	31.012
428.85	31.511
429.21	32.201
429.56	32.022
429.92	32.357
430.27	31.429
430.62	31.678
430.98	32.166
431.33	32.545
431.68	30.926
432.04	32.085
432.39	32.402
432.74	31.329
433.10	32.759
433.45	32.676
433.80	31.805
434.16	31.967
434.51	32.473
434.86	33.333
435.22	32.978
435.57	32.938
435.92	33.234
436.28	32.797
436.63	32.744
436.98	33.372
437.34	33.212
437.69	33.930
438.04	33.105
438.39	32.743
438.75	33.030
439.10	33.220
439.45	34.510
439.81	34.312
440.16	34.145
440.51	34.388
440.86	35.710
441.22	33.824
441.57	33.554
441.92	34.785
442.27	34.091
442.63	35.064
442.98	34.176
443.33	33.667
443.68	33.899
444.03	34.724
444.39	34.088
444.74	35.619
445.09	35.022
445.44	34.530
445.79	34.863
446.15	34.306
446.50	34.110
446.85	36.344
447.20	34.098
447.55	36.328
447.91	35.025
448.26	34.832
448.61	36.097
448.96	35.858
449.31	34.971
449.66	36.295
450.02	35.824
450.37	35.388
450.72	35.739
451.07	36.519
451.42	36.080
451.77	35.262
452.12	35.646
452.47	35.608
452.83	36.749
453.18	34.788
453.53	35.588
453.88	35.580
454.23	36.447
454.58	35.453
454.93	36.534
455.28	34.095
455.63	35.214
455.98	36.741
456.34	35.760
456.69	37.611
457.04	37.114
457.39	36.330
457.74	35.550
458.09	35.374
458.44	36.396
458.79	35.630
459.14	36.442
459.49	36.955
459.84	37.056
460.19	37.075
460.54	36.430
460.89	36.875
461.24	36.646
461.59	36.461
461.94	37.296
462.29	37.033
462.64	37.076
462.99	37.576
463.34	36.161
463.69	36.422
464.04	36.743
464.39	36.992
464.74	36.503
465.09	35.933
465.44	37.276
465.79	36.281
466.14	37.115
466.49	36.975
466.84	36.704
467.19	37.547
467.54	36.718
467.89	37.840
468.24	36.679
468.59	37.905
468.94	37.079
469.29	36.984
469.64	36.842
469.99	39.173
470.34	38.157
470.68	37.957
471.03	36.589
471.38	38.516
471.73	37.395
472.08	36.635
472.43	37.785
472.78	36.806
473.13	37.891
473.48	37.329
473.83	35.741
474.17	38.083
474.52	36.439
474.87	36.848
475.22	38.072
475.57	37.436
475.92	38.179
476.27	37.776
476.61	38.947
476.96	37.479
477.31	37.858
477.66	37.584
478.01	38.293
478.36	37.200
478.70	37.629
479.05	37.967
479.40	38.368
479.75	37.591
480.10	38.044
480.45	37.000
480.79	38.671
481.14	39.805
481.49	37.833
481.84	37.645
482.19	37.325
482.53	37.986
482.88	38.282
483.23	38.292
483.58	38.396
483.92	37.318
484.27	38.058
484.62	38.458
484.97	37.479
485.31	37.572
485.66	35.277
486.01	36.319
486.36	36.154
486.70	38.198
487.05	38.285
487.40	37.746
487.75	38.761
488.09	38.937
488.44	39.546
488.79	39.746
489.13	40.465
489.48	38.735
489.83	39.148
490.17	37.933
490.52	37.829
490.87	38.177
491.22	38.395
491.56	38.662
491.91	37.476
492.26	38.551
492.60	38.004
492.95	39.203
493.30	37.079
493.64	38.458
493.99	38.744
494.34	38.495
494.68	38.619
495.03	38.443
495.37	38.616
495.72	38.970
496.07	38.341
496.41	38.302
496.76	38.185
497.11	37.960
497.45	39.523
497.80	38.597
498.14	38.599
498.49	38.751
498.84	38.024
499.18	38.906
499.53	38.542
499.87	37.938
500.22	38.971
500.56	39.486
500.91	38.956
501.26	37.963
501.60	39.302
501.95	38.476
502.29	38.789
502.64	38.562
502.98	39.418
503.33	39.625
503.67	39.422
504.02	39.052
504.36	39.436
504.71	39.646
505.06	38.148
505.40	39.239
505.75	39.639
506.09	39.230
506.44	40.041
506.78	39.796
507.13	39.659
507.47	37.493
507.82	39.263
508.16	39.514
508.51	40.818
508.85	39.194
509.19	40.500
509.54	40.000
509.88	39.213
510.23	39.591
510.57	40.513
510.92	38.806
511.26	39.935
511.61	39.934
511.95	40.493
512.30	39.800
512.64	39.510
512.98	40.427
513.33	40.347
513.67	39.909
514.02	41.819
514.36	41.486
514.70	40.035
515.05	41.187
515.39	41.499
515.74	41.617
516.08	41.423
516.42	42.403
516.77	41.369
517.11	41.721
517.46	41.532
517.80	40.822
518.14	40.355
518.49	40.925
518.83	40.219
519.17	40.085
519.52	40.793
519.86	39.796
520.20	41.677
520.55	41.588
520.89	42.284
521.23	41.672
521.58	41.262
521.92	42.372
522.26	42.681
522.61	42.143
522.95	42.649
523.29	41.804
523.64	41.804
523.98	42.450
524.32	41.302
524.66	42.510
525.01	41.753
525.35	43.357
525.69	41.481
526.04	42.659
526.38	43.709
526.72	41.400
527.06	42.023
527.41	41.755
527.75	42.493
528.09	41.794
528.43	42.539
528.78	42.310
529.12	42.194
529.46	42.300
529.80	42.242
530.15	42.640
530.49	42.694
530.83	43.023
531.17	41.504
531.51	44.118
531.86	43.032
532.20	42.171
532.54	42.342
532.88	42.300
533.22	41.667
533.57	41.219
533.91	42.298
534.25	43.359
534.59	40.539
534.93	41.724
535.27	41.751
535.62	41.413
535.96	42.596
536.30	42.480
536.64	42.867
536.98	42.578
537.32	42.674
537.66	43.408
538.01	42.797
538.35	41.886
538.69	42.277
539.03	41.490
539.37	42.732
539.71	42.740
540.05	42.227
540.39	41.274
540.73	41.841
541.07	43.439
541.42	42.742
541.76	43.496
542.10	42.326
542.44	42.252
542.78	42.189
543.12	41.896
543.46	42.976
543.80	42.748
544.14	40.120
544.48	41.106
544.82	42.925
545.16	43.169
545.50	41.923
545.84	42.847
546.18	42.695
546.52	43.043
546.86	41.840
547.20	41.774
547.54	42.261
547.88	42.188
548.22	39.908
548.56	41.029
548.90	42.520
549.24	41.529
549.58	41.608
549.92	41.458
550.26	42.564
550.60	42.454
550.94	42.420
551.28	42.427
551.62	42.923
551.96	41.429
552.30	42.471
552.64	41.044
552.98	42.194
553.32	42.511
553.66	40.856
554.00	42.117
554.34	41.802
554.68	41.445
555.02	42.783
555.36	42.034
555.69	41.612
556.03	40.400
556.37	40.071
556.71	40.939
557.05	41.163
557.39	41.264
557.73	41.454
558.07	42.459
558.41	41.654
558.75	40.686
559.08	41.214
559.42	40.952
559.76	42.274
560.10	41.743
560.44	40.581
560.78	40.210
561.12	40.550
561.45	41.532
561.79	41.246
562.13	41.164
562.47	39.712
562.81	41.138
563.15	41.114
563.48	40.240
563.82	40.288
564.16	42.340
564.50	40.676
564.84	41.365
565.17	40.309
565.51	41.052
565.85	41.770
566.19	40.252
566.52	40.952
566.86	41.517
567.20	39.166
567.54	40.450
567.88	40.832
568.21	40.498
568.55	40.761
568.89	40.554
569.23	40.443
569.56	39.011
569.90	39.708
570.24	38.742
570.57	39.200
570.91	40.049
571.25	38.573
571.59	38.275
571.92	38.222
572.26	38.859
572.60	39.008
572.93	38.563
573.27	38.652
573.61	38.693
573.95	38.476
574.28	38.268
574.62	37.529
574.96	38.170
575.29	37.809
575.63	36.953
575.97	37.707
576.30	38.010
576.64	37.113
576.98	38.584
577.31	38.068
577.65	37.982
577.98	37.489
578.32	37.643
578.66	37.137
578.99	36.664
579.33	37.722
579.67	37.245
580.00	37.722
580.34	37.338
580.67	37.166
581.01	37.800
581.35	36.908
581.68	36.922
582.02	37.071
582.35	36.750
582.69	37.748
583.02	37.214
583.36	38.018
583.70	38.214
584.03	38.949
584.37	39.328
584.70	38.462
585.04	36.917
585.37	36.978
585.71	37.522
586.04	36.762
586.38	37.157
586.72	36.499
587.05	37.782
587.39	37.154
587.72	37.534
588.06	37.227
588.39	37.482
588.73	37.393
589.06	37.704
589.40	37.435
589.73	38.372
590.07	38.104
590.40	37.926
590.73	38.427
591.07	37.871
591.40	37.622
591.74	38.009
592.07	38.033
592.41	37.986
592.74	35.882
593.08	35.662
593.41	35.848
593.75	36.081
594.08	36.217
594.41	36.463
594.75	35.992
595.08	36.966
595.42	36.842
595.75	37.664
596.09	37.256
596.42	36.875
596.75	37.522
597.09	36.401
597.42	37.082
597.75	37.197
598.09	36.034
598.42	36.327
598.76	36.293
599.09	35.777
599.42	35.127
599.76	35.365
600.09	35.671
600.42	35.671
600.76	35.067
601.09	34.924
601.42	35.448
601.76	36.245
602.09	35.602
602.42	37.195
602.76	36.375
603.09	35.756
603.42	37.458
603.76	35.363
604.09	36.371
604.42	35.745
604.76	36.226
605.09	35.695
605.42	35.982
605.75	35.201
606.09	35.287
606.42	35.279
606.75	35.455
607.09	35.165
607.42	34.205
607.75	34.281
608.08	34.771
608.42	34.765
608.75	34.651
609.08	35.825
609.41	35.939
609.75	35.736
610.08	35.896
610.41	34.783
610.74	35.349
611.07	36.021
611.41	34.977
611.74	35.768
612.07	35.118
612.40	34.190
612.73	35.763
613.07	34.196
613.40	34.737
613.73	35.422
614.06	33.723
614.39	35.195
614.72	34.118
615.06	33.687
615.39	33.843
615.72	34.661
616.05	35.698
616.38	33.162
616.71	35.046
617.05	34.651
617.38	34.947
617.71	34.969
618.04	35.175
618.37	35.561
618.70	34.125
619.03	34.931
619.36	34.443
619.69	35.709
620.03	35.793
620.36	33.977
620.69	34.547
621.02	34.557
621.35	34.855
621.68	36.310
622.01	33.583
622.34	34.158
622.67	34.148
623.00	33.767
623.33	35.137
623.66	33.059
623.99	32.829
624.32	34.601
624.65	32.406
624.99	33.935
625.32	33.434
625.65	34.721
625.98	34.811
626.31	33.416
626.64	33.795
626.97	35.166
627.30	34.588
627.63	33.536
627.96	33.243
628.29	34.783
628.62	34.808
628.95	34.970
629.28	33.669
629.61	34.297
629.94	35.288
630.26	33.597
630.59	33.403
630.92	35.179
631.25	32.821
631.58	34.031
631.91	33.991
632.24	33.372
632.57	34.205
632.90	34.994
633.23	34.471
633.56	33.501
633.89	32.922
634.22	35.185
634.55	33.291
634.88	34.610
635.20	31.538
635.53	35.467
635.86	31.730
636.19	33.635
636.52	33.929
636.85	33.623
637.18	31.572
637.51	33.208
637.83	34.166
638.16	33.834
638.49	33.243
638.82	35.000
639.15	32.429
639.48	31.774
639.81	33.054
640.13	32.900
640.46	33.528
640.79	32.842
641.12	32.792
641.45	34.384
641.77	34.815
642.10	34.439
642.43	32.958
642.76	34.323
643.09	33.764
643.41	32.039
643.74	33.278
644.07	32.184
644.40	32.770
644.73	33.100
645.05	32.550
645.38	33.686
645.71	33.865
646.04	32.496
646.36	32.979
646.69	35.252
647.02	32.703
647.35	35.448
647.67	32.724
648.00	33.769
648.33	32.253
648.66	30.678
648.98	31.491
649.31	30.909
649.64	30.455
649.96	28.039
650.29	31.687
650.62	31.966
650.94	34.444
651.27	31.471
651.60	32.432
651.92	31.119
652.25	30.195
652.58	30.500
652.90	30.703
653.23	30.084
653.56	28.257
653.88	32.990
654.21	29.422
654.54	30.730
654.86	31.749
655.19	29.386
655.52	31.966
655.84	27.698
656.17	30.674
656.49	42.130
656.82	45.886
657.15	36.832
657.47	28.090
657.80	21.234
658.13	21.060
658.45	34.116
658.78	34.998
659.10	34.596
659.43	34.973
659.75	35.866
660.08	35.034
660.41	36.364
660.73	33.840
661.06	32.236
661.38	30.528
661.71	29.569
662.03	32.833
662.36	30.110
662.68	28.097
663.01	29.258
663.33	28.538
663.66	29.767
663.98	26.744
664.31	30.917
664.63	30.645
664.96	28.478
665.28	27.594
665.61	30.519
665.93	29.565
666.26	32.321
666.58	27.964
666.91	29.176
667.23	29.953
667.56	31.517
667.88	31.655
668.21	30.072
668.53	30.969
668.86	31.368
669.18	27.358
669.50	27.361
669.83	26.744
670.15	27.739
670.48	27.512
670.80	27.650
671.13	28.635
671.45	25.342
671.77	31.330
672.10	29.109
672.42	28.652
672.75	31.083
673.07	32.200
673.39	30.642
673.72	27.613
674.04	27.708
674.37	29.661
674.69	28.908
675.01	29.556
675.34	30.405
675.66	31.944
675.98	31.264
676.31	27.982
676.63	26.603
676.95	26.591
677.28	29.412
677.60	33.735
677.92	27.064
678.25	25.602
678.57	27.273
678.89	28.992
679.22	29.530
679.54	26.908
679.86	29.423
680.18	30.874
680.51	27.841
680.83	27.237
681.15	29.800
681.48	29.713
681.80	29.339
682.12	26.411
682.44	26.987
682.77	30.905
683.09	29.291
683.41	25.909
683.73	26.267
684.06	27.434
684.38	28.172
684.70	27.451
685.02	26.763
685.34	26.285
685.67	28.143
685.99	28.029
686.31	27.611
686.63	25.417
686.96	27.567
687.28	27.071
687.60	26.996
687.92	29.293
688.24	28.629
688.56	26.856
688.89	26.562
689.21	30.444
689.53	25.986
689.85	28.372
690.17	27.232
690.49	26.950
690.82	25.000
691.14	24.286
691.46	26.168
691.78	27.928
692.10	27.742
692.42	26.623
692.74	28.205
693.06	26.577
693.39	25.339
693.71	27.828
694.03	27.252
694.35	24.533
694.67	27.778
694.99	21.410
695.31	27.415
695.63	26.250
695.95	24.242
696.27	23.316
696.59	26.667
696.91	24.650
697.23	24.679
697.56	26.485
697.88	25.591
698.20	26.651
698.52	24.000
698.84	24.163
699.16	23.500
699.48	28.070
699.80	28.040
700.12	27.224
700.44	29.132
700.76	29.070
701.08	28.788
701.40	24.398
701.72	28.395
702.04	26.403
702.36	29.431
702.68	25.526
703.00	25.455
703.32	24.047
703.64	21.186
703.96	23.478
704.28	27.914
704.60	24.444
704.91	23.659
705.23	26.910
705.55	29.329
705.87	26.715
706.19	27.037
706.51	26.804
706.83	25.402
707.15	22.741
707.47	22.969
707.79	22.917
708.11	27.500
708.43	24.750
708.74	25.323
709.06	24.789
709.38	29.664
709.70	24.556
710.02	23.885
710.34	26.935
710.66	20.513
710.98	23.841
711.29	25.574
711.61	24.407
711.93	24.756
712.25	30.928
712.57	23.810
712.89	23.134
713.20	23.875
713.52	25.784
713.84	26.621
714.16	22.337
714.48	21.613
714.80	25.962
715.11	24.316
715.43	22.884
715.75	22.000
716.07	24.585
716.39	24.497
716.70	19.557
717.02	19.084
717.34	25.911
717.66	24.779
717.97	22.174
718.29	26.360
718.61	21.260
718.93	26.744
719.24	26.616
719.56	26.908
719.88	26.460
720.20	28.788
720.51	20.307
720.83	23.938
721.15	26.471
721.46	25.000
721.78	22.134
722.10	21.190
722.42	17.427
722.73	23.265
723.05	27.755
723.37	27.966
723.68	26.126
724.00	23.077
724.32	20.444
724.63	21.818
724.95	24.017
725.27	22.581
725.58	23.305
725.90	22.619
726.22	23.166
726.53	24.407
726.85	24.345
727.16	25.283
727.48	20.648
727.80	28.340
728.11	24.153
728.43	18.824
728.74	18.952
729.06	20.400
729.38	25.940
729.69	25.896
730.01	16.538
730.32	25.000
730.64	20.141
730.96	24.528
731.27	24.667
731.59	25.424
731.90	21.656
732.22	23.028
732.53	28.571
732.85	23.759
733.16	28.283
733.48	24.101
733.80	23.551
734.11	22.034
734.43	23.711
734.74	26.061
735.06	18.893
735.37	26.284
735.69	26.936
736.00	22.997
736.32	23.154
736.63	18.662
736.95	26.962
737.26	21.708
737.58	25.168
737.89	25.275
738.21	22.932
738.52	21.399
738.83	23.581
739.15	20.961
739.46	24.803
739.78	22.711
740.09	18.627
740.41	23.551
740.72	17.323
741.04	23.887
741.35	25.106
741.66	22.749
741.98	26.531
742.29	20.792
742.61	23.037
742.92	12.796
743.23	12.037
743.55	23.982
743.86	21.531
744.18	21.531
744.49	23.404
744.80	22.826
745.12	20.856
745.43	19.512
745.74	16.667
746.06	23.902
746.37	19.895
746.68	23.697
747.00	19.681
747.31	21.891
747.62	23.786
747.94	18.182
748.25	20.792
748.56	22.951
748.88	17.277
749.19	25.000
749.50	28.079
749.82	15.094
750.13	21.560
750.44	21.429
750.75	25.000
751.07	26.277
751.38	22.605
751.69	20.000
752.01	22.868
752.32	19.124
752.63	20.949
752.94	20.259
753.26	28.452
753.57	22.172
753.88	20.354
754.19	22.917
754.51	22.727
754.82	22.267
755.13	29.167
755.44	23.387
755.75	26.172
756.07	19.455
756.38	15.472
756.69	19.540
757.00	23.000
757.31	20.261
757.63	20.122
757.94	21.389
758.25	20.822
758.56	18.617
758.87	18.980
759.18	17.134
759.50	21.455
759.81	27.090
760.12	21.935
760.43	22.424
760.74	20.370
761.05	22.462
761.36	23.864
761.67	25.455
761.99	21.769
762.30	19.636
762.61	21.739
762.92	21.719
763.23	19.369
763.54	17.290
763.85	20.339
764.16	20.747
764.47	20.968
764.78	19.414
765.10	21.549
765.41	22.713
765.72	23.175
766.03	18.797
766.34	19.708
766.65	19.522
766.96	20.202
767.27	21.277
767.58	18.391
767.89	19.858
768.20	21.591
768.51	15.385
768.82	21.182
769.13	19.355
769.44	22.318
769.75	14.612
770.06	20.690
770.37	21.154
770.68	20.305
770.99	19.457
771.30	24.510
771.61	19.910
771.92	24.569
772.23	26.601
772.54	25.269
772.85	16.049
773.16	19.101
773.47	27.451
773.78	14.379
774.09	13.174
774.39	19.333
774.70	19.745
775.01	23.448
775.32	20.000
775.63	19.835
775.94	21.374
776.25	23.622
776.56	12.500
776.87	17.308
777.18	14.530
777.48	21.552
777.79	16.522
778.10	7.619
778.41	15.315
778.72	17.460
779.03	18.797
779.34	18.440
779.65	19.178
779.95	11.644
780.26	18.621
780.57	12.195
780.88	14.961
781.19	18.103
781.50	30.233
781.80	21.302
782.11	6.289
782.42	14.615
782.73	17.266
783.04	20.741
783.34	13.194
783.65	6.838
783.96	22.131
784.27	28.966
784.57	13.008
784.88	16.406
785.19	25.000
785.50	25.000
785.81	18.103
786.11	21.552
786.42	18.447
786.73	22.727
787.04	10.204
787.34	19.643
787.65	10.476
787.96	21.239
788.26	13.636
788.57	23.077
788.88	20.312
789.19	8.730
789.49	19.130
789.80	11.224
790.11	22.222
790.41	15.455
790.72	16.304
791.03	18.182
791.33	26.250
791.64	13.750
791.95	19.767
792.25	13.830
792.56	16.854
792.87	10.959
793.17	20.290
793.48	10.667
793.79	20.000
794.09	26.250
794.40	16.981
794.70	15.534
795.01	14.634
795.32	11.966
795.62	13.333
795.93	19.608
796.23	23.585
796.54	19.792
796.85	20.588
797.15	8.451
797.46	15.278
797.76	21.212
798.07	1.163
798.37	6.579
798.68	1.515
798.99	13.580
799.29	28.571
799.60	8.696
799.90	20.000
800.21	18.033
800.51	23.077
800.82	18.644
801.12	17.391
801.43	0.000
801.73	3.175
802.04	24.000
802.34	10.448
802.65	25.000
802.95	-7.143
803.26	3.846
803.56	19.608
803.87	-13.043
804.17	32.000
804.48	20.635
804.78	5.556
805.09	6.522
805.39	0.000
805.70	1.852
806.00	7.018
806.30	19.718
806.61	22.857
806.91	4.167
807.22	28.947
807.52	17.333
807.83	-5.455
808.13	4.167
808.43	13.235
808.74	0.000
809.04	10.169
809.35	7.692
809.65	3.125
809.95	-37.838
810.26	2.273
810.56	5.479
810.86	-7.143
811.17	6.000
811.47	0.000
811.77	-34.211
812.08	0.000
812.38	-3.774
812.69	0.000
812.99	6.061
813.29	10.526
813.59	-8.571
813.90	6.818
814.20	-28.205
814.50	13.462
814.81	7.547
815.11	-2.128
815.41	20.339
815.72	26.190
816.02	23.529
816.32	-8.333
816.62	-4.878
816.93	-8.108
817.23	17.143
817.53	8.333
817.84	6.522
818.14	-1.923
818.44	-2.632
818.74	30.435
819.04	12.500
819.35	2.703
819.65	2.941
819.95	-5.556
820.25	-16.667
820.56	5.000
820.86	-44.828
821.16	32.500
821.46	10.638
821.76	27.500
822.07	4.651
822.37	-13.514
822.67	34.375
822.97	23.810
823.27	14.286
823.57	12.000
823.88	-25.926
824.18	-17.857
824.48	-11.765
824.78	-25.806
825.08	17.391
825.38	6.061
825.69	-54.167
825.99	-13.158
826.29	0.000
826.59	-6.667
826.89	-47.619
827.19	17.391
827.49	-7.500
827.79	22.857
828.09	-3.571
828.39	24.242
828.70	32.432
829.00	-10.714
829.30	-4.762
829.60	13.333
829.90	0.000
830.20	-2.632
830.50	-11.111
830.80	-17.391
831.10	0.000
831.40	12.121
831.70	22.581
832.00	14.286
832.30	-52.381
832.60	-75.000
832.90	-13.793
833.20	-85.000
833.50	-3.030
833.80	-7.407
834.10	-15.385
834.40	-6.250
834.70	-22.222
835.00	-42.105
835.30	34.615
835.60	33.333
835.90	6.452
836.20	0.000
836.50	-17.857
836.80	-26.923
837.10	-10.714
837.40	-100.000
837.70	-50.000
838.00	-100.000
838.30	43.478
838.60	38.462
838.90	-22.727
839.19	-14.286
839.49	16.667
839.79	-46.154
840.09	-125.000
840.39	25.000
840.69	0.000
840.99	-65.385
841.29	-73.684
841.59	-30.000
841.88	27.273
842.18	10.000
842.48	6.250
842.78	-20.000
843.08	-25.926
843.38	-170.000
843.68	-17.391
843.97	6.667
844.27	-60.000
844.57	-5.000
844.87	-27.778
845.17	-61.905
845.47	-20.000
845.76	-42.857
846.06	-23.529
846.36	-50.000
846.66	-42.857
846.96	6.667
847.25	-187.500
847.55	-50.000
847.85	-50.000
848.15	-4.545
848.44	-700.000
848.74	-50.000
849.04	7.407
849.34	-63.636
849.63	-133.333
849.93	-200.000
850.23	-44.444
850.53	70.000
850.82	-69.231
851.12	-88.889
851.42	26.667
851.71	-30.769
852.01	-28.571
852.31	-125.000
852.61	18.182
852.90	-40.000
853.20	-15.789
853.50	-75.000
853.79	-21.739
854.09	45.833
854.39	-47.368
854.68	-37.500
854.98	-6.452
855.28	11.538
855.57	-5.000
855.87	-5.556
856.17	-14.815
856.46	-28.571
856.76	0.000
857.05	0.000
857.35	36.000
857.65	33.333
857.94	-69.231
858.24	48.276
858.53	22.222
858.83	33.333
859.13	45.455
859.42	-34.783
859.72	-75.000
860.01	-466.667
860.31	36.000
860.60	23.810
860.90	-200.000
861.20	-46.667
861.49	-600.000
861.79	-113.333
862.08	-40.000
862.38	33.333
862.67	-120.000
862.97	-183.333
863.26	41.667
863.56	22.222
863.85	-466.667
864.15	0.000
864.44	-120.000
864.74	14.286
865.03	425.000
865.33	-40.000
865.62	83.333
865.92	-141.667
866.21	-216.667
866.51	6.250
866.80	0.000
867.10	-400.000
867.39	-25.000
867.69	0.000
867.98	61.538
868.27	-300.000
868.57	-6.667
868.86	22.222
869.16	-69.231
869.45	-80.000
869.75	-1200.000
870.04	0.000
870.33	-214.286
870.63	9.524
870.92	233.333
871.22	-240.000
871.51	-400.000
871.80	-33.333
872.10	466.667
>>>>>End Processed Spectral Data<<<<<
