SpectraSuite Data File
++++++++++++++++++++++++++++++++++++
Date: Fri May 15 20:42:15 PDT 2015
User: schluterlab
Dark Spectrum Present: Yes
Reference Spectrum Present: Yes
Number of Sampled Component Spectra: 1
Spectrometers: USB2E3373
Integration Time (usec): 3000 (USB2E3373)
Spectra Averaged: 3 (USB2E3373)
Boxcar Smoothing: 0 (USB2E3373)
Correct for Electrical Dark: No (USB2E3373)
Strobe/Lamp Enabled: No (USB2E3373)
Correct for Detector Non-linearity: No (USB2E3373)
Correct for Stray Light: No (USB2E3373)
Number of Pixels in Processed Spectrum: 2048
>>>>>Begin Processed Spectral Data<<<<<
178.53	0.000
178.91	0.000
179.29	37.500
179.67	-700.000
180.04	-57.143
180.42	250.000
180.80	-600.000
181.18	-0.000
181.56	-50.000
181.94	50.000
182.31	700.000
182.69	20.000
183.07	-400.000
183.45	-140.000
183.83	-116.667
184.20	-9.091
184.58	77.778
184.96	25.000
185.34	33.333
185.72	-250.000
186.09	61.538
186.47	-700.000
186.85	150.000
187.23	88.889
187.61	500.000
187.98	-233.333
188.36	-22.222
188.74	-333.333
189.12	35.294
189.49	22.222
189.87	0.000
190.25	28.571
190.63	-50.000
191.00	133.333
191.38	-5.263
191.76	50.000
192.14	25.000
192.51	450.000
192.89	11.111
193.27	-214.286
193.65	266.667
194.02	36.364
194.40	0.000
194.78	-250.000
195.15	-25.000
195.53	-62.500
195.91	300.000
196.29	-300.000
196.66	84.615
197.04	42.857
197.42	-22.222
197.79	66.667
198.17	-23.077
198.55	700.000
198.92	-166.667
199.30	400.000
199.68	-40.000
200.05	-633.333
200.43	0.000
200.81	200.000
201.18	66.667
201.56	1200.000
201.94	-250.000
202.31	-33.333
202.69	-60.000
203.07	100.000
203.44	-100.000
203.82	0.000
204.19	42.857
204.57	-133.333
204.95	112.500
205.32	20.000
205.70	14.286
206.08	25.000
206.45	100.000
206.83	92.857
207.20	-71.429
207.58	400.000
207.96	-200.000
208.33	-130.000
208.71	-125.000
209.08	-83.333
209.46	-300.000
209.84	120.000
210.21	-800.000
210.59	-85.714
210.96	-16.667
211.34	-75.000
211.71	46.667
212.09	-128.571
212.46	-1400.000
212.84	0.000
213.22	20.000
213.59	150.000
213.97	30.769
214.34	0.000
214.72	66.667
215.09	275.000
215.47	23.077
215.84	-9.091
216.22	-566.667
216.59	25.000
216.97	600.000
217.34	-25.000
217.72	-200.000
218.09	-50.000
218.47	112.500
218.84	-600.000
219.22	-55.556
219.59	-140.000
219.97	466.667
220.34	300.000
220.72	-14.286
221.09	-325.000
221.47	-100.000
221.84	-600.000
222.22	-700.000
222.59	-36.364
222.97	-8.333
223.34	-233.333
223.72	-42.857
224.09	38.095
224.46	-3.571
224.84	166.667
225.21	-20.000
225.59	80.000
225.96	500.000
226.34	350.000
226.71	-28.571
227.08	-283.333
227.46	-137.500
227.83	-550.000
228.21	66.667
228.58	-45.455
228.95	-100.000
229.33	150.000
229.70	-12.500
230.08	-25.000
230.45	-157.143
230.82	-85.714
231.20	-13.333
231.57	92.857
231.95	42.857
232.32	-20.000
232.69	28.571
233.07	66.667
233.44	20.000
233.81	-110.000
234.19	44.444
234.56	-17.647
234.93	-150.000
235.31	0.000
235.68	-240.000
236.05	-84.615
236.43	5.000
236.80	0.000
237.17	40.625
237.55	-5.000
237.92	29.630
238.29	33.333
238.67	36.667
239.04	11.765
239.41	17.073
239.79	33.333
240.16	63.415
240.53	31.579
240.91	2.174
241.28	36.508
241.65	50.000
242.02	46.575
242.40	43.333
242.77	32.203
243.14	28.788
243.51	37.500
243.89	50.575
244.26	34.483
244.63	34.524
245.00	40.206
245.38	41.237
245.75	44.944
246.12	35.345
246.49	38.843
246.87	48.077
247.24	31.933
247.61	37.719
247.98	48.780
248.36	33.750
248.73	37.500
249.10	33.766
249.47	34.810
249.84	43.137
250.22	40.000
250.59	43.137
250.96	38.498
251.33	41.860
251.70	44.118
252.08	37.563
252.45	35.149
252.82	38.191
253.19	48.848
253.56	47.196
253.94	39.640
254.31	46.087
254.68	44.298
255.05	40.157
255.42	45.852
255.79	39.768
256.16	46.304
256.54	38.433
256.91	39.924
257.28	41.264
257.65	41.573
258.02	40.780
258.39	41.414
258.76	45.055
259.14	43.189
259.51	39.806
259.88	45.017
260.25	42.157
260.62	44.444
260.99	40.339
261.36	40.411
261.73	42.722
262.10	40.729
262.47	42.945
262.85	42.947
263.22	40.615
263.59	45.794
263.96	45.031
264.33	43.030
264.70	45.536
265.07	44.345
265.44	45.042
265.81	43.503
266.18	43.989
266.55	43.445
266.92	43.005
267.29	45.431
267.66	43.478
268.03	44.241
268.40	40.731
268.77	44.920
269.14	41.487
269.51	41.131
269.88	43.142
270.25	42.857
270.62	39.512
270.99	43.478
271.36	43.521
271.73	43.662
272.10	42.092
272.47	41.135
272.84	41.584
273.21	42.459
273.58	44.578
273.95	40.046
274.32	44.111
274.69	40.724
275.06	45.536
275.43	41.497
275.80	45.475
276.17	43.218
276.54	40.685
276.91	44.518
277.28	39.083
277.65	39.876
278.02	40.638
278.39	44.639
278.76	40.252
279.13	41.079
279.50	43.908
279.87	41.253
280.23	41.935
280.60	42.690
280.97	44.444
281.34	41.154
281.71	41.889
282.08	38.650
282.45	39.530
282.82	38.417
283.19	40.426
283.56	41.811
283.92	40.417
284.29	41.538
284.66	40.116
285.03	41.847
285.40	40.454
285.77	37.434
286.14	37.906
286.51	42.435
286.87	39.122
287.24	39.963
287.61	39.153
287.98	39.298
288.35	37.608
288.72	39.054
289.08	38.368
289.45	36.907
289.82	39.685
290.19	36.348
290.56	36.364
290.93	38.552
291.29	34.052
291.66	37.638
292.03	35.566
292.40	36.613
292.77	35.726
293.13	33.929
293.50	31.715
293.87	34.504
294.24	32.921
294.60	35.469
294.97	33.482
295.34	32.362
295.71	33.085
296.08	31.241
296.44	31.010
296.81	32.222
297.18	31.159
297.55	32.656
297.91	31.644
298.28	29.947
298.65	29.715
299.02	31.941
299.38	31.464
299.75	30.207
300.12	28.927
300.48	28.063
300.85	30.165
301.22	29.740
301.59	30.921
301.95	29.494
302.32	29.831
302.69	29.602
303.05	28.589
303.42	29.016
303.79	29.322
304.15	29.271
304.52	28.775
304.89	28.772
305.25	27.603
305.62	26.838
305.99	27.018
306.35	27.283
306.72	27.672
307.09	28.848
307.45	29.277
307.82	27.199
308.19	27.758
308.55	26.718
308.92	29.739
309.29	28.380
309.65	26.265
310.02	27.393
310.38	28.650
310.75	28.306
311.12	27.557
311.48	27.466
311.85	25.759
312.22	26.266
312.58	26.964
312.95	26.574
313.31	26.501
313.68	25.026
314.05	26.531
314.41	27.835
314.78	26.495
315.14	27.646
315.51	27.640
315.87	25.922
316.24	26.593
316.61	27.461
316.97	27.480
317.34	27.832
317.70	26.673
318.07	26.827
318.43	27.549
318.80	26.042
319.16	28.418
319.53	26.591
319.89	25.984
320.26	27.328
320.62	26.780
320.99	27.349
321.35	26.516
321.72	26.584
322.08	26.989
322.45	27.817
322.81	27.112
323.18	26.497
323.54	27.510
323.91	25.998
324.27	26.562
324.64	26.124
325.00	27.190
325.37	29.017
325.73	27.652
326.10	26.885
326.46	27.085
326.83	27.472
327.19	26.853
327.56	26.759
327.92	27.817
328.29	27.500
328.65	27.736
329.01	26.011
329.38	26.912
329.74	26.157
330.11	27.989
330.47	26.902
330.84	27.692
331.20	27.662
331.56	26.574
331.93	26.849
332.29	27.314
332.66	27.330
333.02	26.859
333.38	26.306
333.75	27.839
334.11	25.694
334.48	27.380
334.84	27.473
335.20	26.075
335.57	26.473
335.93	27.733
336.29	26.888
336.66	26.885
337.02	24.442
337.38	26.852
337.75	27.182
338.11	26.781
338.47	27.464
338.84	27.079
339.20	25.868
339.56	27.523
339.93	25.873
340.29	26.972
340.65	27.509
341.02	25.621
341.38	26.814
341.74	25.707
342.11	25.303
342.47	25.356
342.83	25.865
343.20	26.481
343.56	25.652
343.92	26.306
344.28	26.644
344.65	25.389
345.01	25.670
345.37	25.988
345.73	25.523
346.10	26.402
346.46	26.577
346.82	24.714
347.19	24.771
347.55	25.313
347.91	25.728
348.27	25.869
348.63	25.213
349.00	24.692
349.36	26.018
349.72	24.876
350.08	25.410
350.45	25.219
350.81	25.498
351.17	25.081
351.53	24.653
351.89	24.690
352.26	25.280
352.62	24.435
352.98	23.855
353.34	23.591
353.70	25.162
354.07	24.919
354.43	24.259
354.79	23.782
355.15	25.079
355.51	25.712
355.87	24.919
356.24	23.165
356.60	24.576
356.96	24.444
357.32	24.441
357.68	24.003
358.04	23.586
358.40	24.357
358.77	24.482
359.13	24.660
359.49	23.112
359.85	24.337
360.21	24.163
360.57	23.795
360.93	23.374
361.29	22.508
361.66	24.295
362.02	24.621
362.38	24.448
362.74	23.618
363.10	23.476
363.46	23.128
363.82	24.718
364.18	24.059
364.54	21.912
364.90	23.513
365.26	23.144
365.62	24.015
365.98	23.534
366.35	24.472
366.71	23.503
367.07	23.367
367.43	23.364
367.79	23.251
368.15	23.618
368.51	23.015
368.87	22.398
369.23	22.888
369.59	23.469
369.95	23.314
370.31	22.905
370.67	23.060
371.03	22.405
371.39	23.414
371.75	23.370
372.11	21.897
372.47	23.003
372.83	22.853
373.19	23.466
373.55	21.733
373.91	21.526
374.27	23.033
374.63	22.828
374.99	22.411
375.35	22.423
375.71	23.846
376.07	22.683
376.42	23.265
376.78	23.087
377.14	22.139
377.50	22.576
377.86	23.159
378.22	22.399
378.58	23.013
378.94	22.432
379.30	22.645
379.66	23.260
380.02	22.931
380.38	21.668
380.74	22.322
381.09	22.331
381.45	21.957
381.81	22.085
382.17	23.287
382.53	22.986
382.89	22.411
383.25	22.838
383.61	22.805
383.97	22.222
384.32	21.826
384.68	22.477
385.04	21.936
385.40	21.344
385.76	24.340
386.12	23.092
386.48	22.350
386.83	21.497
387.19	21.673
387.55	22.334
387.91	23.227
388.27	22.283
388.62	21.649
388.98	21.486
389.34	22.423
389.70	22.188
390.06	21.586
390.42	22.150
390.77	21.714
391.13	22.257
391.49	21.734
391.85	22.027
392.20	21.406
392.56	20.598
392.92	22.490
393.28	22.642
393.64	21.742
393.99	22.069
394.35	21.316
394.71	21.967
395.07	21.810
395.42	21.372
395.78	21.433
396.14	22.699
396.50	21.687
396.85	21.958
397.21	21.805
397.57	20.627
397.92	22.588
398.28	22.241
398.64	22.048
399.00	21.953
399.35	21.501
399.71	22.171
400.07	21.765
400.42	22.032
400.78	21.862
401.14	22.021
401.49	21.441
401.85	21.694
402.21	22.169
402.57	22.437
402.92	21.142
403.28	21.491
403.63	21.564
403.99	20.663
404.35	21.112
404.70	22.202
405.06	21.798
405.42	21.815
405.77	20.802
406.13	21.595
406.49	21.255
406.84	21.210
407.20	21.252
407.55	20.670
407.91	21.324
408.27	20.331
408.62	21.354
408.98	20.271
409.34	21.933
409.69	21.318
410.05	21.675
410.40	21.543
410.76	21.592
411.11	22.375
411.47	21.893
411.83	20.213
412.18	21.557
412.54	21.161
412.89	21.059
413.25	21.179
413.60	20.621
413.96	20.245
414.31	22.500
414.67	20.975
415.03	20.772
415.38	21.018
415.74	20.586
416.09	21.946
416.45	20.729
416.80	21.282
417.16	22.238
417.51	21.119
417.87	20.665
418.22	21.244
418.58	20.602
418.93	20.627
419.29	20.807
419.64	20.998
420.00	21.851
420.35	20.776
420.71	21.203
421.06	20.381
421.42	20.913
421.77	20.867
422.12	21.339
422.48	21.169
422.83	20.186
423.19	22.065
423.54	20.811
423.90	21.319
424.25	20.838
424.61	21.603
424.96	20.848
425.31	21.375
425.67	21.890
426.02	22.379
426.38	21.227
426.73	21.429
427.09	22.848
427.44	21.765
427.79	20.978
428.15	21.723
428.50	20.896
428.85	20.086
429.21	21.166
429.56	21.348
429.92	21.315
430.27	20.952
430.62	20.596
430.98	20.966
431.33	21.346
431.68	21.559
432.04	21.241
432.39	20.821
432.74	21.527
433.10	22.069
433.45	20.908
433.80	21.590
434.16	20.665
434.51	20.538
434.86	21.719
435.22	21.032
435.57	21.460
435.92	21.677
436.28	20.930
436.63	21.221
436.98	20.742
437.34	20.266
437.69	21.646
438.04	21.197
438.39	20.037
438.75	21.372
439.10	21.392
439.45	21.424
439.81	21.101
440.16	21.140
440.51	21.433
440.86	22.417
441.22	20.814
441.57	20.971
441.92	20.986
442.27	21.397
442.63	21.199
442.98	21.424
443.33	21.258
443.68	20.584
444.03	21.510
444.39	21.692
444.74	22.185
445.09	21.102
445.44	21.368
445.79	21.661
446.15	22.137
446.50	20.965
446.85	21.679
447.20	20.647
447.55	21.987
447.91	20.587
448.26	21.343
448.61	21.359
448.96	21.629
449.31	20.405
449.66	21.138
450.02	21.335
450.37	20.984
450.72	21.649
451.07	21.646
451.42	20.662
451.77	20.796
452.12	21.292
452.47	21.185
452.83	20.966
453.18	21.063
453.53	20.480
453.88	21.736
454.23	21.389
454.58	20.088
454.93	21.327
455.28	20.635
455.63	20.459
455.98	21.227
456.34	20.945
456.69	22.046
457.04	21.802
457.39	20.231
457.74	21.282
458.09	20.659
458.44	20.363
458.79	20.168
459.14	20.938
459.49	21.910
459.84	20.981
460.19	21.177
460.54	21.760
460.89	21.307
461.24	21.118
461.59	21.734
461.94	20.314
462.29	20.869
462.64	21.462
462.99	20.582
463.34	20.654
463.69	20.592
464.04	20.400
464.39	21.043
464.74	20.736
465.09	20.836
465.44	21.293
465.79	21.259
466.14	20.068
466.49	19.781
466.84	20.999
467.19	21.652
467.54	21.009
467.89	20.910
468.24	20.316
468.59	21.333
468.94	20.508
469.29	21.770
469.64	21.121
469.99	21.163
470.34	20.000
470.68	21.029
471.03	21.090
471.38	20.185
471.73	20.378
472.08	20.760
472.43	20.604
472.78	20.356
473.13	21.156
473.48	20.065
473.83	20.299
474.17	20.337
474.52	21.123
474.87	20.182
475.22	21.415
475.57	20.836
475.92	20.735
476.27	21.071
476.61	21.007
476.96	20.245
477.31	21.092
477.66	20.393
478.01	20.213
478.36	20.806
478.70	20.337
479.05	20.934
479.40	20.456
479.75	20.438
480.10	20.430
480.45	20.050
480.79	21.702
481.14	21.107
481.49	20.640
481.84	20.705
482.19	20.486
482.53	20.815
482.88	20.811
483.23	20.921
483.58	20.613
483.92	20.184
484.27	20.283
484.62	20.977
484.97	20.025
485.31	20.556
485.66	20.500
486.01	21.017
486.36	20.848
486.70	21.189
487.05	20.952
487.40	20.838
487.75	21.408
488.09	20.705
488.44	20.977
488.79	21.255
489.13	21.234
489.48	20.693
489.83	20.942
490.17	20.270
490.52	20.554
490.87	20.546
491.22	20.010
491.56	20.493
491.91	20.268
492.26	19.592
492.60	20.873
492.95	21.102
493.30	20.225
493.64	20.432
493.99	20.145
494.34	20.146
494.68	20.667
495.03	20.146
495.37	19.921
495.72	21.302
496.07	20.341
496.41	19.528
496.76	20.497
497.11	19.655
497.45	20.764
497.80	20.232
498.14	19.871
498.49	20.112
498.84	19.760
499.18	21.084
499.53	20.486
499.87	19.796
500.22	18.942
500.56	20.272
500.91	20.080
501.26	20.020
501.60	20.266
501.95	20.087
502.29	19.661
502.64	20.077
502.98	20.424
503.33	19.597
503.67	20.096
504.02	20.479
504.36	19.594
504.71	20.202
505.06	19.175
505.40	19.898
505.75	20.155
506.09	19.868
506.44	20.277
506.78	20.102
507.13	20.269
507.47	18.799
507.82	19.284
508.16	19.229
508.51	19.937
508.85	20.827
509.19	19.957
509.54	19.303
509.88	19.633
510.23	20.226
510.57	19.134
510.92	18.923
511.26	19.476
511.61	19.802
511.95	19.945
512.30	19.956
512.64	21.369
512.98	20.101
513.33	20.257
513.67	19.557
514.02	21.339
514.36	20.000
514.70	19.406
515.05	20.447
515.39	20.366
515.74	20.000
516.08	19.546
516.42	20.318
516.77	20.714
517.11	19.703
517.46	19.629
517.80	19.964
518.14	19.841
518.49	19.591
518.83	19.502
519.17	19.466
519.52	19.420
519.86	19.628
520.20	20.109
520.55	19.262
520.89	19.950
521.23	19.253
521.58	19.685
521.92	20.769
522.26	18.738
522.61	19.805
522.95	20.132
523.29	19.632
523.64	20.584
523.98	20.739
524.32	19.330
524.66	19.974
525.01	20.000
525.35	20.026
525.69	19.596
526.04	18.519
526.38	20.687
526.72	18.901
527.06	20.363
527.41	20.251
527.75	18.834
528.09	19.269
528.43	21.134
528.78	18.746
529.12	19.871
529.46	19.363
529.80	19.886
530.15	20.528
530.49	19.057
530.83	20.041
531.17	19.140
531.51	20.109
531.86	19.782
532.20	19.694
532.54	19.061
532.88	20.192
533.22	19.624
533.57	19.659
533.91	19.256
534.25	20.313
534.59	19.051
534.93	20.327
535.27	18.655
535.62	19.119
535.96	19.309
536.30	20.251
536.64	20.124
536.98	20.279
537.32	20.839
537.66	20.477
538.01	19.510
538.35	19.209
538.69	20.839
539.03	19.754
539.37	20.256
539.71	20.041
540.05	19.077
540.39	20.222
540.73	19.944
541.07	19.751
541.42	20.565
541.76	20.922
542.10	20.096
542.44	19.805
542.78	18.720
543.12	20.192
543.46	20.445
543.80	19.292
544.14	19.226
544.48	19.387
544.82	20.848
545.16	20.628
545.50	20.227
545.84	20.963
546.18	20.071
546.52	19.827
546.86	19.698
547.20	19.528
547.54	18.587
547.88	20.652
548.22	19.066
548.56	19.855
548.90	19.946
549.24	19.904
549.58	20.169
549.92	19.800
550.26	20.000
550.60	19.405
550.94	20.762
551.28	19.938
551.62	20.385
551.96	20.075
552.30	20.029
552.64	19.394
552.98	19.339
553.32	19.044
553.66	19.448
554.00	19.197
554.34	19.867
554.68	19.617
555.02	20.015
555.36	18.699
555.69	18.901
556.03	19.557
556.37	18.577
556.71	19.422
557.05	20.134
557.39	19.257
557.73	19.340
558.07	19.005
558.41	19.372
558.75	19.330
559.08	19.543
559.42	19.683
559.76	20.096
560.10	20.107
560.44	18.466
560.78	19.720
561.12	20.451
561.45	19.888
561.79	19.538
562.13	20.014
562.47	18.273
562.81	21.110
563.15	20.310
563.48	19.943
563.82	20.453
564.16	19.220
564.50	18.919
564.84	19.746
565.17	20.188
565.51	19.877
565.85	19.959
566.19	19.960
566.52	20.643
566.86	21.080
567.20	19.365
567.54	19.708
567.88	20.504
568.21	20.645
568.55	19.620
568.89	20.945
569.23	21.858
569.56	21.060
569.90	21.924
570.24	20.618
570.57	21.636
570.91	21.192
571.25	20.914
571.59	20.928
571.92	20.267
572.26	20.320
572.60	21.085
572.93	20.646
573.27	20.815
573.61	20.853
573.95	20.918
574.28	20.869
574.62	20.773
574.96	20.693
575.29	20.899
575.63	20.549
575.97	20.656
576.30	20.326
576.64	20.636
576.98	20.952
577.31	21.013
577.65	21.147
577.98	21.260
578.32	21.251
578.66	20.546
578.99	20.730
579.33	20.385
579.67	20.767
580.00	20.886
580.34	21.045
580.67	20.227
581.01	21.061
581.35	20.995
581.68	21.019
582.02	21.105
582.35	20.799
582.69	21.426
583.02	20.679
583.36	21.008
583.70	21.210
584.03	21.879
584.37	21.711
584.70	20.467
585.04	20.674
585.37	20.663
585.71	21.057
586.04	21.130
586.38	20.245
586.72	21.176
587.05	20.913
587.39	21.051
587.72	21.323
588.06	21.174
588.39	20.564
588.73	21.093
589.06	21.233
589.40	20.843
589.73	20.920
590.07	21.337
590.40	21.362
590.73	21.005
591.07	20.611
591.40	21.238
591.74	20.452
592.07	21.197
592.41	21.290
592.74	20.550
593.08	20.433
593.41	20.527
593.75	20.478
594.08	20.048
594.41	20.233
594.75	20.115
595.08	20.961
595.42	20.243
595.75	20.278
596.09	20.485
596.42	20.463
596.75	20.826
597.09	20.456
597.42	20.235
597.75	19.606
598.09	19.873
598.42	19.991
598.76	19.991
599.09	20.633
599.42	20.349
599.76	19.676
600.09	19.910
600.42	20.546
600.76	20.617
601.09	20.305
601.42	19.624
601.76	20.445
602.09	20.380
602.42	20.767
602.76	20.671
603.09	20.640
603.42	20.694
603.76	19.516
604.09	19.927
604.42	20.685
604.76	21.006
605.09	20.978
605.42	20.903
605.75	20.096
606.09	20.212
606.42	19.224
606.75	20.303
607.09	20.703
607.42	19.362
607.75	20.204
608.08	19.452
608.42	20.146
608.75	20.867
609.08	20.429
609.41	20.406
609.75	20.060
610.08	20.270
610.41	19.614
610.74	20.770
611.07	19.845
611.41	20.239
611.74	20.469
612.07	19.272
612.40	19.639
612.73	20.395
613.07	19.966
613.40	21.061
613.73	19.194
614.06	20.367
614.39	19.910
614.72	19.496
615.06	20.000
615.39	19.869
615.72	20.129
616.05	19.888
616.38	19.202
616.71	19.388
617.05	19.889
617.38	19.925
617.71	20.126
618.04	20.635
618.37	20.492
618.70	20.330
619.03	21.944
619.36	19.175
619.69	20.167
620.03	19.430
620.36	19.957
620.69	20.271
621.02	19.419
621.35	18.672
621.68	20.068
622.01	19.833
622.34	21.069
622.67	20.110
623.00	19.908
623.33	20.351
623.66	19.372
623.99	19.062
624.32	20.684
624.65	18.346
624.99	20.767
625.32	18.802
625.65	20.581
625.98	19.259
626.31	18.953
626.64	18.804
626.97	20.681
627.30	18.651
627.63	18.977
627.96	19.137
628.29	19.889
628.62	20.354
628.95	19.539
629.28	18.246
629.61	19.541
629.94	19.648
630.26	18.676
630.59	19.563
630.92	18.564
631.25	19.795
631.58	18.392
631.91	18.860
632.24	18.234
632.57	19.886
632.90	18.031
633.23	19.294
633.56	18.136
633.89	19.605
634.22	19.753
634.55	18.043
634.88	18.646
635.20	18.333
635.53	19.200
635.86	16.515
636.19	18.758
636.52	17.730
636.85	17.494
637.18	16.352
637.51	18.239
637.83	18.660
638.16	20.327
638.49	17.439
638.82	18.816
639.15	18.182
639.48	19.945
639.81	19.805
640.13	17.605
640.46	19.388
640.79	19.588
641.12	16.100
641.45	19.219
641.77	18.667
642.10	19.589
642.43	18.167
642.76	17.987
643.09	18.740
643.41	18.932
643.74	18.451
644.07	18.719
644.40	18.919
644.73	18.564
645.05	18.792
645.38	19.753
645.71	17.199
646.04	19.031
646.36	18.617
646.69	19.424
647.02	18.715
647.35	18.097
647.67	17.185
648.00	20.336
648.33	18.259
648.66	17.627
648.98	17.420
649.31	18.182
649.64	16.170
649.96	17.828
650.29	19.080
650.62	18.120
650.94	18.333
651.27	16.574
651.60	21.441
651.92	20.629
652.25	16.519
652.58	18.833
652.90	18.525
653.23	16.639
653.56	16.920
653.88	17.869
654.21	18.739
654.54	17.827
654.86	20.543
655.19	18.275
655.52	22.291
655.84	21.216
656.17	23.810
656.49	32.205
656.82	33.271
657.15	25.484
657.47	19.130
657.80	14.093
658.13	14.005
658.45	21.723
658.78	21.876
659.10	21.184
659.43	21.627
659.75	21.904
660.08	19.862
660.41	20.327
660.73	19.337
661.06	20.797
661.38	16.243
661.71	15.811
662.03	19.528
662.36	18.901
662.68	17.699
663.01	18.996
663.33	18.329
663.66	14.419
663.98	15.349
664.31	18.977
664.63	16.359
664.96	13.478
665.28	17.660
665.61	15.368
665.93	17.391
666.26	18.438
666.58	13.199
666.91	17.647
667.23	18.396
667.56	16.588
667.88	18.705
668.21	15.990
668.53	17.258
668.86	17.453
669.18	16.981
669.50	15.738
669.83	16.279
670.15	17.249
670.48	17.464
670.80	16.129
671.13	18.121
671.45	15.982
671.77	18.670
672.10	19.604
672.42	19.101
672.75	19.538
673.07	19.857
673.39	19.633
673.72	17.751
674.04	18.125
674.37	18.856
674.69	16.916
675.01	20.000
675.34	17.342
675.66	16.667
675.98	19.512
676.31	16.972
676.63	18.765
676.95	15.682
677.28	19.059
677.60	17.349
677.92	16.743
678.25	19.475
678.57	17.749
678.89	15.546
679.22	17.226
679.54	16.867
679.86	17.495
680.18	17.476
680.51	21.023
680.83	16.899
681.15	18.200
681.48	19.672
681.80	18.595
682.12	17.540
682.44	16.736
682.77	18.102
683.09	17.391
683.41	17.273
683.73	17.742
684.06	17.257
684.38	13.118
684.70	18.736
685.02	13.485
685.34	18.972
685.67	18.011
685.99	16.817
686.31	18.938
686.63	19.109
686.96	16.540
687.28	16.566
687.60	16.160
687.92	18.182
688.24	18.952
688.56	18.777
688.89	16.741
689.21	18.000
689.53	17.401
689.85	17.907
690.17	17.411
690.49	17.021
690.82	16.262
691.14	16.905
691.46	20.561
691.78	18.018
692.10	18.065
692.42	19.481
692.74	19.658
693.06	17.568
693.39	15.158
693.71	16.516
694.03	17.090
694.35	19.626
694.67	14.141
694.99	14.621
695.31	15.927
695.63	17.250
695.95	18.434
696.27	17.617
696.59	18.889
696.91	15.126
697.23	15.938
697.56	17.327
697.88	18.925
698.20	17.768
698.52	15.294
698.84	16.507
699.16	13.500
699.48	18.797
699.80	16.625
700.12	15.364
700.44	17.087
700.76	13.372
701.08	16.061
701.40	16.265
701.72	18.210
702.04	14.191
702.36	16.054
702.68	18.018
703.00	19.697
703.32	14.956
703.64	13.559
703.96	15.942
704.28	17.178
704.60	15.556
704.91	14.826
705.23	15.282
705.55	16.961
705.87	16.968
706.19	15.556
706.51	15.464
706.83	18.328
707.15	10.903
707.47	17.647
707.79	17.188
708.11	19.250
708.43	18.000
708.74	19.638
709.06	17.183
709.38	19.878
709.70	17.751
710.02	18.153
710.34	22.910
710.66	14.103
710.98	19.868
711.29	13.770
711.61	18.644
711.93	18.893
712.25	20.619
712.57	16.484
712.89	11.567
713.20	16.609
713.52	14.286
713.84	19.113
714.16	14.777
714.48	19.677
714.80	19.872
715.11	18.541
715.43	13.480
715.75	20.333
716.07	17.276
716.39	16.107
716.70	15.498
717.02	14.504
717.34	17.409
717.66	17.257
717.97	15.217
718.29	15.063
718.61	18.898
718.93	17.829
719.24	17.110
719.56	18.072
719.88	19.244
720.20	17.045
720.51	13.793
720.83	13.514
721.15	16.387
721.46	18.548
721.78	13.834
722.10	14.498
722.42	12.448
722.73	16.327
723.05	22.041
723.37	19.492
723.68	18.018
724.00	12.821
724.32	16.889
724.63	17.727
724.95	17.904
725.27	16.129
725.58	22.881
725.90	14.683
726.22	17.761
726.53	17.627
726.85	20.225
727.16	22.264
727.48	15.385
727.80	16.599
728.11	16.949
728.43	19.608
728.74	18.952
729.06	21.200
729.38	20.301
729.69	13.546
730.01	15.385
730.32	18.284
730.64	20.848
730.96	16.981
731.27	17.000
731.59	20.339
731.90	14.968
732.22	20.505
732.53	19.934
732.85	17.021
733.16	21.549
733.48	15.468
733.80	12.319
734.11	21.017
734.43	14.089
734.74	17.879
735.06	14.332
735.37	20.544
735.69	19.192
736.00	13.937
736.32	18.121
736.63	16.549
736.95	18.771
737.26	14.947
737.58	15.101
737.89	18.315
738.21	16.541
738.52	15.638
738.83	19.651
739.15	11.790
739.46	16.142
739.78	15.385
740.09	18.301
740.41	16.667
740.72	18.504
741.04	17.409
741.35	13.617
741.66	14.692
741.98	18.878
742.29	15.842
742.61	12.565
742.92	7.583
743.23	11.574
743.55	19.457
743.86	13.397
744.18	15.789
744.49	8.511
744.80	9.783
745.12	17.647
745.43	14.634
745.74	20.312
746.06	19.024
746.37	11.518
746.68	18.009
747.00	16.489
747.31	14.428
747.62	15.534
747.94	15.311
748.25	11.386
748.56	13.661
748.88	13.089
749.19	20.745
749.50	13.793
749.82	14.151
750.13	16.514
750.44	20.677
750.75	19.030
751.07	21.533
751.38	15.326
751.69	13.333
752.01	18.605
752.32	16.335
752.63	18.972
752.94	16.379
753.26	25.523
753.57	16.742
753.88	17.257
754.19	10.000
754.51	14.050
754.82	17.814
755.13	16.667
755.44	16.532
755.75	16.797
756.07	15.564
756.38	13.962
756.69	16.092
757.00	20.333
757.31	19.608
757.63	12.500
757.94	16.944
758.25	15.616
758.56	19.947
758.87	15.014
759.18	20.249
759.50	17.455
759.81	19.732
760.12	20.968
760.43	17.273
760.74	19.444
761.05	22.154
761.36	16.193
761.67	22.424
761.99	19.388
762.30	14.909
762.61	18.972
762.92	17.195
763.23	18.919
763.54	14.486
763.85	18.644
764.16	18.672
764.47	15.726
764.78	14.286
765.10	21.886
765.41	18.927
765.72	17.778
766.03	16.541
766.34	17.883
766.65	19.920
766.96	18.182
767.27	18.617
767.58	9.195
767.89	7.801
768.20	7.955
768.51	11.538
768.82	19.704
769.13	13.825
769.44	13.305
769.75	17.352
770.06	14.655
770.37	17.308
770.68	14.721
770.99	16.290
771.30	22.059
771.61	16.742
771.92	21.552
772.23	19.704
772.54	22.043
772.85	19.136
773.16	17.416
773.47	26.797
773.78	15.033
774.09	16.168
774.39	13.333
774.70	7.006
775.01	23.448
775.32	15.714
775.63	14.876
775.94	14.504
776.25	17.323
776.56	9.167
776.87	16.346
777.18	20.513
777.48	15.517
777.79	3.478
778.10	5.714
778.41	11.712
778.72	24.603
779.03	15.038
779.34	16.312
779.65	17.123
779.95	16.438
780.26	13.103
780.57	6.504
780.88	7.874
781.19	6.897
781.50	20.930
781.80	15.976
782.11	8.805
782.42	13.846
782.73	9.353
783.04	21.481
783.34	10.417
783.65	3.419
783.96	13.115
784.27	22.069
784.57	11.382
784.88	12.500
785.19	17.000
785.50	15.000
785.81	5.172
786.11	12.931
786.42	11.650
786.73	24.545
787.04	9.184
787.34	17.857
787.65	16.190
787.96	23.009
788.26	11.818
788.57	15.385
788.88	21.875
789.19	10.317
789.49	11.304
789.80	15.306
790.11	8.081
790.41	6.364
790.72	21.739
791.03	15.909
791.33	15.000
791.64	22.500
791.95	16.279
792.25	22.340
792.56	13.483
792.87	16.438
793.17	8.696
793.48	0.000
793.79	10.000
794.09	10.000
794.40	15.094
794.70	13.592
795.01	8.130
795.32	7.692
795.62	8.571
795.93	18.627
796.23	16.981
796.54	21.875
796.85	14.706
797.15	12.676
797.46	27.778
797.76	13.636
798.07	11.628
798.37	-1.316
798.68	15.152
798.99	16.049
799.29	4.286
799.60	8.696
799.90	24.000
800.21	14.754
800.51	13.846
800.82	10.169
801.12	21.739
801.43	24.590
801.73	17.460
802.04	6.000
802.34	10.448
802.65	11.538
802.95	-12.500
803.26	9.615
803.56	13.725
803.87	-23.913
804.17	18.667
804.48	31.746
804.78	9.259
805.09	0.000
805.39	-22.222
805.70	20.370
806.00	3.509
806.30	5.634
806.61	5.714
806.91	13.889
807.22	17.105
807.52	17.333
807.83	23.636
808.13	11.111
808.43	11.765
808.74	-2.985
809.04	-10.169
809.35	-7.692
809.65	17.188
809.95	-29.730
810.26	2.273
810.56	9.589
810.86	33.333
811.17	6.000
811.47	26.531
811.77	-13.158
812.08	31.818
812.38	15.094
812.69	5.000
812.99	-12.121
813.29	13.158
813.59	-17.143
813.90	-4.545
814.20	-5.128
814.50	11.538
814.81	7.547
815.11	-25.532
815.41	13.559
815.72	11.905
816.02	33.333
816.32	0.000
816.62	-7.317
816.93	10.811
817.23	2.857
817.53	6.250
817.84	8.696
818.14	15.385
818.44	7.895
818.74	17.391
819.04	0.000
819.35	2.703
819.65	-14.706
819.95	-5.556
820.25	-11.905
820.56	35.000
820.86	-31.034
821.16	17.500
821.46	-10.638
821.76	37.500
822.07	2.326
822.37	0.000
822.67	-28.125
822.97	14.286
823.27	-17.857
823.57	4.000
823.88	-25.926
824.18	-10.714
824.48	20.588
824.78	-12.903
825.08	4.348
825.38	15.152
825.69	-45.833
825.99	0.000
826.29	13.889
826.59	-6.667
826.89	-71.429
827.19	19.565
827.49	15.000
827.79	14.286
828.09	-25.000
828.39	15.152
828.70	40.541
829.00	-10.714
829.30	0.000
829.60	0.000
829.90	12.500
830.20	13.158
830.50	-7.407
830.80	-26.087
831.10	-18.182
831.40	48.485
831.70	45.161
832.00	47.619
832.30	9.524
832.60	-75.000
832.90	27.586
833.20	-20.000
833.50	21.212
833.80	-25.926
834.10	38.462
834.40	25.000
834.70	-77.778
835.00	-31.579
835.30	15.385
835.60	80.000
835.90	6.452
836.20	9.091
836.50	21.429
836.80	-38.462
837.10	-10.714
837.40	0.000
837.70	9.091
838.00	9.091
838.30	13.043
838.60	-46.154
838.90	-4.545
839.19	-3.571
839.49	30.000
839.79	38.462
840.09	-16.667
840.39	25.000
840.69	-17.857
840.99	0.000
841.29	5.263
841.59	-110.000
841.88	-45.455
842.18	30.000
842.48	12.500
842.78	13.333
843.08	-18.519
843.38	-100.000
843.68	17.391
843.97	60.000
844.27	-93.333
844.57	-20.000
844.87	22.222
845.17	-9.524
845.47	26.667
845.76	-52.381
846.06	5.882
846.36	-40.000
846.66	42.857
846.96	-6.667
847.25	-200.000
847.55	-7.143
847.85	-25.000
848.15	-4.545
848.44	-733.333
848.74	-5.000
849.04	-7.407
849.34	-90.909
849.63	-183.333
849.93	-140.000
850.23	-38.889
850.53	70.000
850.82	-46.154
851.12	77.778
851.42	20.000
851.71	15.385
852.01	-42.857
852.31	-250.000
852.61	0.000
852.90	-60.000
853.20	-21.053
853.50	-116.667
853.79	47.826
854.09	8.333
854.39	5.263
854.68	-4.167
854.98	32.258
855.28	-3.846
855.57	5.000
855.87	16.667
856.17	33.333
856.46	21.429
856.76	-13.333
857.05	-33.333
857.35	16.000
857.65	11.111
857.94	-61.538
858.24	17.241
858.53	5.556
858.83	29.630
859.13	-18.182
859.42	-8.696
859.72	-150.000
860.01	-233.333
860.31	12.000
860.60	-9.524
860.90	-66.667
861.20	-93.333
861.49	-600.000
861.79	-60.000
862.08	35.000
862.38	46.667
862.67	-80.000
862.97	-50.000
863.26	16.667
863.56	27.778
863.85	-466.667
864.15	44.444
864.44	-40.000
864.74	28.571
865.03	350.000
865.33	-280.000
865.62	150.000
865.92	50.000
866.21	-100.000
866.51	12.500
866.80	27.273
867.10	-750.000
867.39	-83.333
867.69	0.000
867.98	84.615
868.27	-333.333
868.57	-6.667
868.86	83.333
869.16	-84.615
869.45	26.667
869.75	-1100.000
870.04	0.000
870.33	-28.571
870.63	61.905
870.92	266.667
871.22	-80.000
871.51	-1200.000
871.80	33.333
872.10	333.333
>>>>>End Processed Spectral Data<<<<<
