SpectraSuite Data File
++++++++++++++++++++++++++++++++++++
Date: Fri May 15 20:42:36 PDT 2015
User: schluterlab
Dark Spectrum Present: Yes
Reference Spectrum Present: Yes
Number of Sampled Component Spectra: 1
Spectrometers: USB2E3373
Integration Time (usec): 3000 (USB2E3373)
Spectra Averaged: 3 (USB2E3373)
Boxcar Smoothing: 0 (USB2E3373)
Correct for Electrical Dark: No (USB2E3373)
Strobe/Lamp Enabled: No (USB2E3373)
Correct for Detector Non-linearity: No (USB2E3373)
Correct for Stray Light: No (USB2E3373)
Number of Pixels in Processed Spectrum: 2048
>>>>>Begin Processed Spectral Data<<<<<
178.53	0.000
178.91	0.000
179.29	12.500
179.67	-400.000
180.04	14.286
180.42	125.000
180.80	-200.000
181.18	133.333
181.56	300.000
181.94	-500.000
182.31	400.000
182.69	-260.000
183.07	-33.333
183.45	-60.000
183.83	-0.000
184.20	0.000
184.58	200.000
184.96	150.000
185.34	33.333
185.72	-450.000
186.09	30.769
186.47	0.000
186.85	150.000
187.23	77.778
187.61	-600.000
187.98	33.333
188.36	-66.667
188.74	-66.667
189.12	17.647
189.49	-27.778
189.87	0.000
190.25	107.143
190.63	300.000
191.00	-33.333
191.38	-15.789
191.76	200.000
192.14	225.000
192.51	100.000
192.89	-11.111
193.27	-114.286
193.65	100.000
194.02	190.909
194.40	10.000
194.78	-275.000
195.15	-50.000
195.53	-100.000
195.91	250.000
196.29	-200.000
196.66	69.231
197.04	71.429
197.42	-77.778
197.79	-333.333
198.17	-38.462
198.55	2000.000
198.92	-233.333
199.30	-100.000
199.68	-100.000
200.05	-300.000
200.43	0.000
200.81	-166.667
201.18	-333.333
201.56	800.000
201.94	-350.000
202.31	-200.000
202.69	-240.000
203.07	-125.000
203.44	1000.000
203.82	0.000
204.19	85.714
204.57	-500.000
204.95	125.000
205.32	-80.000
205.70	42.857
206.08	325.000
206.45	166.667
206.83	14.286
207.20	42.857
207.58	-300.000
207.96	-33.333
208.33	-150.000
208.71	-125.000
209.08	16.667
209.46	-600.000
209.84	-20.000
210.21	-1300.000
210.59	85.714
210.96	0.000
211.34	100.000
211.71	60.000
212.09	-100.000
212.46	-1300.000
212.84	0.000
213.22	-10.000
213.59	500.000
213.97	53.846
214.34	0.000
214.72	-33.333
215.09	200.000
215.47	38.462
215.84	-9.091
216.22	-66.667
216.59	25.000
216.97	150.000
217.34	-50.000
217.72	-340.000
218.09	87.500
218.47	150.000
218.84	-100.000
219.22	-22.222
219.59	-220.000
219.97	200.000
220.34	200.000
220.72	85.714
221.09	150.000
221.47	250.000
221.84	-650.000
222.22	-750.000
222.59	-9.091
222.97	-8.333
223.34	-500.000
223.72	-35.714
224.09	0.000
224.46	39.286
224.84	233.333
225.21	30.000
225.59	20.000
225.96	0.000
226.34	300.000
226.71	-228.571
227.08	133.333
227.46	25.000
227.83	-650.000
228.21	44.444
228.58	90.909
228.95	-100.000
229.33	100.000
229.70	12.500
230.08	62.500
230.45	57.143
230.82	0.000
231.20	20.000
231.57	-14.286
231.95	42.857
232.32	-90.000
232.69	-14.286
233.07	-333.333
233.44	-40.000
233.81	-130.000
234.19	55.556
234.56	-47.059
234.93	900.000
235.31	-225.000
235.68	-220.000
236.05	-53.846
236.43	-20.000
236.80	-17.647
237.17	12.500
237.55	-60.000
237.92	-3.704
238.29	-27.778
238.67	-16.667
239.04	-23.529
239.41	-24.390
239.79	6.667
240.16	7.317
240.53	10.526
240.91	-4.348
241.28	9.524
241.65	14.286
242.02	20.548
242.40	-1.667
242.77	-18.644
243.14	-18.182
243.51	3.750
243.89	4.598
244.26	-13.793
244.63	2.381
245.00	4.124
245.38	-5.155
245.75	-3.371
246.12	-0.862
246.49	-3.306
246.87	-2.885
247.24	-9.244
247.61	-7.895
247.98	-7.317
248.36	1.875
248.73	0.000
249.10	-8.442
249.47	-2.532
249.84	3.268
250.22	2.353
250.59	1.307
250.96	5.634
251.33	-0.581
251.70	-1.176
252.08	2.030
252.45	0.000
252.82	-2.010
253.19	0.000
253.56	-6.075
253.94	1.351
254.31	4.783
254.68	3.070
255.05	1.181
255.42	0.873
255.79	0.000
256.16	3.891
256.54	5.597
256.91	4.183
257.28	-1.115
257.65	-0.375
258.02	2.482
258.39	4.377
258.76	4.396
259.14	6.312
259.51	3.236
259.88	4.124
260.25	1.961
260.62	5.208
260.99	-0.339
261.36	1.370
261.73	0.000
262.10	0.912
262.47	2.147
262.85	1.567
263.22	0.923
263.59	1.246
263.96	3.106
264.33	0.303
264.70	1.190
265.07	-0.298
265.44	1.133
265.81	3.390
266.18	2.732
266.55	1.285
266.92	1.554
267.29	0.783
267.66	4.092
268.03	4.450
268.40	0.783
268.77	5.615
269.14	5.036
269.51	2.057
269.88	1.746
270.25	2.806
270.62	1.707
270.99	-0.512
271.36	1.467
271.73	3.286
272.10	1.217
272.47	2.128
272.84	-0.990
273.21	2.784
273.58	0.964
273.95	3.661
274.32	3.926
274.69	0.452
275.06	1.563
275.43	2.268
275.80	0.442
276.17	1.839
276.54	4.069
276.91	2.412
277.28	0.873
277.65	2.066
278.02	1.489
278.39	2.626
278.76	1.048
279.13	1.245
279.50	2.311
279.87	1.728
280.23	-0.645
280.60	3.509
280.97	3.232
281.34	-0.192
281.71	2.259
282.08	-0.613
282.45	0.391
282.82	1.931
283.19	2.128
283.56	2.505
283.92	0.569
284.29	0.385
284.66	1.550
285.03	1.179
285.40	4.726
285.77	-0.176
286.14	1.444
286.51	1.661
286.87	-0.548
287.24	0.921
287.61	1.587
287.98	2.807
288.35	2.773
288.72	3.678
289.08	1.389
289.45	2.285
289.82	3.322
290.19	0.512
290.56	1.029
290.93	1.515
291.29	0.462
291.66	2.992
292.03	2.233
292.40	2.742
292.77	1.116
293.13	-0.649
293.50	0.910
293.87	2.901
294.24	2.318
294.60	2.385
294.97	3.571
295.34	0.920
295.71	2.235
296.08	1.196
296.44	0.569
296.81	2.361
297.18	2.609
297.55	3.523
297.91	0.274
298.28	2.902
298.65	2.578
299.02	2.830
299.38	0.684
299.75	1.103
300.12	1.178
300.48	1.449
300.85	2.915
301.22	1.818
301.59	2.237
301.95	3.924
302.32	4.021
302.69	1.244
303.05	2.970
303.42	2.740
303.79	1.051
304.15	2.270
304.52	1.070
304.89	2.339
305.25	2.421
305.62	0.700
305.99	2.222
306.35	1.734
306.72	2.250
307.09	2.623
307.45	2.067
307.82	1.042
308.19	2.787
308.55	2.290
308.92	3.268
309.29	1.899
309.65	1.722
310.02	1.870
310.38	2.854
310.75	3.825
311.12	3.014
311.48	2.651
311.85	3.037
312.22	4.008
312.58	3.715
312.95	3.202
313.31	3.209
313.68	3.770
314.05	3.673
314.41	5.155
314.78	4.021
315.14	5.036
315.51	5.176
315.87	5.430
316.24	6.370
316.61	5.906
316.97	5.853
317.34	6.152
317.70	6.501
318.07	6.731
318.43	7.353
318.80	5.871
319.16	7.812
319.53	8.547
319.89	8.071
320.26	8.704
320.62	9.629
320.99	9.603
321.35	10.380
321.72	10.177
322.08	10.070
322.45	9.645
322.81	12.672
323.18	11.874
323.54	12.452
323.91	12.756
324.27	13.379
324.64	13.764
325.00	14.781
325.37	16.621
325.73	14.959
326.10	15.622
326.46	16.143
326.83	17.498
327.19	16.827
327.56	17.289
327.92	18.574
328.29	17.054
328.65	17.642
329.01	19.026
329.38	19.539
329.74	19.169
330.11	19.833
330.47	19.852
330.84	20.288
331.20	21.673
331.56	20.463
331.93	20.913
332.29	21.448
332.66	20.724
333.02	21.654
333.38	20.165
333.75	20.788
334.11	20.770
334.48	22.937
334.84	22.619
335.20	22.415
335.57	20.308
335.93	22.222
336.29	22.928
336.66	21.344
337.02	22.677
337.38	23.056
337.75	22.000
338.11	23.174
338.47	23.358
338.84	22.181
339.20	22.943
339.56	23.945
339.93	22.829
340.29	22.661
340.65	22.670
341.02	22.252
341.38	22.301
341.74	22.438
342.11	22.010
342.47	23.399
342.83	22.837
343.20	22.561
343.56	22.609
343.92	22.498
344.28	23.399
344.65	23.143
345.01	22.990
345.37	23.045
345.73	24.100
346.10	23.727
346.46	23.802
346.82	23.404
347.19	22.361
347.55	22.891
347.91	23.058
348.27	22.312
348.63	23.680
349.00	21.821
349.36	23.026
349.72	23.134
350.08	23.689
350.45	23.623
350.81	21.844
351.17	22.801
351.53	23.429
351.89	22.213
352.26	22.320
352.62	23.710
352.98	21.928
353.34	21.900
353.70	23.301
354.07	22.419
354.43	23.379
354.79	22.130
355.15	23.492
355.51	23.576
355.87	23.625
356.24	22.512
356.60	23.605
356.96	24.048
357.32	22.125
357.68	22.987
358.04	22.940
358.40	23.071
358.77	23.046
359.13	23.619
359.49	22.727
359.85	23.245
360.21	22.408
360.57	21.806
360.93	23.752
361.29	22.356
361.66	22.649
362.02	23.258
362.38	23.077
362.74	22.937
363.10	24.454
363.46	22.535
363.82	24.493
364.18	23.616
364.54	22.500
364.90	23.011
365.26	23.071
365.62	24.599
365.98	22.874
366.35	23.744
366.71	23.725
367.07	22.787
367.43	23.796
367.79	23.251
368.15	23.905
368.51	23.816
368.87	22.469
369.23	22.816
369.59	23.688
369.95	24.560
370.31	24.061
370.67	24.030
371.03	23.152
371.39	22.028
371.75	23.297
372.11	23.324
372.47	24.334
372.83	24.344
373.19	23.181
373.55	22.238
373.91	22.678
374.27	23.884
374.63	23.475
374.99	22.908
375.35	23.677
375.71	23.776
376.07	23.385
376.42	23.741
376.78	23.758
377.14	23.764
377.50	22.908
377.86	23.226
378.22	23.740
378.58	23.526
378.94	24.134
379.30	23.331
379.66	24.075
380.02	22.379
380.38	23.615
380.74	22.980
381.09	23.926
381.45	24.220
381.81	24.121
382.17	23.731
382.53	23.048
382.89	24.231
383.25	24.082
383.61	23.659
383.97	23.238
384.32	23.077
384.68	23.344
385.04	23.346
385.40	23.398
385.76	25.031
386.12	24.191
386.48	24.585
386.83	22.638
387.19	24.237
387.55	23.024
387.91	23.594
388.27	23.138
388.62	23.726
388.98	23.389
389.34	23.860
389.70	24.922
390.06	23.222
390.42	23.122
390.77	23.545
391.13	22.825
391.49	23.803
391.85	23.847
392.20	23.352
392.56	23.458
392.92	23.429
393.28	23.821
393.64	23.243
393.99	24.138
394.35	22.897
394.71	23.499
395.07	23.004
395.42	23.072
395.78	23.713
396.14	23.140
396.50	22.765
396.85	23.825
397.21	22.807
397.57	22.821
397.92	22.648
398.28	22.701
398.64	22.470
399.00	23.081
399.35	22.743
399.71	22.171
400.07	23.035
400.42	21.665
400.78	23.025
401.14	22.263
401.49	22.990
401.85	21.877
402.21	22.229
402.57	23.250
402.92	21.455
403.28	23.434
403.63	22.762
403.99	22.194
404.35	22.299
404.70	22.857
405.06	21.269
405.42	22.996
405.77	20.802
406.13	21.420
406.49	21.670
406.84	21.577
407.20	22.757
407.55	21.764
407.91	21.658
408.27	21.096
408.62	23.077
408.98	21.503
409.34	21.623
409.69	21.641
410.05	21.613
410.40	21.049
410.76	21.110
411.11	21.750
411.47	22.091
411.83	21.594
412.18	21.429
412.54	21.848
412.89	20.012
413.25	21.059
413.60	22.174
413.96	21.043
414.31	22.195
414.67	21.681
415.03	21.039
415.38	21.606
415.74	21.694
416.09	21.750
416.45	21.337
416.80	21.018
417.16	21.547
417.51	22.185
417.87	20.665
418.22	22.021
418.58	20.803
418.93	21.379
419.29	19.462
419.64	21.257
420.00	22.859
420.35	21.493
420.71	22.175
421.06	21.179
421.42	21.154
421.77	21.329
422.12	21.056
422.48	21.765
422.83	20.708
423.19	20.711
423.54	20.400
423.90	20.907
424.25	21.240
424.61	21.297
424.96	21.893
425.31	22.415
425.67	21.890
426.02	21.614
426.38	21.353
426.73	21.973
427.09	22.405
427.44	21.294
427.79	22.216
428.15	22.269
428.50	21.623
428.85	21.314
429.21	21.675
429.56	22.857
429.92	21.880
430.27	21.604
430.62	20.857
430.98	20.913
431.33	22.187
431.68	21.559
432.04	21.688
432.39	22.133
432.74	22.249
433.10	22.586
433.45	22.222
433.80	21.764
434.16	20.831
434.51	21.774
434.86	21.719
435.22	22.490
435.57	22.208
435.92	22.335
436.28	21.586
436.63	22.419
436.98	21.147
437.34	21.053
437.69	22.242
438.04	21.026
438.39	22.053
438.75	22.708
439.10	21.788
439.45	22.581
439.81	20.979
440.16	22.447
440.51	22.627
440.86	23.142
441.22	22.285
441.57	22.296
441.92	23.033
442.27	22.506
442.63	22.537
442.98	22.401
443.33	21.536
443.68	22.599
444.03	22.603
444.39	21.692
444.74	23.802
445.09	22.383
445.44	23.134
445.79	23.569
446.15	22.797
446.50	22.352
446.85	22.210
447.20	22.576
447.55	22.600
447.91	22.730
448.26	23.563
448.61	23.143
448.96	23.293
449.31	23.295
449.66	22.590
450.02	23.959
450.37	23.414
450.72	23.081
451.07	23.924
451.42	22.285
451.77	23.388
452.12	22.608
452.47	23.889
452.83	22.850
453.18	23.403
453.53	22.440
453.88	23.558
454.23	22.741
454.58	23.615
454.93	23.131
455.28	21.968
455.63	23.497
455.98	23.271
456.34	23.691
456.69	23.761
457.04	24.008
457.39	23.512
457.74	23.458
458.09	23.426
458.44	22.820
458.79	22.745
459.14	24.199
459.49	23.940
459.84	22.617
460.19	23.058
460.54	23.778
460.89	23.409
461.24	22.857
461.59	24.050
461.94	23.585
462.29	23.764
462.64	23.854
462.99	23.290
463.34	23.088
463.69	23.102
464.04	23.487
464.39	22.377
464.74	23.006
465.09	23.581
465.44	22.620
465.79	22.959
466.14	22.235
466.49	23.117
466.84	22.606
467.19	22.904
467.54	23.244
467.89	23.310
468.24	22.628
468.59	22.603
468.94	22.159
469.29	23.803
469.64	23.445
469.99	24.036
470.34	22.048
470.68	23.565
471.03	24.628
471.38	23.395
471.73	22.689
472.08	23.406
472.43	22.752
472.78	23.029
473.13	23.605
473.48	22.866
473.83	21.918
474.17	22.798
474.52	23.484
474.87	23.636
475.22	23.063
475.57	22.473
475.92	23.204
476.27	24.447
476.61	23.264
476.96	22.197
477.31	22.769
477.66	23.146
478.01	22.908
478.36	22.277
478.70	23.274
479.05	22.253
479.40	23.158
479.75	22.002
480.10	22.069
480.45	22.450
480.79	23.515
481.14	23.002
481.49	22.020
481.84	22.587
482.19	22.357
482.53	23.357
482.88	21.862
483.23	22.745
483.58	22.453
483.92	22.120
484.27	22.197
484.62	22.143
484.97	21.973
485.31	20.954
485.66	20.500
486.01	20.153
486.36	19.846
486.70	20.288
487.05	20.214
487.40	20.631
487.75	20.254
488.09	20.674
488.44	21.389
488.79	21.591
489.13	21.835
489.48	22.103
489.83	21.570
490.17	21.348
490.52	22.540
490.87	21.286
491.22	21.538
491.56	21.964
491.91	22.180
492.26	22.752
492.60	21.833
492.95	22.528
493.30	21.446
493.64	22.102
493.99	22.899
494.34	21.117
494.68	22.048
495.03	20.973
495.37	21.344
495.72	21.706
496.07	22.244
496.41	21.415
496.76	21.741
497.11	21.239
497.45	22.243
497.80	21.695
498.14	21.610
498.49	20.518
498.84	21.607
499.18	21.536
499.53	22.371
499.87	20.720
500.22	21.266
500.56	22.642
500.91	21.938
501.26	20.860
501.60	21.200
501.95	21.786
502.29	21.404
502.64	21.911
502.98	20.918
503.33	20.173
503.67	21.639
504.02	21.994
504.36	21.277
504.71	21.111
505.06	21.540
505.40	21.320
505.75	20.361
506.09	20.730
506.44	21.509
506.78	21.684
507.13	21.355
507.47	21.097
507.82	21.100
508.16	21.289
508.51	21.144
508.85	21.298
509.19	19.798
509.54	20.643
509.88	20.928
510.23	20.871
510.57	21.807
510.92	20.682
511.26	21.277
511.61	21.232
511.95	20.986
512.30	20.953
512.64	20.812
512.98	20.438
513.33	21.153
513.67	20.296
514.02	22.540
514.36	21.943
514.70	22.086
515.05	22.620
515.39	21.842
515.74	21.677
516.08	21.937
516.42	22.026
516.77	21.592
517.11	21.187
517.46	22.023
517.80	21.156
518.14	20.882
518.49	20.553
518.83	21.567
519.17	20.679
519.52	21.492
519.86	20.708
520.20	21.203
520.55	20.263
520.89	21.895
521.23	21.026
521.58	21.703
521.92	21.218
522.26	21.991
522.61	20.260
522.95	22.053
523.29	20.521
523.64	21.982
523.98	20.998
524.32	20.747
524.66	21.319
525.01	21.688
525.35	21.128
525.69	21.953
526.04	20.767
526.38	22.049
526.72	20.144
527.06	21.271
527.41	21.042
527.75	20.710
528.09	20.930
528.43	21.675
528.78	20.462
529.12	20.323
529.46	20.533
529.80	20.583
530.15	21.386
530.49	20.135
530.83	21.409
531.17	19.946
531.51	20.657
531.86	20.530
532.20	20.529
532.54	20.899
532.88	20.808
533.22	20.027
533.57	19.528
533.91	19.125
534.25	21.224
534.59	19.371
534.93	19.509
535.27	19.543
535.62	19.248
535.96	19.830
536.30	20.053
536.64	20.744
536.98	19.582
537.32	20.839
537.66	20.126
538.01	18.811
538.35	20.042
538.69	20.173
539.03	19.207
539.37	20.054
539.71	20.791
540.05	19.688
540.39	19.945
540.73	18.759
541.07	19.475
541.42	19.960
541.76	19.546
542.10	19.270
542.44	19.319
542.78	18.376
543.12	19.505
543.46	20.028
543.80	19.015
544.14	18.291
544.48	19.587
544.82	19.002
545.16	19.740
545.50	19.559
545.84	19.334
546.18	19.433
546.52	19.466
546.86	19.410
547.20	19.599
547.54	18.940
547.88	18.682
548.22	18.475
548.56	18.008
548.90	19.542
549.24	17.906
549.58	19.394
549.92	18.656
550.26	19.414
550.60	20.149
550.94	19.492
551.28	19.938
551.62	19.692
551.96	19.098
552.30	18.494
552.64	17.983
552.98	18.706
553.32	19.116
553.66	18.215
554.00	18.540
554.34	18.907
554.68	19.027
555.02	19.345
555.36	18.848
555.69	17.656
556.03	17.702
556.37	17.509
556.71	18.773
557.05	18.568
557.39	17.621
557.73	18.366
558.07	18.100
558.41	18.836
558.75	18.628
559.08	17.967
559.42	18.333
559.76	18.014
560.10	17.966
560.44	17.945
560.78	18.322
561.12	18.477
561.45	18.131
561.79	17.927
562.13	18.098
562.47	17.338
562.81	18.228
563.15	18.054
563.48	17.963
563.82	18.257
564.16	17.131
564.50	17.365
564.84	17.604
565.17	16.834
565.51	18.579
565.85	17.215
566.19	17.971
566.52	17.158
566.86	17.609
567.20	17.123
567.54	16.788
567.88	17.399
568.21	17.590
568.55	16.630
568.89	16.684
569.23	16.466
569.56	15.806
569.90	16.078
570.24	15.742
570.57	15.091
570.91	15.511
571.25	15.028
571.59	14.637
571.92	14.963
572.26	14.614
572.60	14.822
572.93	14.904
573.27	14.545
573.61	14.230
573.95	14.500
574.28	14.619
574.62	14.111
574.96	14.186
575.29	14.033
575.63	13.890
575.97	13.798
576.30	13.944
576.64	13.828
576.98	14.569
577.31	14.156
577.65	14.106
577.98	13.926
578.32	13.806
578.66	13.368
578.99	13.500
579.33	13.465
579.67	14.181
580.00	13.595
580.34	13.881
580.67	13.477
581.01	13.785
581.35	13.178
581.68	13.186
582.02	13.507
582.35	13.426
582.69	13.167
583.02	13.565
583.36	13.816
583.70	13.941
584.03	14.178
584.37	14.032
584.70	13.544
585.04	13.212
585.37	13.759
585.71	13.478
586.04	13.540
586.38	13.657
586.72	13.515
587.05	13.865
587.39	13.419
587.72	14.051
588.06	13.701
588.39	14.013
588.73	14.530
589.06	13.927
589.40	14.310
589.73	14.896
590.07	14.426
590.40	14.435
590.73	14.827
591.07	14.504
591.40	13.936
591.74	15.113
592.07	14.750
592.41	14.576
592.74	14.018
593.08	13.517
593.41	14.069
593.75	13.772
594.08	14.143
594.41	13.974
594.75	13.740
595.08	14.453
595.42	13.839
595.75	13.594
596.09	14.034
596.42	14.221
596.75	14.387
597.09	14.260
597.42	14.408
597.75	14.430
598.09	14.667
598.42	14.125
598.76	13.471
599.09	13.381
599.42	13.338
599.76	13.920
600.09	13.688
600.42	13.457
600.76	13.559
601.09	13.092
601.42	13.239
601.76	13.418
602.09	13.944
602.42	13.985
602.76	14.346
603.09	14.452
603.42	14.256
603.76	13.145
604.09	13.730
604.42	13.621
604.76	14.553
605.09	14.122
605.42	14.221
605.75	13.091
606.09	13.546
606.42	13.761
606.75	13.290
607.09	14.374
607.42	13.514
607.75	13.499
608.08	13.387
608.42	13.614
608.75	14.410
609.08	13.652
609.41	13.858
609.75	14.315
610.08	14.229
610.41	13.333
610.74	13.993
611.07	14.160
611.41	14.530
611.74	14.446
612.07	14.079
612.40	14.497
612.73	13.898
613.07	14.229
613.40	14.934
613.73	13.990
614.06	14.302
614.39	13.931
614.72	14.174
615.06	14.078
615.39	13.155
615.72	13.617
616.05	14.525
616.38	12.991
616.71	14.312
617.05	14.577
617.38	14.142
617.71	14.088
618.04	14.730
618.37	15.259
618.70	14.389
619.03	14.514
619.36	14.472
619.69	15.011
620.03	15.267
620.36	14.807
620.69	13.562
621.02	14.908
621.35	15.768
621.68	15.391
622.01	15.000
622.34	15.882
622.67	16.009
623.00	15.926
623.33	16.006
623.66	14.061
623.99	14.070
624.32	15.970
624.65	14.737
624.99	14.597
625.32	14.481
625.65	15.632
625.98	14.988
626.31	14.298
626.64	15.771
626.97	16.492
627.30	16.550
627.63	15.858
627.96	15.184
628.29	14.894
628.62	16.618
628.95	16.032
629.28	15.121
629.61	15.254
629.94	16.813
630.26	16.403
630.59	15.713
630.92	16.410
631.25	15.795
631.58	15.419
631.91	16.009
632.24	16.055
632.57	16.591
632.90	15.658
633.23	17.647
633.56	15.743
633.89	15.290
634.22	18.395
634.55	15.502
634.88	15.709
635.20	15.897
635.53	17.333
635.86	13.264
636.19	17.206
636.52	15.944
636.85	14.888
637.18	15.723
637.51	16.730
637.83	17.083
638.16	18.008
638.49	15.804
638.82	16.842
639.15	15.332
639.48	17.194
639.81	18.131
640.13	16.883
640.46	15.743
640.79	14.286
641.12	15.805
641.45	15.315
641.77	16.741
642.10	19.431
642.43	18.167
642.76	16.337
643.09	17.609
643.41	15.696
643.74	15.980
644.07	15.928
644.40	18.581
644.73	16.813
645.05	16.779
645.38	18.342
645.71	16.844
646.04	18.133
646.36	18.440
646.69	16.547
647.02	17.202
647.35	17.351
647.67	18.282
648.00	21.642
648.33	18.942
648.66	17.288
648.98	14.908
649.31	15.537
649.64	16.797
649.96	16.045
650.29	16.354
650.62	15.726
650.94	15.185
651.27	16.387
651.60	16.396
651.92	17.133
652.25	13.321
652.58	14.500
652.90	16.467
653.23	15.462
653.56	13.706
653.88	15.464
654.21	14.711
654.54	15.959
654.86	17.317
655.19	13.158
655.52	13.622
655.84	10.855
656.17	11.462
656.49	15.680
656.82	16.244
657.15	12.380
657.47	9.292
657.80	6.936
658.13	7.055
658.45	10.643
658.78	10.683
659.10	10.634
659.43	10.814
659.75	11.889
660.08	11.241
660.41	12.462
660.73	13.950
661.06	15.425
661.38	14.286
661.71	13.142
662.03	18.455
662.36	17.143
662.68	17.257
663.01	16.157
663.33	13.689
663.66	16.512
663.98	16.512
664.31	16.631
664.63	14.977
664.96	13.696
665.28	14.570
665.61	17.316
665.93	15.000
666.26	16.920
666.58	14.765
666.91	13.882
667.23	16.745
667.56	18.483
667.88	15.588
668.21	15.752
668.53	16.548
668.86	15.566
669.18	15.094
669.50	15.496
669.83	17.209
670.15	19.114
670.48	15.550
670.80	15.668
671.13	14.989
671.45	12.329
671.77	15.451
672.10	16.238
672.42	14.794
672.75	13.499
673.07	16.100
673.39	16.147
673.72	13.018
674.04	13.542
674.37	18.220
674.69	16.916
675.01	16.222
675.34	15.090
675.66	14.815
675.98	16.186
676.31	18.119
676.63	15.677
676.95	17.045
677.28	17.412
677.60	18.313
677.92	14.908
678.25	16.411
678.57	16.883
678.89	16.597
679.22	13.199
679.54	14.659
679.86	12.525
680.18	15.146
680.51	14.205
680.83	14.314
681.15	14.800
681.48	17.213
681.80	14.463
682.12	14.516
682.44	15.481
682.77	14.128
683.09	15.789
683.41	13.864
683.73	15.438
684.06	14.602
684.38	11.398
684.70	14.379
685.02	13.071
685.34	12.846
685.67	14.259
685.99	16.094
686.31	15.221
686.63	13.729
686.96	12.167
687.28	11.919
687.60	12.167
687.92	13.939
688.24	15.524
688.56	14.410
688.89	15.848
689.21	14.000
689.53	12.297
689.85	11.395
690.17	15.848
690.49	13.712
690.82	16.990
691.14	11.190
691.46	12.383
691.78	15.090
692.10	13.333
692.42	11.905
692.74	17.094
693.06	13.063
693.39	12.896
693.71	12.670
694.03	13.626
694.35	13.551
694.67	15.404
694.99	14.883
695.31	17.232
695.63	15.000
695.95	11.616
696.27	14.508
696.59	14.167
696.91	17.367
697.23	10.283
697.56	8.663
697.88	16.559
698.20	11.390
698.52	11.765
698.84	10.766
699.16	13.000
699.48	15.288
699.80	15.881
700.12	14.555
700.44	15.126
700.76	9.884
701.08	12.727
701.40	12.952
701.72	18.210
702.04	12.871
702.36	11.037
702.68	15.315
703.00	14.545
703.32	13.196
703.64	14.407
703.96	11.304
704.28	13.497
704.60	12.698
704.91	17.035
705.23	12.292
705.55	16.961
705.87	16.968
706.19	14.074
706.51	15.808
706.83	16.399
707.15	7.477
707.47	14.286
707.79	12.240
708.11	15.500
708.43	12.000
708.74	12.403
709.06	13.803
709.38	11.621
709.70	15.385
710.02	10.510
710.34	17.337
710.66	10.256
710.98	10.265
711.29	13.443
711.61	10.508
711.93	11.075
712.25	16.838
712.57	16.117
712.89	10.075
713.20	17.301
713.52	17.073
713.84	14.334
714.16	9.278
714.48	12.258
714.80	15.064
715.11	13.982
715.43	6.583
715.75	12.000
716.07	10.631
716.39	10.738
716.70	12.915
717.02	11.450
717.34	14.170
717.66	11.947
717.97	10.000
718.29	14.226
718.61	10.630
718.93	10.853
719.24	14.068
719.56	14.458
719.88	12.371
720.20	8.712
720.51	9.579
720.83	12.355
721.15	16.807
721.46	12.097
721.78	5.138
722.10	9.294
722.42	8.714
722.73	9.388
723.05	13.061
723.37	19.068
723.68	13.964
724.00	9.402
724.32	10.222
724.63	11.818
724.95	8.297
725.27	14.747
725.58	11.017
725.90	10.714
726.22	13.514
726.53	16.271
726.85	12.734
727.16	13.585
727.48	10.931
727.80	8.907
728.11	8.898
728.43	7.059
728.74	7.258
729.06	10.400
729.38	18.421
729.69	10.359
730.01	9.615
730.32	14.552
730.64	15.548
730.96	11.321
731.27	12.333
731.59	11.864
731.90	12.102
732.22	15.457
732.53	14.286
732.85	12.411
733.16	14.815
733.48	10.072
733.80	14.493
734.11	9.831
734.43	12.371
734.74	9.697
735.06	4.886
735.37	10.272
735.69	12.795
736.00	10.105
736.32	14.430
736.63	11.268
736.95	10.580
737.26	10.320
737.58	11.745
737.89	11.722
738.21	9.023
738.52	8.642
738.83	8.734
739.15	13.100
739.46	12.205
739.78	12.088
740.09	10.784
740.41	11.957
740.72	7.087
741.04	12.146
741.35	6.383
741.66	9.479
741.98	5.612
742.29	9.406
742.61	13.089
742.92	5.687
743.23	8.796
743.55	11.312
743.86	10.048
744.18	11.962
744.49	4.255
744.80	10.326
745.12	12.834
745.43	8.293
745.74	11.979
746.06	12.683
746.37	12.565
746.68	12.796
747.00	12.234
747.31	18.408
747.62	7.767
747.94	9.091
748.25	12.376
748.56	8.743
748.88	10.471
749.19	15.957
749.50	13.793
749.82	7.547
750.13	5.963
750.44	14.286
750.75	10.448
751.07	12.774
751.38	12.644
751.69	4.706
752.01	12.791
752.32	11.554
752.63	4.348
752.94	8.621
753.26	16.318
753.57	9.955
753.88	7.965
754.19	10.417
754.51	7.851
754.82	7.287
755.13	14.583
755.44	8.871
755.75	9.375
756.07	11.673
756.38	9.811
756.69	8.046
757.00	10.000
757.31	13.399
757.63	9.756
757.94	8.889
758.25	10.137
758.56	7.979
758.87	8.499
759.18	10.903
759.50	7.636
759.81	10.368
760.12	9.677
760.43	11.515
760.74	11.111
761.05	10.769
761.36	7.670
761.67	13.636
761.99	12.245
762.30	8.727
762.61	13.043
762.92	12.217
763.23	6.306
763.54	5.140
763.85	11.864
764.16	10.373
764.47	8.065
764.78	11.722
765.10	14.141
765.41	9.464
765.72	6.667
766.03	6.015
766.34	8.394
766.65	16.733
766.96	8.586
767.27	11.702
767.58	5.172
767.89	7.092
768.20	13.636
768.51	10.989
768.82	12.315
769.13	11.060
769.44	5.579
769.75	3.653
770.06	11.207
770.37	8.654
770.68	5.584
770.99	8.597
771.30	7.843
771.61	8.597
771.92	8.621
772.23	9.852
772.54	17.204
772.85	12.346
773.16	11.798
773.47	10.458
773.78	11.765
774.09	10.180
774.39	6.000
774.70	8.917
775.01	20.690
775.32	12.857
775.63	-0.826
775.94	16.031
776.25	8.661
776.56	12.500
776.87	10.577
777.18	8.547
777.48	-0.862
777.79	4.348
778.10	-5.714
778.41	13.514
778.72	4.762
779.03	8.271
779.34	11.348
779.65	6.849
779.95	10.274
780.26	9.655
780.57	4.878
780.88	9.449
781.19	0.000
781.50	11.628
781.80	8.284
782.11	9.434
782.42	3.846
782.73	7.914
783.04	9.630
783.34	5.556
783.65	-2.564
783.96	9.016
784.27	7.586
784.57	5.691
784.88	12.500
785.19	18.000
785.50	16.000
785.81	11.207
786.11	17.241
786.42	9.709
786.73	18.182
787.04	3.061
787.34	9.821
787.65	13.333
787.96	-0.885
788.26	10.000
788.57	3.419
788.88	14.063
789.19	7.143
789.49	2.609
789.80	2.041
790.11	17.172
790.41	0.000
790.72	11.957
791.03	4.545
791.33	17.500
791.64	7.500
791.95	16.279
792.25	10.638
792.56	20.225
792.87	9.589
793.17	17.391
793.48	5.333
793.79	8.750
794.09	17.500
794.40	7.547
794.70	2.913
795.01	3.252
795.32	6.838
795.62	-4.762
795.93	16.667
796.23	16.038
796.54	16.667
796.85	11.765
797.15	11.268
797.46	5.556
797.76	18.182
798.07	12.791
798.37	9.211
798.68	3.030
798.99	3.704
799.29	-7.143
799.60	-2.899
799.90	18.667
800.21	11.475
800.51	7.692
800.82	-8.475
801.12	13.043
801.43	6.557
801.73	23.810
802.04	-18.000
802.34	5.970
802.65	23.077
802.95	12.500
803.26	11.538
803.56	0.000
803.87	-15.217
804.17	-1.333
804.48	12.698
804.78	7.407
805.09	6.522
805.39	-20.000
805.70	7.407
806.00	-14.035
806.30	14.085
806.61	8.571
806.91	-4.167
807.22	18.421
807.52	16.000
807.83	-14.545
808.13	23.611
808.43	10.294
808.74	10.448
809.04	-5.085
809.35	5.769
809.65	-9.375
809.95	-16.216
810.26	-13.636
810.56	-2.740
810.86	-11.905
811.17	14.000
811.47	6.122
811.77	10.526
812.08	-2.273
812.38	7.547
812.69	5.000
812.99	-24.242
813.29	-2.632
813.59	5.714
813.90	9.091
814.20	2.564
814.50	-5.769
814.81	30.189
815.11	-8.511
815.41	23.729
815.72	-7.143
816.02	11.765
816.32	2.083
816.62	4.878
816.93	2.703
817.23	-17.143
817.53	29.167
817.84	4.348
818.14	7.692
818.44	-36.842
818.74	36.957
819.04	-35.000
819.35	16.216
819.65	14.706
819.95	13.889
820.25	16.667
820.56	20.000
820.86	-27.586
821.16	37.500
821.46	29.787
821.76	10.000
822.07	13.953
822.37	-32.432
822.67	-21.875
822.97	38.095
823.27	-10.714
823.57	8.000
823.88	-40.741
824.18	-14.286
824.48	-8.824
824.78	6.452
825.08	-26.087
825.38	9.091
825.69	-50.000
825.99	-26.316
826.29	-19.444
826.59	-26.667
826.89	-66.667
827.19	0.000
827.49	2.500
827.79	11.429
828.09	-14.286
828.39	-3.030
828.70	18.919
829.00	14.286
829.30	-47.619
829.60	-16.667
829.90	15.625
830.20	-15.789
830.50	-44.444
830.80	-30.435
831.10	-22.727
831.40	24.242
831.70	22.581
832.00	-9.524
832.30	-42.857
832.60	-58.333
832.90	-13.793
833.20	-35.000
833.50	-6.061
833.80	-14.815
834.10	7.692
834.40	3.125
834.70	33.333
835.00	-31.579
835.30	61.538
835.60	6.667
835.90	-3.226
836.20	40.909
836.50	35.714
836.80	-30.769
837.10	14.286
837.40	-166.667
837.70	-4.545
838.00	-118.182
838.30	-30.435
838.60	38.462
838.90	18.182
839.19	-7.143
839.49	16.667
839.79	-46.154
840.09	-8.333
840.39	0.000
840.69	-14.286
840.99	-15.385
841.29	-68.421
841.59	-110.000
841.88	-63.636
842.18	-80.000
842.48	-6.250
842.78	-6.667
843.08	-33.333
843.38	-190.000
843.68	0.000
843.97	13.333
844.27	-106.667
844.57	-35.000
844.87	-88.889
845.17	4.762
845.47	13.333
845.76	-66.667
846.06	0.000
846.36	-20.000
846.66	28.571
846.96	0.000
847.25	-150.000
847.55	-28.571
847.85	-62.500
848.15	-13.636
848.44	-566.667
848.74	-30.000
849.04	48.148
849.34	45.455
849.63	-283.333
849.93	-320.000
850.23	11.111
850.53	10.000
850.82	15.385
851.12	-77.778
851.42	26.667
851.71	-15.385
852.01	-14.286
852.31	-200.000
852.61	-90.909
852.90	-45.000
853.20	-10.526
853.50	-8.333
853.79	30.435
854.09	20.833
854.39	-47.368
854.68	0.000
854.98	16.129
855.28	-3.846
855.57	-5.000
855.87	0.000
856.17	25.926
856.46	-14.286
856.76	-6.667
857.05	122.222
857.35	20.000
857.65	-33.333
857.94	-30.769
858.24	37.931
858.53	-27.778
858.83	3.704
859.13	36.364
859.42	-34.783
859.72	-100.000
860.01	-566.667
860.31	12.000
860.60	28.571
860.90	-233.333
861.20	-20.000
861.49	-600.000
861.79	-13.333
862.08	25.000
862.38	40.000
862.67	-180.000
862.97	-150.000
863.26	-100.000
863.56	27.778
863.85	-366.667
864.15	-44.444
864.44	-20.000
864.74	28.571
865.03	350.000
865.33	-280.000
865.62	-16.667
865.92	16.667
866.21	-216.667
866.51	56.250
866.80	-81.818
867.10	-700.000
867.39	-8.333
867.69	0.000
867.98	15.385
868.27	-166.667
868.57	26.667
868.86	38.889
869.16	-115.385
869.45	46.667
869.75	-400.000
870.04	0.000
870.33	-128.571
870.63	-19.048
870.92	366.667
871.22	-260.000
871.51	-1000.000
871.80	11.111
872.10	533.333
>>>>>End Processed Spectral Data<<<<<
