SpectraSuite Data File
++++++++++++++++++++++++++++++++++++
Date: Fri May 15 20:39:16 PDT 2015
User: schluterlab
Dark Spectrum Present: Yes
Reference Spectrum Present: Yes
Number of Sampled Component Spectra: 1
Spectrometers: USB2E3373
Integration Time (usec): 3000 (USB2E3373)
Spectra Averaged: 3 (USB2E3373)
Boxcar Smoothing: 0 (USB2E3373)
Correct for Electrical Dark: No (USB2E3373)
Strobe/Lamp Enabled: No (USB2E3373)
Correct for Detector Non-linearity: No (USB2E3373)
Correct for Stray Light: No (USB2E3373)
Number of Pixels in Processed Spectrum: 2048
>>>>>Begin Processed Spectral Data<<<<<
178.53	0.000
178.91	0.000
179.29	62.500
179.67	-250.000
180.04	28.571
180.42	-75.000
180.80	-1100.000
181.18	100.000
181.56	500.000
181.94	150.000
182.31	500.000
182.69	-40.000
183.07	-166.667
183.45	-40.000
183.83	150.000
184.20	-54.545
184.58	11.111
184.96	125.000
185.34	66.667
185.72	-250.000
186.09	84.615
186.47	-1400.000
186.85	133.333
187.23	111.111
187.61	100.000
187.98	-233.333
188.36	111.111
188.74	-333.333
189.12	105.882
189.49	-16.667
189.87	0.000
190.25	35.714
190.63	200.000
191.00	-500.000
191.38	73.684
191.76	150.000
192.14	150.000
192.51	300.000
192.89	-88.889
193.27	-85.714
193.65	266.667
194.02	127.273
194.40	-40.000
194.78	-150.000
195.15	-41.667
195.53	-125.000
195.91	275.000
196.29	25.000
196.66	61.538
197.04	71.429
197.42	-11.111
197.79	-400.000
198.17	-130.769
198.55	1800.000
198.92	-333.333
199.30	0.000
199.68	-140.000
200.05	-233.333
200.43	0.000
200.81	-266.667
201.18	100.000
201.56	1800.000
201.94	0.000
202.31	100.000
202.69	-80.000
203.07	200.000
203.44	500.000
203.82	0.000
204.19	-7.143
204.57	-266.667
204.95	25.000
205.32	-70.000
205.70	-57.143
206.08	-25.000
206.45	88.889
206.83	64.286
207.20	-85.714
207.58	900.000
207.96	-333.333
208.33	-40.000
208.71	-50.000
209.08	-283.333
209.46	0.000
209.84	-120.000
210.21	-1100.000
210.59	-57.143
210.96	66.667
211.34	125.000
211.71	33.333
212.09	-128.571
212.46	-2200.000
212.84	0.000
213.22	100.000
213.59	400.000
213.97	30.769
214.34	-27.273
214.72	0.000
215.09	450.000
215.47	-23.077
215.84	-54.545
216.22	133.333
216.59	12.500
216.97	0.000
217.34	50.000
217.72	-300.000
218.09	50.000
218.47	162.500
218.84	-800.000
219.22	-55.556
219.59	40.000
219.97	400.000
220.34	175.000
220.72	-28.571
221.09	-50.000
221.47	-100.000
221.84	-50.000
222.22	-550.000
222.59	-72.727
222.97	16.667
223.34	-200.000
223.72	-42.857
224.09	4.762
224.46	7.143
224.84	233.333
225.21	-20.000
225.59	80.000
225.96	150.000
226.34	150.000
226.71	-100.000
227.08	83.333
227.46	37.500
227.83	-700.000
228.21	-22.222
228.58	-27.273
228.95	-37.500
229.33	80.000
229.70	-31.250
230.08	50.000
230.45	14.286
230.82	100.000
231.20	26.667
231.57	71.429
231.95	0.000
232.32	-20.000
232.69	85.714
233.07	-100.000
233.44	0.000
233.81	-30.000
234.19	-22.222
234.56	-23.529
234.93	150.000
235.31	225.000
235.68	-200.000
236.05	-76.923
236.43	5.000
236.80	58.824
237.17	37.500
237.55	-5.000
237.92	29.630
238.29	19.444
238.67	33.333
239.04	50.000
239.41	12.195
239.79	46.667
240.16	73.171
240.53	36.842
240.91	47.826
241.28	36.508
241.65	67.857
242.02	52.055
242.40	51.667
242.77	61.017
243.14	43.939
243.51	47.500
243.89	47.126
244.26	40.230
244.63	51.190
245.00	50.515
245.38	58.763
245.75	41.573
246.12	50.862
246.49	50.413
246.87	62.500
247.24	51.261
247.61	50.877
247.98	48.780
248.36	49.375
248.73	55.921
249.10	51.948
249.47	58.228
249.84	52.941
250.22	50.588
250.59	50.980
250.96	48.826
251.33	61.628
251.70	55.294
252.08	56.853
252.45	49.010
252.82	55.276
253.19	58.065
253.56	52.336
253.94	55.405
254.31	55.217
254.68	60.526
255.05	52.362
255.42	53.712
255.79	55.985
256.16	55.642
256.54	56.343
256.91	49.810
257.28	52.788
257.65	53.184
258.02	52.837
258.39	54.545
258.76	52.015
259.14	55.150
259.51	53.074
259.88	58.076
260.25	54.902
260.62	58.681
260.99	51.186
261.36	52.740
261.73	54.747
262.10	55.319
262.47	55.215
262.85	50.470
263.22	54.462
263.59	53.583
263.96	54.969
264.33	57.879
264.70	55.655
265.07	55.952
265.44	57.224
265.81	55.650
266.18	54.645
266.55	53.213
266.92	54.145
267.29	57.180
267.66	52.685
268.03	56.283
268.40	54.830
268.77	59.358
269.14	53.477
269.51	58.612
269.88	54.613
270.25	54.337
270.62	52.195
270.99	51.918
271.36	52.567
271.73	49.765
272.10	53.041
272.47	57.447
272.84	53.960
273.21	54.060
273.58	55.422
273.95	52.860
274.32	50.115
274.69	49.774
275.06	53.571
275.43	52.834
275.80	54.967
276.17	56.092
276.54	49.679
276.91	54.825
277.28	50.437
277.65	52.686
278.02	50.851
278.39	51.204
278.76	53.878
279.13	47.925
279.50	53.361
279.87	52.700
280.23	52.258
280.60	51.462
280.97	53.939
281.34	48.654
281.71	52.361
282.08	49.898
282.45	51.272
282.82	51.544
283.19	52.224
283.56	51.830
283.92	51.233
284.29	51.731
284.66	48.450
285.03	52.259
285.40	49.149
285.77	48.506
286.14	49.819
286.51	53.321
286.87	51.005
287.24	50.460
287.61	49.735
287.98	50.877
288.35	46.967
288.72	48.161
289.08	46.701
289.45	48.682
289.82	47.378
290.19	45.392
290.56	47.170
290.93	44.444
291.29	42.681
291.66	44.567
292.03	43.541
292.40	45.645
292.77	42.265
293.13	42.208
293.50	41.578
293.87	41.985
294.24	42.968
294.60	41.133
294.97	41.964
295.34	39.417
295.71	41.282
296.08	39.312
296.44	37.553
296.81	39.306
297.18	40.435
297.55	38.618
297.91	38.356
298.28	39.842
298.65	38.942
299.02	38.140
299.38	37.483
299.75	37.379
300.12	37.042
300.48	36.495
300.85	35.361
301.22	36.623
301.59	36.711
301.95	37.089
302.32	37.743
302.69	36.443
303.05	36.139
303.42	35.990
303.79	35.748
304.15	35.006
304.52	35.196
304.89	34.971
305.25	34.140
305.62	33.256
305.99	33.333
306.35	34.220
306.72	34.308
307.09	33.751
307.45	34.902
307.82	33.796
308.19	36.353
308.55	32.933
308.92	35.076
309.29	33.743
309.65	33.262
310.02	33.333
310.38	33.260
310.75	36.175
311.12	34.769
311.48	32.874
311.85	32.880
312.22	32.700
312.58	32.484
312.95	32.551
313.31	32.298
313.68	32.461
314.05	32.551
314.41	33.196
314.78	32.784
315.14	31.963
315.51	31.884
315.87	33.094
316.24	32.760
316.61	32.087
316.97	32.837
317.34	31.445
317.70	31.836
318.07	33.269
318.43	31.471
318.80	32.576
319.16	32.422
319.53	31.909
319.89	33.071
320.26	32.692
320.62	33.902
320.99	30.898
321.35	33.299
321.72	33.956
322.08	31.621
322.45	32.690
322.81	31.925
323.18	32.483
323.54	30.985
323.91	30.769
324.27	31.934
324.64	31.835
325.00	32.482
325.37	31.772
325.73	31.369
326.10	32.516
326.46	32.735
326.83	31.409
327.19	31.648
327.56	32.059
327.92	32.482
328.29	31.339
328.65	32.736
329.01	32.077
329.38	32.627
329.74	30.500
330.11	30.862
330.47	31.447
330.84	30.385
331.20	33.460
331.56	30.185
331.93	31.416
332.29	31.897
332.66	30.860
333.02	30.204
333.38	30.156
333.75	31.136
334.11	29.991
334.48	32.094
334.84	30.495
335.20	30.375
335.57	30.009
335.93	30.172
336.29	31.031
336.66	29.882
337.02	27.788
337.38	29.722
337.75	30.545
338.11	30.298
338.47	30.566
338.84	30.407
339.20	30.439
339.56	30.367
339.93	29.991
340.29	30.092
340.65	30.018
341.02	29.255
341.38	28.407
341.74	30.477
342.11	28.076
342.47	29.804
342.83	29.412
343.20	28.659
343.56	30.087
343.92	27.989
344.28	30.487
344.65	29.361
345.01	28.868
345.37	29.352
345.73	30.628
346.10	28.559
346.46	29.268
346.82	28.396
347.19	27.930
347.55	28.906
347.91	29.531
348.27	28.537
348.63	28.961
349.00	28.466
349.36	28.429
349.72	29.270
350.08	29.590
350.45	28.252
350.81	27.907
351.17	27.524
351.53	30.041
351.89	27.993
352.26	28.160
352.62	28.226
352.98	28.193
353.34	27.617
353.70	28.560
354.07	27.823
354.43	27.142
354.79	28.076
355.15	28.175
355.51	28.956
355.87	28.964
356.24	27.896
356.60	28.618
356.96	28.810
357.32	27.875
357.68	28.616
358.04	27.948
358.40	27.814
358.77	28.150
359.13	27.622
359.49	26.040
359.85	27.691
360.21	28.070
360.57	26.779
360.93	28.366
361.29	27.266
361.66	27.665
362.02	28.258
362.38	28.256
362.74	27.782
363.10	27.464
363.46	27.057
363.82	27.949
364.18	26.790
364.54	26.324
364.90	26.810
365.26	27.293
365.62	27.810
365.98	27.053
366.35	26.875
366.71	27.790
367.07	26.778
367.43	25.737
367.79	26.643
368.15	27.279
368.51	27.458
368.87	26.274
369.23	27.292
369.59	26.676
369.95	26.540
370.31	27.168
370.67	26.269
371.03	26.512
371.39	26.112
371.75	26.081
372.11	26.320
372.47	27.441
372.83	26.757
373.19	26.748
373.55	25.415
373.91	26.998
374.27	26.790
374.63	26.561
374.99	26.454
375.35	26.045
375.71	27.343
376.07	27.037
376.42	25.782
376.78	26.309
377.14	25.592
377.50	26.096
377.86	26.037
378.22	25.846
378.58	26.282
378.94	25.268
379.30	25.827
379.66	26.583
380.02	26.426
380.38	25.685
380.74	25.793
381.09	26.871
381.45	24.832
381.81	26.218
382.17	25.761
382.53	25.609
382.89	26.051
383.25	25.389
383.61	26.585
383.97	26.857
384.32	25.266
384.68	25.511
385.04	24.694
385.40	25.762
385.76	26.289
386.12	25.226
386.48	26.948
386.83	25.808
387.19	26.007
387.55	26.600
387.91	24.939
388.27	25.458
388.62	26.054
388.98	25.844
389.34	26.296
389.70	26.227
390.06	25.488
390.42	25.453
390.77	26.030
391.13	24.779
391.49	25.938
391.85	25.276
392.20	25.235
392.56	24.666
392.92	25.895
393.28	25.472
393.64	25.345
393.99	26.834
394.35	25.617
394.71	25.990
395.07	24.953
395.42	25.319
395.78	24.495
396.14	25.284
396.50	25.365
396.85	25.821
397.21	24.624
397.57	25.078
397.92	25.345
398.28	24.943
398.64	24.578
399.00	26.129
399.35	24.097
399.71	24.928
400.07	25.091
400.42	25.214
400.78	25.291
401.14	25.106
401.49	25.432
401.85	25.289
402.21	25.663
402.57	25.188
402.92	24.718
403.28	25.815
403.63	25.095
403.99	24.490
404.35	25.671
404.70	24.821
405.06	25.147
405.42	25.730
405.77	24.753
406.13	25.786
406.49	26.465
406.84	25.611
407.20	26.069
407.55	24.211
407.91	25.201
408.27	24.474
408.62	25.108
408.98	25.693
409.34	25.341
409.69	24.935
410.05	25.000
410.40	26.235
410.76	25.513
411.11	25.250
411.47	25.378
411.83	25.173
412.18	24.839
412.54	24.345
412.89	24.323
413.25	25.812
413.60	24.410
413.96	24.969
414.31	25.183
414.67	25.080
415.03	25.300
415.38	25.196
415.74	25.798
416.09	25.800
416.45	26.063
416.80	24.653
417.16	24.517
417.51	24.517
417.87	24.446
418.22	25.324
418.58	25.686
418.93	25.956
419.29	25.416
419.64	24.498
420.00	25.945
420.35	25.134
420.71	25.881
421.06	25.353
421.42	24.700
421.77	26.012
422.12	24.631
422.48	25.772
422.83	25.232
423.19	26.185
423.54	25.338
423.90	24.558
424.25	24.742
424.61	26.193
424.96	25.726
425.31	25.650
425.67	25.528
426.02	25.795
426.38	26.362
426.73	25.363
427.09	25.570
427.44	25.529
427.79	25.987
428.15	25.607
428.50	25.500
428.85	25.246
429.21	26.033
429.56	25.714
429.92	25.270
430.27	25.614
430.62	25.666
430.98	24.682
431.33	25.815
431.68	25.275
432.04	25.657
432.39	25.670
432.74	25.195
433.10	25.747
433.45	24.970
433.80	24.782
434.16	25.263
434.51	25.645
434.86	25.900
435.22	25.687
435.57	25.764
435.92	25.868
436.28	24.747
436.63	25.442
436.98	25.029
437.34	25.590
437.69	25.581
438.04	25.926
438.39	24.191
438.75	26.169
439.10	25.297
439.45	26.598
439.81	25.505
440.16	26.366
440.51	26.269
440.86	27.130
441.22	25.792
441.57	25.717
441.92	25.708
442.27	26.774
442.63	25.642
442.98	26.479
443.33	26.043
443.68	25.570
444.03	26.080
444.39	24.889
444.74	26.143
445.09	26.392
445.44	25.983
445.79	26.457
446.15	25.551
446.50	24.570
446.85	25.930
447.20	26.434
447.55	26.953
447.91	26.001
448.26	26.693
448.61	26.079
448.96	26.736
449.31	25.607
449.66	26.074
450.02	26.127
450.37	25.785
450.72	26.575
451.07	26.709
451.42	25.843
451.77	25.316
452.12	24.701
452.47	25.692
452.83	26.325
453.18	25.111
453.53	25.980
453.88	26.897
454.23	26.183
454.58	26.574
454.93	26.740
455.28	24.889
455.63	26.224
455.98	26.939
456.34	25.287
456.69	26.302
457.04	26.591
457.39	26.731
457.74	26.300
458.09	25.662
458.44	26.507
458.79	25.882
459.14	26.773
459.49	26.806
459.84	25.719
460.19	26.699
460.54	27.078
460.89	27.500
461.24	26.211
461.59	26.841
461.94	26.038
462.29	26.779
462.64	27.907
462.99	27.759
463.34	26.982
463.69	26.512
464.04	26.877
464.39	26.440
464.74	26.503
465.09	26.575
465.44	27.351
465.79	26.134
466.14	26.910
466.49	26.337
466.84	27.543
467.19	26.846
467.54	27.203
467.89	27.164
468.24	25.852
468.59	27.746
468.94	26.857
469.29	27.279
469.64	26.316
469.99	28.311
470.34	27.167
470.68	27.890
471.03	27.318
471.38	26.534
471.73	27.591
472.08	26.052
472.43	26.711
472.78	26.045
473.13	27.687
473.48	26.319
473.83	26.463
474.17	26.684
474.52	26.484
474.87	26.364
475.22	26.236
475.57	27.329
475.92	27.537
476.27	27.066
476.61	28.125
476.96	26.380
477.31	26.933
477.66	26.966
478.01	26.951
478.36	27.233
478.70	27.352
479.05	27.473
479.40	27.292
479.75	27.789
480.10	27.291
480.45	27.250
480.79	27.241
481.14	27.408
481.49	27.044
481.84	27.896
482.19	26.941
482.53	27.098
482.88	27.828
483.23	27.591
483.58	27.170
483.92	26.815
484.27	27.028
484.62	27.656
484.97	26.907
485.31	26.120
485.66	25.981
486.01	25.791
486.36	25.705
486.70	26.486
487.05	26.424
487.40	26.655
487.75	26.648
488.09	26.978
488.44	26.857
488.79	27.269
489.13	27.003
489.48	27.106
489.83	28.206
490.17	26.742
490.52	26.513
490.87	27.117
491.22	27.316
491.56	27.230
491.91	27.486
492.26	27.467
492.60	27.639
492.95	28.726
493.30	27.211
493.64	28.193
493.99	27.391
494.34	26.990
494.68	27.429
495.03	27.543
495.37	27.674
495.72	28.067
496.07	28.146
496.41	27.594
496.76	27.867
497.11	27.014
497.45	27.685
497.80	27.245
498.14	27.571
498.49	28.288
498.84	27.545
499.18	27.661
499.53	27.232
499.87	27.335
500.22	27.399
500.56	27.484
500.91	27.309
501.26	27.237
501.60	27.349
501.95	27.026
502.29	27.990
502.64	28.041
502.98	27.627
503.33	27.041
503.67	26.843
504.02	29.130
504.36	27.956
504.71	27.424
505.06	27.328
505.40	28.223
505.75	28.402
506.09	28.282
506.44	28.337
506.78	28.469
507.13	28.180
507.47	27.572
507.82	27.137
508.16	27.839
508.51	28.122
508.85	27.786
509.19	27.674
509.54	27.668
509.88	28.047
510.23	27.165
510.57	28.113
510.92	27.932
511.26	28.260
511.61	27.998
511.95	29.041
512.30	28.160
512.64	28.436
512.98	27.513
513.33	28.875
513.67	27.970
514.02	29.005
514.36	28.971
514.70	29.196
515.05	28.848
515.39	28.453
515.74	30.359
516.08	29.109
516.42	30.094
516.77	29.549
517.11	28.843
517.46	29.144
517.80	28.427
518.14	29.026
518.49	29.087
518.83	28.372
519.17	27.774
519.52	28.656
519.86	29.352
520.20	29.101
520.55	29.081
520.89	29.486
521.23	29.386
521.58	31.041
521.92	29.231
522.26	29.798
522.61	30.909
522.95	30.397
523.29	28.463
523.64	29.670
523.98	29.682
524.32	28.866
524.66	30.858
525.01	30.260
525.35	29.682
525.69	30.034
526.04	29.762
526.38	30.480
526.72	29.104
527.06	28.859
527.41	30.739
527.75	28.686
528.09	29.435
528.43	29.642
528.78	30.429
529.12	29.935
529.46	29.565
529.80	29.576
530.15	30.099
530.49	30.034
530.83	29.891
531.17	29.080
531.51	30.506
531.86	30.048
532.20	30.063
532.54	30.020
532.88	30.390
533.22	30.108
533.57	29.751
533.91	29.504
534.25	30.339
534.59	29.057
534.93	29.641
535.27	28.807
535.62	29.423
535.96	29.941
536.30	30.145
536.64	30.737
536.98	29.199
537.32	30.441
537.66	30.224
538.01	30.769
538.35	30.236
538.69	29.760
539.03	28.845
539.37	29.744
539.71	29.652
540.05	30.075
540.39	30.748
540.73	29.428
541.07	30.801
541.42	30.108
541.76	30.970
542.10	29.663
542.44	29.812
542.78	29.525
543.12	28.709
543.46	29.972
543.80	30.881
544.14	29.105
544.48	29.514
544.82	29.733
545.16	30.669
545.50	31.108
545.84	30.453
546.18	29.362
546.52	30.065
546.86	29.978
547.20	31.831
547.54	29.753
547.88	30.231
548.22	28.863
548.56	30.013
548.90	31.199
549.24	28.581
549.58	30.395
549.92	29.450
550.26	30.403
550.60	30.706
550.94	30.695
551.28	29.830
551.62	29.923
551.96	29.850
552.30	30.556
552.64	29.337
552.98	31.294
553.32	30.171
553.66	28.882
554.00	30.000
554.34	30.945
554.68	29.867
555.02	31.027
555.36	29.843
555.69	30.256
556.03	29.836
556.37	30.320
556.71	31.336
557.05	31.544
557.39	30.335
557.73	30.510
558.07	31.222
558.41	29.709
558.75	29.930
559.08	30.496
559.42	30.873
559.76	30.104
560.10	29.664
560.44	30.380
560.78	30.000
561.12	29.619
561.45	30.780
561.79	30.462
562.13	29.595
562.47	29.856
562.81	30.764
563.15	30.183
563.48	30.410
563.82	31.160
564.16	29.596
564.50	29.122
564.84	30.991
565.17	30.114
565.51	30.874
565.85	30.727
566.19	30.239
566.52	30.161
566.86	30.206
567.20	29.390
567.54	29.866
567.88	30.111
568.21	30.430
568.55	30.272
568.89	30.390
569.23	30.284
569.56	29.028
569.90	28.867
570.24	28.359
570.57	28.691
570.91	28.895
571.25	28.412
571.59	27.593
571.92	27.407
572.26	27.687
572.60	28.124
572.93	28.271
573.27	27.555
573.61	28.013
573.95	27.526
574.28	27.754
574.62	26.570
574.96	27.076
575.29	27.284
575.63	26.302
575.97	27.297
576.30	27.158
576.64	27.126
576.98	27.954
577.31	27.599
577.65	27.156
577.98	27.071
578.32	27.007
578.66	26.628
578.99	26.743
579.33	26.880
579.67	26.773
580.00	27.367
580.34	27.562
580.67	27.003
581.01	27.546
581.35	27.455
581.68	27.062
582.02	27.234
582.35	27.205
582.69	26.958
583.02	27.302
583.36	27.135
583.70	28.141
584.03	28.440
584.37	28.769
584.70	28.077
585.04	26.658
585.37	27.174
585.71	27.425
586.04	27.963
586.38	27.181
586.72	28.235
587.05	28.134
587.39	28.376
587.72	28.239
588.06	27.733
588.39	27.457
588.73	28.358
589.06	29.028
589.40	28.344
589.73	28.770
590.07	28.285
590.40	28.793
590.73	28.624
591.07	28.541
591.40	28.940
591.74	29.457
592.07	29.360
592.41	28.401
592.74	27.559
593.08	27.838
593.41	28.105
593.75	28.001
594.08	27.703
594.41	28.275
594.75	28.130
595.08	27.998
595.42	28.561
595.75	28.239
596.09	28.655
596.42	28.690
596.75	29.174
597.09	28.929
597.42	28.320
597.75	29.317
598.09	28.610
598.42	28.610
598.76	28.486
599.09	27.684
599.42	27.586
599.76	27.916
600.09	27.677
600.42	27.597
600.76	27.526
601.09	28.015
601.42	28.045
601.76	28.305
602.09	27.929
602.42	29.023
602.76	28.480
603.09	28.862
603.42	29.348
603.76	28.105
604.09	27.339
604.42	28.976
604.76	29.105
605.09	29.159
605.42	28.217
605.75	27.890
606.09	27.941
606.42	28.190
606.75	28.485
607.09	28.923
607.42	28.179
607.75	28.153
608.08	27.673
608.42	28.323
608.75	29.349
609.08	28.849
609.41	29.340
609.75	29.688
610.08	28.857
610.41	28.599
610.74	28.035
611.07	29.199
611.41	29.268
611.74	29.318
612.07	27.944
612.40	29.158
612.73	28.362
613.07	28.684
613.40	29.322
613.73	28.372
614.06	29.549
614.39	29.836
614.72	28.179
615.06	28.603
615.39	28.603
615.72	28.687
616.05	29.497
616.38	27.977
616.71	29.052
617.05	29.339
617.38	29.227
617.71	29.748
618.04	29.333
618.37	30.391
618.70	31.287
619.03	30.694
619.36	29.957
619.69	31.539
620.03	31.629
620.36	31.259
620.69	30.264
621.02	30.352
621.35	30.705
621.68	31.548
622.01	30.917
622.34	30.008
622.67	30.521
623.00	30.551
623.33	30.259
623.66	29.544
623.99	29.879
624.32	29.886
624.65	30.827
624.99	30.850
625.32	29.340
625.65	30.401
625.98	30.701
626.31	29.593
626.64	31.456
626.97	31.675
627.30	30.736
627.63	30.849
627.96	31.716
628.29	31.360
628.62	32.547
628.95	32.265
629.28	32.964
629.61	31.306
629.94	32.160
630.26	31.324
630.59	33.507
630.92	32.718
631.25	31.179
631.58	31.278
631.91	32.566
632.24	34.060
632.57	31.818
632.90	32.622
633.23	31.294
633.56	35.390
633.89	32.922
634.22	34.938
634.55	31.512
634.88	33.461
635.20	31.538
635.53	32.133
635.86	32.900
636.19	33.506
636.52	32.781
636.85	31.638
637.18	31.447
637.51	32.327
637.83	32.063
638.16	33.970
638.49	31.471
638.82	33.553
639.15	33.243
639.48	31.224
639.81	34.868
640.13	33.189
640.46	34.111
640.79	34.168
641.12	31.758
641.45	31.982
641.77	33.926
642.10	33.807
642.43	34.727
642.76	35.314
643.09	34.572
643.41	34.951
643.74	33.773
644.07	36.453
644.40	35.135
644.73	35.727
645.05	35.403
645.38	34.215
645.71	34.043
646.04	36.984
646.36	35.106
646.69	38.489
647.02	36.673
647.35	32.649
647.67	33.272
648.00	35.261
648.33	34.471
648.66	34.237
648.98	34.338
649.31	31.405
649.64	32.653
649.96	33.549
650.29	33.220
650.62	30.940
650.94	34.444
651.27	34.264
651.60	35.495
651.92	32.867
652.25	34.813
652.58	34.833
652.90	37.393
653.23	30.756
653.56	32.995
653.88	33.333
654.21	32.399
654.54	34.805
654.86	35.144
655.19	32.602
655.52	30.108
655.84	26.867
656.17	29.890
656.49	40.919
656.82	42.104
657.15	32.802
657.47	24.172
657.80	18.107
658.13	18.082
658.45	28.426
658.78	28.727
659.10	27.918
659.43	28.282
659.75	28.564
660.08	28.828
660.41	31.256
660.73	31.077
661.06	32.582
661.38	32.290
661.71	33.676
662.03	37.339
662.36	37.582
662.68	32.743
663.01	34.279
663.33	32.947
663.66	30.465
663.98	34.884
664.31	34.755
664.63	33.641
664.96	34.565
665.28	34.216
665.61	34.848
665.93	36.739
666.26	35.792
666.58	36.689
666.91	36.235
667.23	35.142
667.56	35.545
667.88	37.170
668.21	34.606
668.53	34.043
668.86	35.849
669.18	35.849
669.50	34.140
669.83	35.349
670.15	32.401
670.48	33.493
670.80	33.871
671.13	32.438
671.45	31.735
671.77	36.695
672.10	31.485
672.42	31.461
672.75	32.860
673.07	33.810
673.39	33.578
673.72	30.375
674.04	32.292
674.37	34.322
674.69	33.405
675.01	34.889
675.34	33.333
675.66	36.111
675.98	35.698
676.31	34.404
676.63	35.392
676.95	36.136
677.28	34.588
677.60	35.904
677.92	35.550
678.25	34.792
678.57	31.818
678.89	34.244
679.22	33.557
679.54	31.727
679.86	29.622
680.18	33.204
680.51	33.523
680.83	33.400
681.15	33.200
681.48	34.836
681.80	36.364
682.12	35.887
682.44	29.707
682.77	35.320
683.09	34.325
683.41	30.909
683.73	34.101
684.06	31.858
684.38	30.323
684.70	35.730
685.02	32.988
685.34	31.028
685.67	30.769
685.99	31.826
686.31	33.097
686.63	33.952
686.96	28.897
687.28	32.323
687.60	31.179
687.92	37.172
688.24	31.452
688.56	30.786
688.89	33.036
689.21	35.333
689.53	31.787
689.85	33.721
690.17	34.152
690.49	33.097
690.82	29.612
691.14	32.381
691.46	31.075
691.78	33.784
692.10	32.688
692.42	30.952
692.74	31.197
693.06	31.757
693.39	32.127
693.71	31.900
694.03	33.025
694.35	30.374
694.67	33.838
694.99	32.376
695.31	31.593
695.63	35.250
695.95	33.586
696.27	32.902
696.59	34.722
696.91	34.734
697.23	28.535
697.56	27.228
697.88	30.538
698.20	33.941
698.52	32.235
698.84	29.904
699.16	31.750
699.48	36.842
699.80	33.002
700.12	30.728
700.44	34.174
700.76	30.814
701.08	32.121
701.40	36.747
701.72	40.741
702.04	38.944
702.36	39.799
702.68	33.033
703.00	32.424
703.32	33.431
703.64	30.226
703.96	33.333
704.28	35.890
704.60	33.016
704.91	34.069
705.23	35.548
705.55	36.749
705.87	36.462
706.19	35.926
706.51	34.021
706.83	36.656
707.15	30.530
707.47	33.333
707.79	32.292
708.11	32.750
708.43	33.250
708.74	32.041
709.06	32.958
709.38	33.945
709.70	38.757
710.02	34.713
710.34	35.913
710.66	31.090
710.98	32.781
711.29	32.459
711.61	32.881
711.93	35.831
712.25	35.739
712.57	33.333
712.89	35.448
713.20	35.294
713.52	35.192
713.84	30.375
714.16	30.928
714.48	32.903
714.80	40.064
715.11	33.739
715.43	28.527
715.75	31.667
716.07	30.233
716.39	32.550
716.70	30.627
717.02	32.061
717.34	34.818
717.66	30.531
717.97	32.609
718.29	36.820
718.61	35.433
718.93	31.783
719.24	31.559
719.56	36.948
719.88	32.646
720.20	34.848
720.51	34.483
720.83	33.205
721.15	37.815
721.46	35.081
721.78	30.830
722.10	33.086
722.42	28.631
722.73	34.286
723.05	35.510
723.37	39.831
723.68	34.685
724.00	37.179
724.32	34.222
724.63	33.636
724.95	35.808
725.27	32.719
725.58	34.322
725.90	32.540
726.22	28.571
726.53	31.186
726.85	34.457
727.16	35.472
727.48	29.960
727.80	38.057
728.11	35.169
728.43	34.118
728.74	29.435
729.06	32.800
729.38	36.466
729.69	30.279
730.01	30.769
730.32	33.209
730.64	35.689
730.96	31.698
731.27	34.333
731.59	32.203
731.90	30.892
732.22	31.230
732.53	29.568
732.85	33.688
733.16	30.640
733.48	31.655
733.80	29.710
734.11	30.508
734.43	31.271
734.74	30.606
735.06	28.664
735.37	29.607
735.69	32.323
736.00	28.920
736.32	28.523
736.63	36.268
736.95	31.741
737.26	27.046
737.58	30.201
737.89	31.868
738.21	32.331
738.52	32.510
738.83	36.681
739.15	28.384
739.46	32.677
739.78	27.106
740.09	30.065
740.41	29.710
740.72	31.102
741.04	34.413
741.35	36.170
741.66	33.175
741.98	33.163
742.29	33.663
742.61	34.555
742.92	25.592
743.23	26.852
743.55	33.937
743.86	36.364
744.18	36.842
744.49	30.319
744.80	37.500
745.12	40.642
745.43	29.756
745.74	39.583
746.06	31.707
746.37	37.696
746.68	32.701
747.00	34.043
747.31	32.836
747.62	31.068
747.94	32.536
748.25	30.198
748.56	33.333
748.88	35.602
749.19	37.234
749.50	38.916
749.82	27.358
750.13	23.853
750.44	32.331
750.75	34.328
751.07	36.131
751.38	32.567
751.69	32.157
752.01	31.395
752.32	32.669
752.63	30.830
752.94	30.172
753.26	35.983
753.57	31.222
753.88	33.186
754.19	27.083
754.51	30.165
754.82	27.126
755.13	32.500
755.44	32.258
755.75	34.375
756.07	33.463
756.38	29.057
756.69	27.203
757.00	32.667
757.31	29.739
757.63	28.963
757.94	28.333
758.25	27.397
758.56	29.255
758.87	27.479
759.18	30.218
759.50	26.909
759.81	34.448
760.12	35.484
760.43	28.485
760.74	31.481
761.05	30.769
761.36	30.398
761.67	27.273
761.99	31.973
762.30	29.455
762.61	31.621
762.92	28.959
763.23	33.333
763.54	28.505
763.85	28.390
764.16	33.610
764.47	34.677
764.78	31.502
765.10	31.650
765.41	29.338
765.72	33.333
766.03	29.323
766.34	30.657
766.65	34.263
766.96	29.293
767.27	36.702
767.58	28.736
767.89	27.660
768.20	27.273
768.51	28.571
768.82	26.601
769.13	30.415
769.44	33.047
769.75	28.767
770.06	30.172
770.37	33.173
770.68	30.964
770.99	27.149
771.30	28.431
771.61	30.769
771.92	30.603
772.23	38.424
772.54	27.419
772.85	34.568
773.16	28.652
773.47	37.255
773.78	26.797
774.09	29.341
774.39	20.667
774.70	35.669
775.01	36.552
775.32	33.571
775.63	14.050
775.94	24.427
776.25	32.283
776.56	21.667
776.87	35.577
777.18	21.368
777.48	33.621
777.79	14.783
778.10	25.714
778.41	30.631
778.72	29.365
779.03	24.812
779.34	29.787
779.65	32.877
779.95	23.973
780.26	32.414
780.57	21.138
780.88	29.921
781.19	31.034
781.50	29.457
781.80	28.402
782.11	22.642
782.42	38.462
782.73	32.374
783.04	31.111
783.34	21.528
783.65	21.368
783.96	22.951
784.27	31.034
784.57	27.642
784.88	30.469
785.19	43.000
785.50	33.000
785.81	28.448
786.11	27.586
786.42	29.126
786.73	25.455
787.04	26.531
787.34	22.321
787.65	29.524
787.96	25.664
788.26	27.273
788.57	35.897
788.88	39.844
789.19	24.603
789.49	26.087
789.80	25.510
790.11	31.313
790.41	18.182
790.72	30.435
791.03	42.045
791.33	23.750
791.64	26.250
791.95	24.419
792.25	25.532
792.56	28.090
792.87	31.507
793.17	27.536
793.48	20.000
793.79	30.000
794.09	31.250
794.40	37.736
794.70	22.330
795.01	17.886
795.32	26.496
795.62	33.333
795.93	15.686
796.23	41.509
796.54	25.000
796.85	35.294
797.15	25.352
797.46	27.778
797.76	30.303
798.07	19.767
798.37	13.158
798.68	18.182
798.99	23.457
799.29	41.429
799.60	14.493
799.90	38.667
800.21	37.705
800.51	9.231
800.82	33.898
801.12	28.986
801.43	39.344
801.73	46.032
802.04	40.000
802.34	17.910
802.65	30.769
802.95	7.143
803.26	5.769
803.56	25.490
803.87	6.522
804.17	29.333
804.48	14.286
804.78	14.815
805.09	17.391
805.39	13.333
805.70	37.037
806.00	15.789
806.30	29.577
806.61	31.429
806.91	18.056
807.22	32.895
807.52	34.667
807.83	25.455
808.13	26.389
808.43	27.941
808.74	29.851
809.04	20.339
809.35	19.231
809.65	34.375
809.95	29.730
810.26	18.182
810.56	20.548
810.86	19.048
811.17	26.000
811.47	34.694
811.77	18.421
812.08	18.182
812.38	37.736
812.69	10.000
812.99	-3.030
813.29	5.263
813.59	-2.857
813.90	31.818
814.20	12.821
814.50	36.538
814.81	28.302
815.11	17.021
815.41	20.339
815.72	28.571
816.02	33.333
816.32	20.833
816.62	31.707
816.93	10.811
817.23	-11.429
817.53	39.583
817.84	26.087
818.14	32.692
818.44	5.263
818.74	45.652
819.04	25.000
819.35	29.730
819.65	5.882
819.95	11.111
820.25	21.429
820.56	50.000
820.86	-24.138
821.16	45.000
821.46	36.170
821.76	35.000
822.07	37.209
822.37	16.216
822.67	-9.375
822.97	35.714
823.27	-10.714
823.57	-16.000
823.88	-7.407
824.18	-17.857
824.48	20.588
824.78	38.710
825.08	26.087
825.38	60.606
825.69	-20.833
825.99	18.421
826.29	13.889
826.59	-53.333
826.89	-4.762
827.19	36.957
827.49	15.000
827.79	14.286
828.09	21.429
828.39	15.152
828.70	37.838
829.00	28.571
829.30	9.524
829.60	33.333
829.90	40.625
830.20	39.474
830.50	11.111
830.80	8.696
831.10	9.091
831.40	48.485
831.70	12.903
832.00	4.762
832.30	14.286
832.60	16.667
832.90	13.793
833.20	-25.000
833.50	54.545
833.80	25.926
834.10	3.846
834.40	0.000
834.70	100.000
835.00	10.526
835.30	57.692
835.60	46.667
835.90	19.355
836.20	0.000
836.50	50.000
836.80	-3.846
837.10	-3.571
837.40	-166.667
837.70	0.000
838.00	-81.818
838.30	30.435
838.60	30.769
838.90	90.909
839.19	7.143
839.49	40.000
839.79	7.692
840.09	-66.667
840.39	53.571
840.69	0.000
840.99	-46.154
841.29	-110.526
841.59	-80.000
841.88	-9.091
842.18	-60.000
842.48	12.500
842.78	53.333
843.08	18.519
843.38	-150.000
843.68	43.478
843.97	33.333
844.27	-33.333
844.57	15.000
844.87	-22.222
845.17	-23.810
845.47	26.667
845.76	-14.286
846.06	17.647
846.36	20.000
846.66	-28.571
846.96	20.000
847.25	37.500
847.55	57.143
847.85	-87.500
848.15	-22.727
848.44	-466.667
848.74	-15.000
849.04	37.037
849.34	36.364
849.63	-33.333
849.93	-260.000
850.23	5.556
850.53	20.000
850.82	-38.462
851.12	88.889
851.42	-26.667
851.71	30.769
852.01	-42.857
852.31	-225.000
852.61	-27.273
852.90	-15.000
853.20	47.368
853.50	-66.667
853.79	100.000
854.09	50.000
854.39	-10.526
854.68	16.667
854.98	41.935
855.28	23.077
855.57	5.000
855.87	22.222
856.17	62.963
856.46	7.143
856.76	-13.333
857.05	22.222
857.35	44.000
857.65	16.667
857.94	-46.154
858.24	20.690
858.53	33.333
858.83	25.926
859.13	13.636
859.42	-30.435
859.72	-225.000
860.01	-300.000
860.31	36.000
860.60	28.571
860.90	-266.667
861.20	-33.333
861.49	-200.000
861.79	26.667
862.08	5.000
862.38	80.000
862.67	-80.000
862.97	33.333
863.26	41.667
863.56	61.111
863.85	-200.000
864.15	-16.667
864.44	0.000
864.74	-7.143
865.03	100.000
865.33	100.000
865.62	-100.000
865.92	-8.333
866.21	-66.667
866.51	-43.750
866.80	18.182
867.10	-500.000
867.39	25.000
867.69	0.000
867.98	-23.077
868.27	-33.333
868.57	20.000
868.86	72.222
869.16	-46.154
869.45	20.000
869.75	-700.000
870.04	0.000
870.33	-85.714
870.63	14.286
870.92	233.333
871.22	-200.000
871.51	-600.000
871.80	77.778
872.10	400.000
>>>>>End Processed Spectral Data<<<<<
