SpectraSuite Data File
++++++++++++++++++++++++++++++++++++
Date: Fri May 15 21:12:49 PDT 2015
User: schluterlab
Dark Spectrum Present: Yes
Reference Spectrum Present: Yes
Number of Sampled Component Spectra: 1
Spectrometers: USB2E3373
Integration Time (usec): 3000 (USB2E3373)
Spectra Averaged: 3 (USB2E3373)
Boxcar Smoothing: 0 (USB2E3373)
Correct for Electrical Dark: No (USB2E3373)
Strobe/Lamp Enabled: No (USB2E3373)
Correct for Detector Non-linearity: No (USB2E3373)
Correct for Stray Light: No (USB2E3373)
Number of Pixels in Processed Spectrum: 2048
>>>>>Begin Processed Spectral Data<<<<<
178.53	0.000
178.91	0.000
179.29	75.000
179.67	-450.000
180.04	-57.143
180.42	50.000
180.80	-400.000
181.18	300.000
181.56	750.000
181.94	-250.000
182.31	-100.000
182.69	-20.000
183.07	0.000
183.45	-100.000
183.83	116.667
184.20	-36.364
184.58	100.000
184.96	225.000
185.34	33.333
185.72	-400.000
186.09	92.308
186.47	-300.000
186.85	100.000
187.23	100.000
187.61	-0.000
187.98	-566.667
188.36	11.111
188.74	-200.000
189.12	41.176
189.49	16.667
189.87	0.000
190.25	14.286
190.63	-350.000
191.00	-433.333
191.38	-15.789
191.76	350.000
192.14	-75.000
192.51	400.000
192.89	-144.444
193.27	14.286
193.65	133.333
194.02	172.727
194.40	70.000
194.78	-62.500
195.15	-66.667
195.53	-137.500
195.91	200.000
196.29	-175.000
196.66	130.769
197.04	157.143
197.42	-44.444
197.79	-533.333
198.17	-69.231
198.55	1300.000
198.92	-566.667
199.30	-800.000
199.68	-140.000
200.05	-266.667
200.43	0.000
200.81	-266.667
201.18	-300.000
201.56	700.000
201.94	-400.000
202.31	-0.000
202.69	-300.000
203.07	125.000
203.44	-200.000
203.82	0.000
204.19	-14.286
204.57	-466.667
204.95	112.500
205.32	50.000
205.70	-71.429
206.08	-225.000
206.45	155.556
206.83	85.714
207.20	-228.571
207.58	100.000
207.96	-266.667
208.33	-120.000
208.71	-425.000
209.08	-233.333
209.46	-1100.000
209.84	-20.000
210.21	-1700.000
210.59	-42.857
210.96	66.667
211.34	50.000
211.71	0.000
212.09	-114.286
212.46	-1800.000
212.84	0.000
213.22	-30.000
213.59	500.000
213.97	-15.385
214.34	81.818
214.72	-33.333
215.09	275.000
215.47	-53.846
215.84	-45.455
216.22	-100.000
216.59	-37.500
216.97	-50.000
217.34	-200.000
217.72	-320.000
218.09	-25.000
218.47	187.500
218.84	-900.000
219.22	-111.111
219.59	-80.000
219.97	166.667
220.34	475.000
220.72	-142.857
221.09	-250.000
221.47	-150.000
221.84	-450.000
222.22	-800.000
222.59	0.000
222.97	8.333
223.34	0.000
223.72	21.429
224.09	-14.286
224.46	28.571
224.84	600.000
225.21	-70.000
225.59	53.333
225.96	0.000
226.34	300.000
226.71	-114.286
227.08	-83.333
227.46	-25.000
227.83	-700.000
228.21	-111.111
228.58	-18.182
228.95	37.500
229.33	50.000
229.70	-6.250
230.08	-162.500
230.45	-14.286
230.82	-14.286
231.20	-80.000
231.57	-85.714
231.95	14.286
232.32	-110.000
232.69	-35.714
233.07	-333.333
233.44	-140.000
233.81	-160.000
234.19	-100.000
234.56	-35.294
234.93	550.000
235.31	-100.000
235.68	-360.000
236.05	-84.615
236.43	-60.000
236.80	-64.706
237.17	-15.625
237.55	-45.000
237.92	-44.444
238.29	-19.444
238.67	-40.000
239.04	-20.588
239.41	-26.829
239.79	-50.000
240.16	-4.878
240.53	-42.105
240.91	-23.913
241.28	-15.873
241.65	7.143
242.02	9.589
242.40	-8.333
242.77	-13.559
243.14	-13.636
243.51	-10.000
243.89	5.747
244.26	-8.046
244.63	-4.762
245.00	-1.031
245.38	-5.155
245.75	-5.618
246.12	-11.207
246.49	0.826
246.87	-3.846
247.24	-10.084
247.61	-15.789
247.98	-2.439
248.36	3.750
248.73	1.316
249.10	-8.442
249.47	-2.532
249.84	-12.418
250.22	2.353
250.59	3.268
250.96	6.573
251.33	-6.395
251.70	-9.412
252.08	-5.076
252.45	-2.970
252.82	-11.558
253.19	-0.461
253.56	-3.738
253.94	-2.703
254.31	3.043
254.68	-6.140
255.05	-5.512
255.42	1.747
255.79	0.386
256.16	-1.946
256.54	0.373
256.91	-1.521
257.28	-0.372
257.65	-2.996
258.02	-2.837
258.39	-1.010
258.76	0.366
259.14	-0.664
259.51	1.294
259.88	-0.344
260.25	0.000
260.62	-1.736
260.99	-4.407
261.36	-4.795
261.73	-3.797
262.10	0.304
262.47	-2.761
262.85	-0.627
263.22	-0.923
263.59	-4.050
263.96	0.932
264.33	-1.212
264.70	-2.083
265.07	-2.976
265.44	0.567
265.81	-1.977
266.18	-3.005
266.55	2.314
266.92	-1.295
267.29	-2.611
267.66	0.767
268.03	-2.356
268.40	-2.350
268.77	2.674
269.14	1.918
269.51	0.000
269.88	-1.496
270.25	-2.551
270.62	-2.439
270.99	-2.046
271.36	-3.423
271.73	1.174
272.10	-1.217
272.47	0.946
272.84	-0.743
273.21	2.784
273.58	-1.446
273.95	0.229
274.32	-2.309
274.69	-2.036
275.06	3.125
275.43	-0.227
275.80	-1.766
276.17	-1.609
276.54	0.857
276.91	0.219
277.28	0.218
277.65	2.893
278.02	-0.213
278.39	-1.969
278.76	-0.839
279.13	0.207
279.50	-2.311
279.87	1.080
280.23	-1.075
280.60	0.975
280.97	1.212
281.34	0.192
281.71	0.205
282.08	-0.613
282.45	-2.153
282.82	1.158
283.19	-1.354
283.56	0.193
283.92	-1.708
284.29	-3.077
284.66	-2.907
285.03	0.393
285.40	0.567
285.77	-1.054
286.14	0.181
286.51	0.554
286.87	0.548
287.24	-1.105
287.61	-2.293
287.98	1.404
288.35	-0.867
288.72	-0.350
289.08	-0.868
289.45	-1.054
289.82	1.049
290.19	-0.512
290.56	-1.887
290.93	-1.178
291.29	-0.924
291.66	0.787
292.03	-0.478
292.40	-0.323
292.77	-0.159
293.13	-3.084
293.50	-1.517
293.87	-0.458
294.24	-1.236
294.60	0.298
294.97	-1.488
295.34	-1.840
295.71	0.000
296.08	0.149
296.44	-1.707
296.81	-0.694
297.18	-0.435
297.55	1.084
297.91	-0.274
298.28	1.319
298.65	0.271
299.02	-0.809
299.38	-1.505
299.75	-0.414
300.12	-1.832
300.48	-1.054
300.85	0.000
301.22	0.000
301.59	-0.526
301.95	0.759
302.32	0.778
302.69	-0.124
303.05	0.495
303.42	0.125
303.79	-0.117
304.15	0.717
304.52	-1.427
304.89	-1.170
305.25	-0.726
305.62	-1.050
305.99	0.351
306.35	-0.462
306.72	-0.900
307.09	0.342
307.45	-0.344
307.82	-0.579
308.19	1.045
308.55	-0.981
308.92	0.763
309.29	-0.670
309.65	-0.323
310.02	1.100
310.38	0.878
310.75	-0.656
311.12	-1.292
311.48	0.848
311.85	-0.209
312.22	-1.266
312.58	0.849
312.95	-0.107
313.31	-0.932
313.68	0.733
314.05	0.918
314.41	0.825
314.78	-0.412
315.14	1.131
315.51	1.863
315.87	0.615
316.24	1.921
316.61	1.673
316.97	1.687
317.34	1.855
317.70	1.721
318.07	1.538
318.43	1.863
318.80	2.462
319.16	2.246
319.53	3.704
319.89	3.937
320.26	4.757
320.62	3.811
320.99	3.027
321.35	5.036
321.72	5.088
322.08	5.337
322.45	4.772
322.81	4.715
323.18	6.183
323.54	5.502
323.91	6.232
324.27	6.543
324.64	7.397
325.00	7.026
325.37	8.999
325.73	8.160
326.10	8.810
326.46	10.045
326.83	9.624
327.19	9.503
327.56	10.339
327.92	11.004
328.29	10.536
328.65	10.000
329.01	10.937
329.38	11.797
329.74	11.520
330.11	12.048
330.47	10.761
330.84	11.442
331.20	13.973
331.56	12.407
331.93	12.420
332.29	12.374
332.66	14.389
333.02	13.569
333.38	13.107
333.75	14.286
334.11	14.414
334.48	13.690
334.84	14.011
335.20	13.998
335.57	13.781
335.93	13.821
336.29	14.641
336.66	14.260
337.02	12.732
337.38	13.241
337.75	13.545
338.11	13.796
338.47	13.686
338.84	14.880
339.20	14.077
339.56	14.587
339.93	15.219
340.29	15.596
340.65	15.771
341.02	14.007
341.38	14.956
341.74	14.134
342.11	13.865
342.47	14.502
342.83	14.446
343.20	14.111
343.56	14.522
343.92	14.615
344.28	16.567
344.65	13.644
345.01	14.520
345.37	15.391
345.73	15.565
346.10	15.444
346.46	14.971
346.82	15.466
347.19	14.131
347.55	15.205
347.91	16.909
348.27	15.279
348.63	15.503
349.00	15.012
349.36	13.799
349.72	16.252
350.08	15.984
350.45	15.243
350.81	15.615
351.17	15.472
351.53	16.571
351.89	15.442
352.26	15.600
352.62	15.403
352.98	14.297
353.34	14.090
353.70	15.858
354.07	15.323
354.43	16.093
354.79	14.946
355.15	16.270
355.51	15.823
355.87	16.586
356.24	16.395
356.60	15.441
356.96	16.270
357.32	16.454
357.68	15.168
358.04	15.590
358.40	15.916
358.77	16.427
359.13	16.093
359.49	16.102
359.85	16.147
360.21	16.507
360.57	15.761
360.93	16.566
361.29	15.710
361.66	17.476
362.02	15.758
362.38	16.603
362.74	15.746
363.10	16.780
363.46	16.679
363.82	17.656
364.18	16.162
364.54	16.544
364.90	16.989
365.26	16.376
365.62	17.956
365.98	17.522
366.35	17.407
366.71	17.812
367.07	17.634
367.43	17.182
367.79	17.385
368.15	17.947
368.51	18.135
368.87	17.732
369.23	17.906
369.59	17.347
369.95	18.255
370.31	17.486
370.67	17.463
371.03	17.177
371.39	18.089
371.75	17.802
372.11	18.616
372.47	18.861
372.83	19.375
373.19	19.258
373.55	17.617
373.91	17.423
374.27	19.348
374.63	19.670
374.99	19.220
375.35	18.872
375.71	19.860
376.07	19.101
376.42	19.252
376.78	19.597
377.14	19.296
377.50	18.924
377.86	20.549
378.22	19.400
378.58	19.872
378.94	20.353
379.30	20.274
379.66	20.815
380.02	19.681
380.38	19.416
380.74	19.031
381.09	21.350
381.45	20.000
381.81	20.481
382.17	20.812
382.53	20.862
382.89	20.716
383.25	21.469
383.61	21.098
383.97	20.190
384.32	21.138
384.68	20.743
385.04	20.221
385.40	19.975
385.76	21.635
386.12	21.539
386.48	21.711
386.83	21.306
387.19	21.734
387.55	22.522
387.91	21.944
388.27	20.879
388.62	21.963
388.98	22.038
389.34	22.236
389.70	22.996
390.06	22.593
390.42	22.474
390.77	22.629
391.13	22.951
391.49	23.027
391.85	22.482
392.20	22.724
392.56	22.505
392.92	22.901
393.28	23.054
393.64	22.342
393.99	23.699
394.35	23.593
394.71	23.436
395.07	22.816
395.42	22.465
395.78	23.062
396.14	22.573
396.50	22.384
396.85	23.245
397.21	23.308
397.57	22.947
397.92	23.847
398.28	23.736
398.64	23.012
399.00	24.266
399.35	23.533
399.71	24.124
400.07	24.063
400.42	24.357
400.78	24.189
401.14	23.291
401.49	23.883
401.85	23.461
402.21	23.976
402.57	23.937
402.92	23.588
403.28	24.123
403.63	23.770
403.99	23.980
404.35	24.922
404.70	23.810
405.06	23.678
405.42	23.990
405.77	23.707
406.13	23.923
406.49	24.038
406.84	24.633
407.20	23.961
407.55	23.310
407.91	24.465
408.27	24.410
408.62	24.431
408.98	24.276
409.34	24.721
409.69	23.773
410.05	24.076
410.40	23.951
410.76	24.970
411.11	24.437
411.47	24.129
411.83	23.729
412.18	23.938
412.54	24.157
412.89	23.892
413.25	24.368
413.60	23.913
413.96	24.601
414.31	24.634
414.67	24.246
415.03	25.033
415.38	23.695
415.74	24.104
416.09	24.755
416.45	24.578
416.80	24.653
417.16	25.622
417.51	24.783
417.87	24.250
418.22	24.288
418.58	24.950
418.93	25.705
419.29	23.816
419.64	23.979
420.00	25.252
420.35	24.060
420.71	24.423
421.06	24.371
421.42	24.760
421.77	24.855
422.12	23.950
422.48	24.147
422.83	24.130
423.19	23.928
423.54	24.280
423.90	25.088
424.25	24.684
424.61	25.765
424.96	24.332
425.31	25.708
425.67	24.178
426.02	24.912
426.38	24.233
426.73	25.182
427.09	24.810
427.44	24.529
427.79	24.750
428.15	24.090
428.50	24.228
428.85	24.079
429.21	23.995
429.56	24.906
429.92	24.602
430.27	24.160
430.62	25.457
430.98	24.416
431.33	25.342
431.68	24.176
432.04	24.539
432.39	23.959
432.74	24.293
433.10	25.057
433.45	24.492
433.80	24.608
434.16	23.435
434.51	24.355
434.86	24.855
435.22	24.397
435.57	25.328
435.92	24.731
436.28	23.554
436.63	24.529
436.98	23.407
437.34	24.380
437.69	25.104
438.04	23.875
438.39	24.557
438.75	23.740
439.10	24.448
439.45	24.528
439.81	24.037
440.16	24.525
440.51	25.254
440.86	25.378
441.22	24.661
441.57	25.221
441.92	24.764
442.27	25.222
442.63	25.428
442.98	24.928
443.33	24.096
443.68	24.191
444.03	25.087
444.39	24.447
444.74	25.195
445.09	24.944
445.44	23.818
445.79	25.477
446.15	24.229
446.50	23.405
446.85	25.027
447.20	24.713
447.55	25.558
447.91	24.083
448.26	24.417
448.61	24.180
448.96	25.186
449.31	23.642
449.66	24.274
450.02	23.845
450.37	25.193
450.72	24.112
451.07	23.861
451.42	23.783
451.77	24.834
452.12	24.761
452.47	23.567
452.83	23.557
453.18	23.656
453.53	22.566
453.88	23.558
454.23	24.770
454.58	24.118
454.93	24.549
455.28	23.683
455.63	24.861
455.98	23.873
456.34	24.457
456.69	24.651
457.04	24.386
457.39	24.119
457.74	23.216
458.09	22.896
458.44	23.874
458.79	23.417
459.14	24.428
459.49	24.537
459.84	24.309
460.19	22.876
460.54	24.083
460.89	23.466
461.24	24.286
461.59	24.525
461.94	23.270
462.29	23.402
462.64	23.522
462.99	23.494
463.34	23.018
463.69	23.745
464.04	23.245
464.39	23.954
464.74	21.779
465.09	23.269
465.44	22.735
465.79	22.619
466.14	23.318
466.49	22.772
466.84	23.498
467.19	23.091
467.54	23.116
467.89	22.805
468.24	22.689
468.59	24.000
468.94	22.857
469.29	23.607
469.64	21.941
469.99	22.845
470.34	22.389
470.68	24.385
471.03	23.142
471.38	22.611
471.73	23.319
472.08	23.270
472.43	22.282
472.78	22.070
473.13	23.061
473.48	22.606
473.83	21.918
474.17	22.668
474.52	22.208
474.87	22.606
475.22	21.843
475.57	21.796
475.92	21.668
476.27	22.643
476.61	22.338
476.96	21.026
477.31	22.120
477.66	22.079
478.01	21.954
478.36	21.460
478.70	23.002
479.05	22.308
479.40	21.834
479.75	22.002
480.10	21.557
480.45	21.550
480.79	21.903
481.14	21.670
481.49	21.281
481.84	22.249
482.19	21.422
482.53	21.966
482.88	21.671
483.23	22.313
483.58	21.226
483.92	21.007
484.27	20.875
484.62	21.022
484.97	20.978
485.31	20.267
485.66	20.339
486.01	21.273
486.36	21.132
486.70	20.919
487.05	20.996
487.40	20.476
487.75	20.592
488.09	19.870
488.44	20.461
488.79	20.359
489.13	20.433
489.48	20.650
489.83	20.135
490.17	20.674
490.52	20.000
490.87	20.453
491.22	20.487
491.56	20.304
491.91	20.124
492.26	20.321
492.60	19.914
492.95	20.905
493.30	19.638
493.64	19.941
493.99	20.097
494.34	19.515
494.68	20.048
495.03	19.173
495.37	19.529
495.72	20.091
496.07	20.488
496.41	19.528
496.76	19.116
497.11	18.817
497.45	20.048
497.80	19.526
498.14	19.126
498.49	18.740
498.84	19.611
499.18	20.181
499.53	19.891
499.87	18.531
500.22	18.348
500.56	19.163
500.91	19.177
501.26	19.229
501.60	19.380
501.95	18.923
502.29	18.789
502.64	18.919
502.98	18.599
503.33	18.732
503.67	18.843
504.02	19.501
504.36	19.149
504.71	17.828
505.06	18.671
505.40	18.629
505.75	18.505
506.09	17.892
506.44	19.251
506.78	19.133
507.13	18.976
507.47	17.911
507.82	18.323
508.16	18.700
508.51	18.206
508.85	18.472
509.19	18.308
509.54	18.391
509.88	18.015
510.23	19.096
510.57	18.974
510.92	17.591
511.26	18.767
511.61	19.087
511.95	17.808
512.30	18.404
512.64	18.531
512.98	18.417
513.33	18.691
513.67	18.192
514.02	18.364
514.36	18.686
514.70	19.814
515.05	18.508
515.39	18.182
515.74	18.802
516.08	17.513
516.42	18.610
516.77	18.724
517.11	17.626
517.46	18.372
517.80	18.057
518.14	17.881
518.49	17.248
518.83	17.315
519.17	17.465
519.52	17.644
519.86	17.287
520.20	16.768
520.55	16.698
520.89	18.193
521.23	16.783
521.58	17.729
521.92	17.436
522.26	17.697
522.61	17.078
522.95	18.212
523.29	18.234
523.64	17.916
523.98	16.915
524.32	16.946
524.66	17.478
525.01	17.338
525.35	17.174
525.69	16.633
526.04	16.402
526.38	18.353
526.72	15.893
527.06	15.629
527.41	17.942
527.75	16.823
528.09	17.475
528.43	17.353
528.78	15.710
529.12	16.194
529.46	16.634
529.80	16.973
530.15	16.832
530.49	16.094
530.83	17.237
531.17	16.051
531.51	18.057
531.86	16.179
532.20	15.588
532.54	16.678
532.88	17.180
533.22	16.398
533.57	16.972
533.91	15.274
534.25	17.122
534.59	15.651
534.93	16.992
535.27	16.053
535.62	15.684
535.96	16.177
536.30	16.095
536.64	16.127
536.98	16.237
537.32	16.999
537.66	17.812
538.01	15.944
538.35	15.603
538.69	15.646
539.03	15.174
539.37	16.958
539.71	15.610
540.05	15.479
540.39	15.305
540.73	16.109
541.07	15.884
541.42	17.003
541.76	15.760
542.10	16.036
542.44	15.219
542.78	14.315
543.12	14.698
543.46	15.855
543.80	14.712
544.14	15.287
544.48	15.323
544.82	14.627
545.16	15.574
545.50	16.155
545.84	15.297
546.18	14.610
546.52	15.068
546.86	14.809
547.20	14.878
547.54	14.558
547.88	15.014
548.22	15.056
548.56	15.303
548.90	14.757
549.24	15.496
549.58	14.034
549.92	13.009
550.26	14.725
550.60	14.424
550.94	15.161
551.28	14.915
551.62	16.000
551.96	13.985
552.30	13.889
552.64	13.399
552.98	14.768
553.32	14.479
553.66	13.425
554.00	14.891
554.34	15.214
554.68	13.274
555.02	14.658
555.36	14.136
555.69	13.846
556.03	13.919
556.37	13.808
556.71	13.935
557.05	14.318
557.39	14.275
557.73	14.168
558.07	15.008
558.41	14.548
558.75	13.796
559.08	13.002
559.42	12.937
559.76	13.531
560.10	13.685
560.44	13.701
560.78	13.916
561.12	13.681
561.45	13.914
561.79	13.725
562.13	13.698
562.47	12.662
562.81	13.473
563.15	13.540
563.48	14.215
563.82	14.001
564.16	12.883
564.50	13.108
564.84	13.521
565.17	13.749
565.51	13.866
565.85	13.786
566.19	12.467
566.52	13.338
566.86	14.267
567.20	13.761
567.54	13.017
567.88	13.181
568.21	13.235
568.55	13.098
568.89	13.706
569.23	13.000
569.56	13.004
569.90	13.601
570.24	13.026
570.57	12.873
570.91	13.628
571.25	12.825
571.59	12.800
571.92	12.444
572.26	12.953
572.60	13.178
572.93	13.273
573.27	12.602
573.61	12.530
573.95	12.643
574.28	12.659
574.62	12.484
574.96	12.715
575.29	12.342
575.63	12.387
575.97	12.226
576.30	12.623
576.64	12.159
576.98	12.484
577.31	12.681
577.65	12.683
577.98	12.511
578.32	12.596
578.66	12.293
578.99	11.909
579.33	11.991
579.67	12.112
580.00	12.304
580.34	12.040
580.67	11.795
581.01	11.720
581.35	11.951
581.68	12.320
582.02	12.149
582.35	12.015
582.69	12.174
583.02	11.899
583.36	11.900
583.70	11.968
584.03	11.982
584.37	12.592
584.70	12.143
585.04	11.762
585.37	11.941
585.71	11.923
586.04	11.851
586.38	11.683
586.72	12.195
587.05	12.103
587.39	11.881
587.72	12.138
588.06	12.344
588.39	11.649
588.73	12.057
589.06	12.003
589.40	11.718
589.73	11.939
590.07	12.236
590.40	12.229
590.73	12.109
591.07	11.281
591.40	11.532
591.74	11.900
592.07	12.106
592.41	12.014
592.74	11.310
593.08	11.701
593.41	11.862
593.75	11.547
594.08	11.466
594.41	11.608
594.75	11.679
595.08	11.351
595.42	11.741
595.75	11.603
596.09	11.454
596.42	11.451
596.75	11.679
597.09	10.888
597.42	11.518
597.75	11.635
598.09	10.593
598.42	10.966
598.76	11.111
599.09	11.538
599.42	11.861
599.76	11.324
600.09	11.312
600.42	11.600
600.76	10.736
601.09	10.229
601.42	10.732
601.76	11.036
602.09	10.850
602.42	11.457
602.76	11.163
603.09	10.922
603.42	11.120
603.76	10.968
604.09	11.179
604.42	11.083
604.76	11.838
605.09	11.060
605.42	10.926
605.75	10.902
606.09	10.870
606.42	10.634
606.75	10.823
607.09	11.077
607.42	10.368
607.75	10.346
608.08	10.198
608.42	10.781
608.75	11.181
609.08	11.061
609.41	10.914
609.75	10.786
610.08	10.834
610.41	10.531
610.74	11.117
611.07	9.819
611.41	10.638
611.74	10.821
612.07	11.028
612.40	10.832
612.73	10.395
613.07	10.292
613.40	11.597
613.73	10.241
614.06	11.018
614.39	10.942
614.72	11.036
615.06	10.838
615.39	10.590
615.72	10.764
616.05	10.670
616.38	10.370
616.71	10.092
617.05	10.500
617.38	10.057
617.71	10.377
618.04	11.048
618.37	10.845
618.70	11.287
619.03	11.736
619.36	9.696
619.69	11.372
620.03	10.884
620.36	11.660
620.69	10.350
621.02	10.627
621.35	9.710
621.68	10.629
622.01	10.333
622.34	10.854
622.67	10.647
623.00	10.720
623.33	10.899
623.66	9.274
623.99	9.985
624.32	10.798
624.65	10.000
624.99	10.384
625.32	9.704
625.65	10.762
625.98	9.428
626.31	9.144
626.64	9.532
626.97	10.035
627.30	9.720
627.63	9.792
627.96	11.231
628.29	10.083
628.62	11.308
628.95	10.321
629.28	9.375
629.61	9.671
629.94	9.873
630.26	10.573
630.59	11.238
630.92	10.256
631.25	10.051
631.58	10.463
631.91	9.868
632.24	9.404
632.57	10.568
632.90	9.015
633.23	10.235
633.56	10.202
633.89	10.234
634.22	8.889
634.55	9.022
634.88	8.429
635.20	8.333
635.53	10.533
635.86	8.713
636.19	9.444
636.52	10.587
636.85	9.057
637.18	9.560
637.51	10.189
637.83	8.279
638.16	10.914
638.49	9.128
638.82	10.789
639.15	8.684
639.48	10.041
639.81	8.508
640.13	8.225
640.46	10.204
640.79	8.395
641.12	7.238
641.45	9.760
641.77	10.963
642.10	12.006
642.43	8.521
642.76	8.416
643.09	10.178
643.41	9.547
643.74	9.720
644.07	10.673
644.40	11.824
644.73	8.406
645.05	9.228
645.38	9.347
645.71	7.270
646.04	9.515
646.36	9.397
646.69	11.151
647.02	9.830
647.35	8.955
647.67	10.238
648.00	8.955
648.33	10.580
648.66	9.322
648.98	6.365
649.31	6.446
649.64	8.791
649.96	9.724
650.29	8.518
650.62	9.915
650.94	7.037
651.27	8.194
651.60	10.090
651.92	10.140
652.25	8.526
652.58	9.333
652.90	10.806
653.23	8.908
653.56	7.783
653.88	8.763
654.21	7.356
654.54	8.998
654.86	8.319
655.19	6.871
655.52	10.062
655.84	9.854
656.17	10.270
656.49	14.069
656.82	14.250
657.15	10.718
657.47	7.870
657.80	5.734
658.13	5.640
658.45	8.295
658.78	8.639
659.10	7.884
659.43	7.848
659.75	8.337
660.08	7.793
660.41	7.763
660.73	8.425
661.06	8.839
661.38	8.611
661.71	7.392
662.03	10.515
662.36	8.571
662.68	8.407
663.01	10.044
663.33	6.032
663.66	7.674
663.98	7.907
664.31	8.529
664.63	7.143
664.96	7.391
665.28	6.402
665.61	8.009
665.93	8.043
666.26	8.677
666.58	4.922
666.91	4.235
667.23	10.377
667.56	9.005
667.88	8.153
668.21	6.683
668.53	8.274
668.86	9.906
669.18	6.132
669.50	6.295
669.83	6.744
670.15	6.993
670.48	7.656
670.80	9.447
671.13	8.949
671.45	5.023
671.77	10.730
672.10	8.119
672.42	8.801
672.75	11.190
673.07	7.871
673.39	11.927
673.72	8.679
674.04	5.417
674.37	9.110
674.69	7.066
675.01	10.222
675.34	6.982
675.66	9.491
675.98	8.869
676.31	9.862
676.63	5.701
676.95	5.909
677.28	10.353
677.60	8.675
677.92	6.193
678.25	7.877
678.57	6.710
678.89	5.252
679.22	9.396
679.54	10.442
679.86	4.970
680.18	7.379
680.51	8.144
680.83	5.765
681.15	7.800
681.48	10.451
681.80	10.124
682.12	7.863
682.44	7.113
682.77	6.402
683.09	8.696
683.41	5.909
683.73	7.834
684.06	6.637
684.38	6.022
684.70	6.536
685.02	7.261
685.34	4.348
685.67	8.255
685.99	9.946
686.31	7.611
686.63	6.494
686.96	4.373
687.28	5.253
687.60	6.274
687.92	9.899
688.24	8.468
688.56	7.205
688.89	6.250
689.21	9.556
689.53	7.193
689.85	7.907
690.17	9.375
690.49	7.092
690.82	7.039
691.14	6.667
691.46	8.411
691.78	5.631
692.10	7.097
692.42	6.061
692.74	7.265
693.06	8.559
693.39	6.787
693.71	7.919
694.03	4.388
694.35	7.710
694.67	7.576
694.99	6.266
695.31	8.355
695.63	6.750
695.95	4.798
696.27	5.440
696.59	8.056
696.91	5.322
697.23	5.398
697.56	8.168
697.88	7.742
698.20	6.378
698.52	5.412
698.84	4.545
699.16	5.250
699.48	8.271
699.80	9.429
700.12	6.469
700.44	8.123
700.76	6.395
701.08	3.939
701.40	6.928
701.72	7.716
702.04	4.950
702.36	6.355
702.68	7.808
703.00	3.636
703.32	5.279
703.64	5.367
703.96	6.667
704.28	6.135
704.60	8.254
704.91	5.678
705.23	5.316
705.55	11.307
705.87	4.332
706.19	3.704
706.51	11.340
706.83	8.039
707.15	0.000
707.47	5.042
707.79	7.292
708.11	9.000
708.43	6.000
708.74	7.494
709.06	10.141
709.38	5.505
709.70	6.509
710.02	7.325
710.34	11.765
710.66	4.487
710.98	3.311
711.29	6.885
711.61	6.102
711.93	7.492
712.25	8.935
712.57	9.158
712.89	4.478
713.20	10.381
713.52	7.666
713.84	8.191
714.16	4.467
714.48	3.548
714.80	9.615
715.11	10.638
715.43	6.583
715.75	2.333
716.07	7.641
716.39	5.369
716.70	2.952
717.02	6.107
717.34	4.049
717.66	3.097
717.97	6.957
718.29	10.042
718.61	3.937
718.93	3.488
719.24	7.985
719.56	4.418
719.88	4.811
720.20	5.303
720.51	1.149
720.83	5.019
721.15	4.622
721.46	3.629
721.78	0.000
722.10	3.717
722.42	-0.830
722.73	4.490
723.05	5.714
723.37	8.475
723.68	10.360
724.00	5.128
724.32	1.333
724.63	4.545
724.95	7.424
725.27	5.069
725.58	5.508
725.90	3.968
726.22	7.722
726.53	9.153
726.85	4.869
727.16	7.547
727.48	2.429
727.80	5.668
728.11	2.966
728.43	3.137
728.74	2.419
729.06	10.400
729.38	7.519
729.69	1.195
730.01	3.462
730.32	5.224
730.64	7.067
730.96	6.415
731.27	3.000
731.59	7.458
731.90	8.917
732.22	8.202
732.53	8.970
732.85	4.610
733.16	10.438
733.48	5.036
733.80	8.696
734.11	5.763
734.43	7.560
734.74	7.576
735.06	1.629
735.37	10.574
735.69	8.754
736.00	2.091
736.32	2.013
736.63	7.042
736.95	6.143
737.26	1.423
737.58	8.725
737.89	4.396
738.21	7.895
738.52	4.938
738.83	3.057
739.15	2.620
739.46	6.693
739.78	2.198
740.09	5.882
740.41	5.435
740.72	5.118
741.04	10.121
741.35	5.106
741.66	2.370
741.98	4.082
742.29	5.941
742.61	2.094
742.92	-1.422
743.23	0.000
743.55	4.525
743.86	0.478
744.18	4.306
744.49	-0.532
744.80	1.087
745.12	11.230
745.43	4.878
745.74	8.854
746.06	6.829
746.37	5.236
746.68	8.057
747.00	9.043
747.31	5.970
747.62	4.369
747.94	4.306
748.25	-2.475
748.56	-1.639
748.88	0.524
749.19	4.255
749.50	3.941
749.82	-3.774
750.13	-1.835
750.44	10.902
750.75	9.328
751.07	8.394
751.38	5.364
751.69	1.569
752.01	10.853
752.32	3.586
752.63	3.162
752.94	0.862
753.26	8.368
753.57	1.357
753.88	1.770
754.19	-0.833
754.51	2.893
754.82	5.668
755.13	6.250
755.44	4.839
755.75	5.078
756.07	3.891
756.38	-0.755
756.69	2.682
757.00	7.667
757.31	5.229
757.63	8.232
757.94	6.667
758.25	5.479
758.56	5.585
758.87	5.382
759.18	5.296
759.50	5.455
759.81	2.007
760.12	5.484
760.43	3.939
760.74	4.938
761.05	5.538
761.36	5.682
761.67	10.909
761.99	5.102
762.30	3.636
762.61	5.138
762.92	4.977
763.23	4.505
763.54	0.000
763.85	8.475
764.16	7.054
764.47	6.048
764.78	5.128
765.10	7.744
765.41	9.148
765.72	5.079
766.03	-1.880
766.34	8.029
766.65	8.367
766.96	4.545
767.27	6.915
767.58	3.448
767.89	1.418
768.20	4.545
768.51	-1.648
768.82	2.956
769.13	2.304
769.44	7.296
769.75	1.370
770.06	4.741
770.37	2.885
770.68	7.614
770.99	8.597
771.30	1.961
771.61	0.452
771.92	9.483
772.23	11.330
772.54	3.226
772.85	4.321
773.16	9.551
773.47	7.190
773.78	8.497
774.09	2.994
774.39	2.667
774.70	7.006
775.01	8.276
775.32	1.429
775.63	-11.570
775.94	3.817
776.25	0.787
776.56	3.333
776.87	-3.846
777.18	-1.709
777.48	6.034
777.79	-1.739
778.10	-16.190
778.41	-6.306
778.72	7.143
779.03	0.752
779.34	10.638
779.65	8.219
779.95	0.000
780.26	6.897
780.57	-6.504
780.88	1.575
781.19	0.000
781.50	4.651
781.80	7.692
782.11	0.629
782.42	-6.154
782.73	1.439
783.04	-2.222
783.34	-2.083
783.65	-12.821
783.96	-2.459
784.27	10.345
784.57	4.065
784.88	2.344
785.19	7.000
785.50	2.000
785.81	2.586
786.11	-5.172
786.42	-1.942
786.73	6.364
787.04	-6.122
787.34	3.571
787.65	-9.524
787.96	-5.310
788.26	10.000
788.57	10.256
788.88	9.375
789.19	3.968
789.49	-3.478
789.80	-2.041
790.11	4.040
790.41	-0.909
790.72	2.174
791.03	-5.682
791.33	23.750
791.64	-3.750
791.95	3.488
792.25	4.255
792.56	0.000
792.87	0.000
793.17	-10.145
793.48	0.000
793.79	-18.750
794.09	6.250
794.40	9.434
794.70	-8.738
795.01	-6.504
795.32	-6.838
795.62	-10.476
795.93	0.000
796.23	5.660
796.54	4.167
796.85	-2.941
797.15	-4.225
797.46	1.389
797.76	9.091
798.07	-3.488
798.37	-6.579
798.68	-9.091
798.99	3.704
799.29	1.429
799.60	-4.348
799.90	-1.333
800.21	-6.557
800.51	0.000
800.82	-1.695
801.12	0.000
801.43	19.672
801.73	-11.111
802.04	-22.000
802.34	2.985
802.65	-7.692
802.95	-16.071
803.26	-13.462
803.56	1.961
803.87	-19.565
804.17	-2.667
804.48	0.000
804.78	22.222
805.09	0.000
805.39	-28.889
805.70	-3.704
806.00	-19.298
806.30	8.451
806.61	11.429
806.91	-8.333
807.22	7.895
807.52	2.667
807.83	-16.364
808.13	0.000
808.43	13.235
808.74	-1.493
809.04	5.085
809.35	-23.077
809.65	-1.562
809.95	-29.730
810.26	-9.091
810.56	4.110
810.86	-2.381
811.17	-8.000
811.47	4.082
811.77	-31.579
812.08	-13.636
812.38	1.887
812.69	-35.000
812.99	-18.182
813.29	-26.316
813.59	-57.143
813.90	-27.273
814.20	-46.154
814.50	-21.154
814.81	7.547
815.11	-17.021
815.41	1.695
815.72	-30.952
816.02	0.000
816.32	0.000
816.62	-4.878
816.93	-27.027
817.23	-11.429
817.53	4.167
817.84	-4.348
818.14	-9.615
818.44	-34.211
818.74	-4.348
819.04	-17.500
819.35	-16.216
819.65	-5.882
819.95	-44.444
820.25	-7.143
820.56	10.000
820.86	-31.034
821.16	17.500
821.46	10.638
821.76	-17.500
822.07	-11.628
822.37	-51.351
822.67	-34.375
822.97	7.143
823.27	-10.714
823.57	-48.000
823.88	-37.037
824.18	0.000
824.48	8.824
824.78	-41.935
825.08	-34.783
825.38	6.061
825.69	-37.500
825.99	5.263
826.29	-33.333
826.59	-86.667
826.89	-38.095
827.19	-23.913
827.49	-12.500
827.79	5.714
828.09	21.429
828.39	9.091
828.70	21.622
829.00	-17.857
829.30	-66.667
829.60	16.667
829.90	-9.375
830.20	-23.684
830.50	-25.926
830.80	-43.478
831.10	-36.364
831.40	27.273
831.70	25.806
832.00	-28.571
832.30	-38.095
832.60	-100.000
832.90	-10.345
833.20	-75.000
833.50	-15.152
833.80	11.111
834.10	-30.769
834.40	0.000
834.70	-33.333
835.00	-10.526
835.30	11.538
835.60	53.333
835.90	-22.581
836.20	-22.727
836.50	32.143
836.80	-76.923
837.10	-3.571
837.40	-200.000
837.70	-18.182
838.00	-54.545
838.30	-8.696
838.60	-61.538
838.90	-68.182
839.19	-39.286
839.49	3.333
839.79	-30.769
840.09	-133.333
840.39	-14.286
840.69	-21.429
840.99	7.692
841.29	-52.632
841.59	-140.000
841.88	-81.818
842.18	-40.000
842.48	-62.500
842.78	-40.000
843.08	0.000
843.38	-230.000
843.68	-34.783
843.97	-20.000
844.27	-93.333
844.57	0.000
844.87	-33.333
845.17	-23.810
845.47	-26.667
845.76	-14.286
846.06	5.882
846.36	-110.000
846.66	-92.857
846.96	-33.333
847.25	-112.500
847.55	28.571
847.85	-137.500
848.15	-27.273
848.44	-400.000
848.74	-5.000
849.04	7.407
849.34	-72.727
849.63	-133.333
849.93	-180.000
850.23	-61.111
850.53	-30.000
850.82	-107.692
851.12	-133.333
851.42	33.333
851.71	-42.308
852.01	28.571
852.31	-75.000
852.61	0.000
852.90	-40.000
853.20	-10.526
853.50	-50.000
853.79	-34.783
854.09	41.667
854.39	-21.053
854.68	-62.500
854.98	22.581
855.28	34.615
855.57	-40.000
855.87	-27.778
856.17	18.519
856.46	-14.286
856.76	-46.667
857.05	11.111
857.35	-32.000
857.65	-38.889
857.94	-84.615
858.24	-3.448
858.53	27.778
858.83	-7.407
859.13	-22.727
859.42	-21.739
859.72	-300.000
860.01	-633.333
860.31	20.000
860.60	14.286
860.90	-300.000
861.20	-33.333
861.49	-1150.000
861.79	-46.667
862.08	-40.000
862.38	-13.333
862.67	-220.000
862.97	-100.000
863.26	-25.000
863.56	5.556
863.85	-633.333
864.15	-16.667
864.44	-80.000
864.74	14.286
865.03	450.000
865.33	-320.000
865.62	-83.333
865.92	-58.333
866.21	-233.333
866.51	-6.250
866.80	-118.182
867.10	-750.000
867.39	33.333
867.69	0.000
867.98	15.385
868.27	-100.000
868.57	-13.333
868.86	-72.222
869.16	-53.846
869.45	-26.667
869.75	-1100.000
870.04	0.000
870.33	-300.000
870.63	23.810
870.92	500.000
871.22	-120.000
871.51	-1300.000
871.80	-22.222
872.10	333.333
>>>>>End Processed Spectral Data<<<<<
