SpectraSuite Data File
++++++++++++++++++++++++++++++++++++
Date: Fri May 15 21:06:16 PDT 2015
User: schluterlab
Dark Spectrum Present: Yes
Reference Spectrum Present: Yes
Number of Sampled Component Spectra: 1
Spectrometers: USB2E3373
Integration Time (usec): 3000 (USB2E3373)
Spectra Averaged: 3 (USB2E3373)
Boxcar Smoothing: 0 (USB2E3373)
Correct for Electrical Dark: No (USB2E3373)
Strobe/Lamp Enabled: No (USB2E3373)
Correct for Detector Non-linearity: No (USB2E3373)
Correct for Stray Light: No (USB2E3373)
Number of Pixels in Processed Spectrum: 2048
>>>>>Begin Processed Spectral Data<<<<<
178.53	0.000
178.91	0.000
179.29	-62.500
179.67	-650.000
180.04	42.857
180.42	-125.000
180.80	-700.000
181.18	166.667
181.56	750.000
181.94	0.000
182.31	300.000
182.69	-180.000
183.07	-366.667
183.45	-60.000
183.83	133.333
184.20	0.000
184.58	111.111
184.96	100.000
185.34	-133.333
185.72	-250.000
186.09	76.923
186.47	-900.000
186.85	250.000
187.23	133.333
187.61	-500.000
187.98	-200.000
188.36	0.000
188.74	-233.333
189.12	0.000
189.49	-11.111
189.87	0.000
190.25	21.429
190.63	-300.000
191.00	-133.333
191.38	-10.526
191.76	-150.000
192.14	200.000
192.51	-200.000
192.89	-11.111
193.27	-142.857
193.65	216.667
194.02	163.636
194.40	10.000
194.78	-175.000
195.15	33.333
195.53	-125.000
195.91	250.000
196.29	-225.000
196.66	115.385
197.04	214.286
197.42	-44.444
197.79	-533.333
198.17	-84.615
198.55	900.000
198.92	-233.333
199.30	-1400.000
199.68	-200.000
200.05	-300.000
200.43	0.000
200.81	-466.667
201.18	166.667
201.56	1500.000
201.94	-500.000
202.31	166.667
202.69	-180.000
203.07	225.000
203.44	200.000
203.82	0.000
204.19	-14.286
204.57	-433.333
204.95	150.000
205.32	20.000
205.70	-57.143
206.08	75.000
206.45	100.000
206.83	85.714
207.20	-57.143
207.58	-100.000
207.96	-300.000
208.33	-130.000
208.71	-150.000
209.08	-183.333
209.46	-1200.000
209.84	-120.000
210.21	-1700.000
210.59	128.571
210.96	-150.000
211.34	-300.000
211.71	26.667
212.09	-228.571
212.46	-900.000
212.84	0.000
213.22	0.000
213.59	450.000
213.97	-38.462
214.34	-63.636
214.72	33.333
215.09	350.000
215.47	7.692
215.84	-54.545
216.22	-333.333
216.59	-75.000
216.97	250.000
217.34	25.000
217.72	-160.000
218.09	-62.500
218.47	87.500
218.84	-1100.000
219.22	-22.222
219.59	-80.000
219.97	500.000
220.34	100.000
220.72	-28.571
221.09	-175.000
221.47	-450.000
221.84	-400.000
222.22	-100.000
222.59	9.091
222.97	41.667
223.34	-433.333
223.72	-35.714
224.09	33.333
224.46	14.286
224.84	433.333
225.21	-20.000
225.59	-13.333
225.96	-250.000
226.34	175.000
226.71	-71.429
227.08	-133.333
227.46	-62.500
227.83	-150.000
228.21	66.667
228.58	-45.455
228.95	-125.000
229.33	80.000
229.70	0.000
230.08	-112.500
230.45	-171.429
230.82	-14.286
231.20	-46.667
231.57	-35.714
231.95	28.571
232.32	-170.000
232.69	-7.143
233.07	-66.667
233.44	-240.000
233.81	-50.000
234.19	-33.333
234.56	-23.529
234.93	650.000
235.31	-225.000
235.68	-80.000
236.05	-23.077
236.43	-10.000
236.80	11.765
237.17	-3.125
237.55	10.000
237.92	-11.111
238.29	-19.444
238.67	-36.667
239.04	0.000
239.41	-39.024
239.79	-16.667
240.16	-19.512
240.53	-23.684
240.91	-13.043
241.28	6.349
241.65	8.929
242.02	17.808
242.40	8.333
242.77	1.695
243.14	0.000
243.51	-1.250
243.89	20.690
244.26	1.149
244.63	-3.571
245.00	5.155
245.38	-1.031
245.75	-6.742
246.12	4.310
246.49	4.959
246.87	7.692
247.24	-1.681
247.61	0.000
247.98	-0.813
248.36	6.250
248.73	7.237
249.10	4.545
249.47	1.899
249.84	12.418
250.22	2.941
250.59	3.922
250.96	13.615
251.33	5.814
251.70	11.176
252.08	7.614
252.45	5.941
252.82	4.020
253.19	12.442
253.56	-0.467
253.94	7.207
254.31	7.391
254.68	8.772
255.05	5.118
255.42	5.240
255.79	8.108
256.16	8.560
256.54	8.582
256.91	6.464
257.28	8.178
257.65	5.618
258.02	2.482
258.39	5.387
258.76	9.524
259.14	9.967
259.51	9.385
259.88	8.935
260.25	7.190
260.62	7.986
260.99	3.390
261.36	6.849
261.73	5.696
262.10	6.687
262.47	8.282
262.85	5.329
263.22	3.077
263.59	7.165
263.96	11.801
264.33	9.091
264.70	5.655
265.07	5.655
265.44	9.348
265.81	4.237
266.18	9.563
266.55	10.797
266.92	6.995
267.29	11.749
267.66	6.394
268.03	5.759
268.40	4.439
268.77	8.021
269.14	8.393
269.51	8.740
269.88	6.484
270.25	5.612
270.62	5.366
270.99	7.673
271.36	5.134
271.73	7.512
272.10	6.569
272.47	7.565
272.84	6.436
273.21	9.049
273.58	8.916
273.95	7.551
274.32	6.928
274.69	5.656
275.06	7.366
275.43	7.029
275.80	8.389
276.17	6.667
276.54	5.996
276.91	6.798
277.28	8.515
277.65	7.438
278.02	4.894
278.39	7.221
278.76	7.757
279.13	4.357
279.50	7.143
279.87	9.071
280.23	6.667
280.60	8.772
280.97	7.071
281.34	6.923
281.71	8.624
282.08	2.863
282.45	6.849
282.82	6.178
283.19	6.963
283.56	5.202
283.92	6.831
284.29	7.692
284.66	7.171
285.03	7.662
285.40	5.671
285.77	5.624
286.14	6.318
286.51	8.672
286.87	7.678
287.24	6.814
287.61	6.526
287.98	8.947
288.35	9.359
288.72	9.807
289.08	8.160
289.45	9.315
289.82	9.615
290.19	7.509
290.56	5.660
290.93	7.071
291.29	8.320
291.66	8.976
292.03	7.177
292.40	7.903
292.77	9.091
293.13	8.279
293.50	8.346
293.87	8.550
294.24	9.119
294.60	11.475
294.97	9.821
295.34	8.589
295.71	7.303
296.08	9.865
296.44	7.112
296.81	9.306
297.18	7.536
297.55	9.350
297.91	11.370
298.28	11.609
298.65	11.126
299.02	9.704
299.38	6.840
299.75	9.931
300.12	9.031
300.48	9.881
300.85	10.266
301.22	10.909
301.59	10.789
301.95	11.899
302.32	12.062
302.69	10.697
303.05	10.025
303.42	10.959
303.79	11.682
304.15	11.589
304.52	9.037
304.89	8.772
305.25	10.775
305.62	9.568
305.99	10.994
306.35	10.751
306.72	10.686
307.09	9.692
307.45	11.596
307.82	11.343
308.19	11.614
308.55	10.905
308.92	12.092
309.29	9.162
309.65	10.980
310.02	11.991
310.38	12.294
310.75	11.803
311.12	11.948
311.48	11.029
311.85	11.099
312.22	10.549
312.58	10.934
312.95	11.419
313.31	10.559
313.68	10.681
314.05	11.122
314.41	10.722
314.78	11.443
315.14	11.305
315.51	11.698
315.87	10.348
316.24	12.437
316.61	12.795
316.97	13.095
317.34	12.109
317.70	12.141
318.07	11.154
318.43	13.235
318.80	11.553
319.16	10.937
319.53	11.586
319.89	12.303
320.26	12.551
320.62	13.842
320.99	12.213
321.35	12.230
321.72	13.292
322.08	13.192
322.45	12.995
322.81	13.458
323.18	12.659
323.54	11.969
323.91	13.048
324.27	12.500
324.64	13.577
325.00	14.599
325.37	13.774
325.73	12.965
326.10	14.078
326.46	14.439
326.83	14.611
327.19	13.339
327.56	13.727
327.92	14.173
328.29	13.304
328.65	15.000
329.01	13.327
329.38	14.101
329.74	12.937
330.11	14.365
330.47	13.358
330.84	13.365
331.20	15.209
331.56	13.241
331.93	13.881
332.29	14.665
332.66	12.489
333.02	13.197
333.38	12.374
333.75	13.919
334.11	12.802
334.48	14.053
334.84	12.912
335.20	13.449
335.57	13.781
335.93	13.731
336.29	12.891
336.66	12.262
337.02	12.454
337.38	11.019
337.75	11.727
338.11	12.894
338.47	12.318
338.84	14.140
339.20	12.249
339.56	12.294
339.93	12.802
340.29	11.651
340.65	12.993
341.02	12.766
341.38	12.566
341.74	10.512
342.11	10.919
342.47	12.189
342.83	12.370
343.20	11.237
343.56	12.522
343.92	10.717
344.28	13.322
344.65	12.349
345.01	11.063
345.37	11.270
345.73	11.130
346.10	11.821
346.46	12.111
346.82	10.966
347.19	12.053
347.55	11.612
347.91	12.298
348.27	11.641
348.63	12.947
349.00	11.157
349.36	11.388
349.72	12.023
350.08	11.230
350.45	11.732
350.81	9.884
351.17	10.423
351.53	12.163
351.89	11.561
352.26	10.000
352.62	12.419
352.98	10.843
353.34	10.386
353.70	11.974
354.07	11.774
354.43	11.129
354.79	10.900
355.15	12.063
355.51	12.104
355.87	10.437
356.24	10.767
356.60	10.671
356.96	12.143
357.32	11.661
357.68	11.259
358.04	11.228
358.40	11.093
358.77	11.962
359.13	11.930
359.49	11.094
359.85	11.700
360.21	10.606
360.57	10.252
360.93	11.498
361.29	10.423
361.66	11.677
362.02	11.894
362.38	12.262
362.74	11.355
363.10	12.265
363.46	11.490
363.82	12.772
364.18	11.956
364.54	10.882
364.90	10.538
365.26	11.790
365.62	12.409
365.98	12.830
366.35	11.872
366.71	11.234
367.07	12.264
367.43	11.790
367.79	11.378
368.15	10.768
368.51	11.362
368.87	9.835
369.23	11.625
369.59	11.808
369.95	11.804
370.31	12.066
370.67	11.194
371.03	11.202
371.39	11.306
371.75	11.502
372.11	11.056
372.47	11.834
372.83	10.717
373.19	11.412
373.55	11.480
373.91	11.519
374.27	11.694
374.63	11.342
374.99	12.128
375.35	12.047
375.71	11.399
376.07	10.815
376.42	11.293
376.78	12.148
377.14	11.578
377.50	10.757
377.86	11.647
378.22	10.976
378.58	11.795
378.94	10.460
379.30	11.541
379.66	11.787
380.02	11.527
380.38	11.260
380.74	10.712
381.09	12.147
381.45	11.254
381.81	11.659
382.17	10.787
382.53	11.056
382.89	11.111
383.25	11.014
383.61	11.707
383.97	10.159
384.32	10.381
384.68	11.331
385.04	10.907
385.40	10.579
385.76	11.321
386.12	10.996
386.48	10.792
386.83	10.399
387.19	11.355
387.55	11.230
387.91	10.208
388.27	10.562
388.62	10.321
388.98	9.515
389.34	9.994
389.70	10.938
390.06	10.006
390.42	10.557
390.77	9.810
391.13	9.710
391.49	10.414
391.85	10.071
392.20	9.667
392.56	9.472
392.92	10.335
393.28	9.316
393.64	9.489
393.99	10.470
394.35	9.614
394.71	9.770
395.07	9.428
395.42	9.047
395.78	9.511
396.14	9.269
396.50	10.019
396.85	8.950
397.21	9.273
397.57	8.840
397.92	9.587
398.28	9.253
398.64	8.554
399.00	9.650
399.35	8.296
399.71	9.018
400.07	9.432
400.42	8.323
400.78	8.267
401.14	8.469
401.49	8.934
401.85	8.349
402.21	8.735
402.57	8.563
402.92	7.528
403.28	8.897
403.63	7.692
403.99	7.270
404.35	7.870
404.70	7.202
405.06	7.521
405.42	7.707
405.77	6.798
406.13	7.567
406.49	7.460
406.84	7.090
407.20	7.164
407.55	7.598
407.91	6.818
408.27	7.075
408.62	7.815
408.98	7.147
409.34	8.240
409.69	6.266
410.05	6.158
410.40	7.469
410.76	7.298
411.11	7.500
411.47	6.838
411.83	5.901
412.18	6.306
412.54	6.679
412.89	6.342
413.25	7.280
413.60	6.646
413.96	5.644
414.31	7.256
414.67	6.414
415.03	6.658
415.38	6.723
415.74	7.101
416.09	7.054
416.45	6.415
416.80	7.799
417.16	7.390
417.51	7.395
417.87	6.128
418.22	7.189
418.58	7.358
418.93	7.085
419.29	6.210
419.64	6.805
420.00	8.249
420.35	7.463
420.71	7.655
421.06	7.551
421.42	8.173
421.77	7.688
422.12	7.775
422.48	7.851
422.83	7.947
423.19	7.788
423.54	7.701
423.90	8.127
424.25	8.381
424.61	8.078
424.96	8.595
425.31	9.417
425.67	8.627
426.02	8.834
426.38	9.455
426.73	9.080
427.09	9.367
427.44	9.471
427.79	9.782
428.15	10.133
428.50	9.691
428.85	9.091
429.21	10.696
429.56	10.404
429.92	10.889
430.27	10.677
430.62	9.514
430.98	10.297
431.33	10.620
431.68	10.204
432.04	10.397
432.39	10.268
432.74	10.583
433.10	11.552
433.45	10.633
433.80	10.853
434.16	10.859
434.51	11.452
434.86	11.034
435.22	11.554
435.57	11.978
435.92	11.796
436.28	11.032
436.63	12.037
436.98	11.645
437.34	11.555
437.69	12.761
438.04	12.365
438.39	11.668
438.75	11.475
439.10	12.337
439.45	12.295
439.81	12.049
440.16	12.411
440.51	12.896
440.86	13.051
441.22	12.387
441.57	12.914
441.92	12.592
442.27	12.749
442.63	12.848
442.98	12.809
443.33	13.578
443.68	13.210
444.03	13.313
444.39	13.428
444.74	14.103
445.09	13.307
445.44	13.846
445.79	13.564
446.15	13.711
446.50	13.089
446.85	13.656
447.20	13.816
447.55	13.728
447.91	14.100
448.26	14.058
448.61	14.393
448.96	13.884
449.31	13.353
449.66	14.053
450.02	14.489
450.37	13.397
450.72	13.803
451.07	13.924
451.42	14.045
451.77	14.587
452.12	14.234
452.47	14.231
452.83	15.194
453.18	14.105
453.53	15.234
453.88	15.422
454.23	14.567
454.58	14.610
454.93	14.433
455.28	13.333
455.63	14.693
455.98	14.672
456.34	14.304
456.69	15.756
457.04	14.934
457.39	14.399
457.74	14.268
458.09	13.773
458.44	14.921
458.79	14.398
459.14	15.046
459.49	14.925
459.84	14.946
460.19	15.291
460.54	14.487
460.89	14.318
461.24	15.466
461.59	15.202
461.94	14.591
462.29	15.501
462.64	15.681
462.99	14.624
463.34	14.325
463.69	14.221
464.04	15.678
464.39	15.282
464.74	14.479
465.09	15.346
465.44	16.157
465.79	14.683
466.14	15.964
466.49	14.549
466.84	15.645
467.19	14.518
467.54	15.709
467.89	14.972
468.24	15.389
468.59	15.619
468.94	15.111
469.29	16.262
469.64	16.405
469.99	16.188
470.34	14.676
470.68	15.809
471.03	16.985
471.38	15.478
471.73	16.457
472.08	15.807
472.43	15.168
472.78	15.147
473.13	15.374
473.48	15.179
473.83	14.570
474.17	16.386
474.52	16.209
474.87	15.939
475.22	15.314
475.57	15.923
475.92	16.237
476.27	16.356
476.61	15.972
476.96	15.561
477.31	16.009
477.66	15.618
478.01	15.665
478.36	15.632
478.70	15.824
479.05	15.714
479.40	16.004
479.75	15.798
480.10	15.873
480.45	15.200
480.79	16.314
481.14	16.342
481.49	15.665
481.84	16.071
482.19	15.856
482.53	16.163
482.88	15.847
483.23	15.547
483.58	16.038
483.92	15.973
484.27	15.861
484.62	15.912
484.97	15.299
485.31	15.499
485.66	15.502
486.01	15.321
486.36	15.423
486.70	15.441
487.05	15.323
487.40	16.107
487.75	15.634
488.09	15.729
488.44	15.406
488.79	15.876
489.13	15.946
489.48	15.861
489.83	15.919
490.17	15.775
490.52	15.012
490.87	16.150
491.22	15.950
491.56	16.082
491.91	15.535
492.26	15.800
492.60	15.979
492.95	16.331
493.30	15.291
493.64	15.521
493.99	15.700
494.34	15.146
494.68	15.476
495.03	15.377
495.37	15.702
495.72	16.002
496.07	16.098
496.41	15.094
496.76	16.168
497.11	15.277
497.45	16.229
497.80	16.044
498.14	15.549
498.49	15.846
498.84	16.267
499.18	15.663
499.53	15.923
499.87	15.564
500.22	15.826
500.56	16.188
500.91	15.211
501.26	16.065
501.60	16.085
501.95	16.448
502.29	15.593
502.64	16.602
502.98	15.935
503.33	15.562
503.67	16.145
504.02	15.982
504.36	16.477
504.71	15.707
505.06	15.954
505.40	15.584
505.75	15.979
506.09	16.320
506.44	16.478
506.78	16.684
507.13	15.615
507.47	15.822
507.82	15.438
508.16	15.637
508.51	16.212
508.85	16.902
509.19	15.593
509.54	16.944
509.88	15.912
510.23	16.192
510.57	16.782
510.92	15.192
511.26	16.312
511.61	16.007
511.95	16.548
512.30	16.519
512.64	16.861
512.98	16.676
513.33	17.236
513.67	16.600
514.02	17.563
514.36	16.686
514.70	16.725
515.05	16.510
515.39	16.765
515.74	17.365
516.08	16.378
516.42	17.138
516.77	16.910
517.11	16.558
517.46	17.774
517.80	16.627
518.14	17.024
518.49	17.188
518.83	16.768
519.17	16.798
519.52	16.282
519.86	16.987
520.20	16.829
520.55	16.010
520.89	17.064
521.23	16.086
521.58	17.666
521.92	16.987
522.26	17.241
522.61	16.948
522.95	17.219
523.29	16.391
523.64	17.726
523.98	17.369
524.32	16.108
524.66	16.837
525.01	17.338
525.35	17.110
525.69	16.633
526.04	15.608
526.38	17.899
526.72	16.024
527.06	16.667
527.41	16.821
527.75	16.890
528.09	16.013
528.43	16.610
528.78	16.238
529.12	16.194
529.46	16.244
529.80	16.846
530.15	16.370
530.49	16.431
530.83	16.074
531.17	16.253
531.51	16.553
531.86	14.888
532.20	15.727
532.54	16.201
532.88	16.701
533.22	16.667
533.57	15.924
533.91	14.948
534.25	16.536
534.59	15.715
534.93	15.104
535.27	15.799
535.62	15.165
535.96	16.895
536.30	16.821
536.64	16.816
536.98	14.913
537.32	15.932
537.66	16.199
538.01	16.014
538.35	15.395
538.69	15.912
539.03	15.858
539.37	15.680
539.71	15.815
540.05	15.547
540.39	15.789
540.73	16.667
541.07	14.572
541.42	16.734
541.76	15.829
542.10	15.348
542.44	15.566
542.78	14.866
543.12	14.904
543.46	16.273
543.80	14.990
544.14	14.753
544.48	15.656
544.82	15.584
545.16	15.232
545.50	16.021
545.84	16.289
546.18	16.028
546.52	15.357
546.86	15.888
547.20	15.308
547.54	14.982
547.88	15.829
548.22	15.516
548.56	16.161
548.90	15.633
549.24	15.427
549.58	16.079
549.92	14.939
550.26	15.604
550.60	15.316
550.94	15.907
551.28	15.765
551.62	15.385
551.96	16.241
552.30	15.716
552.64	14.598
552.98	16.385
553.32	15.050
553.66	15.167
554.00	15.985
554.34	15.583
554.68	14.971
555.02	15.774
555.36	15.408
555.69	14.652
556.03	14.989
556.37	15.445
556.71	15.812
557.05	16.033
557.39	15.316
557.73	16.042
558.07	15.686
558.41	15.084
558.75	14.731
559.08	15.445
559.42	15.476
559.76	15.612
560.10	14.297
560.44	14.818
560.78	15.245
561.12	15.938
561.45	14.968
561.79	15.406
562.13	16.253
562.47	15.468
562.81	14.914
563.15	15.656
563.48	15.488
563.82	15.649
564.16	15.181
564.50	15.270
564.84	15.261
565.17	14.755
565.51	15.301
565.85	15.432
566.19	14.788
566.52	14.879
566.86	15.231
567.20	14.134
567.54	14.538
567.88	15.407
568.21	14.876
568.55	14.076
568.89	14.887
569.23	13.722
569.56	13.748
569.90	14.251
570.24	13.844
570.57	14.255
570.91	14.535
571.25	13.713
571.59	13.485
571.92	13.363
572.26	13.436
572.60	13.767
572.93	13.775
573.27	13.229
573.61	13.395
573.95	13.244
574.28	12.897
574.62	13.221
574.96	13.164
575.29	13.175
575.63	12.698
575.97	12.470
576.30	12.960
576.64	12.848
576.98	13.565
577.31	12.853
577.65	13.096
577.98	13.060
578.32	13.097
578.66	12.787
578.99	12.658
579.33	12.616
579.67	12.844
580.00	12.886
580.34	13.234
580.67	12.809
581.01	13.256
581.35	13.028
581.68	13.285
582.02	13.158
582.35	12.981
582.69	13.050
583.02	13.395
583.36	13.461
583.70	13.266
584.03	13.539
584.37	13.834
584.70	13.434
585.04	13.472
585.37	13.514
585.71	13.404
586.04	13.717
586.38	13.550
586.72	13.945
587.05	14.269
587.39	14.090
587.72	13.778
588.06	13.756
588.39	13.586
588.73	13.767
589.06	14.286
589.40	14.103
589.73	14.677
590.07	13.973
590.40	14.551
590.73	13.756
591.07	13.995
591.40	14.159
591.74	14.570
592.07	14.471
592.41	14.664
592.74	14.377
593.08	13.622
593.41	14.662
593.75	13.935
594.08	13.972
594.41	14.119
594.75	13.855
595.08	14.226
595.42	13.912
595.75	13.932
596.09	14.269
596.42	14.345
596.75	14.742
597.09	14.442
597.42	14.273
597.75	13.834
598.09	13.671
598.42	13.673
598.76	13.170
599.09	13.982
599.42	13.831
599.76	13.695
600.09	13.989
600.42	13.723
600.76	13.187
601.09	13.473
601.42	13.788
601.76	13.458
602.09	14.109
602.42	14.575
602.76	13.964
603.09	13.953
603.42	14.172
603.76	13.790
604.09	13.852
604.42	14.467
604.76	13.974
605.09	14.031
605.42	14.312
605.75	13.354
606.09	13.503
606.42	13.053
606.75	13.636
607.09	13.714
607.42	13.425
607.75	13.766
608.08	13.477
608.42	14.619
608.75	14.361
609.08	13.652
609.41	14.619
609.75	13.256
610.08	13.080
610.41	12.802
610.74	13.116
611.07	13.333
611.41	13.804
611.74	14.339
612.07	13.651
612.40	13.676
612.73	13.898
613.07	13.217
613.40	13.786
613.73	13.374
614.06	13.912
614.39	13.085
614.72	12.661
615.06	13.128
615.39	12.828
615.72	14.101
616.05	14.246
616.38	12.877
616.71	13.517
617.05	13.836
617.38	13.514
617.71	13.585
618.04	13.905
618.37	14.439
618.70	13.663
619.03	14.028
619.36	12.808
619.69	13.950
620.03	13.952
620.36	12.876
620.69	13.847
621.02	13.838
621.35	14.855
621.68	13.861
622.01	13.000
622.34	14.924
622.67	13.801
623.00	13.936
623.33	13.034
623.66	13.538
623.99	13.086
624.32	14.601
624.65	12.707
624.99	13.770
625.32	12.358
625.65	15.240
625.98	13.618
626.31	11.970
626.64	14.038
626.97	14.049
627.30	14.799
627.63	13.172
627.96	12.848
628.29	14.154
628.62	14.848
628.95	14.028
629.28	13.306
629.61	13.659
629.94	13.685
630.26	12.154
630.59	14.256
630.92	13.641
631.25	12.205
631.58	12.996
631.91	12.610
632.24	13.761
632.57	14.318
632.90	12.218
633.23	13.529
633.56	11.965
633.89	12.700
634.22	14.321
634.55	14.358
634.88	13.155
635.20	13.333
635.53	13.067
635.86	12.224
636.19	12.160
636.52	12.500
636.85	12.655
637.18	12.327
637.51	14.591
637.83	13.141
638.16	14.325
638.49	11.580
638.82	14.605
639.15	12.347
639.48	12.517
639.81	14.365
640.13	13.276
640.46	13.120
640.79	11.929
641.12	12.851
641.45	12.913
641.77	13.481
642.10	14.218
642.43	12.540
642.76	11.716
643.09	14.863
643.41	14.078
643.74	12.356
644.07	14.614
644.40	14.696
644.73	14.711
645.05	12.416
645.38	12.169
645.71	12.766
646.04	13.645
646.36	11.348
646.69	14.388
647.02	12.476
647.35	12.127
647.67	13.711
648.00	14.179
648.33	15.529
648.66	13.051
648.98	11.055
649.31	11.405
649.64	13.344
649.96	12.156
650.29	12.095
650.62	12.137
650.94	11.296
651.27	9.125
651.60	12.793
651.92	12.587
652.25	12.078
652.58	11.500
652.90	11.835
653.23	11.597
653.56	12.352
653.88	9.966
654.21	10.683
654.54	11.375
654.86	11.885
655.19	10.380
655.52	11.068
655.84	10.762
656.17	12.254
656.49	16.397
656.82	17.342
657.15	13.436
657.47	10.016
657.80	7.251
658.13	7.182
658.45	11.299
658.78	11.472
659.10	11.223
659.43	11.356
659.75	11.149
660.08	10.690
660.41	10.725
660.73	11.464
661.06	11.958
661.38	10.959
661.71	9.035
662.03	11.803
662.36	11.868
662.68	11.062
663.01	12.882
663.33	11.369
663.66	10.465
663.98	10.930
664.31	12.154
664.63	12.442
664.96	9.783
665.28	9.934
665.61	9.957
665.93	13.478
666.26	10.195
666.58	9.620
666.91	11.059
667.23	10.142
667.56	13.744
667.88	8.393
668.21	10.979
668.53	14.421
668.86	13.443
669.18	11.557
669.50	10.169
669.83	11.395
670.15	12.587
670.48	9.809
670.80	12.212
671.13	10.962
671.45	7.534
671.77	12.661
672.10	11.485
672.42	12.360
672.75	12.256
673.07	13.238
673.39	12.661
673.72	8.876
674.04	10.000
674.37	11.864
674.69	8.565
675.01	11.556
675.34	12.162
675.66	12.269
675.98	9.978
676.31	9.174
676.63	11.164
676.95	10.682
677.28	13.176
677.60	11.084
677.92	9.404
678.25	12.691
678.57	11.255
678.89	11.765
679.22	11.186
679.54	8.635
679.86	9.145
680.18	10.291
680.51	11.742
680.83	9.940
681.15	10.800
681.48	12.500
681.80	11.570
682.12	10.887
682.44	10.879
682.77	9.272
683.09	11.213
683.41	9.773
683.73	11.521
684.06	10.177
684.38	7.957
684.70	9.804
685.02	8.091
685.34	8.696
685.67	9.944
685.99	11.392
686.31	12.920
686.63	8.905
686.96	9.506
687.28	5.455
687.60	9.125
687.92	11.919
688.24	10.484
688.56	11.135
688.89	10.714
689.21	11.778
689.53	9.745
689.85	9.302
690.17	12.277
690.49	9.456
690.82	12.136
691.14	8.333
691.46	9.579
691.78	9.234
692.10	9.677
692.42	9.091
692.74	11.325
693.06	8.784
693.39	7.014
693.71	10.860
694.03	7.621
694.35	10.748
694.67	8.081
694.99	9.399
695.31	10.705
695.63	12.000
695.95	8.838
696.27	9.845
696.59	11.389
696.91	5.602
697.23	10.797
697.56	6.436
697.88	10.968
698.20	8.656
698.52	8.941
698.84	8.134
699.16	8.750
699.48	10.276
699.80	10.174
700.12	11.051
700.44	9.804
700.76	8.721
701.08	6.364
701.40	10.542
701.72	9.877
702.04	6.601
702.36	4.682
702.68	6.907
703.00	10.000
703.32	7.331
703.64	6.215
703.96	11.014
704.28	9.816
704.60	10.476
704.91	7.571
705.23	8.970
705.55	9.894
705.87	9.386
706.19	9.259
706.51	8.247
706.83	11.254
707.15	5.296
707.47	8.964
707.79	7.813
708.11	8.500
708.43	12.000
708.74	8.786
709.06	9.859
709.38	9.174
709.70	10.059
710.02	5.414
710.34	12.693
710.66	6.090
710.98	6.291
711.29	9.836
711.61	7.458
711.93	8.143
712.25	9.966
712.57	5.128
712.89	10.075
713.20	6.920
713.52	6.272
713.84	3.413
714.16	7.216
714.48	8.065
714.80	11.538
715.11	6.687
715.43	2.821
715.75	8.667
716.07	7.641
716.39	8.389
716.70	9.225
717.02	8.015
717.34	9.717
717.66	6.637
717.97	6.957
718.29	4.603
718.61	13.780
718.93	10.465
719.24	2.281
719.56	7.631
719.88	8.591
720.20	3.788
720.51	3.831
720.83	11.197
721.15	10.504
721.46	9.677
721.78	3.953
722.10	8.550
722.42	1.660
722.73	8.571
723.05	11.020
723.37	11.017
723.68	13.964
724.00	5.983
724.32	7.556
724.63	4.545
724.95	5.240
725.27	5.530
725.58	3.390
725.90	4.365
726.22	8.880
726.53	8.475
726.85	10.861
727.16	12.453
727.48	5.668
727.80	8.907
728.11	5.932
728.43	7.059
728.74	0.806
729.06	5.600
729.38	14.286
729.69	3.187
730.01	3.077
730.32	6.343
730.64	9.894
730.96	6.038
731.27	4.333
731.59	7.797
731.90	5.732
732.22	7.886
732.53	10.299
732.85	6.738
733.16	8.081
733.48	5.036
733.80	6.159
734.11	5.085
734.43	6.873
734.74	8.182
735.06	3.583
735.37	8.157
735.69	7.071
736.00	3.484
736.32	6.376
736.63	7.042
736.95	6.826
737.26	7.117
737.58	9.732
737.89	5.861
738.21	6.015
738.52	9.053
738.83	3.930
739.15	3.930
739.46	6.299
739.78	5.128
740.09	10.131
740.41	7.971
740.72	5.906
741.04	9.312
741.35	7.234
741.66	7.109
741.98	9.694
742.29	1.485
742.61	9.424
742.92	0.948
743.23	-1.389
743.55	8.597
743.86	10.526
744.18	3.349
744.49	3.723
744.80	3.804
745.12	5.348
745.43	3.415
745.74	3.125
746.06	2.439
746.37	3.665
746.68	8.531
747.00	1.064
747.31	9.453
747.62	1.456
747.94	9.091
748.25	4.950
748.56	7.650
748.88	4.712
749.19	3.191
749.50	7.389
749.82	1.887
750.13	1.835
750.44	8.271
750.75	7.463
751.07	12.044
751.38	4.598
751.69	3.137
752.01	5.426
752.32	1.594
752.63	5.929
752.94	2.586
753.26	13.808
753.57	4.977
753.88	5.752
754.19	6.250
754.51	7.438
754.82	2.429
755.13	8.750
755.44	4.435
755.75	7.031
756.07	5.837
756.38	4.528
756.69	1.149
757.00	10.333
757.31	7.516
757.63	6.707
757.94	8.333
758.25	7.123
758.56	5.585
758.87	6.516
759.18	5.607
759.50	1.091
759.81	8.696
760.12	7.742
760.43	5.455
760.74	5.864
761.05	5.846
761.36	9.375
761.67	7.273
761.99	7.823
762.30	4.364
762.61	8.696
762.92	5.882
763.23	4.054
763.54	2.336
763.85	6.780
764.16	2.490
764.47	8.065
764.78	4.762
765.10	11.111
765.41	3.470
765.72	10.159
766.03	3.383
766.34	8.394
766.65	7.570
766.96	4.545
767.27	7.979
767.58	5.172
767.89	-4.965
768.20	4.545
768.51	3.297
768.82	0.000
769.13	-3.687
769.44	1.288
769.75	2.283
770.06	8.190
770.37	7.212
770.68	3.553
770.99	6.335
771.30	7.353
771.61	-2.262
771.92	7.759
772.23	4.433
772.54	4.301
772.85	2.469
773.16	5.618
773.47	9.150
773.78	5.882
774.09	6.587
774.39	9.333
774.70	7.643
775.01	17.931
775.32	-2.143
775.63	-3.306
775.94	1.527
776.25	9.449
776.56	5.000
776.87	9.615
777.18	1.709
777.48	3.448
777.79	-4.348
778.10	-7.619
778.41	8.108
778.72	6.349
779.03	-0.752
779.34	9.220
779.65	2.055
779.95	-4.795
780.26	8.966
780.57	0.813
780.88	-4.724
781.19	2.586
781.50	3.101
781.80	2.959
782.11	3.774
782.42	-0.769
782.73	0.000
783.04	1.481
783.34	-1.389
783.65	-8.547
783.96	-2.459
784.27	10.345
784.57	8.130
784.88	3.125
785.19	-5.000
785.50	13.000
785.81	4.310
786.11	-3.448
786.42	2.913
786.73	7.273
787.04	-5.102
787.34	4.464
787.65	1.905
787.96	0.000
788.26	-4.545
788.57	4.274
788.88	9.375
789.19	-2.381
789.49	3.478
789.80	-2.041
790.11	4.040
790.41	2.727
790.72	1.087
791.03	-2.273
791.33	5.000
791.64	-7.500
791.95	12.791
792.25	-3.191
792.56	5.618
792.87	-2.740
793.17	-1.449
793.48	-9.333
793.79	-15.000
794.09	0.000
794.40	11.321
794.70	-9.709
795.01	-4.065
795.32	-4.274
795.62	-5.714
795.93	7.843
796.23	9.434
796.54	-1.042
796.85	1.471
797.15	-1.408
797.46	6.944
797.76	-4.545
798.07	3.488
798.37	0.000
798.68	-15.152
798.99	3.704
799.29	5.714
799.60	10.145
799.90	8.000
800.21	-1.639
800.51	3.077
800.82	3.390
801.12	15.942
801.43	-4.918
801.73	7.937
802.04	-6.000
802.34	1.493
802.65	21.154
802.95	-10.714
803.26	-17.308
803.56	-5.882
803.87	-43.478
804.17	-5.333
804.48	12.698
804.78	-11.111
805.09	-6.522
805.39	-6.667
805.70	-1.852
806.00	-19.298
806.30	-2.817
806.61	15.714
806.91	-9.722
807.22	2.632
807.52	-1.333
807.83	-14.545
808.13	6.944
808.43	26.471
808.74	-8.955
809.04	-11.864
809.35	-19.231
809.65	7.813
809.95	-64.865
810.26	-13.636
810.56	-8.219
810.86	7.143
811.17	-16.000
811.47	18.367
811.77	-36.842
812.08	-11.364
812.38	16.981
812.69	-7.500
812.99	-18.182
813.29	2.632
813.59	-22.857
813.90	-34.091
814.20	-38.462
814.50	-3.846
814.81	15.094
815.11	-36.170
815.41	-1.695
815.72	2.381
816.02	9.804
816.32	14.583
816.62	-19.512
816.93	-8.108
817.23	-20.000
817.53	6.250
817.84	-10.870
818.14	17.308
818.44	-23.684
818.74	6.522
819.04	-20.000
819.35	-13.514
819.65	-14.706
819.95	8.333
820.25	23.810
820.56	0.000
820.86	-27.586
821.16	12.500
821.46	-2.128
821.76	7.500
822.07	-16.279
822.37	-27.027
822.67	-9.375
822.97	21.429
823.27	-28.571
823.57	-32.000
823.88	-18.519
824.18	10.714
824.48	0.000
824.78	-6.452
825.08	-21.739
825.38	-24.242
825.69	-75.000
825.99	-18.421
826.29	-5.556
826.59	-33.333
826.89	-57.143
827.19	-6.522
827.49	-2.500
827.79	-17.143
828.09	3.571
828.39	-3.030
828.70	40.541
829.00	-42.857
829.30	-33.333
829.60	-10.000
829.90	-9.375
830.20	-7.895
830.50	-40.741
830.80	-43.478
831.10	-18.182
831.40	-36.364
831.70	22.581
832.00	-33.333
832.30	-42.857
832.60	-116.667
832.90	-51.724
833.20	-45.000
833.50	-12.121
833.80	22.222
834.10	-30.769
834.40	9.375
834.70	-88.889
835.00	-26.316
835.30	34.615
835.60	13.333
835.90	12.903
836.20	-9.091
836.50	-25.000
836.80	-61.538
837.10	-3.571
837.40	-400.000
837.70	-13.636
838.00	-272.727
838.30	-17.391
838.60	-146.154
838.90	-9.091
839.19	0.000
839.49	6.667
839.79	-107.692
840.09	-141.667
840.39	0.000
840.69	-28.571
840.99	-34.615
841.29	-115.789
841.59	-100.000
841.88	-18.182
842.18	-100.000
842.48	-31.250
842.78	-60.000
843.08	-11.111
843.38	-180.000
843.68	0.000
843.97	-20.000
844.27	-113.333
844.57	-60.000
844.87	-5.556
845.17	-23.810
845.47	33.333
845.76	-23.810
846.06	35.294
846.36	-30.000
846.66	-50.000
846.96	-60.000
847.25	-250.000
847.55	0.000
847.85	-112.500
848.15	0.000
848.44	-766.667
848.74	-45.000
849.04	33.333
849.34	-27.273
849.63	-233.333
849.93	-160.000
850.23	-38.889
850.53	30.000
850.82	-7.692
851.12	-166.667
851.42	-46.667
851.71	-3.846
852.01	-64.286
852.31	-400.000
852.61	-27.273
852.90	-40.000
853.20	-31.579
853.50	-125.000
853.79	-17.391
854.09	-33.333
854.39	-47.368
854.68	-8.333
854.98	-6.452
855.28	-3.846
855.57	5.000
855.87	-16.667
856.17	-7.407
856.46	-85.714
856.76	-100.000
857.05	-33.333
857.35	-12.000
857.65	-55.556
857.94	-15.385
858.24	31.034
858.53	-16.667
858.83	44.444
859.13	18.182
859.42	-30.435
859.72	-400.000
860.01	-300.000
860.31	36.000
860.60	14.286
860.90	-366.667
861.20	-93.333
861.49	-250.000
861.79	0.000
862.08	-45.000
862.38	66.667
862.67	-300.000
862.97	-316.667
863.26	-83.333
863.56	33.333
863.85	-533.333
864.15	-50.000
864.44	-100.000
864.74	21.429
865.03	225.000
865.33	-60.000
865.62	16.667
865.92	-25.000
866.21	-250.000
866.51	12.500
866.80	-45.455
867.10	-500.000
867.39	-33.333
867.69	0.000
867.98	38.462
868.27	-333.333
868.57	-6.667
868.86	11.111
869.16	-138.462
869.45	6.667
869.75	-800.000
870.04	0.000
870.33	-242.857
870.63	-28.571
870.92	533.333
871.22	-60.000
871.51	-700.000
871.80	0.000
872.10	566.667
>>>>>End Processed Spectral Data<<<<<
