SpectraSuite Data File
++++++++++++++++++++++++++++++++++++
Date: Fri May 15 20:36:42 PDT 2015
User: schluterlab
Dark Spectrum Present: Yes
Reference Spectrum Present: Yes
Number of Sampled Component Spectra: 1
Spectrometers: USB2E3373
Integration Time (usec): 3000 (USB2E3373)
Spectra Averaged: 3 (USB2E3373)
Boxcar Smoothing: 0 (USB2E3373)
Correct for Electrical Dark: No (USB2E3373)
Strobe/Lamp Enabled: No (USB2E3373)
Correct for Detector Non-linearity: No (USB2E3373)
Correct for Stray Light: No (USB2E3373)
Number of Pixels in Processed Spectrum: 2048
>>>>>Begin Processed Spectral Data<<<<<
178.53	0.000
178.91	0.000
179.29	137.500
179.67	-50.000
180.04	185.714
180.42	-100.000
180.80	-600.000
181.18	-0.000
181.56	700.000
181.94	-100.000
182.31	300.000
182.69	-100.000
183.07	-300.000
183.45	80.000
183.83	33.333
184.20	45.455
184.58	122.222
184.96	75.000
185.34	-133.333
185.72	-450.000
186.09	107.692
186.47	100.000
186.85	100.000
187.23	88.889
187.61	600.000
187.98	-233.333
188.36	11.111
188.74	-333.333
189.12	-29.412
189.49	16.667
189.87	0.000
190.25	100.000
190.63	150.000
191.00	-333.333
191.38	-31.579
191.76	-50.000
192.14	300.000
192.51	50.000
192.89	-100.000
193.27	-85.714
193.65	216.667
194.02	172.727
194.40	-10.000
194.78	-75.000
195.15	-8.333
195.53	-62.500
195.91	175.000
196.29	-125.000
196.66	123.077
197.04	171.429
197.42	-11.111
197.79	-300.000
198.17	-76.923
198.55	1300.000
198.92	-33.333
199.30	-300.000
199.68	-60.000
200.05	-200.000
200.43	0.000
200.81	-33.333
201.18	-66.667
201.56	1500.000
201.94	-450.000
202.31	-66.667
202.69	-100.000
203.07	250.000
203.44	500.000
203.82	0.000
204.19	35.714
204.57	-166.667
204.95	75.000
205.32	80.000
205.70	-128.571
206.08	-250.000
206.45	211.111
206.83	42.857
207.20	-100.000
207.58	600.000
207.96	-333.333
208.33	-70.000
208.71	-150.000
209.08	-166.667
209.46	-100.000
209.84	-200.000
210.21	-600.000
210.59	-57.143
210.96	-33.333
211.34	-100.000
211.71	6.667
212.09	-185.714
212.46	-1200.000
212.84	0.000
213.22	110.000
213.59	150.000
213.97	-30.769
214.34	45.455
214.72	33.333
215.09	550.000
215.47	-23.077
215.84	-45.455
216.22	-266.667
216.59	-12.500
216.97	-100.000
217.34	-50.000
217.72	-60.000
218.09	150.000
218.47	112.500
218.84	-100.000
219.22	-22.222
219.59	-220.000
219.97	333.333
220.34	525.000
220.72	-85.714
221.09	-100.000
221.47	-700.000
221.84	-950.000
222.22	-900.000
222.59	9.091
222.97	91.667
223.34	-300.000
223.72	-7.143
224.09	-4.762
224.46	32.143
224.84	166.667
225.21	-30.000
225.59	13.333
225.96	0.000
226.34	600.000
226.71	-28.571
227.08	83.333
227.46	12.500
227.83	-250.000
228.21	-22.222
228.58	0.000
228.95	-50.000
229.33	70.000
229.70	31.250
230.08	-112.500
230.45	-114.286
230.82	-42.857
231.20	0.000
231.57	57.143
231.95	14.286
232.32	-130.000
232.69	64.286
233.07	333.333
233.44	240.000
233.81	-10.000
234.19	0.000
234.56	-23.529
234.93	250.000
235.31	300.000
235.68	-40.000
236.05	15.385
236.43	25.000
236.80	82.353
237.17	43.750
237.55	80.000
237.92	48.148
238.29	80.556
238.67	30.000
239.04	94.118
239.41	34.146
239.79	60.000
240.16	60.976
240.53	52.632
240.91	69.565
241.28	52.381
241.65	69.643
242.02	75.342
242.40	56.667
242.77	67.797
243.14	77.273
243.51	51.250
243.89	78.161
244.26	72.414
244.63	69.048
245.00	71.134
245.38	86.598
245.75	73.034
246.12	63.793
246.49	67.769
246.87	80.769
247.24	74.790
247.61	81.579
247.98	86.992
248.36	68.125
248.73	79.605
249.10	65.584
249.47	71.519
249.84	81.046
250.22	74.118
250.59	88.235
250.96	66.667
251.33	81.977
251.70	80.000
252.08	76.142
252.45	77.228
252.82	77.387
253.19	78.341
253.56	75.234
253.94	75.225
254.31	78.696
254.68	84.649
255.05	78.346
255.42	79.476
255.79	79.537
256.16	74.319
256.54	77.612
256.91	78.707
257.28	72.862
257.65	79.026
258.02	76.596
258.39	78.114
258.76	76.557
259.14	74.419
259.51	77.346
259.88	75.258
260.25	73.856
260.62	83.681
260.99	82.373
261.36	80.822
261.73	77.532
262.10	80.243
262.47	78.528
262.85	74.922
263.22	80.615
263.59	75.701
263.96	83.230
264.33	77.576
264.70	76.786
265.07	74.702
265.44	80.170
265.81	80.508
266.18	77.049
266.55	76.093
266.92	75.389
267.29	77.546
267.66	74.425
268.03	80.366
268.40	80.679
268.77	83.690
269.14	74.820
269.51	78.663
269.88	78.055
270.25	76.786
270.62	78.049
270.99	78.772
271.36	77.751
271.73	75.117
272.10	80.292
272.47	76.832
272.84	75.000
273.21	73.086
273.58	80.000
273.95	76.430
274.32	79.677
274.69	75.339
275.06	76.562
275.43	75.964
275.80	78.808
276.17	78.161
276.54	76.231
276.91	77.851
277.28	76.856
277.65	72.314
278.02	72.553
278.39	75.492
278.76	79.036
279.13	74.896
279.50	77.731
279.87	75.378
280.23	73.548
280.60	71.930
280.97	74.343
281.34	72.308
281.71	74.743
282.08	70.348
282.45	69.863
282.82	72.780
283.19	75.435
283.56	71.484
283.92	72.486
284.29	71.923
284.66	71.318
285.03	72.692
285.40	71.267
285.77	69.596
286.14	69.856
286.51	72.509
286.87	69.835
287.24	72.376
287.61	69.489
287.98	68.772
288.35	69.671
288.72	70.403
289.08	64.583
289.45	68.893
289.82	65.734
290.19	67.406
290.56	64.837
290.93	62.121
291.29	59.476
291.66	63.307
292.03	63.477
292.40	63.387
292.77	59.649
293.13	59.416
293.50	59.029
293.87	58.015
294.24	58.114
294.60	57.973
294.97	55.208
295.34	57.822
295.71	55.291
296.08	57.549
296.44	55.903
296.81	54.167
297.18	55.507
297.55	56.775
297.91	54.795
298.28	54.222
298.65	55.495
299.02	53.369
299.38	50.616
299.75	53.931
300.12	51.309
300.48	51.120
300.85	51.204
301.22	50.909
301.59	50.921
301.95	52.785
302.32	50.713
302.69	50.871
303.05	51.609
303.42	50.062
303.79	52.687
304.15	50.896
304.52	48.870
304.89	48.538
305.25	48.305
305.62	47.375
305.99	48.070
306.35	48.671
306.72	47.694
307.09	48.119
307.45	48.220
307.82	47.685
308.19	50.755
308.55	44.057
308.92	49.346
309.29	47.151
309.65	46.502
310.02	46.095
310.38	45.445
310.75	47.541
311.12	47.470
311.48	47.402
311.85	45.759
312.22	46.097
312.58	46.391
312.95	45.891
313.31	46.170
313.68	44.817
314.05	46.224
314.41	46.289
314.78	46.082
315.14	48.099
315.51	46.584
315.87	45.697
316.24	46.714
316.61	45.571
316.97	44.048
317.34	44.824
317.70	44.933
318.07	43.365
318.43	46.078
318.80	44.602
319.16	44.824
319.53	44.444
319.89	44.980
320.26	44.332
320.62	45.737
320.99	42.380
321.35	44.810
321.72	44.860
322.08	45.217
322.45	45.482
322.81	45.088
323.18	43.278
323.54	44.305
323.91	43.135
324.27	44.336
324.64	45.131
325.00	45.347
325.37	45.455
325.73	42.611
326.10	43.143
326.46	43.049
326.83	44.619
327.19	43.854
327.56	42.485
327.92	43.750
328.29	42.857
328.65	42.830
329.01	43.290
329.38	43.410
329.74	43.059
330.11	43.466
330.47	42.301
330.84	43.462
331.20	45.342
331.56	43.056
331.93	42.374
332.29	42.896
332.66	42.262
333.02	42.844
333.38	42.346
333.75	42.766
334.11	40.197
334.48	43.155
334.84	43.681
335.20	42.909
335.57	40.979
335.93	40.289
336.29	41.436
336.66	40.327
337.02	41.450
337.38	41.944
337.75	41.182
338.11	42.381
338.47	41.150
338.84	42.329
339.20	40.676
339.56	40.917
339.93	41.361
340.29	41.468
340.65	40.771
341.02	40.780
341.38	40.885
341.74	40.106
342.11	38.648
342.47	40.747
342.83	40.398
343.20	41.028
343.56	41.130
343.92	41.275
344.28	40.222
344.65	40.933
345.01	40.449
345.37	39.697
345.73	40.837
346.10	41.156
346.46	40.202
346.82	39.280
347.19	39.568
347.55	39.432
347.91	39.159
348.27	39.208
348.63	41.227
349.00	39.130
349.36	40.150
349.72	40.630
350.08	38.279
350.45	39.665
350.81	39.618
351.17	38.355
351.53	38.204
351.89	38.398
352.26	38.320
352.62	39.274
352.98	38.715
353.34	39.211
353.70	38.754
354.07	39.839
354.43	37.070
354.79	39.224
355.15	39.603
355.51	38.766
355.87	38.188
356.24	37.520
356.60	38.642
356.96	39.206
357.32	37.700
357.68	36.904
358.04	38.288
358.40	36.977
358.77	37.640
359.13	37.310
359.49	36.826
359.85	37.520
360.21	37.719
360.57	37.414
360.93	37.519
361.29	36.178
361.66	37.774
362.02	37.348
362.38	37.167
362.74	38.002
363.10	38.299
363.46	36.842
363.82	38.167
364.18	36.384
364.54	37.206
364.90	36.559
365.26	36.972
365.62	37.372
365.98	37.463
366.35	36.854
366.71	36.142
367.07	37.881
367.43	36.017
367.79	36.254
368.15	35.319
368.51	36.417
368.87	36.109
369.23	35.884
369.59	36.880
369.95	36.730
370.31	36.994
370.67	36.567
371.03	35.176
371.39	36.178
371.75	37.070
372.11	34.023
372.47	36.464
372.83	35.415
373.19	36.020
373.55	35.090
373.91	35.277
374.27	35.365
374.63	35.822
374.99	34.681
375.35	34.819
375.71	36.643
376.07	36.447
376.42	35.510
376.78	35.302
377.14	35.884
377.50	34.728
377.86	35.743
378.22	36.184
378.58	36.026
378.94	34.846
379.30	33.749
379.66	34.922
380.02	33.844
380.38	34.632
380.74	34.590
381.09	35.951
381.45	34.434
381.81	34.485
382.17	34.835
382.53	34.416
382.89	34.526
383.25	34.723
383.61	35.732
383.97	34.349
384.32	35.585
384.68	34.985
385.04	34.130
385.40	34.412
385.76	34.780
386.12	34.994
386.48	34.674
386.83	34.496
387.19	33.761
387.55	34.253
387.91	34.597
388.27	33.150
388.62	34.172
388.98	34.009
389.34	34.229
389.70	34.929
390.06	33.040
390.42	33.744
390.77	34.075
391.13	33.417
391.49	34.605
391.85	34.308
392.20	33.961
392.56	34.075
392.92	33.764
393.28	34.257
393.64	33.754
393.99	34.483
394.35	32.891
394.71	34.355
395.07	33.124
395.42	33.576
395.78	33.225
396.14	34.300
396.50	35.003
396.85	34.127
397.21	32.519
397.57	33.103
397.92	33.074
398.28	34.598
398.64	32.530
399.00	33.804
399.35	32.562
399.71	33.429
400.07	33.253
400.42	32.742
400.78	33.374
401.14	32.910
401.49	33.711
401.85	32.602
402.21	32.289
402.57	33.688
402.92	32.246
403.28	33.647
403.63	33.480
403.99	33.418
404.35	33.542
404.70	32.083
405.06	32.609
405.42	32.256
405.77	32.191
406.13	32.305
406.49	32.445
406.84	33.863
407.20	32.691
407.55	33.806
407.91	32.620
408.27	32.377
408.62	32.862
408.98	32.039
409.34	33.086
409.69	32.106
410.05	31.835
410.40	32.778
410.76	32.992
411.11	32.687
411.47	31.953
411.83	32.329
412.18	32.111
412.54	31.211
412.89	31.650
413.25	32.551
413.60	32.236
413.96	32.086
414.31	32.683
414.67	32.264
415.03	31.957
415.38	32.572
415.74	32.443
416.09	32.724
416.45	32.478
416.80	32.783
417.16	32.666
417.51	33.644
417.87	32.464
418.22	32.189
418.58	33.244
418.93	32.163
419.29	30.794
419.64	31.367
420.00	34.131
420.35	32.000
420.71	32.017
421.06	31.799
421.42	32.212
421.77	32.659
422.12	31.896
422.48	32.377
422.83	31.903
423.19	31.998
423.54	32.099
423.90	31.979
424.25	32.204
424.61	31.885
424.96	31.533
425.31	32.525
425.67	32.570
426.02	32.862
426.38	32.624
426.73	32.385
427.09	33.101
427.44	32.353
427.79	32.115
428.15	31.553
428.50	32.707
428.85	31.634
429.21	32.032
429.56	32.507
429.92	32.203
430.27	31.880
430.62	31.364
430.98	32.856
431.33	32.545
431.68	31.763
432.04	32.644
432.39	31.546
432.74	31.209
433.10	31.667
433.45	30.944
433.80	32.211
434.16	31.856
434.51	32.957
434.86	31.765
435.22	32.754
435.57	33.001
435.92	32.036
436.28	32.260
436.63	31.717
436.98	31.112
437.34	31.639
437.69	31.246
438.04	32.194
438.39	31.399
438.75	31.451
439.10	31.692
439.45	33.293
439.81	32.294
440.16	32.720
440.51	33.075
440.86	32.508
441.22	32.579
441.57	31.788
441.92	33.054
442.27	32.151
442.63	32.441
442.98	32.567
443.33	31.497
443.68	31.936
444.03	32.191
444.39	32.071
444.74	32.609
445.09	32.517
445.44	32.080
445.79	32.491
446.15	31.553
446.50	31.669
446.85	31.828
447.20	32.013
447.55	33.147
447.91	32.487
448.26	33.238
448.61	31.721
448.96	31.899
449.31	32.428
449.66	32.695
450.02	31.717
450.37	31.772
450.72	31.672
451.07	32.595
451.42	31.960
451.77	31.706
452.12	30.502
452.47	31.294
452.83	32.038
453.18	32.132
453.53	31.606
453.88	31.998
454.23	31.469
454.58	32.620
454.93	32.474
455.28	30.730
455.63	32.176
455.98	32.532
456.34	31.290
456.69	32.402
457.04	31.191
457.39	31.896
457.74	32.406
458.09	31.254
458.44	32.241
458.79	31.597
459.14	33.009
459.49	32.716
459.84	31.980
460.19	31.796
460.54	32.579
460.89	31.932
461.24	31.863
461.59	32.482
461.94	31.698
462.29	31.966
462.64	32.492
462.99	31.415
463.34	30.876
463.69	31.982
464.04	32.567
464.39	31.959
464.74	32.270
465.09	32.439
465.44	32.314
465.79	31.179
466.14	31.984
466.49	31.627
466.84	31.886
467.19	32.165
467.54	31.545
467.89	31.396
468.24	32.238
468.59	32.508
468.94	32.063
469.29	32.066
469.64	31.169
469.99	32.025
470.34	31.195
470.68	32.737
471.03	31.989
471.38	32.382
471.73	30.182
472.08	30.461
472.43	30.470
472.78	29.952
473.13	31.497
473.48	30.163
473.83	30.386
474.17	32.772
474.52	31.653
474.87	30.970
475.22	31.422
475.57	31.451
475.92	31.487
476.27	30.966
476.61	31.655
476.96	29.894
477.31	31.531
477.66	31.292
478.01	31.050
478.36	31.100
478.70	31.539
479.05	30.989
479.40	31.849
479.75	31.283
480.10	30.466
480.45	31.700
480.79	32.226
481.14	31.967
481.49	30.936
481.84	31.419
482.19	30.543
482.53	31.990
482.88	31.313
483.23	31.814
483.58	31.368
483.92	30.542
484.27	30.857
484.62	30.614
484.97	31.302
485.31	30.997
485.66	29.769
486.01	31.762
486.36	32.632
486.70	32.955
487.05	33.572
487.40	32.187
487.75	32.423
488.09	31.706
488.44	32.221
488.79	31.266
489.13	31.731
489.48	30.782
489.83	30.224
490.17	30.202
490.52	30.346
490.87	29.570
491.22	31.232
491.56	30.028
491.91	29.732
492.26	30.627
492.60	31.430
492.95	31.333
493.30	29.604
493.64	31.139
493.99	29.903
494.34	29.951
494.68	30.476
495.03	29.635
495.37	30.667
495.72	30.591
496.07	30.829
496.41	30.566
496.76	30.170
497.11	30.088
497.45	31.408
497.80	30.727
498.14	29.806
498.49	29.304
498.84	30.539
499.18	30.572
499.53	30.159
499.87	30.399
500.22	30.564
500.56	31.518
500.91	30.020
501.26	29.758
501.60	30.939
501.95	31.004
502.29	30.654
502.64	30.792
502.98	31.179
503.33	29.251
503.67	30.217
504.02	30.841
504.36	30.381
504.71	29.697
505.06	29.341
505.40	29.848
505.75	31.186
506.09	29.448
506.44	30.441
506.78	29.898
507.13	30.300
507.47	29.138
507.82	29.327
508.16	29.635
508.51	29.696
508.85	30.037
509.19	30.176
509.54	29.973
509.88	29.072
510.23	30.070
510.57	29.503
510.92	28.785
511.26	28.805
511.61	29.428
511.95	29.753
512.30	28.603
512.64	29.661
512.98	29.141
513.33	28.987
513.67	29.903
514.02	30.149
514.36	29.886
514.70	30.245
515.05	29.847
515.39	29.457
515.74	31.078
516.08	30.006
516.42	29.976
516.77	29.666
517.11	28.665
517.46	29.862
517.80	29.797
518.14	28.353
518.49	29.207
518.83	29.405
519.17	28.866
519.52	28.952
519.86	28.691
520.20	29.405
520.55	28.205
520.89	29.423
521.23	28.436
521.58	29.968
521.92	29.423
522.26	28.953
522.61	29.416
522.95	29.338
523.29	28.971
523.64	28.780
523.98	28.516
524.32	28.802
524.66	30.026
525.01	28.831
525.35	30.071
525.69	29.226
526.04	28.836
526.38	29.896
526.72	27.600
527.06	28.988
527.41	28.694
527.75	28.083
528.09	28.239
528.43	29.980
528.78	28.515
529.12	28.903
529.46	28.590
529.80	29.892
530.15	29.967
530.49	29.226
530.83	29.685
531.17	28.610
531.51	29.070
531.86	28.280
532.20	28.184
532.54	28.591
532.88	29.158
533.22	29.839
533.57	29.161
533.91	29.504
534.25	29.883
534.59	29.699
534.93	28.823
535.27	29.315
535.62	29.618
535.96	29.615
536.30	29.749
536.64	29.152
536.98	29.268
537.32	30.085
537.66	29.663
538.01	29.161
538.35	29.958
538.69	29.760
539.03	29.118
539.37	29.408
539.71	29.584
540.05	29.260
540.39	29.917
540.73	29.010
541.07	29.627
541.42	29.301
541.76	29.594
542.10	29.456
542.44	29.465
542.78	27.598
543.12	28.091
543.46	28.720
543.80	29.632
544.14	28.438
544.48	29.780
544.82	29.665
545.16	30.328
545.50	29.306
545.84	28.895
546.18	29.007
546.52	29.416
546.86	29.331
547.20	29.828
547.54	28.834
547.88	30.095
548.22	28.468
548.56	29.156
548.90	30.593
549.24	28.444
549.58	29.408
549.92	29.521
550.26	29.011
550.60	30.855
550.94	29.126
551.28	29.521
551.62	29.846
551.96	28.571
552.30	29.532
552.64	28.984
552.98	30.169
553.32	28.673
553.66	28.302
554.00	28.905
554.34	29.321
554.68	28.614
555.02	29.613
555.36	29.170
555.69	28.791
556.03	28.266
556.37	28.470
556.71	28.664
557.05	29.008
557.39	28.922
557.73	28.711
558.07	29.713
558.41	29.020
558.75	29.696
559.08	28.920
559.42	29.286
559.76	28.102
560.10	27.905
560.44	28.295
560.78	29.021
561.12	28.420
561.45	30.077
561.79	29.762
562.13	29.028
562.47	28.777
562.81	28.530
563.15	29.055
563.48	30.622
563.82	29.307
564.16	28.691
564.50	28.784
564.84	29.384
565.17	29.577
565.51	31.216
565.85	29.973
566.19	29.708
566.52	30.496
566.86	30.527
567.20	29.577
567.54	30.839
567.88	31.576
568.21	30.939
568.55	31.196
568.89	31.006
569.23	31.777
569.56	31.480
569.90	31.790
570.24	32.192
570.57	31.709
570.91	33.043
571.25	32.720
571.59	31.797
571.92	31.674
572.26	31.582
572.60	32.403
572.93	31.880
573.27	31.881
573.61	32.190
573.95	32.387
574.28	31.992
574.62	32.469
574.96	31.738
575.29	32.458
575.63	31.485
575.97	31.716
576.30	31.825
576.64	31.682
576.98	32.278
577.31	32.145
577.65	32.890
577.98	33.052
578.32	32.492
578.66	32.431
578.99	31.774
579.33	31.801
579.67	31.819
580.00	32.582
580.34	32.587
580.67	31.800
581.01	32.373
581.35	32.214
581.68	32.474
582.02	32.575
582.35	33.185
582.69	33.015
583.02	33.048
583.36	32.482
583.70	32.762
584.03	33.083
584.37	32.976
584.70	32.225
585.04	32.565
585.37	31.916
585.71	32.535
586.04	31.745
586.38	31.929
586.72	32.826
587.05	32.062
587.39	32.206
587.72	32.887
588.06	32.604
588.39	32.242
588.73	32.448
589.06	32.877
589.40	32.803
589.73	32.092
590.07	31.571
590.40	32.663
590.73	32.825
591.07	31.976
591.40	31.745
591.74	31.267
592.07	32.328
592.41	32.200
592.74	31.422
593.08	30.947
593.41	31.631
593.75	31.567
594.08	31.686
594.41	31.477
594.75	31.908
595.08	31.896
595.42	31.800
595.75	32.370
596.09	31.665
596.42	31.253
596.75	31.394
597.09	30.934
597.42	30.668
597.75	31.516
598.09	31.191
598.42	31.318
598.76	31.660
599.09	31.250
599.42	31.262
599.76	30.700
600.09	31.523
600.42	31.691
600.76	31.315
601.09	31.527
601.42	31.414
601.76	31.163
602.09	31.559
602.42	31.887
602.76	32.216
603.09	31.478
603.42	32.107
603.76	31.169
604.09	31.835
604.42	31.303
604.76	31.909
605.09	31.993
605.42	31.287
605.75	31.042
606.09	31.507
606.42	30.984
606.75	31.169
607.09	31.077
607.42	30.394
607.75	30.595
608.08	30.279
608.42	30.471
608.75	31.663
609.08	31.041
609.41	31.827
609.75	31.200
610.08	31.702
610.41	30.773
610.74	30.327
611.07	31.059
611.41	30.877
611.74	30.810
612.07	30.996
612.40	31.291
612.73	30.508
613.07	30.596
613.40	30.908
613.73	30.722
614.06	30.996
614.39	31.416
614.72	29.804
615.06	30.559
615.39	29.967
615.72	29.871
616.05	30.168
616.38	30.028
616.71	29.541
617.05	30.821
617.38	30.987
617.71	30.818
618.04	31.238
618.37	31.084
618.70	29.703
619.03	31.250
619.36	29.161
619.69	30.478
620.03	31.118
620.36	29.757
620.69	29.550
621.02	29.740
621.35	29.461
621.68	30.357
622.01	29.333
622.34	30.567
622.67	30.205
623.00	29.632
623.33	28.582
623.66	28.721
623.99	29.274
624.32	29.658
624.65	29.098
624.99	29.797
625.32	28.961
625.65	29.222
625.98	29.331
626.31	28.429
626.64	28.683
626.97	29.668
627.30	29.335
627.63	28.856
627.96	29.290
628.29	28.307
628.62	29.007
628.95	29.259
629.28	27.419
629.61	28.614
629.94	28.543
630.26	26.087
630.59	29.761
630.92	29.538
631.25	27.692
631.58	28.965
631.91	26.316
632.24	27.179
632.57	27.614
632.90	26.097
633.23	27.059
633.56	26.322
633.89	27.374
634.22	29.877
634.55	26.557
634.88	27.842
635.20	26.923
635.53	26.800
635.86	26.528
636.19	29.237
636.52	27.423
636.85	28.040
637.18	26.038
637.51	26.164
637.83	24.967
638.16	27.694
638.49	25.341
638.82	26.316
639.15	29.308
639.48	26.685
639.81	27.894
640.13	25.108
640.46	26.822
640.79	24.890
641.12	27.622
641.45	26.426
641.77	25.778
642.10	27.172
642.43	25.080
642.76	28.713
643.09	27.625
643.41	24.272
643.74	24.382
644.07	25.944
644.40	25.845
644.73	25.919
645.05	25.839
645.38	28.395
645.71	24.823
646.04	24.057
646.36	26.241
646.69	25.540
647.02	23.251
647.35	25.933
647.67	24.680
648.00	26.679
648.33	27.986
648.66	25.932
648.98	24.456
649.31	26.116
649.64	25.432
649.96	24.311
650.29	26.065
650.62	23.932
650.94	27.963
651.27	25.326
651.60	26.126
651.92	27.797
652.25	25.222
652.58	24.000
652.90	26.587
653.23	28.235
653.56	28.088
653.88	26.289
654.21	24.869
654.54	26.316
654.86	27.844
655.19	27.924
655.52	30.573
655.84	31.671
656.17	36.558
656.49	50.452
656.82	52.734
657.15	40.504
657.47	30.014
657.80	22.435
658.13	21.937
658.45	33.241
658.78	33.604
659.10	32.632
659.43	31.899
659.75	30.488
660.08	28.966
660.41	28.192
660.73	24.309
661.06	26.863
661.38	23.288
661.71	20.945
662.03	22.532
662.36	23.297
662.68	22.345
663.01	23.144
663.33	22.506
663.66	22.326
663.98	21.395
664.31	24.520
664.63	23.272
664.96	21.522
665.28	20.309
665.61	24.459
665.93	28.696
666.26	24.295
666.58	20.134
666.91	23.294
667.23	22.642
667.56	26.777
667.88	22.302
668.21	24.344
668.53	27.423
668.86	27.830
669.18	19.575
669.50	21.792
669.83	22.326
670.15	23.776
670.48	23.206
670.80	24.424
671.13	21.924
671.45	21.918
671.77	22.961
672.10	25.941
672.42	24.532
672.75	25.400
673.07	26.118
673.39	26.055
673.72	24.063
674.04	23.958
674.37	26.695
674.69	26.552
675.01	24.667
675.34	22.523
675.66	23.380
675.98	27.938
676.31	24.083
676.63	27.078
676.95	23.409
677.28	24.706
677.60	22.169
677.92	25.459
678.25	25.383
678.57	24.675
678.89	23.739
679.22	22.595
679.54	24.096
679.86	27.237
680.18	27.184
680.51	25.568
680.83	23.260
681.15	27.000
681.48	26.639
681.80	29.132
682.12	23.992
682.44	26.360
682.77	26.049
683.09	24.714
683.41	23.409
683.73	26.267
684.06	23.451
684.38	22.796
684.70	24.619
685.02	25.519
685.34	25.494
685.67	22.702
685.99	29.114
686.31	25.133
686.63	25.603
686.96	23.574
687.28	22.626
687.60	25.095
687.92	27.475
688.24	25.000
688.56	24.236
688.89	22.768
689.21	25.111
689.53	23.434
689.85	26.977
690.17	25.893
690.49	25.768
690.82	22.573
691.14	24.286
691.46	25.467
691.78	25.000
692.10	25.806
692.42	22.944
692.74	25.000
693.06	25.000
693.39	24.208
693.71	24.208
694.03	24.480
694.35	26.402
694.67	22.727
694.99	22.454
695.31	23.499
695.63	23.750
695.95	22.475
696.27	20.984
696.59	23.889
696.91	24.090
697.23	22.108
697.56	24.505
697.88	26.667
698.20	26.651
698.52	24.000
698.84	21.531
699.16	24.500
699.48	22.807
699.80	22.333
700.12	24.259
700.44	27.451
700.76	22.674
701.08	20.606
701.40	24.096
701.72	27.778
702.04	26.073
702.36	22.408
702.68	20.420
703.00	25.152
703.32	21.701
703.64	24.011
703.96	23.188
704.28	23.006
704.60	25.714
704.91	21.451
705.23	21.595
705.55	21.201
705.87	21.300
706.19	19.259
706.51	17.526
706.83	26.045
707.15	21.495
707.47	24.930
707.79	23.438
708.11	25.250
708.43	21.500
708.74	23.773
709.06	28.451
709.38	23.547
709.70	22.485
710.02	28.025
710.34	24.149
710.66	16.987
710.98	23.841
711.29	22.295
711.61	25.085
711.93	23.453
712.25	24.399
712.57	24.908
712.89	21.269
713.20	24.567
713.52	22.300
713.84	23.891
714.16	27.148
714.48	22.258
714.80	25.000
715.11	27.964
715.43	21.003
715.75	24.000
716.07	22.591
716.39	21.141
716.70	18.450
717.02	25.573
717.34	25.911
717.66	18.142
717.97	22.174
718.29	19.665
718.61	25.197
718.93	18.992
719.24	25.095
719.56	22.088
719.88	22.337
720.20	22.727
720.51	20.690
720.83	22.008
721.15	25.630
721.46	20.968
721.78	20.949
722.10	21.561
722.42	19.502
722.73	23.673
723.05	27.755
723.37	27.542
723.68	21.171
724.00	26.923
724.32	17.333
724.63	23.636
724.95	26.201
725.27	16.129
725.58	23.305
725.90	17.063
726.22	22.008
726.53	25.763
726.85	24.719
727.16	32.075
727.48	15.385
727.80	23.077
728.11	25.000
728.43	22.353
728.74	18.548
729.06	25.200
729.38	28.947
729.69	20.717
730.01	19.615
730.32	27.985
730.64	26.502
730.96	23.396
731.27	22.333
731.59	25.085
731.90	24.522
732.22	28.707
732.53	26.910
732.85	23.759
733.16	26.263
733.48	24.101
733.80	26.087
734.11	22.712
734.43	22.337
734.74	27.576
735.06	22.476
735.37	25.076
735.69	25.253
736.00	24.739
736.32	26.846
736.63	25.352
736.95	25.256
737.26	23.843
737.58	25.168
737.89	26.740
738.21	22.556
738.52	24.280
738.83	23.581
739.15	18.777
739.46	25.591
739.78	23.443
740.09	23.529
740.41	28.261
740.72	21.260
741.04	24.291
741.35	19.574
741.66	20.853
741.98	15.816
742.29	19.802
742.61	21.990
742.92	15.166
743.23	16.204
743.55	22.172
743.86	22.967
744.18	22.967
744.49	17.553
744.80	19.022
745.12	26.738
745.43	20.488
745.74	20.833
746.06	22.927
746.37	27.749
746.68	23.223
747.00	21.277
747.31	24.876
747.62	18.932
747.94	25.359
748.25	23.267
748.56	16.940
748.88	23.037
749.19	23.404
749.50	20.690
749.82	15.566
750.13	22.477
750.44	25.188
750.75	23.881
751.07	31.752
751.38	26.820
751.69	20.784
752.01	23.643
752.32	23.108
752.63	22.530
752.94	17.672
753.26	30.126
753.57	26.244
753.88	23.894
754.19	25.417
754.51	21.074
754.82	22.672
755.13	26.250
755.44	23.790
755.75	26.953
756.07	25.681
756.38	22.642
756.69	23.755
757.00	21.667
757.31	24.510
757.63	24.085
757.94	26.667
758.25	23.014
758.56	27.926
758.87	21.530
759.18	17.757
759.50	25.455
759.81	27.090
760.12	23.871
760.43	21.515
760.74	25.309
761.05	27.692
761.36	25.284
761.67	27.273
761.99	29.252
762.30	22.545
762.61	24.901
762.92	26.697
763.23	19.820
763.54	20.093
763.85	22.458
764.16	21.577
764.47	22.177
764.78	22.344
765.10	28.956
765.41	22.713
765.72	27.619
766.03	23.684
766.34	26.642
766.65	23.506
766.96	25.758
767.27	26.596
767.58	17.241
767.89	18.440
768.20	13.068
768.51	18.132
768.82	25.123
769.13	21.659
769.44	23.176
769.75	25.114
770.06	27.155
770.37	22.115
770.68	21.320
770.99	22.624
771.30	27.451
771.61	23.982
771.92	26.293
772.23	26.108
772.54	22.043
772.85	29.012
773.16	29.775
773.47	33.333
773.78	27.451
774.09	22.754
774.39	20.000
774.70	23.567
775.01	26.207
775.32	24.286
775.63	18.182
775.94	16.031
776.25	18.898
776.56	17.500
776.87	23.077
777.18	23.077
777.48	17.241
777.79	19.130
778.10	7.619
778.41	11.712
778.72	26.984
779.03	22.556
779.34	27.660
779.65	26.027
779.95	19.863
780.26	21.379
780.57	13.008
780.88	20.472
781.19	23.276
781.50	30.233
781.80	20.710
782.11	22.013
782.42	29.231
782.73	22.302
783.04	16.296
783.34	18.750
783.65	2.564
783.96	27.869
784.27	22.759
784.57	16.260
784.88	22.656
785.19	24.000
785.50	26.000
785.81	12.069
786.11	20.690
786.42	11.650
786.73	27.273
787.04	16.327
787.34	14.286
787.65	21.905
787.96	15.044
788.26	19.091
788.57	13.675
788.88	26.563
789.19	19.841
789.49	24.348
789.80	25.510
790.11	28.283
790.41	12.727
790.72	17.391
791.03	20.455
791.33	32.500
791.64	22.500
791.95	20.930
792.25	22.340
792.56	12.360
792.87	10.959
793.17	14.493
793.48	10.667
793.79	12.500
794.09	22.500
794.40	22.642
794.70	16.505
795.01	21.951
795.32	22.222
795.62	22.857
795.93	14.706
796.23	33.962
796.54	25.000
796.85	36.765
797.15	19.718
797.46	26.389
797.76	18.182
798.07	10.465
798.37	7.895
798.68	13.636
798.99	24.691
799.29	27.143
799.60	20.290
799.90	12.000
800.21	16.393
800.51	15.385
800.82	13.559
801.12	28.986
801.43	9.836
801.73	28.571
802.04	-2.000
802.34	8.955
802.65	32.692
802.95	5.357
803.26	9.615
803.56	21.569
803.87	2.174
804.17	14.667
804.48	20.635
804.78	-11.111
805.09	-2.174
805.39	2.222
805.70	16.667
806.00	5.263
806.30	12.676
806.61	10.000
806.91	6.944
807.22	13.158
807.52	12.000
807.83	18.182
808.13	18.056
808.43	26.471
808.74	-2.985
809.04	15.254
809.35	-5.769
809.65	12.500
809.95	-24.324
810.26	-11.364
810.56	5.479
810.86	7.143
811.17	32.000
811.47	16.327
811.77	18.421
812.08	18.182
812.38	-3.774
812.69	5.000
812.99	24.242
813.29	21.053
813.59	25.714
813.90	20.455
814.20	-5.128
814.50	5.769
814.81	15.094
815.11	6.383
815.41	13.559
815.72	4.762
816.02	33.333
816.32	12.500
816.62	9.756
816.93	-2.703
817.23	0.000
817.53	-2.083
817.84	13.043
818.14	21.154
818.44	-23.684
818.74	10.870
819.04	-7.500
819.35	8.108
819.65	14.706
819.95	0.000
820.25	7.143
820.56	35.000
820.86	3.448
821.16	40.000
821.46	19.149
821.76	42.500
822.07	25.581
822.37	-16.216
822.67	-6.250
822.97	2.381
823.27	0.000
823.57	4.000
823.88	-33.333
824.18	3.571
824.48	11.765
824.78	29.032
825.08	-34.783
825.38	42.424
825.69	-45.833
825.99	-36.842
826.29	-5.556
826.59	0.000
826.89	-19.048
827.19	23.913
827.49	30.000
827.79	5.714
828.09	10.714
828.39	9.091
828.70	21.622
829.00	-3.571
829.30	-33.333
829.60	23.333
829.90	28.125
830.20	5.263
830.50	18.519
830.80	-8.696
831.10	18.182
831.40	24.242
831.70	12.903
832.00	28.571
832.30	28.571
832.60	-58.333
832.90	3.448
833.20	-25.000
833.50	18.182
833.80	18.519
834.10	23.077
834.40	12.500
834.70	-44.444
835.00	57.895
835.30	7.692
835.60	20.000
835.90	25.806
836.20	36.364
836.50	14.286
836.80	-11.538
837.10	-14.286
837.40	-266.667
837.70	45.455
838.00	-36.364
838.30	0.000
838.60	-53.846
838.90	-4.545
839.19	-7.143
839.49	13.333
839.79	23.077
840.09	-108.333
840.39	39.286
840.69	-7.143
840.99	-30.769
841.29	-10.526
841.59	-130.000
841.88	-63.636
842.18	-70.000
842.48	-18.750
842.78	-53.333
843.08	3.704
843.38	-110.000
843.68	43.478
843.97	-40.000
844.27	-93.333
844.57	-40.000
844.87	-16.667
845.17	-4.762
845.47	-13.333
845.76	0.000
846.06	23.529
846.36	-140.000
846.66	-35.714
846.96	-40.000
847.25	-125.000
847.55	-28.571
847.85	-87.500
848.15	-13.636
848.44	-566.667
848.74	-20.000
849.04	0.000
849.34	18.182
849.63	-66.667
849.93	-280.000
850.23	-38.889
850.53	80.000
850.82	-84.615
851.12	-66.667
851.42	60.000
851.71	7.692
852.01	14.286
852.31	-300.000
852.61	27.273
852.90	5.000
853.20	0.000
853.50	-66.667
853.79	8.696
854.09	16.667
854.39	-26.316
854.68	-41.667
854.98	-6.452
855.28	19.231
855.57	-45.000
855.87	11.111
856.17	22.222
856.46	-28.571
856.76	-33.333
857.05	33.333
857.35	52.000
857.65	16.667
857.94	7.692
858.24	17.241
858.53	-22.222
858.83	25.926
859.13	-31.818
859.42	-30.435
859.72	-350.000
860.01	-333.333
860.31	40.000
860.60	-4.762
860.90	-233.333
861.20	-106.667
861.49	-600.000
861.79	13.333
862.08	-10.000
862.38	46.667
862.67	-220.000
862.97	-83.333
863.26	100.000
863.56	5.556
863.85	-433.333
864.15	0.000
864.44	-80.000
864.74	28.571
865.03	-50.000
865.33	-80.000
865.62	33.333
865.92	-41.667
866.21	-266.667
866.51	25.000
866.80	-90.909
867.10	-750.000
867.39	16.667
867.69	0.000
867.98	-7.692
868.27	-166.667
868.57	-26.667
868.86	5.556
869.16	-53.846
869.45	46.667
869.75	-200.000
870.04	0.000
870.33	-71.429
870.63	33.333
870.92	433.333
871.22	-220.000
871.51	-1600.000
871.80	22.222
872.10	333.333
>>>>>End Processed Spectral Data<<<<<
