SpectraSuite Data File
++++++++++++++++++++++++++++++++++++
Date: Fri May 15 20:39:45 PDT 2015
User: schluterlab
Dark Spectrum Present: Yes
Reference Spectrum Present: Yes
Number of Sampled Component Spectra: 1
Spectrometers: USB2E3373
Integration Time (usec): 3000 (USB2E3373)
Spectra Averaged: 3 (USB2E3373)
Boxcar Smoothing: 0 (USB2E3373)
Correct for Electrical Dark: No (USB2E3373)
Strobe/Lamp Enabled: No (USB2E3373)
Correct for Detector Non-linearity: No (USB2E3373)
Correct for Stray Light: No (USB2E3373)
Number of Pixels in Processed Spectrum: 2048
>>>>>Begin Processed Spectral Data<<<<<
178.53	0.000
178.91	0.000
179.29	37.500
179.67	-700.000
180.04	28.571
180.42	275.000
180.80	-200.000
181.18	66.667
181.56	350.000
181.94	-100.000
182.31	900.000
182.69	-60.000
183.07	-600.000
183.45	-80.000
183.83	16.667
184.20	27.273
184.58	-0.000
184.96	-75.000
185.34	133.333
185.72	50.000
186.09	53.846
186.47	-300.000
186.85	-16.667
187.23	144.444
187.61	-600.000
187.98	-33.333
188.36	11.111
188.74	-433.333
189.12	-11.765
189.49	44.444
189.87	0.000
190.25	42.857
190.63	-150.000
191.00	-433.333
191.38	31.579
191.76	550.000
192.14	-175.000
192.51	150.000
192.89	-88.889
193.27	-42.857
193.65	200.000
194.02	136.364
194.40	50.000
194.78	-75.000
195.15	-58.333
195.53	-50.000
195.91	275.000
196.29	-100.000
196.66	53.846
197.04	171.429
197.42	77.778
197.79	-266.667
198.17	-100.000
198.55	900.000
198.92	-200.000
199.30	600.000
199.68	-120.000
200.05	-33.333
200.43	0.000
200.81	-100.000
201.18	-66.667
201.56	1100.000
201.94	-600.000
202.31	-233.333
202.69	-140.000
203.07	125.000
203.44	-100.000
203.82	0.000
204.19	7.143
204.57	-500.000
204.95	150.000
205.32	-30.000
205.70	71.429
206.08	-175.000
206.45	155.556
206.83	14.286
207.20	-157.143
207.58	-0.000
207.96	-66.667
208.33	-150.000
208.71	175.000
209.08	-150.000
209.46	-600.000
209.84	-140.000
210.21	-900.000
210.59	0.000
210.96	0.000
211.34	-75.000
211.71	53.333
212.09	-171.429
212.46	-200.000
212.84	0.000
213.22	-30.000
213.59	450.000
213.97	69.231
214.34	36.364
214.72	16.667
215.09	225.000
215.47	46.154
215.84	-18.182
216.22	-233.333
216.59	-87.500
216.97	100.000
217.34	-325.000
217.72	-80.000
218.09	112.500
218.47	200.000
218.84	-1300.000
219.22	-33.333
219.59	-120.000
219.97	600.000
220.34	225.000
220.72	100.000
221.09	-50.000
221.47	100.000
221.84	-600.000
222.22	-400.000
222.59	27.273
222.97	100.000
223.34	133.333
223.72	0.000
224.09	0.000
224.46	25.000
224.84	233.333
225.21	-30.000
225.59	-26.667
225.96	-50.000
226.34	275.000
226.71	28.571
227.08	16.667
227.46	62.500
227.83	-400.000
228.21	-44.444
228.58	54.545
228.95	-125.000
229.33	70.000
229.70	12.500
230.08	-12.500
230.45	-28.571
230.82	-28.571
231.20	-6.667
231.57	50.000
231.95	-28.571
232.32	-70.000
232.69	28.571
233.07	-500.000
233.44	-40.000
233.81	-100.000
234.19	11.111
234.56	23.529
234.93	50.000
235.31	75.000
235.68	-80.000
236.05	-15.385
236.43	-35.000
236.80	52.941
237.17	31.250
237.55	-10.000
237.92	-22.222
238.29	8.333
238.67	30.000
239.04	26.471
239.41	-9.756
239.79	-3.333
240.16	39.024
240.53	5.263
240.91	6.522
241.28	30.159
241.65	16.071
242.02	19.178
242.40	33.333
242.77	13.559
243.14	31.818
243.51	23.750
243.89	31.034
244.26	13.793
244.63	28.571
245.00	25.773
245.38	22.680
245.75	26.966
246.12	18.966
246.49	27.273
246.87	25.000
247.24	23.529
247.61	25.439
247.98	30.894
248.36	33.750
248.73	22.368
249.10	18.182
249.47	24.051
249.84	23.529
250.22	32.941
250.59	33.333
250.96	31.925
251.33	21.512
251.70	32.941
252.08	26.904
252.45	26.733
252.82	30.151
253.19	29.493
253.56	22.430
253.94	30.180
254.31	29.130
254.68	35.526
255.05	29.134
255.42	28.384
255.79	29.344
256.16	26.848
256.54	30.597
256.91	28.897
257.28	26.022
257.65	26.217
258.02	28.014
258.39	28.956
258.76	31.136
259.14	25.249
259.51	30.421
259.88	29.553
260.25	31.699
260.62	27.083
260.99	28.475
261.36	26.027
261.73	28.165
262.10	28.571
262.47	26.687
262.85	26.332
263.22	28.000
263.59	31.776
263.96	30.124
264.33	31.212
264.70	27.976
265.07	31.845
265.44	32.295
265.81	27.401
266.18	30.055
266.55	27.763
266.92	27.202
267.29	28.721
267.66	27.110
268.03	32.984
268.40	25.587
268.77	33.155
269.14	29.017
269.51	26.735
269.88	27.431
270.25	26.020
270.62	25.854
270.99	26.087
271.36	26.895
271.73	29.812
272.10	29.197
272.47	28.605
272.84	23.515
273.21	29.698
273.58	30.361
273.95	28.375
274.32	27.252
274.69	26.471
275.06	30.357
275.43	28.345
275.80	25.386
276.17	25.057
276.54	26.767
276.91	28.947
277.28	24.454
277.65	27.066
278.02	27.021
278.39	25.383
278.76	27.883
279.13	22.199
279.50	27.731
279.87	27.862
280.23	24.946
280.60	26.511
280.97	28.081
281.34	24.808
281.71	29.158
282.08	26.585
282.45	25.440
282.82	27.799
283.19	26.886
283.56	26.397
283.92	26.186
284.29	24.808
284.66	24.031
285.03	26.719
285.40	26.276
285.77	25.483
286.14	25.271
286.51	25.830
286.87	23.766
287.24	25.230
287.61	23.280
287.98	26.140
288.35	24.437
288.72	24.343
289.08	26.910
289.45	25.132
289.82	24.476
290.19	21.843
290.56	22.813
290.93	21.380
291.29	20.801
291.66	24.567
292.03	22.967
292.40	21.935
292.77	21.850
293.13	20.455
293.50	22.003
293.87	20.000
294.24	22.411
294.60	22.951
294.97	21.577
295.34	21.626
295.71	20.566
296.08	20.777
296.44	18.208
296.81	20.417
297.18	20.580
297.55	21.409
297.91	18.630
298.28	20.185
298.65	19.403
299.02	19.407
299.38	16.963
299.75	20.414
300.12	18.194
300.48	19.499
300.85	18.251
301.22	17.922
301.59	17.895
301.95	19.873
302.32	18.547
302.69	18.408
303.05	18.069
303.42	17.933
303.79	19.042
304.15	18.877
304.52	17.479
304.89	18.012
305.25	16.707
305.62	16.336
305.99	18.012
306.35	17.919
306.72	17.210
307.09	18.700
307.45	18.255
307.82	15.972
308.19	18.235
308.55	18.975
308.92	18.627
309.29	16.760
309.65	16.469
310.02	17.602
310.38	17.673
310.75	18.251
311.12	17.976
311.48	16.967
311.85	17.801
312.22	17.194
312.58	16.242
312.95	16.756
313.31	17.495
313.68	18.010
314.05	16.122
314.41	17.216
314.78	18.144
315.14	18.397
315.51	18.116
315.87	18.955
316.24	20.627
316.61	18.701
316.97	19.544
317.34	20.215
317.70	19.025
318.07	19.519
318.43	20.294
318.80	20.265
319.16	20.117
319.53	21.178
319.89	19.980
320.26	21.559
320.62	22.066
320.99	21.399
321.35	21.891
321.72	22.638
322.08	21.752
322.45	21.929
322.81	23.772
323.18	22.767
323.54	25.000
323.91	24.635
324.27	26.172
324.64	27.341
325.00	27.555
325.37	28.834
325.73	27.471
326.10	29.700
326.46	30.045
326.83	30.709
327.19	30.078
327.56	31.277
327.92	32.042
328.29	31.607
328.65	31.321
329.01	32.629
329.38	33.456
329.74	32.956
330.11	34.569
330.47	32.653
330.84	34.423
331.20	36.312
331.56	34.444
331.93	35.434
332.29	34.739
332.66	35.566
333.02	35.688
333.38	35.289
333.75	37.821
334.11	35.989
334.48	36.899
334.84	36.905
335.20	38.152
335.57	37.081
335.93	38.302
336.29	38.766
336.66	37.057
337.02	37.454
337.38	38.056
337.75	38.364
338.11	39.044
338.47	39.325
338.84	38.078
339.20	38.940
339.56	39.450
339.93	37.422
340.29	39.541
340.65	40.054
341.02	38.298
341.38	39.469
341.74	39.488
342.11	38.648
342.47	38.523
342.83	39.706
343.20	37.108
343.56	40.870
343.92	39.770
344.28	40.820
344.65	39.292
345.01	38.721
345.37	40.706
345.73	38.912
346.10	39.862
346.46	40.202
346.82	40.344
347.19	40.399
347.55	39.850
347.91	40.615
348.27	40.582
348.63	41.567
349.00	40.443
349.36	41.397
349.72	43.118
350.08	41.393
350.45	42.298
350.81	41.196
351.17	40.717
351.53	42.122
351.89	41.040
352.26	41.280
352.62	43.548
352.98	40.161
353.34	40.258
353.70	43.285
354.07	40.887
354.43	41.313
354.79	41.123
355.15	42.302
355.51	43.829
355.87	43.042
356.24	41.680
356.60	42.765
356.96	41.825
357.32	42.492
357.68	42.846
358.04	44.265
358.40	44.212
358.77	44.737
359.13	44.355
359.49	43.220
359.85	43.994
360.21	44.657
360.57	43.229
360.93	45.234
361.29	43.278
361.66	45.455
362.02	44.167
362.38	45.773
362.74	45.269
363.10	46.275
363.46	45.219
363.82	46.807
364.18	44.280
364.54	45.441
364.90	47.097
365.26	46.652
365.62	47.080
365.98	46.114
366.35	46.322
366.71	46.637
367.07	47.097
367.43	47.232
367.79	47.350
368.15	47.164
368.51	48.434
368.87	46.590
369.23	46.426
369.59	48.032
369.95	47.067
370.31	48.555
370.67	47.537
371.03	47.573
371.39	46.754
371.75	48.278
372.11	47.718
372.47	49.038
372.83	47.622
373.19	48.431
373.55	49.170
373.91	48.668
374.27	50.106
374.63	49.677
374.99	49.149
375.35	49.304
375.71	51.608
376.07	49.368
376.42	49.796
376.78	49.530
377.14	50.711
377.50	50.664
377.86	49.732
378.22	50.734
378.58	51.603
378.94	50.536
379.30	50.655
379.66	51.473
380.02	50.766
380.38	50.517
380.74	50.748
381.09	51.350
381.45	51.743
381.81	50.895
382.17	51.396
382.53	51.780
382.89	53.233
383.25	53.516
383.61	52.683
383.97	52.762
384.32	51.970
384.68	53.251
385.04	51.164
385.40	52.645
385.76	53.396
386.12	53.752
386.48	54.917
386.83	54.471
387.19	53.419
387.55	53.890
387.91	54.156
388.27	53.114
388.62	55.318
388.98	54.389
389.34	53.716
389.70	54.382
390.06	53.304
390.42	54.793
390.77	55.657
391.13	54.477
391.49	53.946
391.85	54.971
392.20	54.614
392.56	54.100
392.92	54.081
393.28	55.601
393.64	53.453
393.99	54.608
394.35	54.586
394.71	55.939
395.07	54.683
395.42	55.313
395.78	55.049
396.14	54.603
396.50	55.295
396.85	55.055
397.21	54.762
397.57	55.361
397.92	56.261
398.28	55.805
398.64	54.277
399.00	54.966
399.35	53.499
399.71	55.026
400.07	54.716
400.42	54.468
400.78	54.562
401.14	55.051
401.49	54.735
401.85	54.784
402.21	55.843
402.57	55.000
402.92	54.078
403.28	55.952
403.63	55.738
403.99	54.528
404.35	56.590
404.70	54.524
405.06	54.054
405.42	55.998
405.77	55.491
406.13	54.598
406.49	53.641
406.84	55.501
407.20	55.569
407.55	53.896
407.91	54.144
408.27	54.493
408.62	53.662
408.98	54.590
409.34	54.151
409.69	54.651
410.05	51.970
410.40	54.938
410.76	54.222
411.11	55.062
411.47	55.030
411.83	53.672
412.18	54.955
412.54	53.184
412.89	53.879
413.25	54.152
413.60	53.540
413.96	53.374
414.31	54.329
414.67	51.828
415.03	54.860
415.38	53.329
415.74	53.290
416.09	55.062
416.45	53.342
416.80	52.941
417.16	54.765
417.51	54.164
417.87	52.934
418.22	54.469
418.58	54.783
418.93	52.978
419.29	51.665
419.64	54.958
420.00	55.038
420.35	52.657
420.71	52.491
421.06	52.732
421.42	53.245
421.77	52.370
422.12	52.894
422.48	53.005
422.83	53.770
423.19	53.160
423.54	53.028
423.90	52.827
424.25	53.157
424.61	53.917
424.96	51.974
425.31	53.495
425.67	53.638
426.02	54.005
426.38	53.601
426.73	53.753
427.09	54.051
427.44	52.471
427.79	52.092
428.15	52.973
428.50	53.180
428.85	51.229
429.21	51.839
429.56	53.639
429.92	51.567
430.27	51.529
430.62	51.228
430.98	51.274
431.33	53.207
431.68	52.486
432.04	53.941
432.39	51.226
432.74	51.594
433.10	52.816
433.45	51.314
433.80	52.873
434.16	52.299
434.51	52.742
434.86	52.497
435.22	53.057
435.57	53.462
435.92	52.754
436.28	51.103
436.63	52.710
436.98	51.217
437.34	51.845
437.69	53.071
438.04	52.251
438.39	51.985
438.75	53.430
439.10	52.405
439.45	53.561
439.81	52.049
440.16	54.691
440.51	52.000
440.86	54.139
441.22	51.980
441.57	51.711
441.92	52.886
442.27	53.714
442.63	51.820
442.98	52.671
443.33	52.421
443.68	51.777
444.03	51.863
444.39	52.336
444.74	53.902
445.09	52.394
445.44	52.707
445.79	52.450
446.15	51.707
446.50	52.690
446.85	52.816
447.20	52.033
447.55	52.902
447.91	52.228
448.26	53.386
448.61	53.195
448.96	52.553
449.31	53.006
449.66	52.613
450.02	52.082
450.37	52.460
450.72	52.635
451.07	52.152
451.42	51.623
451.77	52.441
452.12	50.239
452.47	52.415
452.83	52.179
453.18	52.056
453.53	52.781
453.88	51.184
454.23	52.059
454.58	52.267
454.93	52.191
455.28	51.302
455.63	51.829
455.98	51.233
456.34	51.341
456.69	51.207
457.04	51.985
457.39	50.851
457.74	50.363
458.09	50.736
458.44	50.556
458.79	49.412
459.14	50.286
459.49	50.985
459.84	50.818
460.19	50.971
460.54	51.406
460.89	51.648
461.24	50.870
461.59	49.822
461.94	49.937
462.29	50.663
462.64	49.502
462.99	50.305
463.34	49.166
463.69	49.807
464.04	49.697
464.39	49.363
464.74	48.773
465.09	50.468
465.44	49.913
465.79	48.186
466.14	48.062
466.49	48.706
466.84	50.208
467.19	48.310
467.54	48.851
467.89	48.831
468.24	48.479
468.59	49.333
468.94	48.190
469.29	47.672
469.64	49.419
469.99	49.054
470.34	47.986
470.68	49.590
471.03	48.195
471.38	48.288
471.73	49.650
472.08	47.829
472.43	49.262
472.78	47.293
473.13	48.707
473.48	48.860
473.83	47.696
474.17	48.251
474.52	48.181
474.87	46.848
475.22	46.553
475.57	46.866
475.92	46.407
476.27	47.963
476.61	46.875
476.96	45.455
477.31	47.161
477.66	46.292
478.01	46.659
478.36	46.895
478.70	46.547
479.05	46.593
479.40	46.370
479.75	45.829
480.10	45.878
480.45	46.400
480.79	46.324
481.14	46.516
481.49	45.419
481.84	46.139
482.19	44.761
482.53	45.372
482.88	44.535
483.23	44.818
483.58	45.047
483.92	43.998
484.27	43.619
484.62	44.509
484.97	43.905
485.31	43.353
485.66	41.859
486.01	42.310
486.36	41.763
486.70	42.180
487.05	42.238
487.40	42.528
487.75	42.423
488.09	41.965
488.44	42.435
488.79	43.295
489.13	42.869
489.48	43.095
489.83	42.601
490.17	42.697
490.52	42.125
490.87	42.527
491.22	43.362
491.56	41.841
491.91	42.304
492.26	44.142
492.60	42.466
492.95	42.548
493.30	43.527
493.64	42.878
493.99	41.932
494.34	42.524
494.68	42.190
495.03	41.071
495.37	42.493
495.72	43.311
496.07	43.073
496.41	41.981
496.76	41.456
497.11	41.639
497.45	42.482
497.80	42.180
498.14	41.480
498.49	42.001
498.84	42.216
499.18	41.516
499.53	40.972
499.87	41.196
500.22	41.444
500.56	40.746
500.91	41.416
501.26	40.781
501.60	41.269
501.95	41.145
502.29	40.823
502.64	40.927
502.98	40.750
503.33	39.914
503.67	40.386
504.02	40.616
504.36	40.475
504.71	40.202
505.06	40.211
505.40	39.543
505.75	40.773
506.09	39.686
506.44	40.965
506.78	40.561
507.13	40.124
507.47	39.687
507.82	39.103
508.16	39.567
508.51	39.874
508.85	39.979
509.19	39.542
509.54	39.893
509.88	39.644
510.23	40.290
510.57	39.337
510.92	38.220
511.26	39.389
511.61	39.769
511.95	39.945
512.30	40.521
512.64	39.510
512.98	38.686
513.33	40.627
513.67	39.795
514.02	39.588
514.36	40.286
514.70	40.793
515.05	40.129
515.39	39.138
515.74	39.820
516.08	39.390
516.42	40.518
516.77	39.731
517.11	39.525
517.46	40.036
517.80	38.617
518.14	39.314
518.49	39.123
518.83	40.401
519.17	39.054
519.52	39.432
519.86	38.535
520.20	40.279
520.55	38.899
520.89	38.080
521.23	38.822
521.58	40.820
521.92	40.064
522.26	38.777
522.61	40.325
522.95	40.530
523.29	38.755
523.64	39.771
523.98	39.209
524.32	38.789
524.66	39.373
525.01	39.221
525.35	39.339
525.69	37.576
526.04	37.963
526.38	38.586
526.72	37.802
527.06	38.132
527.41	38.061
527.75	38.338
528.09	37.276
528.43	38.488
528.78	38.548
529.12	38.323
529.46	38.142
529.80	37.492
530.15	38.680
530.49	37.845
530.83	39.261
531.17	37.475
531.51	38.030
531.86	36.234
532.20	38.900
532.54	37.781
532.88	37.851
533.22	36.962
533.57	38.532
533.91	36.554
534.25	38.477
534.59	35.920
534.93	36.941
535.27	35.596
535.62	37.265
535.96	37.639
536.30	37.929
536.64	38.043
536.98	36.794
537.32	37.838
537.66	37.588
538.01	37.343
538.35	36.338
538.69	36.285
539.03	36.022
539.37	35.734
539.71	35.787
540.05	35.234
540.39	35.457
540.73	36.541
541.07	36.050
541.42	36.089
541.76	35.719
542.10	35.926
542.44	35.928
542.78	34.480
543.12	35.234
543.46	35.675
543.80	35.323
544.14	34.179
544.48	34.177
544.82	35.612
545.16	36.134
545.50	35.247
545.84	35.836
546.18	36.028
546.52	35.544
546.86	34.723
547.20	34.979
547.54	32.721
547.88	34.103
548.22	34.583
548.56	34.367
548.90	34.434
549.24	34.435
549.58	34.133
549.92	34.525
550.26	34.505
550.60	34.647
550.94	36.594
551.28	35.549
551.62	34.308
551.96	34.511
552.30	34.942
552.64	33.709
552.98	33.685
553.32	33.951
553.66	34.107
554.00	34.526
554.34	34.343
554.68	33.997
555.02	34.077
555.36	34.630
555.69	34.212
556.03	34.333
556.37	34.377
556.71	33.502
557.05	33.557
557.39	32.268
557.73	33.808
558.07	33.861
558.41	33.155
558.75	35.464
559.08	33.176
559.42	32.937
559.76	34.428
560.10	32.339
560.44	33.135
560.78	33.427
561.12	33.568
561.45	33.169
561.79	32.913
562.13	32.150
562.47	33.525
562.81	32.997
563.15	32.370
563.48	31.895
563.82	33.082
564.16	33.148
564.50	31.284
564.84	31.861
565.17	31.657
565.51	33.402
565.85	32.716
566.19	33.024
566.52	32.976
566.86	32.519
567.20	31.196
567.54	31.934
567.88	31.693
568.21	31.448
568.55	32.065
568.89	31.211
569.23	30.669
569.56	30.166
569.90	31.628
570.24	30.220
570.57	30.764
570.91	30.708
571.25	29.300
571.59	29.399
571.92	28.800
572.26	29.167
572.60	29.271
572.93	29.024
573.27	28.621
573.61	29.266
573.95	29.465
574.28	28.549
574.62	28.299
574.96	27.923
575.29	27.890
575.63	27.727
575.97	27.894
576.30	28.592
576.64	27.656
576.98	28.366
577.31	28.607
577.65	28.326
577.98	28.043
578.32	28.133
578.66	27.789
578.99	27.866
579.33	27.454
579.67	27.328
580.00	28.203
580.34	27.612
580.67	27.596
581.01	27.858
581.35	27.476
581.68	27.298
582.02	27.601
582.35	27.539
582.69	28.126
583.02	27.729
583.36	27.845
583.70	27.544
584.03	28.218
584.37	28.374
584.70	27.390
585.04	27.098
585.37	27.420
585.71	27.450
586.04	27.105
586.38	27.181
586.72	27.776
587.05	28.076
587.39	28.404
587.72	28.185
588.06	27.678
588.39	27.143
588.73	27.808
589.06	28.441
589.40	27.860
589.73	28.003
590.07	28.210
590.40	28.173
590.73	29.036
591.07	28.584
591.40	28.406
591.74	28.190
592.07	28.942
592.41	29.064
592.74	27.957
593.08	26.895
593.41	28.501
593.75	27.380
594.08	27.257
594.41	27.220
594.75	27.748
595.08	26.826
595.42	27.420
595.75	28.089
596.09	28.186
596.42	27.821
596.75	28.153
597.09	28.656
597.42	27.823
597.75	28.951
598.09	27.795
598.42	27.978
598.76	27.799
599.09	27.804
599.42	27.283
599.76	27.577
600.09	27.262
600.42	28.089
600.76	27.155
601.09	27.519
601.42	26.635
601.76	27.035
602.09	27.104
602.42	28.054
602.76	27.207
603.09	28.156
603.42	28.261
603.76	26.976
604.09	27.380
604.42	27.369
604.76	28.037
605.09	27.742
605.42	27.630
605.75	27.539
606.09	26.921
606.42	27.481
606.75	27.619
607.09	27.648
607.42	26.761
607.75	26.377
608.08	26.730
608.42	26.999
608.75	27.855
609.08	27.304
609.41	28.477
609.75	28.478
610.08	28.357
610.41	27.343
610.74	26.816
611.07	27.339
611.41	27.971
611.74	29.211
612.07	27.891
612.40	27.899
612.73	27.910
613.07	26.940
613.40	27.407
613.73	26.581
614.06	26.656
614.39	27.806
614.72	27.899
615.06	27.542
615.39	26.365
615.72	27.018
616.05	28.380
616.38	26.439
616.71	27.034
617.05	27.486
617.38	27.467
617.71	28.050
618.04	28.063
618.37	27.680
618.70	28.119
619.03	28.750
619.36	27.786
619.69	29.340
620.03	29.072
620.36	27.969
620.69	27.837
621.02	27.982
621.35	27.386
621.68	28.741
622.01	29.333
622.34	29.609
622.67	29.416
623.00	28.867
623.33	27.515
623.66	28.048
623.99	27.383
624.32	28.593
624.65	26.842
624.99	29.496
625.32	28.203
625.65	29.222
625.98	27.317
626.31	26.766
626.64	29.463
626.97	29.145
627.30	29.072
627.63	28.856
627.96	28.571
628.29	29.602
628.62	29.499
628.95	29.760
629.28	30.343
629.61	27.218
629.94	28.935
630.26	29.842
630.59	29.136
630.92	28.103
631.25	27.590
631.58	30.727
631.91	29.167
632.24	29.587
632.57	28.864
632.90	28.588
633.23	30.471
633.56	30.479
633.89	29.223
634.22	31.481
634.55	29.987
634.88	31.034
635.20	29.231
635.53	30.533
635.86	29.909
636.19	31.436
636.52	29.337
636.85	28.908
637.18	28.302
637.51	28.805
637.83	27.989
638.16	31.378
638.49	28.065
638.82	31.316
639.15	29.444
639.48	27.510
639.81	29.847
640.13	28.716
640.46	31.341
640.79	28.277
641.12	28.360
641.45	28.378
641.77	28.889
642.10	30.332
642.43	28.296
642.76	30.033
643.09	29.402
643.41	28.803
643.74	27.842
644.07	29.064
644.40	30.912
644.73	29.772
645.05	30.034
645.38	29.101
645.71	28.901
646.04	31.777
646.36	30.674
646.69	32.194
647.02	31.002
647.35	29.478
647.67	29.433
648.00	30.597
648.33	32.765
648.66	28.644
648.98	26.633
649.31	29.256
649.64	27.473
649.96	27.066
650.29	29.642
650.62	29.744
650.94	30.741
651.27	27.933
651.60	29.189
651.92	29.021
652.25	30.373
652.58	28.500
652.90	28.816
653.23	27.227
653.56	27.411
653.88	29.553
654.21	24.869
654.54	27.674
654.86	31.239
655.19	26.901
655.52	27.709
655.84	23.988
656.17	26.756
656.49	35.564
656.82	36.857
657.15	27.716
657.47	20.629
657.80	15.286
658.13	14.903
658.45	23.075
658.78	22.573
659.10	22.671
659.43	23.110
659.75	24.322
660.08	24.552
660.41	25.230
660.73	26.934
661.06	28.076
661.38	28.180
661.71	27.515
662.03	29.614
662.36	30.769
662.68	28.540
663.01	28.384
663.33	29.466
663.66	25.814
663.98	26.047
664.31	27.719
664.63	29.032
664.96	25.870
665.28	26.932
665.61	28.788
665.93	27.174
666.26	27.766
666.58	26.174
666.91	26.588
667.23	29.717
667.56	30.332
667.88	32.134
668.21	30.788
668.53	30.969
668.86	28.066
669.18	29.717
669.50	27.119
669.83	26.512
670.15	27.739
670.48	29.665
670.80	29.954
671.13	29.306
671.45	26.941
671.77	29.828
672.10	28.119
672.42	25.655
672.75	29.307
673.07	29.338
673.39	28.073
673.72	25.247
674.04	26.667
674.37	27.542
674.69	30.407
675.01	29.778
675.34	25.000
675.66	28.241
675.98	28.603
676.31	27.752
676.63	28.979
676.95	28.409
677.28	29.647
677.60	28.434
677.92	25.229
678.25	31.729
678.57	26.407
678.89	27.311
679.22	28.412
679.54	25.100
679.86	25.646
680.18	26.990
680.51	27.083
680.83	26.839
681.15	25.400
681.48	30.533
681.80	29.132
682.12	30.040
682.44	24.477
682.77	28.035
683.09	26.087
683.41	24.545
683.73	27.189
684.06	24.779
684.38	25.806
684.70	28.540
685.02	27.593
685.34	24.704
685.67	25.704
685.99	27.306
686.31	25.310
686.63	24.861
686.96	24.335
687.28	24.040
687.60	23.574
687.92	27.879
688.24	26.613
688.56	24.891
688.89	26.339
689.21	26.667
689.53	26.218
689.85	29.302
690.17	28.125
690.49	24.113
690.82	24.029
691.14	25.476
691.46	26.869
691.78	25.901
692.10	27.097
692.42	26.407
692.74	26.709
693.06	26.577
693.39	24.208
693.71	24.208
694.03	25.866
694.35	24.533
694.67	25.758
694.99	26.893
695.31	27.154
695.63	26.000
695.95	24.495
696.27	23.316
696.59	30.278
696.91	27.451
697.23	23.907
697.56	27.228
697.88	26.667
698.20	25.513
698.52	25.412
698.84	25.359
699.16	23.250
699.48	26.316
699.80	23.325
700.12	23.450
700.44	29.412
700.76	25.291
701.08	26.061
701.40	25.904
701.72	30.864
702.04	27.063
702.36	29.097
702.68	26.426
703.00	27.273
703.32	24.927
703.64	21.469
703.96	28.696
704.28	28.221
704.60	26.667
704.91	24.921
705.23	26.578
705.55	28.622
705.87	29.964
706.19	28.148
706.51	25.773
706.83	28.617
707.15	22.430
707.47	26.611
707.79	20.573
708.11	25.750
708.43	24.750
708.74	25.840
709.06	29.577
709.38	25.688
709.70	27.219
710.02	26.752
710.34	29.102
710.66	22.436
710.98	27.152
711.29	27.541
711.61	24.068
711.93	28.664
712.25	28.866
712.57	24.542
712.89	22.015
713.20	28.374
713.52	26.132
713.84	27.645
714.16	22.337
714.48	27.742
714.80	25.641
715.11	27.052
715.43	21.944
715.75	23.333
716.07	23.588
716.39	29.195
716.70	25.830
717.02	27.099
717.34	28.340
717.66	23.894
717.97	23.913
718.29	25.105
718.61	25.591
718.93	23.256
719.24	24.335
719.56	25.703
719.88	24.399
720.20	27.273
720.51	25.287
720.83	23.552
721.15	25.630
721.46	24.194
721.78	23.715
722.10	26.394
722.42	25.726
722.73	28.571
723.05	26.531
723.37	26.695
723.68	25.676
724.00	23.932
724.32	25.778
724.63	21.818
724.95	25.328
725.27	25.806
725.58	23.729
725.90	23.810
726.22	24.710
726.53	28.814
726.85	27.715
727.16	29.434
727.48	25.101
727.80	26.316
728.11	23.729
728.43	26.667
728.74	22.177
729.06	26.000
729.38	28.571
729.69	21.912
730.01	18.462
730.32	26.119
730.64	22.261
730.96	25.283
731.27	21.333
731.59	27.119
731.90	25.478
732.22	23.344
732.53	24.917
732.85	24.823
733.16	27.273
733.48	20.504
733.80	21.739
734.11	23.390
734.43	21.993
734.74	22.727
735.06	21.173
735.37	22.356
735.69	24.579
736.00	20.906
736.32	24.161
736.63	21.127
736.95	23.208
737.26	17.082
737.58	23.490
737.89	23.443
738.21	23.684
738.52	23.045
738.83	26.201
739.15	15.721
739.46	23.622
739.78	24.542
740.09	22.549
740.41	24.275
740.72	18.504
741.04	25.506
741.35	22.553
741.66	21.801
741.98	23.469
742.29	29.208
742.61	26.178
742.92	14.692
743.23	18.056
743.55	24.887
743.86	23.445
744.18	22.488
744.49	22.872
744.80	19.565
745.12	32.620
745.43	23.415
745.74	26.042
746.06	22.927
746.37	23.560
746.68	25.592
747.00	20.745
747.31	26.866
747.62	24.272
747.94	24.402
748.25	21.782
748.56	24.044
748.88	20.419
749.19	27.660
749.50	23.645
749.82	17.925
750.13	25.229
750.44	28.947
750.75	27.239
751.07	23.723
751.38	26.820
751.69	20.000
752.01	26.744
752.32	21.912
752.63	21.739
752.94	25.431
753.26	29.707
753.57	18.100
753.88	24.336
754.19	20.000
754.51	20.248
754.82	20.648
755.13	28.750
755.44	27.419
755.75	24.219
756.07	25.292
756.38	23.019
756.69	21.839
757.00	22.333
757.31	21.242
757.63	19.817
757.94	22.778
758.25	21.644
758.56	21.543
758.87	19.830
759.18	22.430
759.50	21.455
759.81	24.415
760.12	24.516
760.43	21.818
760.74	20.679
761.05	24.000
761.36	20.739
761.67	26.061
761.99	26.190
762.30	22.545
762.61	19.368
762.92	23.077
763.23	21.171
763.54	18.224
763.85	20.763
764.16	18.672
764.47	15.726
764.78	23.810
765.10	22.222
765.41	20.189
765.72	22.540
766.03	18.797
766.34	23.723
766.65	24.701
766.96	23.737
767.27	20.745
767.58	18.391
767.89	19.149
768.20	17.045
768.51	20.879
768.82	25.123
769.13	21.659
769.44	22.318
769.75	18.265
770.06	22.414
770.37	22.115
770.68	21.827
770.99	18.100
771.30	23.529
771.61	19.910
771.92	28.879
772.23	23.153
772.54	24.731
772.85	22.222
773.16	22.472
773.47	20.915
773.78	19.608
774.09	21.557
774.39	18.000
774.70	26.752
775.01	30.345
775.32	20.714
775.63	19.835
775.94	16.031
776.25	24.409
776.56	20.000
776.87	18.269
777.18	22.222
777.48	15.517
777.79	4.348
778.10	10.476
778.41	16.216
778.72	29.365
779.03	25.564
779.34	23.404
779.65	21.918
779.95	23.973
780.26	23.448
780.57	15.447
780.88	20.472
781.19	25.000
781.50	22.481
781.80	23.669
782.11	20.126
782.42	15.385
782.73	20.863
783.04	25.926
783.34	20.139
783.65	2.564
783.96	22.131
784.27	26.207
784.57	15.447
784.88	21.094
785.19	26.000
785.50	35.000
785.81	21.552
786.11	15.517
786.42	18.447
786.73	22.727
787.04	25.510
787.34	16.964
787.65	26.667
787.96	17.699
788.26	20.000
788.57	22.222
788.88	29.687
789.19	18.254
789.49	13.043
789.80	20.408
790.11	16.162
790.41	7.273
790.72	29.348
791.03	29.545
791.33	25.000
791.64	26.250
791.95	16.279
792.25	21.277
792.56	24.719
792.87	4.110
793.17	33.333
793.48	5.333
793.79	15.000
794.09	23.750
794.40	15.094
794.70	16.505
795.01	8.130
795.32	14.530
795.62	20.000
795.93	19.608
796.23	23.585
796.54	19.792
796.85	16.176
797.15	12.676
797.46	26.389
797.76	21.212
798.07	15.116
798.37	9.211
798.68	6.061
798.99	20.988
799.29	24.286
799.60	24.638
799.90	12.000
800.21	27.869
800.51	20.000
800.82	32.203
801.12	20.290
801.43	11.475
801.73	17.460
802.04	24.000
802.34	16.418
802.65	34.615
802.95	7.143
803.26	7.692
803.56	19.608
803.87	0.000
804.17	22.667
804.48	36.508
804.78	0.000
805.09	19.565
805.39	-2.222
805.70	18.519
806.00	12.281
806.30	32.394
806.61	24.286
806.91	20.833
807.22	28.947
807.52	24.000
807.83	5.455
808.13	18.056
808.43	17.647
808.74	23.881
809.04	1.695
809.35	9.615
809.65	21.875
809.95	5.405
810.26	20.455
810.56	20.548
810.86	14.286
811.17	30.000
811.47	36.735
811.77	34.211
812.08	20.455
812.38	9.434
812.69	7.500
812.99	-12.121
813.29	10.526
813.59	-5.714
813.90	15.909
814.20	2.564
814.50	17.308
814.81	11.321
815.11	19.149
815.41	28.814
815.72	14.286
816.02	11.765
816.32	6.250
816.62	4.878
816.93	16.216
817.23	-20.000
817.53	29.167
817.84	4.348
818.14	5.769
818.44	-2.632
818.74	41.304
819.04	5.000
819.35	10.811
819.65	17.647
819.95	-5.556
820.25	42.857
820.56	25.000
820.86	-13.793
821.16	40.000
821.46	0.000
821.76	10.000
822.07	18.605
822.37	-21.622
822.67	-9.375
822.97	38.095
823.27	-3.571
823.57	-20.000
823.88	-11.111
824.18	-3.571
824.48	-5.882
824.78	12.903
825.08	21.739
825.38	6.061
825.69	4.167
825.99	15.789
826.29	30.556
826.59	6.667
826.89	-19.048
827.19	8.696
827.49	-2.500
827.79	25.714
828.09	14.286
828.39	21.212
828.70	40.541
829.00	21.429
829.30	-19.048
829.60	56.667
829.90	15.625
830.20	13.158
830.50	-18.519
830.80	-13.043
831.10	4.545
831.40	27.273
831.70	54.839
832.00	0.000
832.30	-14.286
832.60	-91.667
832.90	3.448
833.20	-55.000
833.50	18.182
833.80	11.111
834.10	0.000
834.40	59.375
834.70	66.667
835.00	-5.263
835.30	50.000
835.60	33.333
835.90	25.806
836.20	13.636
836.50	14.286
836.80	-38.462
837.10	25.000
837.40	-166.667
837.70	-9.091
838.00	45.455
838.30	8.696
838.60	15.385
838.90	31.818
839.19	10.714
839.49	26.667
839.79	-30.769
840.09	-58.333
840.39	67.857
840.69	7.143
840.99	0.000
841.29	-57.895
841.59	-80.000
841.88	18.182
842.18	-20.000
842.48	6.250
842.78	-33.333
843.08	37.037
843.38	-40.000
843.68	-4.348
843.97	6.667
844.27	-60.000
844.57	30.000
844.87	44.444
845.17	0.000
845.47	13.333
845.76	33.333
846.06	23.529
846.36	-10.000
846.66	7.143
846.96	-33.333
847.25	-125.000
847.55	21.429
847.85	50.000
848.15	-4.545
848.44	-500.000
848.74	45.000
849.04	37.037
849.34	54.545
849.63	-216.667
849.93	-280.000
850.23	27.778
850.53	70.000
850.82	-23.077
851.12	-44.444
851.42	26.667
851.71	-30.769
852.01	-7.143
852.31	-75.000
852.61	18.182
852.90	15.000
853.20	5.263
853.50	-25.000
853.79	17.391
854.09	50.000
854.39	-26.316
854.68	-20.833
854.98	6.452
855.28	30.769
855.57	15.000
855.87	44.444
856.17	33.333
856.46	0.000
856.76	-40.000
857.05	22.222
857.35	84.000
857.65	-16.667
857.94	-38.462
858.24	24.138
858.53	0.000
858.83	14.815
859.13	31.818
859.42	8.696
859.72	-25.000
860.01	-566.667
860.31	32.000
860.60	61.905
860.90	-400.000
861.20	-60.000
861.49	-250.000
861.79	26.667
862.08	15.000
862.38	33.333
862.67	-160.000
862.97	-66.667
863.26	-41.667
863.56	16.667
863.85	-200.000
864.15	33.333
864.44	-80.000
864.74	14.286
865.03	325.000
865.33	0.000
865.62	100.000
865.92	0.000
866.21	-100.000
866.51	12.500
866.80	-118.182
867.10	-250.000
867.39	41.667
867.69	0.000
867.98	-30.769
868.27	-300.000
868.57	40.000
868.86	-16.667
869.16	-61.538
869.45	40.000
869.75	0.000
870.04	0.000
870.33	-100.000
870.63	42.857
870.92	166.667
871.22	-160.000
871.51	-500.000
871.80	55.556
872.10	466.667
>>>>>End Processed Spectral Data<<<<<
