SpectraSuite Data File
++++++++++++++++++++++++++++++++++++
Date: Fri May 15 20:43:58 PDT 2015
User: schluterlab
Dark Spectrum Present: Yes
Reference Spectrum Present: Yes
Number of Sampled Component Spectra: 1
Spectrometers: USB2E3373
Integration Time (usec): 3000 (USB2E3373)
Spectra Averaged: 3 (USB2E3373)
Boxcar Smoothing: 0 (USB2E3373)
Correct for Electrical Dark: No (USB2E3373)
Strobe/Lamp Enabled: No (USB2E3373)
Correct for Detector Non-linearity: No (USB2E3373)
Correct for Stray Light: No (USB2E3373)
Number of Pixels in Processed Spectrum: 2048
>>>>>Begin Processed Spectral Data<<<<<
178.53	0.000
178.91	0.000
179.29	75.000
179.67	-800.000
180.04	-14.286
180.42	-100.000
180.80	0.000
181.18	133.333
181.56	150.000
181.94	-200.000
182.31	300.000
182.69	-40.000
183.07	-333.333
183.45	60.000
183.83	150.000
184.20	-81.818
184.58	66.667
184.96	-150.000
185.34	66.667
185.72	-50.000
186.09	92.308
186.47	-400.000
186.85	150.000
187.23	122.222
187.61	200.000
187.98	-100.000
188.36	33.333
188.74	-100.000
189.12	0.000
189.49	44.444
189.87	0.000
190.25	21.429
190.63	-100.000
191.00	-333.333
191.38	10.526
191.76	150.000
192.14	225.000
192.51	-150.000
192.89	-133.333
193.27	85.714
193.65	133.333
194.02	100.000
194.40	40.000
194.78	-50.000
195.15	-25.000
195.53	-37.500
195.91	150.000
196.29	50.000
196.66	7.692
197.04	171.429
197.42	-100.000
197.79	-500.000
198.17	-61.538
198.55	800.000
198.92	-433.333
199.30	-1400.000
199.68	-140.000
200.05	-200.000
200.43	0.000
200.81	133.333
201.18	100.000
201.56	200.000
201.94	-350.000
202.31	100.000
202.69	-120.000
203.07	100.000
203.44	100.000
203.82	0.000
204.19	64.286
204.57	-466.667
204.95	162.500
205.32	90.000
205.70	-100.000
206.08	75.000
206.45	211.111
206.83	57.143
207.20	-28.571
207.58	-0.000
207.96	-333.333
208.33	-90.000
208.71	-200.000
209.08	-33.333
209.46	1000.000
209.84	-200.000
210.21	-600.000
210.59	-57.143
210.96	-166.667
211.34	200.000
211.71	6.667
212.09	-128.571
212.46	-1800.000
212.84	0.000
213.22	40.000
213.59	700.000
213.97	7.692
214.34	-27.273
214.72	50.000
215.09	325.000
215.47	-23.077
215.84	-72.727
216.22	-366.667
216.59	-75.000
216.97	50.000
217.34	-50.000
217.72	-180.000
218.09	-12.500
218.47	200.000
218.84	-600.000
219.22	44.444
219.59	40.000
219.97	-0.000
220.34	400.000
220.72	-14.286
221.09	-50.000
221.47	-450.000
221.84	-500.000
222.22	-950.000
222.59	-27.273
222.97	41.667
223.34	-33.333
223.72	-35.714
224.09	-4.762
224.46	39.286
224.84	466.667
225.21	-30.000
225.59	-26.667
225.96	-50.000
226.34	200.000
226.71	-42.857
227.08	83.333
227.46	-112.500
227.83	-200.000
228.21	55.556
228.58	36.364
228.95	25.000
229.33	40.000
229.70	-12.500
230.08	-237.500
230.45	-85.714
230.82	14.286
231.20	0.000
231.57	28.571
231.95	71.429
232.32	-20.000
232.69	28.571
233.07	-66.667
233.44	-120.000
233.81	-130.000
234.19	100.000
234.56	0.000
234.93	-300.000
235.31	75.000
235.68	-360.000
236.05	-30.769
236.43	-25.000
236.80	-5.882
237.17	12.500
237.55	-40.000
237.92	-25.926
238.29	5.556
238.67	30.000
239.04	2.941
239.41	-17.073
239.79	23.333
240.16	24.390
240.53	26.316
240.91	19.565
241.28	20.635
241.65	30.357
242.02	24.658
242.40	25.000
242.77	28.814
243.14	24.242
243.51	25.000
243.89	25.287
244.26	18.391
244.63	20.238
245.00	20.619
245.38	25.773
245.75	17.978
246.12	12.931
246.49	21.488
246.87	24.038
247.24	8.403
247.61	16.667
247.98	25.203
248.36	20.000
248.73	26.974
249.10	16.883
249.47	24.051
249.84	24.183
250.22	20.588
250.59	23.529
250.96	25.352
251.33	20.349
251.70	22.353
252.08	22.843
252.45	20.297
252.82	22.111
253.19	20.737
253.56	17.757
253.94	27.477
254.31	26.957
254.68	26.754
255.05	22.835
255.42	23.144
255.79	25.097
256.16	24.125
256.54	25.000
256.91	22.814
257.28	23.792
257.65	22.472
258.02	18.085
258.39	24.579
258.76	25.275
259.14	24.585
259.51	26.537
259.88	22.680
260.25	24.183
260.62	23.264
260.99	22.034
261.36	21.233
261.73	24.051
262.10	23.404
262.47	20.245
262.85	21.944
263.22	21.231
263.59	22.741
263.96	26.708
264.33	24.545
264.70	22.619
265.07	20.833
265.44	24.646
265.81	23.164
266.18	24.863
266.55	25.193
266.92	27.720
267.29	22.715
267.66	25.064
268.03	24.607
268.40	25.849
268.77	26.203
269.14	23.741
269.51	26.478
269.88	20.200
270.25	23.214
270.62	22.927
270.99	19.693
271.36	21.271
271.73	23.474
272.10	24.818
272.47	22.459
272.84	22.277
273.21	25.058
273.58	26.506
273.95	22.883
274.32	24.480
274.69	21.041
275.06	22.991
275.43	22.676
275.80	23.179
276.17	20.460
276.54	22.698
276.91	25.219
277.28	20.742
277.65	23.554
278.02	20.426
278.39	23.414
278.76	25.577
279.13	20.747
279.50	23.950
279.87	24.838
280.23	19.355
280.60	25.341
280.97	24.444
281.34	21.923
281.71	23.203
282.08	21.472
282.45	20.939
282.82	22.587
283.19	23.211
283.56	22.929
283.92	21.063
284.29	21.923
284.66	20.349
285.03	22.200
285.40	20.983
285.77	20.035
286.14	21.300
286.51	23.616
286.87	21.572
287.24	21.731
287.61	21.164
287.98	21.930
288.35	19.411
288.72	23.468
289.08	19.792
289.45	21.968
289.82	19.231
290.19	19.283
290.56	19.726
290.93	20.875
291.29	19.260
291.66	19.370
292.03	20.096
292.40	18.871
292.77	19.298
293.13	16.883
293.50	17.602
293.87	20.763
294.24	16.692
294.60	17.884
294.97	18.304
295.34	20.399
295.71	18.331
296.08	18.834
296.44	16.216
296.81	16.806
297.18	17.826
297.55	18.157
297.91	17.123
298.28	17.942
298.65	16.961
299.02	17.116
299.38	16.689
299.75	16.276
300.12	15.576
300.48	15.152
300.85	16.857
301.22	14.286
301.59	16.579
301.95	16.456
302.32	17.380
302.69	15.920
303.05	16.089
303.42	16.065
303.79	15.771
304.15	17.682
304.52	15.696
304.89	15.088
305.25	15.496
305.62	15.053
305.99	14.269
306.35	15.260
306.72	14.286
307.09	16.306
307.45	14.925
307.82	14.352
308.19	15.912
308.55	15.158
308.92	16.885
309.29	14.190
309.65	13.240
310.02	13.971
310.38	14.709
310.75	15.082
311.12	14.532
311.48	13.680
311.85	14.869
312.22	14.557
312.58	14.544
312.95	15.475
313.31	14.803
313.68	14.869
314.05	14.184
314.41	15.052
314.78	15.258
315.14	15.416
315.51	16.149
315.87	15.676
316.24	15.976
316.61	16.732
316.97	16.071
317.34	15.625
317.70	16.922
318.07	16.827
318.43	17.157
318.80	16.004
319.16	17.383
319.53	17.284
319.89	17.913
320.26	17.105
320.62	17.151
320.99	17.223
321.35	17.677
321.72	19.315
322.08	18.630
322.45	18.477
322.81	19.941
323.18	20.118
323.54	19.402
323.91	19.669
324.27	21.289
324.64	22.004
325.00	22.263
325.37	24.151
325.73	22.212
326.10	22.797
326.46	23.857
326.83	24.759
327.19	24.150
327.56	25.630
327.92	25.880
328.29	24.375
328.65	26.604
329.01	26.838
329.38	27.465
329.74	26.534
330.11	27.711
330.47	27.365
330.84	28.365
331.20	29.563
331.56	26.296
331.93	28.402
332.29	28.139
332.66	28.416
333.02	29.182
333.38	28.689
333.75	28.663
334.11	28.290
334.48	29.828
334.84	28.388
335.20	29.826
335.57	31.188
335.93	28.997
336.29	29.374
336.66	30.427
337.02	29.554
337.38	28.241
337.75	29.545
338.11	30.298
338.47	32.026
338.84	31.331
339.20	31.353
339.56	30.183
339.93	31.155
340.29	30.275
340.65	31.183
341.02	30.851
341.38	30.885
341.74	30.477
342.11	30.589
342.47	31.317
342.83	31.228
343.20	31.969
343.56	32.087
343.92	32.152
344.28	31.768
344.65	31.693
345.01	30.683
345.37	30.782
345.73	32.385
346.10	33.046
346.46	31.371
346.82	31.260
347.19	31.172
347.55	30.827
347.91	32.039
348.27	31.043
348.63	32.198
349.00	31.501
349.36	32.336
349.72	32.836
350.08	32.295
350.45	31.604
350.81	31.811
351.17	31.515
351.53	31.592
351.89	30.306
352.26	31.200
352.62	33.387
352.98	31.084
353.34	31.240
353.70	32.848
354.07	31.774
354.43	32.266
354.79	31.874
355.15	32.778
355.51	32.753
355.87	32.605
356.24	32.463
356.60	33.064
356.96	31.825
357.32	31.869
357.68	31.274
358.04	32.472
358.40	33.039
358.77	34.530
359.13	32.426
359.49	31.202
359.85	32.605
360.21	32.616
360.57	32.211
360.93	32.602
361.29	32.931
361.66	32.837
362.02	33.636
362.38	33.968
362.74	33.460
363.10	34.688
363.46	34.618
363.82	35.011
364.18	34.022
364.54	32.721
364.90	33.333
365.26	33.697
365.62	35.401
365.98	34.531
366.35	35.106
366.71	35.181
367.07	34.253
367.43	34.939
367.79	34.912
368.15	34.314
368.51	35.251
368.87	34.386
369.23	34.585
369.59	35.423
369.95	35.117
370.31	35.694
370.67	35.672
371.03	35.773
371.39	36.251
371.75	35.604
372.11	35.235
372.47	35.947
372.83	36.054
373.19	35.592
373.55	35.018
373.91	36.141
374.27	36.357
374.63	35.678
374.99	36.170
375.35	36.978
375.71	37.483
376.07	36.868
376.42	36.327
376.78	37.852
377.14	36.222
377.50	37.716
377.86	38.019
378.22	37.460
378.58	38.013
378.94	37.618
379.30	37.243
379.66	38.746
380.02	37.830
380.38	37.432
380.74	37.702
381.09	38.896
381.45	38.410
381.81	39.050
382.17	37.817
382.53	38.413
382.89	38.795
383.25	39.764
383.61	39.329
383.97	39.746
384.32	38.336
384.68	38.947
385.04	38.603
385.40	39.017
385.76	40.063
386.12	39.457
386.48	40.677
386.83	40.013
387.19	40.232
387.55	41.531
387.91	41.198
388.27	40.415
388.62	40.654
388.98	40.761
389.34	41.474
389.70	40.833
390.06	40.654
390.42	40.868
390.77	41.269
391.13	40.858
391.49	41.850
391.85	39.961
392.20	41.682
392.56	42.403
392.92	41.339
393.28	41.804
393.64	41.261
393.99	43.824
394.35	42.441
394.71	43.103
395.07	40.918
395.42	42.077
395.78	42.280
396.14	43.001
396.50	41.535
396.85	42.756
397.21	42.293
397.57	42.257
397.92	42.900
398.28	43.851
398.64	41.807
399.00	43.510
399.35	41.761
399.71	43.366
400.07	43.773
400.42	43.941
400.78	44.336
401.14	42.831
401.49	43.538
401.85	42.535
402.21	43.072
402.57	43.750
402.92	42.660
403.28	44.486
403.63	44.388
403.99	43.622
404.35	45.097
404.70	42.440
405.06	43.420
405.42	44.251
405.77	44.335
406.13	43.655
406.49	43.280
406.84	45.599
407.20	43.949
407.55	43.078
407.91	44.719
408.27	43.722
408.62	44.985
408.98	45.348
409.34	44.548
409.69	43.992
410.05	43.473
410.40	45.185
410.76	45.356
411.11	44.250
411.47	44.905
411.83	44.507
412.18	46.332
412.54	45.069
412.89	44.828
413.25	45.247
413.60	44.472
413.96	45.460
414.31	45.976
414.67	45.927
415.03	44.740
415.38	44.452
415.74	45.016
416.09	45.003
416.45	45.375
416.80	44.746
417.16	46.616
417.51	46.436
417.87	45.632
418.22	45.984
418.58	46.689
418.93	45.831
419.29	45.198
419.64	45.885
420.00	46.977
420.35	46.507
420.71	47.448
421.06	46.102
421.42	47.236
421.77	45.434
422.12	45.743
422.48	45.425
422.83	45.998
423.19	46.840
423.54	45.738
423.90	47.409
424.25	47.245
424.61	47.124
424.96	46.574
425.31	47.256
425.67	47.124
426.02	46.820
426.38	47.464
426.73	47.821
427.09	48.228
427.44	47.882
427.79	47.672
428.15	46.905
428.50	48.031
428.85	46.253
429.21	46.802
429.56	47.871
429.92	47.714
430.27	46.817
430.62	45.949
430.98	47.240
431.33	47.897
431.68	46.415
432.04	48.016
432.39	47.918
432.74	47.625
433.10	48.276
433.45	47.312
433.80	47.940
434.16	46.482
434.51	48.280
434.86	48.432
435.22	48.009
435.57	49.033
435.92	48.204
436.28	48.002
436.63	47.576
436.98	48.146
437.34	48.155
437.69	48.956
438.04	47.806
438.39	48.137
438.75	50.213
439.10	49.576
439.45	48.570
439.81	48.502
440.16	49.050
440.51	48.537
440.86	49.909
441.22	47.907
441.57	48.344
441.92	49.213
442.27	48.891
442.63	48.822
442.98	48.937
443.33	49.082
443.68	49.231
444.03	48.733
444.39	48.992
444.74	49.666
445.09	50.780
445.44	50.085
445.79	51.573
446.15	49.009
446.50	48.697
446.85	48.937
447.20	49.374
447.55	50.167
447.91	49.126
448.26	50.939
448.61	49.626
448.96	50.717
449.31	50.867
449.66	49.593
450.02	50.428
450.37	50.326
450.72	49.714
451.07	49.873
451.42	50.125
451.77	50.512
452.12	49.342
452.47	50.547
452.83	50.648
453.18	50.727
453.53	51.201
453.88	51.063
454.23	49.539
454.58	51.763
454.93	52.642
455.28	50.413
455.63	51.705
455.98	51.594
456.34	51.341
456.69	50.699
457.04	50.788
457.39	50.729
457.74	50.665
458.09	50.559
458.44	50.497
458.79	50.140
459.14	50.915
459.49	50.806
459.84	50.085
460.19	50.000
460.54	51.467
460.89	50.795
461.24	51.242
461.59	50.891
461.94	51.258
462.29	51.025
462.64	51.960
462.99	51.591
463.34	50.626
463.69	50.837
464.04	51.090
464.39	51.061
464.74	50.491
465.09	52.527
465.44	51.183
465.79	50.454
466.14	50.513
466.49	50.431
466.84	51.933
467.19	52.628
467.54	51.724
467.89	51.737
468.24	51.217
468.59	53.079
468.94	52.444
469.29	53.443
469.64	52.358
469.99	52.067
470.34	51.604
470.68	53.169
471.03	53.362
471.38	52.639
471.73	52.801
472.08	51.357
472.43	53.624
472.78	52.090
473.13	52.721
473.48	51.987
473.83	51.993
474.17	54.339
474.52	52.202
474.87	52.788
475.22	52.593
475.57	52.400
475.92	53.703
476.27	52.619
476.61	53.067
476.96	51.924
477.31	52.136
477.66	51.629
478.01	53.229
478.36	52.397
478.70	53.399
479.05	52.637
479.40	53.365
479.75	51.043
480.10	52.535
480.45	52.100
480.79	52.920
481.14	52.664
481.49	53.054
481.84	53.668
482.19	52.713
482.53	53.237
482.88	52.601
483.23	53.023
483.58	52.406
483.92	52.372
484.27	51.914
484.62	51.815
484.97	52.032
485.31	50.542
485.66	49.087
486.01	47.810
486.36	47.855
486.70	49.171
487.05	50.056
487.40	50.569
487.75	50.620
488.09	51.051
488.44	52.201
488.79	52.335
489.13	52.845
489.48	52.971
489.83	52.511
490.17	52.899
490.52	52.841
490.87	52.800
491.22	53.295
491.56	53.510
491.91	52.725
492.26	53.281
492.60	53.839
492.95	54.304
493.30	53.298
493.64	53.880
493.99	55.024
494.34	52.670
494.68	54.000
495.03	53.187
495.37	54.661
495.72	53.862
496.07	53.805
496.41	53.962
496.76	53.984
497.11	53.190
497.45	53.652
497.80	54.188
498.14	53.502
498.49	55.510
498.84	53.992
499.18	54.719
499.53	53.968
499.87	54.232
500.22	54.105
500.56	54.917
500.91	54.016
501.26	53.732
501.60	54.648
501.95	53.615
502.29	55.012
502.64	55.840
502.98	54.613
503.33	54.947
503.67	54.024
504.02	54.888
504.36	55.666
504.71	54.646
505.06	55.008
505.40	55.482
505.75	56.134
506.09	54.790
506.44	57.341
506.78	56.071
507.13	56.567
507.47	55.509
507.82	56.624
508.16	56.101
508.51	57.030
508.85	57.718
509.19	57.318
509.54	57.587
509.88	57.875
510.23	58.203
510.57	57.616
510.92	57.143
511.26	58.047
511.61	58.856
511.95	58.247
512.30	58.703
512.64	58.765
512.98	58.787
513.33	58.870
513.67	59.238
514.02	61.327
514.36	61.429
514.70	61.189
515.05	61.575
515.39	59.917
515.74	62.874
516.08	60.968
516.42	61.720
516.77	61.322
517.11	62.255
517.46	62.597
517.80	61.740
518.14	62.339
518.49	62.921
518.83	62.637
519.17	63.069
519.52	61.753
519.86	62.665
520.20	62.515
520.55	62.602
520.89	64.429
521.23	65.231
521.58	65.552
521.92	65.064
522.26	64.541
522.61	64.351
522.95	65.894
523.29	65.693
523.64	66.391
523.98	65.781
524.32	64.497
524.66	67.862
525.01	66.429
525.35	63.966
525.69	65.657
526.04	66.997
526.38	67.704
526.72	65.402
527.06	67.315
527.41	67.018
527.75	67.292
528.09	66.645
528.43	68.197
528.78	68.185
529.12	66.645
529.46	65.952
529.80	66.498
530.15	65.743
530.49	68.485
530.83	67.168
531.17	67.629
531.51	67.715
531.86	66.757
532.20	67.571
532.54	67.529
532.88	70.842
533.22	68.078
533.57	67.169
533.91	66.384
534.25	68.490
534.59	67.479
534.93	66.394
535.27	67.069
535.62	67.077
535.96	66.993
536.30	68.008
536.64	69.125
536.98	68.432
537.32	69.346
537.66	69.074
538.01	68.601
538.35	68.516
538.69	67.377
539.03	68.216
539.37	68.977
539.71	65.781
540.05	68.703
540.39	68.629
540.73	68.410
541.07	68.646
541.42	67.876
541.76	68.961
542.10	68.410
542.44	68.033
542.78	65.726
543.12	67.514
543.46	67.177
543.80	69.188
544.14	66.756
544.48	68.887
544.82	67.532
545.16	70.150
545.50	68.558
545.84	70.538
546.18	69.716
546.52	68.277
546.86	69.590
547.20	69.027
547.54	67.915
547.88	68.478
548.22	66.404
548.56	67.414
548.90	68.329
549.24	66.460
549.58	67.560
549.92	66.548
550.26	67.839
550.60	68.922
550.94	68.857
551.28	68.934
551.62	70.923
551.96	69.925
552.30	68.275
552.64	68.265
552.98	68.284
553.32	68.260
553.66	68.505
554.00	67.883
554.34	70.089
554.68	69.248
555.02	69.122
555.36	69.559
555.69	68.938
556.03	67.309
556.37	67.972
556.71	67.581
557.05	70.321
557.39	66.245
557.73	68.741
558.07	69.985
558.41	69.219
558.75	70.226
559.08	68.558
559.42	69.286
559.76	69.576
560.10	68.425
560.44	68.131
560.78	67.343
561.12	68.054
561.45	68.517
561.79	68.347
562.13	68.985
562.47	67.338
562.81	68.444
563.15	67.489
563.48	68.388
563.82	68.566
564.16	67.340
564.50	65.946
564.84	67.269
565.17	65.862
565.51	68.989
565.85	68.107
566.19	66.180
566.52	67.158
566.86	67.031
567.20	66.002
567.54	65.572
567.88	66.608
568.21	65.554
568.55	64.457
568.89	63.039
569.23	63.024
569.56	62.128
569.90	61.592
570.24	60.253
570.57	61.127
570.91	61.345
571.25	58.435
571.59	58.082
571.92	56.711
572.26	57.065
572.60	58.264
572.93	57.923
573.27	57.962
573.61	57.220
573.95	56.827
574.28	55.932
574.62	55.759
574.96	55.846
575.29	56.184
575.63	55.610
575.97	55.625
576.30	56.846
576.64	55.762
576.98	56.757
577.31	56.279
577.65	55.986
577.98	55.516
578.32	54.473
578.66	54.008
578.99	55.077
579.33	54.634
579.67	54.605
580.00	54.759
580.34	55.373
580.67	55.218
581.01	55.427
581.35	54.780
581.68	53.572
582.02	53.184
582.35	53.983
582.69	54.207
583.02	54.775
583.36	54.956
583.70	56.023
584.03	56.241
584.37	57.651
584.70	55.220
585.04	54.534
585.37	54.767
585.71	54.801
586.04	54.715
586.38	55.161
586.72	56.098
587.05	56.037
587.39	55.633
587.72	56.479
588.06	55.799
588.39	55.397
588.73	55.739
589.06	57.926
589.40	57.000
589.73	58.196
590.07	58.535
590.40	58.514
590.73	59.761
591.07	58.567
591.40	58.816
591.74	59.367
592.07	59.184
592.41	58.083
592.74	57.348
593.08	55.711
593.41	56.046
593.75	56.035
594.08	53.896
594.41	55.968
594.75	56.756
595.08	56.602
595.42	56.717
595.75	57.416
596.09	56.568
596.42	57.544
596.75	58.659
597.09	57.449
597.42	58.717
597.75	59.551
598.09	57.220
598.42	57.085
598.76	56.070
599.09	55.769
599.42	55.703
599.76	55.229
600.09	54.827
600.42	55.345
600.76	54.866
601.09	55.191
601.42	56.013
601.76	56.014
602.09	57.302
602.42	57.077
602.76	56.282
603.09	56.811
603.42	57.483
603.76	55.282
604.09	55.448
604.42	56.726
604.76	57.454
605.09	57.861
605.42	56.027
605.75	55.604
606.09	55.456
606.42	54.504
606.75	55.628
607.09	56.308
607.42	55.383
607.75	55.728
608.08	55.571
608.42	55.733
608.75	57.012
609.08	57.399
609.41	56.447
609.75	57.107
610.08	57.314
610.41	56.860
610.74	57.484
611.07	58.036
611.41	58.485
611.74	58.529
612.07	58.030
612.40	58.042
612.73	59.322
613.07	58.043
613.40	56.838
613.73	58.142
614.06	57.763
614.39	58.376
614.72	58.039
615.06	58.045
615.39	56.496
615.72	56.512
616.05	57.039
616.38	55.840
616.71	58.777
617.05	59.111
617.38	58.265
617.71	58.679
618.04	59.873
618.37	60.214
618.70	58.944
619.03	61.042
619.36	60.854
619.69	61.941
620.03	60.336
620.36	60.658
620.69	61.099
621.02	60.398
621.35	62.573
621.68	64.456
622.01	62.250
622.34	60.575
622.67	61.751
623.00	59.724
623.33	60.976
623.66	59.461
623.99	60.061
624.32	60.076
624.65	60.451
624.99	61.851
625.32	60.425
625.65	61.115
625.98	62.772
626.31	61.347
626.64	63.518
626.97	63.613
627.30	63.398
627.63	63.085
627.96	64.241
628.29	64.755
628.62	65.978
628.95	65.832
629.28	66.129
629.61	64.806
629.94	64.418
630.26	62.352
630.59	66.389
630.92	65.641
631.25	64.615
631.58	65.969
631.91	67.654
632.24	66.858
632.57	67.727
632.90	67.616
633.23	66.235
633.56	70.781
633.89	68.927
634.22	69.136
634.55	68.996
634.88	68.199
635.20	65.897
635.53	71.867
635.86	66.970
636.19	70.893
636.52	67.730
636.85	67.246
637.18	68.176
637.51	68.302
637.83	68.594
638.16	70.532
638.49	66.076
638.82	68.684
639.15	67.300
639.48	70.014
639.81	67.782
640.13	69.697
640.46	70.117
640.79	69.661
641.12	68.390
641.45	69.520
641.77	70.963
642.10	72.038
642.43	70.900
642.76	73.927
643.09	72.536
643.41	70.227
643.74	69.852
644.07	71.757
644.40	73.480
644.73	75.832
645.05	69.966
645.38	69.665
645.71	69.326
646.04	77.379
646.36	75.000
646.69	74.640
647.02	75.236
647.35	73.694
647.67	72.029
648.00	72.015
648.33	68.259
648.66	67.627
648.98	65.997
649.31	65.620
649.64	66.248
649.96	65.964
650.29	68.995
650.62	66.838
650.94	71.852
651.27	72.067
651.60	70.450
651.92	70.280
652.25	64.831
652.58	64.833
652.90	67.238
653.23	66.387
653.56	66.667
653.88	63.918
654.21	64.098
654.54	65.195
654.86	66.214
655.19	60.526
655.52	54.954
655.84	43.172
656.17	45.900
656.49	61.161
656.82	64.003
657.15	49.945
657.47	38.123
657.80	28.630
658.13	28.876
658.45	45.216
658.78	46.377
659.10	46.044
659.43	47.161
659.75	50.666
660.08	49.448
660.41	55.975
660.73	59.945
661.06	64.298
661.38	65.166
661.71	66.735
662.03	70.601
662.36	68.791
662.68	68.584
663.01	72.707
663.33	68.213
663.66	69.535
663.98	71.860
664.31	66.311
664.63	69.816
664.96	66.087
665.28	68.433
665.61	69.264
665.93	67.609
666.26	69.197
666.58	67.562
666.91	69.647
667.23	68.868
667.56	70.379
667.88	72.422
668.21	71.122
668.53	71.395
668.86	70.519
669.18	67.925
669.50	66.828
669.83	66.512
670.15	72.028
670.48	66.507
670.80	71.429
671.13	65.548
671.45	66.210
671.77	64.807
672.10	63.762
672.42	60.861
672.75	60.036
673.07	62.075
673.39	59.633
673.72	60.355
674.04	61.875
674.37	67.161
674.69	63.383
675.01	65.556
675.34	65.991
675.66	66.898
675.98	66.075
676.31	64.908
676.63	65.796
676.95	63.409
677.28	69.176
677.60	68.675
677.92	67.661
678.25	63.457
678.57	65.368
678.89	64.076
679.22	65.324
679.54	59.438
679.86	59.443
680.18	59.417
680.51	56.818
680.83	56.461
681.15	58.800
681.48	60.861
681.80	61.364
682.12	58.266
682.44	59.833
682.77	63.355
683.09	62.243
683.41	60.909
683.73	60.599
684.06	60.619
684.38	59.140
684.70	63.181
685.02	58.714
685.34	55.929
685.67	55.347
685.99	56.962
686.31	55.575
686.63	53.247
686.96	53.042
687.28	58.586
687.60	54.373
687.92	58.182
688.24	57.460
688.56	58.515
688.89	57.589
689.21	57.111
689.53	59.861
689.85	59.767
690.17	59.152
690.49	58.392
690.82	56.796
691.14	59.524
691.46	60.280
691.78	57.207
692.10	55.269
692.42	55.195
692.74	53.205
693.06	59.234
693.39	55.430
693.71	53.167
694.03	58.430
694.35	53.972
694.67	57.071
694.99	56.136
695.31	60.836
695.63	58.000
695.95	57.576
696.27	58.031
696.59	61.389
696.91	58.263
697.23	58.612
697.56	58.416
697.88	54.839
698.20	55.353
698.52	55.529
698.84	51.675
699.16	56.500
699.48	55.388
699.80	52.854
700.12	54.447
700.44	60.504
700.76	57.267
701.08	58.182
701.40	59.036
701.72	62.037
702.04	59.076
702.36	61.538
702.68	57.057
703.00	56.970
703.32	53.959
703.64	53.390
703.96	53.333
704.28	55.215
704.60	56.825
704.91	53.312
705.23	60.465
705.55	60.777
705.87	60.650
706.19	63.704
706.51	59.107
706.83	55.627
707.15	58.567
707.47	54.062
707.79	53.906
708.11	50.250
708.43	52.000
708.74	52.455
709.06	58.592
709.38	52.905
709.70	54.734
710.02	58.917
710.34	56.966
710.66	54.487
710.98	54.636
711.29	58.361
711.61	59.322
711.93	54.723
712.25	55.326
712.57	58.974
712.89	55.970
713.20	52.595
713.52	50.523
713.84	52.218
714.16	57.732
714.48	55.484
714.80	58.013
715.11	51.672
715.43	53.292
715.75	53.667
716.07	53.488
716.39	50.000
716.70	53.875
717.02	59.924
717.34	57.895
717.66	59.735
717.97	53.478
718.29	54.812
718.61	59.449
718.93	55.426
719.24	59.696
719.56	56.627
719.88	51.546
720.20	54.545
720.51	51.724
720.83	54.826
721.15	53.361
721.46	59.677
721.78	54.150
722.10	50.929
722.42	48.548
722.73	54.694
723.05	60.000
723.37	54.661
723.68	58.108
724.00	54.274
724.32	51.556
724.63	55.455
724.95	48.908
725.27	54.839
725.58	47.034
725.90	50.397
726.22	50.579
726.53	50.169
726.85	50.936
727.16	51.321
727.48	48.178
727.80	53.441
728.11	49.576
728.43	50.980
728.74	47.177
729.06	48.400
729.38	53.008
729.69	49.801
730.01	49.231
730.32	49.627
730.64	50.883
730.96	51.321
731.27	42.333
731.59	46.102
731.90	46.497
732.22	42.902
732.53	48.837
732.85	48.582
733.16	49.832
733.48	42.086
733.80	45.290
734.11	47.119
734.43	47.079
734.74	41.818
735.06	42.997
735.37	48.036
735.69	45.455
736.00	47.038
736.32	47.315
736.63	43.310
736.95	49.147
737.26	45.196
737.58	41.946
737.89	48.352
738.21	43.985
738.52	49.383
738.83	48.472
739.15	48.035
739.46	50.000
739.78	45.421
740.09	41.176
740.41	49.638
740.72	41.732
741.04	50.607
741.35	42.979
741.66	42.654
741.98	52.041
742.29	48.020
742.61	50.262
742.92	46.445
743.23	40.278
743.55	50.226
743.86	51.196
744.18	50.239
744.49	50.000
744.80	51.630
745.12	58.289
745.43	42.439
745.74	51.562
746.06	52.195
746.37	48.168
746.68	53.081
747.00	50.000
747.31	47.761
747.62	50.971
747.94	49.282
748.25	46.040
748.56	46.448
748.88	47.120
749.19	57.979
749.50	50.246
749.82	41.981
750.13	48.165
750.44	46.992
750.75	48.507
751.07	48.905
751.38	43.678
751.69	42.353
752.01	42.636
752.32	46.614
752.63	45.455
752.94	45.259
753.26	51.464
753.57	49.774
753.88	46.903
754.19	39.583
754.51	42.975
754.82	44.939
755.13	48.333
755.44	45.968
755.75	47.266
756.07	39.689
756.38	44.151
756.69	40.230
757.00	37.333
757.31	39.542
757.63	36.890
757.94	36.944
758.25	38.630
758.56	36.968
758.87	35.127
759.18	38.629
759.50	38.909
759.81	39.799
760.12	40.323
760.43	37.879
760.74	40.432
761.05	38.462
761.36	33.239
761.67	42.727
761.99	38.776
762.30	35.636
762.61	38.735
762.92	39.819
763.23	43.694
763.54	41.121
763.85	40.678
764.16	40.664
764.47	34.677
764.78	35.531
765.10	36.700
765.41	38.170
765.72	36.825
766.03	38.346
766.34	41.606
766.65	44.223
766.96	43.939
767.27	42.553
767.58	44.253
767.89	39.007
768.20	39.205
768.51	44.505
768.82	40.394
769.13	38.249
769.44	35.193
769.75	36.986
770.06	37.069
770.37	37.981
770.68	37.563
770.99	38.914
771.30	41.667
771.61	37.557
771.92	41.810
772.23	40.394
772.54	39.785
772.85	46.296
773.16	41.011
773.47	40.523
773.78	45.752
774.09	40.120
774.39	42.000
774.70	39.490
775.01	44.138
775.32	47.857
775.63	44.628
775.94	46.565
776.25	48.819
776.56	37.500
776.87	54.808
777.18	44.444
777.48	36.207
777.79	35.652
778.10	39.048
778.41	45.045
778.72	44.444
779.03	37.594
779.34	46.809
779.65	38.356
779.95	34.247
780.26	44.138
780.57	37.398
780.88	28.346
781.19	38.793
781.50	46.512
781.80	34.911
782.11	36.478
782.42	46.923
782.73	38.849
783.04	34.815
783.34	33.333
783.65	33.333
783.96	48.361
784.27	33.103
784.57	37.398
784.88	42.969
785.19	49.000
785.50	47.000
785.81	43.966
786.11	44.828
786.42	44.660
786.73	45.455
787.04	36.735
787.34	39.286
787.65	37.143
787.96	35.398
788.26	39.091
788.57	42.735
788.88	39.844
789.19	35.714
789.49	40.870
789.80	39.796
790.11	32.323
790.41	28.182
790.72	51.087
791.03	22.727
791.33	41.250
791.64	37.500
791.95	48.837
792.25	39.362
792.56	46.067
792.87	36.986
793.17	40.580
793.48	38.667
793.79	40.000
794.09	50.000
794.40	32.075
794.70	27.184
795.01	30.894
795.32	24.786
795.62	32.381
795.93	44.118
796.23	29.245
796.54	31.250
796.85	44.118
797.15	33.803
797.46	51.389
797.76	43.939
798.07	25.581
798.37	34.211
798.68	22.727
798.99	40.741
799.29	47.143
799.60	36.232
799.90	36.000
800.21	55.738
800.51	44.615
800.82	45.763
801.12	40.580
801.43	44.262
801.73	44.444
802.04	48.000
802.34	26.866
802.65	46.154
802.95	12.500
803.26	32.692
803.56	39.216
803.87	23.913
804.17	29.333
804.48	49.206
804.78	53.704
805.09	21.739
805.39	33.333
805.70	31.481
806.00	21.053
806.30	33.803
806.61	44.286
806.91	12.500
807.22	40.789
807.52	38.667
807.83	32.727
808.13	20.833
808.43	57.353
808.74	34.328
809.04	28.814
809.35	51.923
809.65	31.250
809.95	10.811
810.26	18.182
810.56	35.616
810.86	54.762
811.17	44.000
811.47	42.857
811.77	21.053
812.08	27.273
812.38	47.170
812.69	37.500
812.99	24.242
813.29	47.368
813.59	2.857
813.90	27.273
814.20	17.949
814.50	32.692
814.81	20.755
815.11	8.511
815.41	44.068
815.72	26.190
816.02	37.255
816.32	35.417
816.62	7.317
816.93	37.838
817.23	22.857
817.53	16.667
817.84	19.565
818.14	36.538
818.44	-5.263
818.74	32.609
819.04	27.500
819.35	40.541
819.65	58.824
819.95	36.111
820.25	21.429
820.56	52.500
820.86	-6.897
821.16	45.000
821.46	27.660
821.76	35.000
822.07	16.279
822.37	16.216
822.67	53.125
822.97	52.381
823.27	7.143
823.57	32.000
823.88	3.704
824.18	28.571
824.48	20.588
824.78	45.161
825.08	30.435
825.38	75.758
825.69	-4.167
825.99	42.105
826.29	27.778
826.59	40.000
826.89	14.286
827.19	39.130
827.49	15.000
827.79	31.429
828.09	60.714
828.39	48.485
828.70	54.054
829.00	46.429
829.30	4.762
829.60	36.667
829.90	31.250
830.20	-7.895
830.50	22.222
830.80	21.739
831.10	27.273
831.40	30.303
831.70	38.710
832.00	33.333
832.30	-4.762
832.60	-25.000
832.90	13.793
833.20	40.000
833.50	30.303
833.80	22.222
834.10	-3.846
834.40	18.750
834.70	0.000
835.00	31.579
835.30	57.692
835.60	46.667
835.90	0.000
836.20	27.273
836.50	3.571
836.80	23.077
837.10	14.286
837.40	-200.000
837.70	18.182
838.00	-45.455
838.30	21.739
838.60	15.385
838.90	63.636
839.19	7.143
839.49	23.333
839.79	53.846
840.09	0.000
840.39	78.571
840.69	-14.286
840.99	0.000
841.29	-31.579
841.59	-80.000
841.88	9.091
842.18	60.000
842.48	31.250
842.78	-40.000
843.08	51.852
843.38	30.000
843.68	52.174
843.97	6.667
844.27	6.667
844.57	45.000
844.87	44.444
845.17	0.000
845.47	0.000
845.76	-9.524
846.06	58.824
846.36	100.000
846.66	21.429
846.96	60.000
847.25	-212.500
847.55	35.714
847.85	-50.000
848.15	36.364
848.44	-433.333
848.74	50.000
849.04	51.852
849.34	27.273
849.63	0.000
849.93	-160.000
850.23	83.333
850.53	-60.000
850.82	-30.769
851.12	-22.222
851.42	-26.667
851.71	-7.692
852.01	7.143
852.31	25.000
852.61	-54.545
852.90	15.000
853.20	-10.526
853.50	-33.333
853.79	0.000
854.09	58.333
854.39	10.526
854.68	-12.500
854.98	35.484
855.28	30.769
855.57	40.000
855.87	11.111
856.17	14.815
856.46	-42.857
856.76	46.667
857.05	133.333
857.35	28.000
857.65	-22.222
857.94	38.462
858.24	58.621
858.53	55.556
858.83	55.556
859.13	86.364
859.42	13.043
859.72	-50.000
860.01	-66.667
860.31	8.000
860.60	-4.762
860.90	-33.333
861.20	-46.667
861.49	-250.000
861.79	-86.667
862.08	15.000
862.38	80.000
862.67	100.000
862.97	-33.333
863.26	8.333
863.56	61.111
863.85	-300.000
864.15	44.444
864.44	60.000
864.74	7.143
865.03	250.000
865.33	-80.000
865.62	33.333
865.92	25.000
866.21	-66.667
866.51	0.000
866.80	-45.455
867.10	-400.000
867.39	50.000
867.69	0.000
867.98	-30.769
868.27	-233.333
868.57	60.000
868.86	55.556
869.16	-84.615
869.45	-40.000
869.75	-700.000
870.04	0.000
870.33	-28.571
870.63	14.286
870.92	266.667
871.22	-180.000
871.51	-300.000
871.80	144.444
872.10	200.000
>>>>>End Processed Spectral Data<<<<<
