SpectraSuite Data File
++++++++++++++++++++++++++++++++++++
Date: Fri May 15 20:45:26 PDT 2015
User: schluterlab
Dark Spectrum Present: Yes
Reference Spectrum Present: Yes
Number of Sampled Component Spectra: 1
Spectrometers: USB2E3373
Integration Time (usec): 3000 (USB2E3373)
Spectra Averaged: 3 (USB2E3373)
Boxcar Smoothing: 0 (USB2E3373)
Correct for Electrical Dark: No (USB2E3373)
Strobe/Lamp Enabled: No (USB2E3373)
Correct for Detector Non-linearity: No (USB2E3373)
Correct for Stray Light: No (USB2E3373)
Number of Pixels in Processed Spectrum: 2048
>>>>>Begin Processed Spectral Data<<<<<
178.53	0.000
178.91	0.000
179.29	-12.500
179.67	-600.000
180.04	42.857
180.42	100.000
180.80	-300.000
181.18	-0.000
181.56	200.000
181.94	-100.000
182.31	100.000
182.69	-40.000
183.07	-33.333
183.45	-140.000
183.83	283.333
184.20	-45.455
184.58	122.222
184.96	100.000
185.34	-0.000
185.72	-550.000
186.09	61.538
186.47	-1100.000
186.85	283.333
187.23	133.333
187.61	900.000
187.98	-166.667
188.36	122.222
188.74	-100.000
189.12	11.765
189.49	50.000
189.87	0.000
190.25	21.429
190.63	-150.000
191.00	133.333
191.38	-31.579
191.76	0.000
192.14	-75.000
192.51	-400.000
192.89	-66.667
193.27	-171.429
193.65	116.667
194.02	200.000
194.40	30.000
194.78	-237.500
195.15	-50.000
195.53	-112.500
195.91	250.000
196.29	-200.000
196.66	107.692
197.04	128.571
197.42	-44.444
197.79	-333.333
198.17	-76.923
198.55	1200.000
198.92	-233.333
199.30	400.000
199.68	0.000
200.05	-233.333
200.43	0.000
200.81	-100.000
201.18	-366.667
201.56	1400.000
201.94	-200.000
202.31	-133.333
202.69	-340.000
203.07	350.000
203.44	-600.000
203.82	0.000
204.19	-14.286
204.57	-533.333
204.95	112.500
205.32	20.000
205.70	-57.143
206.08	-125.000
206.45	166.667
206.83	50.000
207.20	-228.571
207.58	200.000
207.96	-166.667
208.33	-160.000
208.71	-25.000
209.08	-150.000
209.46	-800.000
209.84	-160.000
210.21	-1200.000
210.59	14.286
210.96	16.667
211.34	0.000
211.71	20.000
212.09	-214.286
212.46	-1300.000
212.84	0.000
213.22	50.000
213.59	150.000
213.97	-38.462
214.34	-18.182
214.72	0.000
215.09	275.000
215.47	-61.538
215.84	-36.364
216.22	-333.333
216.59	-50.000
216.97	100.000
217.34	-200.000
217.72	-160.000
218.09	-37.500
218.47	25.000
218.84	-1100.000
219.22	-66.667
219.59	-200.000
219.97	66.667
220.34	250.000
220.72	-142.857
221.09	-50.000
221.47	-350.000
221.84	-1000.000
222.22	-950.000
222.59	18.182
222.97	83.333
223.34	0.000
223.72	-64.286
224.09	23.810
224.46	10.714
224.84	700.000
225.21	-20.000
225.59	26.667
225.96	0.000
226.34	100.000
226.71	-85.714
227.08	-83.333
227.46	37.500
227.83	-400.000
228.21	33.333
228.58	63.636
228.95	-12.500
229.33	160.000
229.70	31.250
230.08	-137.500
230.45	57.143
230.82	-14.286
231.20	-26.667
231.57	7.143
231.95	-14.286
232.32	-90.000
232.69	-14.286
233.07	200.000
233.44	-60.000
233.81	-180.000
234.19	0.000
234.56	5.882
234.93	200.000
235.31	225.000
235.68	-140.000
236.05	-23.077
236.43	10.000
236.80	23.529
237.17	12.500
237.55	-30.000
237.92	7.407
238.29	11.111
238.67	10.000
239.04	23.529
239.41	-21.951
239.79	3.333
240.16	17.073
240.53	10.526
240.91	21.739
241.28	33.333
241.65	26.786
242.02	36.986
242.40	41.667
242.77	40.678
243.14	10.606
243.51	21.250
243.89	41.379
244.26	36.782
244.63	44.048
245.00	22.680
245.38	50.515
245.75	23.596
246.12	32.759
246.49	32.231
246.87	36.538
247.24	26.050
247.61	27.193
247.98	32.520
248.36	30.000
248.73	34.868
249.10	31.169
249.47	33.544
249.84	33.987
250.22	36.471
250.59	37.255
250.96	40.845
251.33	36.047
251.70	42.353
252.08	35.025
252.45	29.703
252.82	36.181
253.19	35.484
253.56	33.645
253.94	37.838
254.31	43.913
254.68	39.912
255.05	37.795
255.42	38.428
255.79	39.768
256.16	35.019
256.54	42.910
256.91	35.741
257.28	34.572
257.65	40.075
258.02	36.879
258.39	42.424
258.76	45.421
259.14	34.551
259.51	39.482
259.88	36.426
260.25	34.967
260.62	42.014
260.99	36.610
261.36	37.329
261.73	35.127
262.10	37.690
262.47	38.650
262.85	36.050
263.22	38.769
263.59	41.121
263.96	40.062
264.33	39.394
264.70	37.500
265.07	40.476
265.44	42.776
265.81	39.831
266.18	38.525
266.55	41.902
266.92	39.896
267.29	39.687
267.66	37.084
268.03	41.361
268.40	35.509
268.77	42.246
269.14	37.890
269.51	40.103
269.88	34.414
270.25	37.500
270.62	35.122
270.99	37.340
271.36	36.430
271.73	34.038
272.10	40.876
272.47	36.643
272.84	37.871
273.21	37.123
273.58	37.590
273.95	38.902
274.32	36.490
274.69	36.199
275.06	37.054
275.43	35.601
275.80	38.631
276.17	37.701
276.54	37.901
276.91	37.281
277.28	37.118
277.65	36.157
278.02	35.319
278.39	37.199
278.76	37.317
279.13	33.817
279.50	40.336
279.87	38.877
280.23	35.914
280.60	35.673
280.97	38.788
281.34	35.192
281.71	35.524
282.08	32.720
282.45	34.834
282.82	34.170
283.19	33.462
283.56	34.682
283.92	33.397
284.29	35.962
284.66	34.884
285.03	36.542
285.40	34.594
285.77	34.446
286.14	35.018
286.51	36.900
286.87	33.821
287.24	36.832
287.61	31.217
287.98	34.386
288.35	34.489
288.72	35.201
289.08	36.285
289.45	34.798
289.82	32.867
290.19	31.741
290.56	33.619
290.93	30.303
291.29	30.971
291.66	30.236
292.03	31.419
292.40	30.323
292.77	31.579
293.13	28.896
293.50	29.135
293.87	29.466
294.24	31.066
294.60	31.297
294.97	29.613
295.34	29.601
295.71	29.359
296.08	27.055
296.44	28.165
296.81	27.917
297.18	28.986
297.55	29.539
297.91	29.452
298.28	30.475
298.65	28.087
299.02	27.358
299.38	26.949
299.75	27.448
300.12	26.702
300.48	27.536
300.85	25.856
301.22	26.883
301.59	27.632
301.95	27.848
302.32	26.200
302.69	27.239
303.05	24.752
303.42	27.397
303.79	27.804
304.15	27.001
304.52	23.900
304.89	26.433
305.25	25.545
305.62	23.104
305.99	27.018
306.35	24.277
306.72	24.297
307.09	25.542
307.45	25.144
307.82	25.231
308.19	26.597
308.55	24.755
308.92	25.817
309.29	24.246
309.65	26.265
310.02	27.283
310.38	26.015
310.75	25.355
311.12	26.588
311.48	26.087
311.85	24.503
312.22	23.840
312.58	25.478
312.95	24.653
313.31	26.190
313.68	23.770
314.05	26.122
314.41	26.186
314.78	25.155
315.14	27.338
315.51	27.122
315.87	25.717
316.24	25.683
316.61	26.772
316.97	26.290
317.34	27.148
317.70	27.342
318.07	25.096
318.43	26.863
318.80	25.000
319.16	27.344
319.53	27.825
319.89	27.067
320.26	27.935
320.62	28.786
320.99	27.244
321.35	26.619
321.72	27.726
322.08	28.499
322.45	29.137
322.81	28.684
323.18	29.441
323.54	28.282
323.91	28.627
324.27	27.441
324.64	28.652
325.00	28.741
325.37	28.926
325.73	28.558
326.10	27.975
326.46	29.596
326.83	30.096
327.19	29.991
327.56	30.408
327.92	30.898
328.29	30.000
328.65	30.755
329.01	31.066
329.38	30.415
329.74	29.839
330.11	30.491
330.47	29.499
330.84	30.673
331.20	31.844
331.56	29.352
331.93	30.594
332.29	30.981
332.66	30.407
333.02	30.483
333.38	29.148
333.75	30.586
334.11	29.722
334.48	30.281
334.84	30.311
335.20	29.460
335.57	30.009
335.93	28.997
336.29	31.215
336.66	29.791
337.02	30.112
337.38	29.722
337.75	31.364
338.11	30.478
338.47	31.204
338.84	29.852
339.20	30.256
339.56	30.092
339.93	30.349
340.29	31.193
340.65	30.466
341.02	30.053
341.38	30.973
341.74	30.919
342.11	28.943
342.47	30.427
342.83	31.574
343.20	29.007
343.56	29.913
343.92	30.912
344.28	29.718
344.65	29.965
345.01	29.300
345.37	29.352
345.73	29.791
346.10	29.853
346.46	30.446
346.82	29.296
347.19	29.343
347.55	30.326
347.91	29.288
348.27	29.022
348.63	28.450
349.00	29.368
349.36	30.008
349.72	30.763
350.08	30.000
350.45	29.449
350.81	29.236
351.17	27.932
351.53	29.388
351.89	28.241
352.26	29.600
352.62	30.000
352.98	28.594
353.34	29.227
353.70	29.773
354.07	28.710
354.43	30.024
354.79	29.149
355.15	28.730
355.51	29.351
355.87	30.097
356.24	28.140
356.60	29.184
356.96	29.206
357.32	28.115
357.68	27.991
358.04	28.837
358.40	28.457
358.77	29.346
359.13	28.583
359.49	28.505
359.85	29.797
360.21	28.230
360.57	28.003
360.93	29.576
361.29	28.097
361.66	29.545
362.02	29.015
362.38	28.789
362.74	28.085
363.10	29.421
363.46	28.910
363.82	29.677
364.18	28.782
364.54	28.235
364.90	28.889
365.26	28.239
365.62	29.416
365.98	29.252
366.35	28.988
366.71	28.825
367.07	29.318
367.43	28.828
367.79	29.470
368.15	28.356
368.51	29.060
368.87	28.500
369.23	27.653
369.59	29.009
369.95	28.886
370.31	29.191
370.67	27.910
371.03	28.081
371.39	28.665
371.75	28.352
372.11	28.531
372.47	29.586
372.83	29.099
373.19	28.602
373.55	28.592
373.91	28.582
374.27	29.128
374.63	29.002
374.99	28.936
375.35	29.526
375.71	30.979
376.07	28.722
376.42	30.408
376.78	30.604
377.14	29.045
377.50	29.017
377.86	29.987
378.22	28.717
378.58	28.654
378.94	28.986
379.30	28.571
379.66	30.470
380.02	29.307
380.38	29.763
380.74	29.204
381.09	30.675
381.45	29.786
381.81	29.056
382.17	29.061
382.53	29.981
382.89	30.195
383.25	29.496
383.61	30.000
383.97	29.651
384.32	29.331
384.68	29.598
385.04	29.473
385.40	29.683
385.76	30.566
386.12	30.595
386.48	31.354
386.83	29.486
387.19	29.853
387.55	30.489
387.91	29.951
388.27	30.220
388.62	29.956
388.98	30.080
389.34	29.794
389.70	31.075
390.06	28.005
390.42	30.505
390.77	31.262
391.13	29.193
391.49	30.207
391.85	30.734
392.20	29.755
392.56	29.688
392.92	29.947
393.28	30.719
393.64	30.330
393.99	31.661
394.35	30.234
394.71	30.524
395.07	29.541
395.42	30.237
395.78	30.423
396.14	30.643
396.50	30.755
396.85	30.135
397.21	30.514
397.57	29.781
397.92	31.156
398.28	30.690
398.64	30.542
399.00	30.756
399.35	29.740
399.71	30.787
400.07	31.197
400.42	30.783
400.78	30.618
401.14	30.611
401.49	30.375
401.85	29.555
402.21	29.880
402.57	29.813
402.92	29.925
403.28	30.764
403.63	30.958
403.99	31.122
404.35	31.418
404.70	29.464
405.06	31.081
405.42	30.392
405.77	29.924
406.13	30.442
406.49	31.202
406.84	31.235
407.20	30.584
407.55	29.878
407.91	30.348
408.27	31.039
408.62	30.215
408.98	30.930
409.34	31.722
409.69	30.749
410.05	30.850
410.40	31.111
410.76	30.639
411.11	31.312
411.47	30.506
411.83	30.508
412.18	30.824
412.54	30.649
412.89	30.419
413.25	31.588
413.60	31.180
413.96	31.288
414.31	31.463
414.67	30.597
415.03	31.225
415.38	31.397
415.74	32.248
416.09	32.071
416.45	29.912
416.80	31.328
417.16	32.597
417.51	31.113
417.87	31.421
418.22	31.671
418.58	31.104
418.93	31.975
419.29	31.626
419.64	31.886
420.00	31.675
420.35	31.164
420.71	31.713
421.06	31.001
421.42	31.430
421.77	31.618
422.12	30.193
422.48	31.456
422.83	31.032
423.19	32.054
423.54	31.570
423.90	31.743
424.25	31.573
424.61	32.742
424.96	31.359
425.31	32.582
425.67	32.394
426.02	32.214
426.38	33.125
426.73	31.659
427.09	32.785
427.44	32.471
427.79	32.528
428.15	33.070
428.50	31.678
428.85	31.757
429.21	32.541
429.56	33.208
429.92	31.844
430.27	32.080
430.62	32.619
430.98	32.166
431.33	32.440
431.68	32.077
432.04	32.644
432.39	33.428
432.74	32.712
433.10	32.529
433.45	32.378
433.80	32.269
434.16	32.022
434.51	33.280
434.86	32.811
435.22	32.866
435.57	34.061
435.92	34.192
436.28	32.141
436.63	33.086
436.98	33.024
437.34	32.849
437.69	34.466
438.04	34.017
438.39	32.682
438.75	33.819
439.10	33.447
439.45	33.901
439.81	33.394
440.16	35.095
440.51	34.746
440.86	35.529
441.22	34.106
441.57	34.492
441.92	34.732
442.27	34.590
442.63	34.797
442.98	34.520
443.33	33.723
443.68	34.271
444.03	34.724
444.39	34.088
444.74	35.452
445.09	34.243
445.44	34.929
445.79	34.502
446.15	34.086
446.50	35.108
446.85	34.803
447.20	34.515
447.55	34.821
447.91	35.025
448.26	35.174
448.61	35.521
448.96	35.341
449.31	35.896
449.66	35.250
450.02	34.969
450.37	36.100
450.72	34.708
451.07	35.253
451.42	34.332
451.77	35.503
452.12	34.450
452.47	34.643
452.83	35.925
453.18	35.104
453.53	35.272
453.88	36.551
454.23	35.833
454.58	35.768
454.93	35.825
455.28	34.476
455.63	35.338
455.98	36.500
456.34	35.888
456.69	35.070
457.04	36.106
457.39	35.784
457.74	35.067
458.09	35.374
458.44	36.044
458.79	34.846
459.14	35.755
459.49	36.239
459.84	34.010
460.19	36.044
460.54	36.491
460.89	35.852
461.24	35.901
461.59	35.511
461.94	35.409
462.29	37.093
462.64	37.209
462.99	36.561
463.34	34.423
463.69	36.358
464.04	36.441
464.39	36.325
464.74	36.258
465.09	35.683
465.44	36.642
465.79	36.111
466.14	36.716
466.49	36.343
466.84	36.526
467.19	37.359
467.54	35.504
467.89	36.260
468.24	35.949
468.59	36.889
468.94	36.444
469.29	37.443
469.64	36.227
469.99	37.631
470.34	36.655
470.68	38.255
471.03	38.570
471.38	36.377
471.73	38.235
472.08	37.110
472.43	37.248
472.78	37.423
473.13	37.483
473.48	36.873
473.83	36.488
474.17	36.917
474.52	36.503
474.87	36.788
475.22	37.401
475.57	36.364
475.92	37.850
476.27	38.242
476.61	37.731
476.96	37.256
477.31	37.858
477.66	37.303
478.01	37.451
478.36	37.364
478.70	38.445
479.05	37.363
479.40	37.838
479.75	37.226
480.10	38.198
480.45	37.700
480.79	38.268
481.14	38.730
481.49	36.700
481.84	38.320
482.19	37.465
482.53	38.945
482.88	37.279
483.23	37.284
483.58	38.066
483.92	37.948
484.27	37.557
484.62	37.427
484.97	36.940
485.31	36.308
485.66	34.578
486.01	34.080
486.36	33.984
486.70	35.135
487.05	35.872
487.40	36.505
487.75	36.704
488.09	36.836
488.44	36.761
488.79	37.617
489.13	37.700
489.48	37.623
489.83	37.399
490.17	37.753
490.52	37.367
490.87	38.038
491.22	37.870
491.56	38.140
491.91	37.715
492.26	38.940
492.60	37.908
492.95	39.400
493.30	38.251
493.64	39.342
493.99	37.971
494.34	37.816
494.68	38.714
495.03	38.345
495.37	38.616
495.72	39.172
496.07	39.073
496.41	37.736
496.76	38.830
497.11	38.007
497.45	39.332
497.80	38.244
498.14	38.748
498.49	39.259
498.84	38.673
499.18	39.056
499.53	39.087
499.87	37.695
500.22	39.070
500.56	38.225
500.91	39.006
501.26	38.309
501.60	38.515
501.95	38.962
502.29	38.547
502.64	39.527
502.98	39.270
503.33	38.473
503.67	38.699
504.02	39.589
504.36	39.980
504.71	39.141
505.06	39.507
505.40	39.594
505.75	39.227
506.09	39.078
506.44	40.708
506.78	39.490
507.13	38.780
507.47	39.426
507.82	40.545
508.16	39.197
508.51	39.769
508.85	40.084
509.19	40.234
509.54	41.769
509.88	40.022
510.23	40.183
510.57	40.513
510.92	39.606
511.26	40.753
511.61	41.694
511.95	40.384
512.30	41.020
512.64	41.291
512.98	41.943
513.33	41.354
513.67	41.046
514.02	43.364
514.36	42.057
514.70	43.007
515.05	43.537
515.39	42.090
515.74	43.293
516.08	42.379
516.42	43.581
516.77	42.832
517.11	43.383
517.46	42.430
517.80	42.789
518.14	43.601
518.49	42.127
518.83	42.041
519.17	43.117
519.52	42.392
519.86	42.137
520.20	43.256
520.55	43.215
520.89	44.354
521.23	42.939
521.58	44.101
521.92	43.590
522.26	44.958
522.61	44.935
522.95	45.298
523.29	43.393
523.64	44.091
523.98	43.940
524.32	44.265
524.66	44.622
525.01	44.545
525.35	44.718
525.69	45.320
526.04	43.915
526.38	44.812
526.72	43.035
527.06	44.163
527.41	44.459
527.75	44.772
528.09	44.651
528.43	45.240
528.78	43.960
529.12	45.097
529.46	44.509
529.80	43.509
530.15	45.149
530.49	44.512
530.83	45.486
531.17	43.385
531.51	45.075
531.86	44.663
532.20	45.164
532.54	44.724
532.88	44.559
533.22	44.691
533.57	43.971
533.91	43.799
534.25	44.206
534.59	44.003
534.93	43.235
535.27	42.766
535.62	42.903
535.96	44.292
536.30	44.723
536.64	43.970
536.98	44.181
537.32	46.871
537.66	45.863
538.01	45.035
538.35	43.828
538.69	44.274
539.03	44.087
539.37	44.078
539.71	44.172
540.05	42.363
540.39	43.629
540.73	43.724
541.07	43.163
541.42	44.153
541.76	44.047
542.10	43.290
542.44	44.475
542.78	42.326
543.12	41.552
543.46	44.298
543.80	43.442
544.14	42.056
544.48	43.105
544.82	42.515
545.16	43.852
545.50	43.458
545.84	44.547
546.18	43.759
546.52	43.908
546.86	44.141
547.20	43.562
547.54	42.261
547.88	44.769
548.22	41.552
548.56	43.865
548.90	43.396
549.24	42.975
549.58	43.230
549.92	42.459
550.26	43.516
550.60	43.717
550.94	43.839
551.28	43.045
551.62	44.846
551.96	44.436
552.30	44.006
552.64	42.595
552.98	43.179
553.32	43.010
553.66	43.832
554.00	44.526
554.34	44.165
554.68	43.289
555.02	43.527
555.36	43.231
555.69	43.223
556.03	42.470
556.37	42.206
556.71	43.321
557.05	43.997
557.39	42.082
557.73	45.502
558.07	44.796
558.41	44.257
558.75	43.726
559.08	44.444
559.42	43.889
559.76	45.076
560.10	43.043
560.44	43.336
560.78	42.517
561.12	43.935
561.45	43.781
561.79	43.277
562.13	44.003
562.47	42.374
562.81	43.444
563.15	41.608
563.48	42.645
563.82	44.544
564.16	42.340
564.50	42.027
564.84	42.637
565.17	42.254
565.51	43.716
565.85	43.073
566.19	44.363
566.52	42.024
566.86	43.188
567.20	41.407
567.54	42.214
567.88	42.062
568.21	41.007
568.55	40.924
568.89	41.222
569.23	40.443
569.56	39.711
569.90	40.114
570.24	38.184
570.57	38.982
570.91	38.864
571.25	37.257
571.59	37.247
571.92	36.178
572.26	36.957
572.60	37.085
572.93	36.931
573.27	37.398
573.61	37.351
573.95	37.165
574.28	36.600
574.62	35.723
574.96	35.652
575.29	36.194
575.63	34.983
575.97	36.460
576.30	36.070
576.64	35.788
576.98	36.216
577.31	36.299
577.65	35.826
577.98	35.334
578.32	35.182
578.66	34.172
578.99	35.915
579.33	35.373
579.67	35.680
580.00	36.101
580.34	35.896
580.67	35.757
581.01	35.759
581.35	34.970
581.68	34.718
582.02	34.612
582.35	34.838
582.69	35.255
583.02	35.569
583.36	35.865
583.70	36.786
584.03	37.114
584.37	37.521
584.70	36.374
585.04	35.829
585.37	35.160
585.71	35.374
586.04	35.830
586.38	35.183
586.72	36.155
587.05	36.511
587.39	36.399
587.72	36.851
588.06	35.870
588.39	36.371
588.73	36.203
589.06	37.378
589.40	37.228
589.73	37.605
590.07	37.689
590.40	38.584
590.73	38.797
591.07	37.617
591.40	38.379
591.74	37.738
592.07	38.590
592.41	38.163
592.74	36.838
593.08	35.592
593.41	35.815
593.75	35.165
594.08	35.874
594.41	36.718
594.75	36.603
595.08	36.776
595.42	37.468
595.75	37.289
596.09	36.943
596.42	37.412
596.75	37.966
597.09	37.267
597.42	37.760
597.75	38.158
598.09	36.487
598.42	37.184
598.76	36.765
599.09	36.258
599.42	36.605
599.76	35.440
600.09	35.897
600.42	35.974
600.76	35.327
601.09	35.687
601.42	36.036
601.76	36.522
602.09	36.262
602.42	37.405
602.76	37.564
603.09	37.417
603.42	37.793
603.76	36.210
604.09	35.237
604.42	36.887
604.76	37.739
605.09	36.974
605.42	37.111
605.75	36.340
606.09	36.561
606.42	36.322
606.75	36.710
607.09	36.044
607.42	35.711
607.75	35.702
608.08	36.478
608.42	35.998
608.75	38.265
609.08	36.771
609.41	36.802
609.75	37.954
610.08	37.743
610.41	36.184
610.74	37.543
611.07	38.295
611.41	37.727
611.74	37.953
612.07	36.831
612.40	37.965
612.73	37.684
613.07	37.795
613.40	37.801
613.73	37.493
614.06	37.117
614.39	38.353
614.72	36.807
615.06	37.654
615.39	35.753
615.72	37.298
616.05	37.765
616.38	37.778
616.71	37.615
617.05	38.666
617.38	38.969
617.71	37.736
618.04	39.048
618.37	38.651
618.70	39.604
619.03	39.792
619.36	39.870
619.69	39.121
620.03	41.344
620.36	40.844
620.69	38.473
621.02	40.902
621.35	41.411
621.68	42.177
622.01	40.000
622.34	39.745
622.67	39.826
623.00	39.587
623.33	38.948
623.66	39.716
623.99	38.200
624.32	39.468
624.65	38.797
624.99	39.503
625.32	37.983
625.65	39.827
625.98	41.579
626.31	38.736
626.64	41.248
626.97	42.234
627.30	40.630
627.63	41.594
627.96	41.689
628.29	40.333
628.62	41.101
628.95	42.786
629.28	42.843
629.61	40.778
629.94	41.447
630.26	41.502
630.59	42.664
630.92	41.949
631.25	40.923
631.58	44.163
631.91	43.202
632.24	42.431
632.57	42.500
632.90	43.654
633.23	42.353
633.56	44.710
633.89	44.390
634.22	44.074
634.55	44.346
634.88	43.934
635.20	44.872
635.53	45.467
635.86	44.603
636.19	46.054
636.52	43.878
636.85	41.687
637.18	44.906
637.51	42.642
637.83	44.678
638.16	45.430
638.49	44.959
638.82	45.132
639.15	44.912
639.48	43.466
639.81	44.212
640.13	45.743
640.46	46.210
640.79	44.035
641.12	43.279
641.45	45.495
641.77	44.444
642.10	47.077
642.43	45.177
642.76	47.690
643.09	45.880
643.41	44.984
643.74	43.822
644.07	46.470
644.40	49.493
644.73	48.336
645.05	45.638
645.38	46.914
645.71	46.277
646.04	48.833
646.36	45.213
646.69	47.662
647.02	50.662
647.35	46.269
647.67	46.252
648.00	48.881
648.33	43.857
648.66	44.746
648.98	42.379
649.31	44.463
649.64	43.171
649.96	43.112
650.29	44.293
650.62	43.932
650.94	45.926
651.27	44.320
651.60	47.027
651.92	44.755
652.25	45.115
652.58	44.000
652.90	46.827
653.23	45.378
653.56	42.809
653.88	42.784
654.21	43.608
654.54	44.312
654.86	44.482
655.19	41.082
655.52	38.235
655.84	30.701
656.17	32.913
656.49	44.884
656.82	47.164
657.15	36.900
657.47	27.885
657.80	21.200
658.13	21.493
658.45	33.618
658.78	34.208
659.10	35.017
659.43	35.624
659.75	36.655
660.08	37.586
660.41	40.449
660.73	42.127
661.06	43.328
661.38	44.618
661.71	42.505
662.03	44.850
662.36	47.033
662.68	48.673
663.01	48.035
663.33	47.332
663.66	45.814
663.98	47.907
664.31	45.842
664.63	46.774
664.96	41.957
665.28	43.267
665.61	45.238
665.93	45.870
666.26	48.590
666.58	43.624
666.91	44.235
667.23	48.821
667.56	46.209
667.88	48.201
668.21	44.869
668.53	47.991
668.86	45.047
669.18	43.868
669.50	46.005
669.83	45.814
670.15	41.725
670.48	45.694
670.80	47.696
671.13	43.177
671.45	43.379
671.77	44.635
672.10	40.792
672.42	43.071
672.75	42.274
673.07	44.723
673.39	40.734
673.72	42.801
674.04	42.708
674.37	45.975
674.69	44.325
675.01	46.444
675.34	44.595
675.66	46.991
675.98	43.459
676.31	45.413
676.63	43.230
676.95	44.318
677.28	44.235
677.60	47.229
677.92	44.495
678.25	43.982
678.57	41.126
678.89	44.538
679.22	44.743
679.54	39.759
679.86	39.761
680.18	43.495
680.51	42.235
680.83	41.750
681.15	41.400
681.48	44.262
681.80	41.736
682.12	41.129
682.44	44.979
682.77	43.267
683.09	41.190
683.41	41.818
683.73	42.166
684.06	43.584
684.38	38.925
684.70	44.662
685.02	39.419
685.34	41.502
685.67	41.088
685.99	39.421
686.31	39.646
686.63	38.033
686.96	38.213
687.28	37.172
687.60	37.262
687.92	42.020
688.24	39.315
688.56	41.921
688.89	40.402
689.21	41.556
689.53	41.763
689.85	39.302
690.17	43.527
690.49	43.735
690.82	41.019
691.14	42.143
691.46	40.888
691.78	39.865
692.10	42.796
692.42	40.260
692.74	38.675
693.06	41.441
693.39	38.914
693.71	36.878
694.03	38.337
694.35	41.121
694.67	41.667
694.99	38.642
695.31	40.209
695.63	42.750
695.95	40.909
696.27	40.674
696.59	44.444
696.91	41.176
697.23	37.275
697.56	39.356
697.88	41.075
698.20	39.408
698.52	40.706
698.84	37.560
699.16	40.750
699.48	42.607
699.80	39.702
700.12	41.509
700.44	40.336
700.76	39.535
701.08	37.576
701.40	36.747
701.72	45.370
702.04	42.244
702.36	41.137
702.68	41.141
703.00	40.303
703.32	37.537
703.64	38.418
703.96	42.029
704.28	44.479
704.60	36.825
704.91	40.379
705.23	39.203
705.55	48.763
705.87	44.043
706.19	44.444
706.51	42.612
706.83	39.550
707.15	37.383
707.47	36.415
707.79	36.458
708.11	36.500
708.43	40.000
708.74	37.209
709.06	41.127
709.38	39.450
709.70	40.828
710.02	38.854
710.34	42.105
710.66	40.385
710.98	42.384
711.29	38.033
711.61	40.339
711.93	44.300
712.25	44.330
712.57	45.055
712.89	39.179
713.20	35.986
713.52	37.979
713.84	37.201
714.16	43.643
714.48	40.000
714.80	40.064
715.11	37.994
715.43	36.991
715.75	40.333
716.07	36.545
716.39	36.242
716.70	41.697
717.02	41.221
717.34	43.320
717.66	40.265
717.97	41.304
718.29	45.607
718.61	41.732
718.93	39.535
719.24	41.065
719.56	40.562
719.88	40.550
720.20	39.394
720.51	38.314
720.83	35.907
721.15	40.336
721.46	41.129
721.78	38.735
722.10	35.688
722.42	37.759
722.73	39.592
723.05	42.857
723.37	38.559
723.68	45.946
724.00	38.462
724.32	44.000
724.63	42.273
724.95	34.498
725.27	39.171
725.58	44.492
725.90	31.349
726.22	38.610
726.53	39.661
726.85	40.824
727.16	43.019
727.48	37.247
727.80	38.462
728.11	42.373
728.43	41.176
728.74	38.710
729.06	39.200
729.38	43.233
729.69	39.044
730.01	36.538
730.32	37.313
730.64	37.102
730.96	39.623
731.27	37.333
731.59	36.271
731.90	34.395
732.22	37.539
732.53	37.542
732.85	31.560
733.16	34.343
733.48	31.295
733.80	39.130
734.11	34.237
734.43	40.206
734.74	35.758
735.06	31.270
735.37	32.931
735.69	36.027
736.00	35.889
736.32	33.557
736.63	37.676
736.95	37.884
737.26	34.875
737.58	36.913
737.89	36.630
738.21	37.970
738.52	38.272
738.83	37.555
739.15	34.061
739.46	35.827
739.78	34.066
740.09	33.333
740.41	36.957
740.72	35.433
741.04	34.818
741.35	37.021
741.66	37.441
741.98	38.265
742.29	35.149
742.61	39.267
742.92	32.227
743.23	33.333
743.55	39.367
743.86	36.842
744.18	33.971
744.49	32.447
744.80	31.522
745.12	41.711
745.43	34.146
745.74	40.104
746.06	35.122
746.37	36.649
746.68	35.071
747.00	35.638
747.31	41.791
747.62	39.320
747.94	35.885
748.25	38.614
748.56	40.437
748.88	35.602
749.19	40.426
749.50	38.424
749.82	32.075
750.13	36.239
750.44	38.346
750.75	35.821
751.07	39.781
751.38	39.080
751.69	31.765
752.01	34.496
752.32	34.263
752.63	33.597
752.94	34.483
753.26	36.820
753.57	36.199
753.88	33.186
754.19	32.083
754.51	37.190
754.82	34.413
755.13	36.250
755.44	33.871
755.75	37.891
756.07	37.354
756.38	35.849
756.69	30.651
757.00	31.000
757.31	34.967
757.63	27.134
757.94	30.556
758.25	32.877
758.56	30.319
758.87	28.895
759.18	32.087
759.50	30.909
759.81	34.114
760.12	34.839
760.43	30.303
760.74	33.025
761.05	32.923
761.36	26.420
761.67	31.818
761.99	30.612
762.30	32.364
762.61	33.597
762.92	32.127
763.23	31.081
763.54	35.514
763.85	37.288
764.16	34.025
764.47	33.468
764.78	28.205
765.10	36.027
765.41	33.123
765.72	27.619
766.03	29.323
766.34	33.577
766.65	34.263
766.96	29.293
767.27	36.702
767.58	28.161
767.89	29.078
768.20	32.386
768.51	35.165
768.82	28.079
769.13	32.719
769.44	27.468
769.75	28.767
770.06	31.897
770.37	37.500
770.68	33.503
770.99	26.697
771.30	29.902
771.61	29.864
771.92	33.621
772.23	35.961
772.54	31.720
772.85	36.420
773.16	26.966
773.47	31.373
773.78	35.294
774.09	31.737
774.39	32.000
774.70	33.121
775.01	33.793
775.32	39.286
775.63	41.322
775.94	33.588
776.25	34.646
776.56	37.500
776.87	34.615
777.18	23.932
777.48	27.586
777.79	38.261
778.10	31.429
778.41	27.928
778.72	25.397
779.03	39.098
779.34	39.716
779.65	27.397
779.95	33.562
780.26	24.828
780.57	21.951
780.88	29.921
781.19	22.414
781.50	32.558
781.80	25.444
782.11	22.642
782.42	33.846
782.73	33.094
783.04	39.259
783.34	29.167
783.65	23.077
783.96	35.246
784.27	35.172
784.57	32.520
784.88	35.156
785.19	41.000
785.50	43.000
785.81	30.172
786.11	34.483
786.42	21.359
786.73	35.455
787.04	24.490
787.34	27.679
787.65	22.857
787.96	31.858
788.26	32.727
788.57	35.043
788.88	28.906
789.19	29.365
789.49	30.435
789.80	35.714
790.11	28.283
790.41	27.273
790.72	48.913
791.03	38.636
791.33	36.250
791.64	40.000
791.95	25.581
792.25	28.723
792.56	35.955
792.87	21.918
793.17	27.536
793.48	28.000
793.79	47.500
794.09	41.250
794.40	25.472
794.70	29.126
795.01	29.268
795.32	34.188
795.62	26.667
795.93	25.490
796.23	32.075
796.54	27.083
796.85	32.353
797.15	19.718
797.46	37.500
797.76	37.879
798.07	29.070
798.37	9.211
798.68	27.273
798.99	32.099
799.29	32.857
799.60	31.884
799.90	38.667
800.21	26.230
800.51	33.846
800.82	15.254
801.12	34.783
801.43	32.787
801.73	31.746
802.04	32.000
802.34	25.373
802.65	44.231
802.95	23.214
803.26	32.692
803.56	19.608
803.87	45.652
804.17	20.000
804.48	46.032
804.78	25.926
805.09	28.261
805.39	42.222
805.70	48.148
806.00	19.298
806.30	32.394
806.61	30.000
806.91	22.222
807.22	27.632
807.52	37.333
807.83	34.545
808.13	36.111
808.43	36.765
808.74	29.851
809.04	27.119
809.35	34.615
809.65	21.875
809.95	-24.324
810.26	38.636
810.56	20.548
810.86	23.810
811.17	24.000
811.47	20.408
811.77	26.316
812.08	15.909
812.38	16.981
812.69	15.000
812.99	0.000
813.29	0.000
813.59	17.143
813.90	13.636
814.20	12.821
814.50	32.692
814.81	54.717
815.11	19.149
815.41	27.119
815.72	35.714
816.02	37.255
816.32	25.000
816.62	21.951
816.93	29.730
817.23	8.571
817.53	27.083
817.84	23.913
818.14	26.923
818.44	21.053
818.74	39.130
819.04	-17.500
819.35	18.919
819.65	11.765
819.95	11.111
820.25	0.000
820.56	40.000
820.86	-31.034
821.16	40.000
821.46	27.660
821.76	47.500
822.07	23.256
822.37	-21.622
822.67	34.375
822.97	30.952
823.27	-7.143
823.57	28.000
823.88	25.926
824.18	50.000
824.48	2.941
824.78	-9.677
825.08	21.739
825.38	27.273
825.69	-4.167
825.99	18.421
826.29	5.556
826.59	-53.333
826.89	-9.524
827.19	23.913
827.49	17.500
827.79	40.000
828.09	-14.286
828.39	63.636
828.70	27.027
829.00	35.714
829.30	42.857
829.60	10.000
829.90	6.250
830.20	7.895
830.50	-11.111
830.80	8.696
831.10	22.727
831.40	24.242
831.70	9.677
832.00	42.857
832.30	-19.048
832.60	-41.667
832.90	31.034
833.20	25.000
833.50	33.333
833.80	7.407
834.10	50.000
834.40	43.750
834.70	-100.000
835.00	-21.053
835.30	80.769
835.60	33.333
835.90	19.355
836.20	4.545
836.50	32.143
836.80	19.231
837.10	7.143
837.40	-100.000
837.70	0.000
838.00	-127.273
838.30	21.739
838.60	30.769
838.90	63.636
839.19	0.000
839.49	20.000
839.79	-23.077
840.09	-116.667
840.39	17.857
840.69	-3.571
840.99	-19.231
841.29	-36.842
841.59	0.000
841.88	-36.364
842.18	-90.000
842.48	6.250
842.78	-26.667
843.08	-3.704
843.38	-120.000
843.68	8.696
843.97	-13.333
844.27	-13.333
844.57	25.000
844.87	-38.889
845.17	14.286
845.47	20.000
845.76	-23.810
846.06	29.412
846.36	10.000
846.66	-35.714
846.96	60.000
847.25	-25.000
847.55	21.429
847.85	25.000
848.15	-31.818
848.44	-366.667
848.74	35.000
849.04	33.333
849.34	63.636
849.63	-116.667
849.93	-220.000
850.23	-16.667
850.53	60.000
850.82	-53.846
851.12	122.222
851.42	-6.667
851.71	7.692
852.01	0.000
852.31	-125.000
852.61	-18.182
852.90	-10.000
853.20	-5.263
853.50	16.667
853.79	78.261
854.09	-25.000
854.39	-52.632
854.68	12.500
854.98	16.129
855.28	30.769
855.57	0.000
855.87	-5.556
856.17	11.111
856.46	-57.143
856.76	-33.333
857.05	33.333
857.35	56.000
857.65	44.444
857.94	-46.154
858.24	44.828
858.53	33.333
858.83	66.667
859.13	9.091
859.42	4.348
859.72	-25.000
860.01	-366.667
860.31	32.000
860.60	9.524
860.90	-33.333
861.20	-20.000
861.49	-350.000
861.79	-20.000
862.08	-60.000
862.38	40.000
862.67	-260.000
862.97	-83.333
863.26	-66.667
863.56	44.444
863.85	-233.333
864.15	16.667
864.44	30.000
864.74	114.286
865.03	300.000
865.33	-60.000
865.62	0.000
865.92	16.667
866.21	-283.333
866.51	-18.750
866.80	-27.273
867.10	-200.000
867.39	91.667
867.69	0.000
867.98	-76.923
868.27	-200.000
868.57	20.000
868.86	11.111
869.16	-53.846
869.45	-6.667
869.75	-600.000
870.04	0.000
870.33	-28.571
870.63	42.857
870.92	300.000
871.22	-260.000
871.51	-700.000
871.80	22.222
872.10	166.667
>>>>>End Processed Spectral Data<<<<<
