SpectraSuite Data File
++++++++++++++++++++++++++++++++++++
Date: Fri May 15 20:27:32 PDT 2015
User: schluterlab
Dark Spectrum Present: Yes
Reference Spectrum Present: Yes
Number of Sampled Component Spectra: 1
Spectrometers: USB2E3373
Integration Time (usec): 3000 (USB2E3373)
Spectra Averaged: 3 (USB2E3373)
Boxcar Smoothing: 0 (USB2E3373)
Correct for Electrical Dark: No (USB2E3373)
Strobe/Lamp Enabled: No (USB2E3373)
Correct for Detector Non-linearity: No (USB2E3373)
Correct for Stray Light: No (USB2E3373)
Number of Pixels in Processed Spectrum: 2048
>>>>>Begin Processed Spectral Data<<<<<
178.53	0.000
178.91	0.000
179.29	50.000
179.67	-300.000
180.04	57.143
180.42	-150.000
180.80	200.000
181.18	-0.000
181.56	400.000
181.94	50.000
182.31	400.000
182.69	140.000
183.07	-233.333
183.45	-80.000
183.83	100.000
184.20	27.273
184.58	111.111
184.96	100.000
185.34	-100.000
185.72	50.000
186.09	84.615
186.47	200.000
186.85	16.667
187.23	188.889
187.61	-400.000
187.98	-300.000
188.36	0.000
188.74	-133.333
189.12	11.765
189.49	77.778
189.87	0.000
190.25	64.286
190.63	-200.000
191.00	-300.000
191.38	26.316
191.76	350.000
192.14	75.000
192.51	100.000
192.89	-22.222
193.27	-185.714
193.65	216.667
194.02	154.545
194.40	-10.000
194.78	-87.500
195.15	-25.000
195.53	-125.000
195.91	175.000
196.29	100.000
196.66	69.231
197.04	-0.000
197.42	11.111
197.79	-566.667
198.17	-76.923
198.55	1300.000
198.92	33.333
199.30	-100.000
199.68	-140.000
200.05	-266.667
200.43	0.000
200.81	-100.000
201.18	-233.333
201.56	1300.000
201.94	-950.000
202.31	-200.000
202.69	-120.000
203.07	200.000
203.44	400.000
203.82	0.000
204.19	14.286
204.57	-500.000
204.95	25.000
205.32	0.000
205.70	42.857
206.08	75.000
206.45	133.333
206.83	71.429
207.20	-142.857
207.58	300.000
207.96	-133.333
208.33	-30.000
208.71	-125.000
209.08	-116.667
209.46	-600.000
209.84	60.000
210.21	-200.000
210.59	0.000
210.96	-183.333
211.34	50.000
211.71	0.000
212.09	-128.571
212.46	-1200.000
212.84	0.000
213.22	30.000
213.59	100.000
213.97	-15.385
214.34	18.182
214.72	-50.000
215.09	525.000
215.47	0.000
215.84	-9.091
216.22	-166.667
216.59	37.500
216.97	-100.000
217.34	225.000
217.72	-120.000
218.09	87.500
218.47	12.500
218.84	-1200.000
219.22	-111.111
219.59	100.000
219.97	300.000
220.34	400.000
220.72	-14.286
221.09	-150.000
221.47	50.000
221.84	-600.000
222.22	-550.000
222.59	-18.182
222.97	33.333
223.34	-166.667
223.72	0.000
224.09	42.857
224.46	17.857
224.84	500.000
225.21	-20.000
225.59	46.667
225.96	-450.000
226.34	375.000
226.71	-57.143
227.08	-33.333
227.46	12.500
227.83	-250.000
228.21	33.333
228.58	-27.273
228.95	12.500
229.33	110.000
229.70	-25.000
230.08	-37.500
230.45	-14.286
230.82	85.714
231.20	-20.000
231.57	57.143
231.95	-57.143
232.32	-140.000
232.69	78.571
233.07	-66.667
233.44	-40.000
233.81	-60.000
234.19	0.000
234.56	-70.588
234.93	350.000
235.31	0.000
235.68	-180.000
236.05	-92.308
236.43	-25.000
236.80	17.647
237.17	3.125
237.55	-10.000
237.92	-29.630
238.29	11.111
238.67	-23.333
239.04	-32.353
239.41	-39.024
239.79	-10.000
240.16	21.951
240.53	-28.947
240.91	-10.870
241.28	0.000
241.65	8.929
242.02	12.329
242.40	21.667
242.77	3.390
243.14	3.030
243.51	17.500
243.89	24.138
244.26	10.345
244.63	8.333
245.00	17.526
245.38	17.526
245.75	-5.618
246.12	5.172
246.49	5.785
246.87	5.769
247.24	-1.681
247.61	-2.632
247.98	6.504
248.36	3.750
248.73	7.237
249.10	4.545
249.47	4.430
249.84	18.301
250.22	6.471
250.59	9.150
250.96	13.146
251.33	2.907
251.70	7.647
252.08	8.122
252.45	4.455
252.82	8.543
253.19	7.834
253.56	5.140
253.94	9.459
254.31	6.957
254.68	5.263
255.05	7.087
255.42	9.170
255.79	13.127
256.16	9.339
256.54	8.955
256.91	5.703
257.28	7.063
257.65	5.243
258.02	7.447
258.39	7.407
258.76	9.890
259.14	10.299
259.51	7.443
259.88	8.247
260.25	7.516
260.62	10.417
260.99	7.797
261.36	6.164
261.73	6.646
262.10	9.422
262.47	9.202
262.85	4.075
263.22	8.923
263.59	8.411
263.96	9.938
264.33	10.303
264.70	7.143
265.07	8.631
265.44	7.649
265.81	9.322
266.18	10.656
266.55	6.684
266.92	6.736
267.29	11.749
267.66	8.184
268.03	8.639
268.40	5.744
268.77	9.091
269.14	9.113
269.51	11.825
269.88	9.726
270.25	8.929
270.62	6.098
270.99	4.859
271.36	6.601
271.73	9.390
272.10	8.029
272.47	6.856
272.84	9.406
273.21	8.817
273.58	11.084
273.95	8.238
274.32	5.543
274.69	6.335
275.06	9.821
275.43	9.070
275.80	8.830
276.17	5.977
276.54	9.636
276.91	5.921
277.28	3.930
277.65	8.471
278.02	8.936
278.39	6.346
278.76	7.547
279.13	4.772
279.50	8.613
279.87	7.991
280.23	5.161
280.60	8.967
280.97	9.293
281.34	5.962
281.71	10.267
282.08	5.521
282.45	4.697
282.82	6.564
283.19	8.511
283.56	10.212
283.92	4.364
284.29	7.308
284.66	6.783
285.03	6.876
285.40	5.104
285.77	7.381
286.14	7.040
286.51	7.934
286.87	8.227
287.24	6.814
287.61	5.996
287.98	10.351
288.35	7.972
288.72	8.231
289.08	6.597
289.45	8.260
289.82	8.392
290.19	6.655
290.56	6.003
290.93	4.545
291.29	6.009
291.66	8.031
292.03	7.018
292.40	7.742
292.77	7.496
293.13	4.870
293.50	6.222
293.87	6.412
294.24	6.028
294.60	7.750
294.97	7.589
295.34	6.135
295.71	7.750
296.08	4.185
296.44	4.267
296.81	5.972
297.18	6.232
297.55	7.453
297.91	7.123
298.28	6.992
298.65	4.749
299.02	4.178
299.38	4.651
299.75	4.966
300.12	6.021
300.48	5.138
300.85	6.084
301.22	5.974
301.59	4.868
301.95	5.823
302.32	7.263
302.69	4.602
303.05	5.198
303.42	5.729
303.79	7.009
304.15	5.974
304.52	4.162
304.89	6.316
305.25	5.569
305.62	4.901
305.99	5.263
306.35	4.740
306.72	5.512
307.09	6.727
307.45	7.233
307.82	4.861
308.19	5.226
308.55	6.434
308.92	7.298
309.29	4.804
309.65	5.490
310.02	7.591
310.38	7.025
310.75	6.557
311.12	6.674
311.48	5.726
311.85	7.120
312.22	5.907
312.58	6.263
312.95	6.510
313.31	6.625
313.68	7.016
314.05	7.245
314.41	7.629
314.78	6.907
315.14	9.250
315.51	8.178
315.87	8.299
316.24	9.606
316.61	8.661
316.97	9.921
317.34	9.473
317.70	9.751
318.07	9.808
318.43	10.196
318.80	10.890
319.16	11.914
319.53	10.161
319.89	12.697
320.26	12.348
320.62	13.240
320.99	11.587
321.35	13.361
321.72	14.953
322.08	15.307
322.45	14.315
322.81	15.422
323.18	15.015
323.54	15.444
323.91	16.164
324.27	16.699
324.64	18.820
325.00	18.522
325.37	18.182
325.73	18.404
326.10	19.619
326.46	20.090
326.83	20.647
327.19	20.488
327.56	21.981
327.92	22.095
328.29	21.429
328.65	21.887
329.01	23.438
329.38	24.147
329.74	21.907
330.11	23.818
330.47	23.006
330.84	22.404
331.20	24.525
331.56	24.259
331.93	25.571
332.29	25.390
332.66	26.244
333.02	25.000
333.38	24.290
333.75	26.832
334.11	25.962
334.48	26.292
334.84	25.549
335.20	26.258
335.57	26.383
335.93	27.010
336.29	27.348
336.66	26.885
337.02	26.115
337.38	25.926
337.75	26.818
338.11	26.510
338.47	27.464
338.84	28.466
339.20	27.514
339.56	26.881
339.93	27.574
340.29	28.257
340.65	27.599
341.02	26.684
341.38	26.903
341.74	25.883
342.11	26.083
342.47	26.957
342.83	26.211
343.20	25.784
343.56	27.304
343.92	26.572
344.28	27.412
344.65	26.684
345.01	25.756
345.37	27.839
345.73	27.531
346.10	27.179
346.46	28.175
346.82	25.777
347.19	24.855
347.55	25.815
347.91	26.133
348.27	26.112
348.63	26.576
349.00	25.923
349.36	25.935
349.72	26.534
350.08	25.492
350.45	25.778
350.81	26.246
351.17	26.384
351.53	25.388
351.89	25.103
352.26	25.520
352.62	25.806
352.98	24.739
353.34	24.718
353.70	27.184
354.07	24.839
354.43	25.460
354.79	25.681
355.15	26.190
355.51	24.684
355.87	24.434
356.24	25.122
356.60	25.546
356.96	25.476
357.32	25.719
357.68	24.629
358.04	25.363
358.40	25.723
358.77	25.199
359.13	24.019
359.49	23.729
359.85	23.635
360.21	24.721
360.57	24.101
360.93	24.962
361.29	23.716
361.66	25.000
362.02	25.455
362.38	25.819
362.74	25.662
363.10	25.884
363.46	25.204
363.82	26.521
364.18	25.904
364.54	23.235
364.90	24.229
365.26	25.473
365.62	25.547
365.98	24.927
366.35	24.545
366.71	25.499
367.07	24.891
367.43	24.443
367.79	25.159
368.15	26.705
368.51	24.472
368.87	26.131
369.23	25.126
369.59	24.854
369.95	26.246
370.31	26.373
370.67	25.373
371.03	25.168
371.39	25.018
371.75	24.982
372.11	25.392
372.47	27.071
372.83	26.047
373.19	25.892
373.55	24.765
373.91	26.062
374.27	26.719
374.63	26.490
374.99	26.383
375.35	26.462
375.71	26.853
376.07	26.334
376.42	27.075
376.78	27.987
377.14	26.743
377.50	27.556
377.86	27.644
378.22	27.696
378.58	27.436
378.94	26.906
379.30	27.698
379.66	28.464
380.02	27.836
380.38	28.180
380.74	28.486
381.09	29.509
381.45	28.991
381.81	28.501
382.17	29.378
382.53	29.169
382.89	29.881
383.25	29.683
383.61	30.305
383.97	29.524
384.32	28.580
384.68	29.536
385.04	29.902
385.40	29.434
385.76	31.132
386.12	30.918
386.48	30.524
386.83	29.930
387.19	30.586
387.55	31.430
387.91	30.685
388.27	31.074
388.62	31.718
388.98	31.062
389.34	31.168
389.70	31.510
390.06	30.837
390.42	31.023
390.77	31.393
391.13	31.778
391.49	31.565
391.85	31.839
392.20	31.701
392.56	31.532
392.92	32.413
393.28	32.488
393.64	31.832
393.99	33.542
394.35	32.321
394.71	33.333
395.07	31.552
395.42	32.240
395.78	32.443
396.14	31.715
396.50	33.735
396.85	33.033
397.21	33.521
397.57	32.727
397.92	33.972
398.28	34.023
398.64	32.229
399.00	32.901
399.35	32.223
399.71	33.199
400.07	32.104
400.42	33.354
400.78	32.823
401.14	32.607
401.49	32.400
401.85	31.871
402.21	33.434
402.57	33.562
402.92	32.371
403.28	33.772
403.63	33.607
403.99	32.270
404.35	33.916
404.70	32.976
405.06	31.727
405.42	33.313
405.77	31.435
406.13	32.712
406.49	33.037
406.84	33.007
407.20	33.233
407.55	32.325
407.91	32.219
408.27	32.505
408.62	33.477
408.98	32.471
409.34	33.024
409.69	32.687
410.05	31.342
410.40	32.716
410.76	33.052
411.11	32.000
411.47	33.005
411.83	31.450
412.18	32.175
412.54	32.647
412.89	31.650
413.25	32.190
413.60	31.615
413.96	31.656
414.31	32.866
414.67	32.393
415.03	31.491
415.38	31.854
415.74	32.769
416.09	32.136
416.45	33.221
416.80	31.461
417.16	32.873
417.51	31.979
417.87	32.138
418.22	31.865
418.58	32.776
418.93	31.975
419.29	31.370
419.64	31.367
420.00	32.431
420.35	31.463
420.71	32.442
421.06	32.597
421.42	31.911
421.77	31.908
422.12	31.442
422.48	31.348
422.83	31.961
423.19	31.095
423.54	31.570
423.90	31.272
424.25	32.377
424.61	32.313
424.96	32.114
425.31	32.756
425.67	32.101
426.02	31.567
426.38	31.810
426.73	32.930
427.09	32.975
427.44	32.118
427.79	32.410
428.15	31.675
428.50	32.586
428.85	31.143
429.21	31.749
429.56	31.752
429.92	31.844
430.27	31.679
430.62	31.730
430.98	31.900
431.33	31.809
431.68	31.763
432.04	32.700
432.39	30.975
432.74	30.908
433.10	32.011
433.45	31.362
433.80	32.269
434.16	31.025
434.51	31.720
434.86	31.882
435.22	32.081
435.57	32.377
435.92	32.156
436.28	31.127
436.63	31.660
436.98	31.344
437.34	31.639
437.69	31.962
438.04	31.282
438.39	32.010
438.75	31.694
439.10	32.428
439.45	32.441
439.81	31.621
440.16	32.720
440.51	32.537
440.86	33.535
441.22	32.127
441.57	31.678
441.92	32.581
442.27	31.984
442.63	31.852
442.98	32.797
443.33	32.387
443.68	31.141
444.03	32.588
444.39	31.530
444.74	32.609
445.09	32.628
445.44	32.308
445.79	33.522
446.15	31.938
446.50	32.612
446.85	32.359
447.20	31.960
447.55	32.199
447.91	32.262
448.26	33.238
448.61	32.239
448.96	31.670
449.31	30.925
449.66	31.882
450.02	31.945
450.37	32.247
450.72	31.615
451.07	32.342
451.42	31.211
451.77	31.404
452.12	31.998
452.47	31.809
452.83	32.509
453.18	31.562
453.53	32.301
453.88	31.208
454.23	32.022
454.58	31.990
454.93	33.183
455.28	31.111
455.63	32.486
455.98	32.892
456.34	31.992
456.69	31.703
457.04	32.766
457.39	32.017
457.74	32.890
458.09	31.136
458.44	31.773
458.79	31.877
459.14	32.666
459.49	31.403
459.84	31.698
460.19	31.189
460.54	32.213
460.89	32.216
461.24	31.304
461.59	32.779
461.94	30.503
462.29	32.509
462.64	32.093
462.99	31.618
463.34	31.502
463.69	31.982
464.04	31.961
464.39	30.625
464.74	31.104
465.09	32.002
465.44	31.564
465.79	30.782
466.14	32.155
466.49	31.340
466.84	32.005
467.19	31.915
467.54	31.418
467.89	31.396
468.24	31.326
468.59	31.873
468.94	30.857
469.29	32.656
469.64	32.262
469.99	31.044
470.34	30.239
470.68	32.438
471.03	32.059
471.38	31.455
471.73	31.162
472.08	30.665
472.43	31.342
472.78	30.226
473.13	31.293
473.48	29.772
473.83	29.390
474.17	31.801
474.52	31.589
474.87	31.333
475.22	30.628
475.57	29.814
475.92	31.487
476.27	31.141
476.61	31.424
476.96	31.065
477.31	30.773
477.66	31.011
478.01	31.275
478.36	31.264
478.70	30.343
479.05	30.714
479.40	30.313
479.75	30.344
480.10	30.364
480.45	30.450
480.79	31.571
481.14	31.148
481.49	29.507
481.84	31.178
482.19	29.747
482.53	30.600
482.88	30.310
483.23	29.894
483.58	30.896
483.92	30.494
484.27	29.763
484.62	29.538
484.97	29.726
485.31	29.010
485.66	29.097
486.01	29.483
486.36	29.695
486.70	29.838
487.05	29.864
487.40	29.576
487.75	29.859
488.09	29.295
488.44	29.470
488.79	30.108
489.13	30.128
489.48	29.628
489.83	29.283
490.17	29.483
490.52	30.485
490.87	29.199
491.22	28.653
491.56	29.269
491.91	29.350
492.26	30.579
492.60	28.935
492.95	30.448
493.30	28.481
493.64	29.813
493.99	29.275
494.34	28.495
494.68	29.429
495.03	28.856
495.37	29.195
495.72	29.127
496.07	28.927
496.41	28.208
496.76	29.065
497.11	29.436
497.45	29.594
497.80	29.818
498.14	29.359
498.49	29.355
498.84	29.341
499.18	29.217
499.53	28.423
499.87	28.599
500.22	28.586
500.56	29.652
500.91	27.761
501.26	28.176
501.60	29.218
501.95	28.772
502.29	28.862
502.64	29.151
502.98	29.946
503.33	27.810
503.67	28.578
504.02	28.935
504.36	28.204
504.71	28.384
505.06	28.334
505.40	28.477
505.75	28.969
506.09	28.282
506.44	28.542
506.78	28.367
507.13	28.438
507.47	28.146
507.82	27.457
508.16	27.787
508.51	29.014
508.85	27.891
509.19	27.834
509.54	28.043
509.88	28.047
510.23	27.649
510.57	28.701
510.92	26.493
511.26	27.605
511.61	27.943
511.95	27.671
512.30	27.772
512.64	28.214
512.98	28.018
513.33	28.092
513.67	27.572
514.02	29.348
514.36	28.629
514.70	29.138
515.05	28.613
515.39	27.686
515.74	29.222
516.08	27.794
516.42	27.680
516.77	28.262
517.11	27.953
517.46	28.486
517.80	27.592
518.14	27.067
518.49	28.245
518.83	27.157
519.17	26.258
519.52	26.821
519.86	26.651
520.20	27.157
520.55	27.392
520.89	27.917
521.23	26.789
521.58	28.202
521.92	27.436
522.26	27.001
522.61	27.338
522.95	28.344
523.29	27.255
523.64	27.954
523.98	27.868
524.32	27.255
524.66	27.017
525.01	27.662
525.35	27.025
525.69	27.407
526.04	26.984
526.38	28.080
526.72	26.815
527.06	26.524
527.41	27.243
527.75	25.670
528.09	27.243
528.43	27.684
528.78	26.007
529.12	26.516
529.46	25.601
529.80	26.472
530.15	27.063
530.49	26.599
530.83	26.881
531.17	26.528
531.51	27.291
531.86	26.377
532.20	25.887
532.54	26.276
532.88	26.215
533.22	26.411
533.57	26.343
533.91	25.131
534.25	26.563
534.59	26.042
534.93	25.677
535.27	25.761
535.62	25.988
535.96	26.614
536.30	25.792
536.64	26.947
536.98	25.575
537.32	26.387
537.66	27.700
538.01	26.643
538.35	25.312
538.69	25.632
539.03	26.179
539.37	25.505
539.71	26.312
540.05	25.730
540.39	25.831
540.73	24.756
541.07	25.483
541.42	26.210
541.76	26.841
542.10	25.189
542.44	24.948
542.78	25.327
543.12	24.863
543.46	25.730
543.80	24.844
544.14	25.434
544.48	24.983
544.82	24.675
545.16	26.503
545.50	25.701
545.84	24.858
546.18	25.603
546.52	25.955
546.86	24.443
547.20	24.750
547.54	24.240
547.88	24.932
548.22	23.406
548.56	23.945
548.90	25.000
549.24	23.485
549.58	24.612
549.92	24.089
550.26	24.762
550.60	25.130
550.94	24.571
551.28	24.343
551.62	25.231
551.96	24.662
552.30	24.635
552.64	24.753
552.98	24.543
553.32	24.893
553.66	24.165
554.00	24.745
554.34	24.077
554.68	23.673
555.02	24.628
555.36	24.308
555.69	22.564
556.03	23.626
556.37	23.274
556.71	23.682
557.05	24.981
557.39	23.271
557.73	24.363
558.07	24.585
558.41	24.273
558.75	24.240
559.08	23.247
559.42	22.460
559.76	23.299
560.10	23.242
560.44	23.008
560.78	23.776
561.12	24.330
561.45	23.753
561.79	23.389
562.13	23.776
562.47	23.022
562.81	22.695
563.15	23.766
563.48	23.126
563.82	23.953
564.16	22.911
564.50	22.635
564.84	22.825
565.17	22.401
565.51	23.497
565.85	23.045
566.19	23.276
566.52	23.458
566.86	24.165
567.20	22.416
567.54	23.540
567.88	22.906
568.21	23.020
568.55	22.391
568.89	22.690
569.23	22.244
569.56	22.242
569.90	22.615
570.24	22.218
570.57	21.600
570.91	22.133
571.25	21.243
571.59	21.489
571.92	20.978
572.26	21.769
572.60	21.023
572.93	20.521
573.27	20.564
573.61	20.883
573.95	20.481
574.28	20.789
574.62	20.188
574.96	20.992
575.29	20.242
575.63	19.694
575.97	20.168
576.30	20.298
576.64	20.291
576.98	20.695
577.31	20.742
577.65	20.780
577.98	20.330
578.32	20.417
578.66	19.493
578.99	19.677
579.33	20.060
579.67	19.934
580.00	20.051
580.34	20.149
580.67	19.807
581.01	20.245
581.35	19.940
581.68	19.760
582.02	19.692
582.35	19.257
582.69	20.023
583.02	19.825
583.36	19.967
583.70	19.418
584.03	19.989
584.37	20.440
584.70	19.560
585.04	19.585
585.37	19.705
585.71	19.279
586.04	19.415
586.38	19.712
586.72	19.943
587.05	19.613
587.39	20.045
587.72	19.656
588.06	19.070
588.39	19.766
588.73	19.628
589.06	19.830
589.40	19.737
589.73	19.898
590.07	20.770
590.40	19.969
590.73	20.387
591.07	19.720
591.40	19.813
591.74	20.000
592.07	20.176
592.41	19.965
592.74	18.837
593.08	18.757
593.41	19.012
593.75	18.907
594.08	18.606
594.41	18.923
594.75	18.702
595.08	18.767
595.42	19.065
595.75	19.564
596.09	19.625
596.42	19.430
596.75	19.272
597.09	18.770
597.42	18.925
597.75	19.514
598.09	18.923
598.42	18.321
598.76	18.233
599.09	18.590
599.42	18.416
599.76	18.172
600.09	18.175
600.42	18.537
600.76	17.905
601.09	18.053
601.42	18.175
601.76	18.698
602.09	18.358
602.42	18.787
602.76	18.379
603.09	19.269
603.42	18.938
603.76	18.065
604.09	18.023
604.42	18.824
604.76	19.003
605.09	18.510
605.42	18.600
605.75	18.214
606.09	18.259
606.42	18.182
606.75	18.312
607.09	17.978
607.42	17.723
607.75	18.428
608.08	17.430
608.42	17.908
608.75	17.976
609.08	17.688
609.41	18.832
609.75	18.347
610.08	17.873
610.41	17.826
610.74	17.747
611.07	18.656
611.41	17.955
611.74	18.390
612.07	18.308
612.40	18.381
612.73	18.079
613.07	18.110
613.40	18.654
613.73	17.403
614.06	17.863
614.39	18.161
614.72	17.871
615.06	17.430
615.39	17.140
615.72	17.976
616.05	17.542
616.38	16.695
616.71	17.737
617.05	17.851
617.38	18.228
617.71	17.421
618.04	18.667
618.37	18.537
618.70	18.614
619.03	19.444
619.36	17.149
619.69	18.423
620.03	19.065
620.36	18.097
620.69	17.559
621.02	17.355
621.35	19.336
621.68	18.027
622.01	17.917
622.34	18.516
622.67	19.164
623.00	18.683
623.33	17.988
623.66	18.699
623.99	18.306
624.32	19.087
624.65	16.541
624.99	18.585
625.32	17.437
625.65	19.482
625.98	18.050
626.31	18.038
626.64	18.804
626.97	18.499
627.30	18.827
627.63	17.764
627.96	18.868
628.29	19.056
628.62	18.584
628.95	19.639
629.28	17.641
629.61	18.445
629.94	18.768
630.26	17.589
630.59	18.418
630.92	17.333
631.25	18.462
631.58	19.163
631.91	17.544
632.24	18.922
632.57	19.886
632.90	17.675
633.23	19.059
633.56	19.521
633.89	18.002
634.22	19.259
634.55	18.806
634.88	18.135
635.20	16.410
635.53	20.000
635.86	18.336
636.19	20.181
636.52	18.367
636.85	18.114
637.18	17.987
637.51	17.987
637.83	17.608
638.16	19.509
638.49	17.030
638.82	19.868
639.15	18.046
639.48	18.569
639.81	17.434
640.13	16.595
640.46	18.950
640.79	17.378
641.12	18.168
641.45	18.168
641.77	19.407
642.10	18.957
642.43	18.328
642.76	21.782
643.09	19.386
643.41	18.285
643.74	17.628
644.07	20.197
644.40	19.932
644.73	19.790
645.05	19.463
645.38	20.282
645.71	18.972
646.04	19.390
646.36	17.730
646.69	21.403
647.02	19.471
647.35	20.709
647.67	19.561
648.00	17.724
648.33	21.160
648.66	19.153
648.98	16.080
649.31	17.190
649.64	17.268
649.96	17.342
650.29	19.080
650.62	18.462
650.94	18.333
651.27	19.367
651.60	17.838
651.92	18.881
652.25	15.808
652.58	19.500
652.90	19.897
653.23	17.815
653.56	14.382
653.88	17.526
654.21	16.813
654.54	18.336
654.86	16.978
655.19	16.520
655.52	16.409
655.84	14.226
656.17	15.448
656.49	20.907
656.82	21.712
657.15	16.614
657.47	12.333
657.80	9.347
658.13	9.411
658.45	14.263
658.78	14.747
659.10	14.759
659.43	14.756
659.75	15.343
660.08	14.552
660.41	15.935
660.73	18.232
661.06	18.024
661.38	16.438
661.71	17.454
662.03	18.240
662.36	18.901
662.68	18.805
663.01	21.179
663.33	18.329
663.66	17.209
663.98	18.372
664.31	19.403
664.63	17.051
664.96	14.130
665.28	15.894
665.61	19.913
665.93	18.261
666.26	17.137
666.58	16.779
666.91	16.706
667.23	18.868
667.56	20.616
667.88	17.746
668.21	19.809
668.53	17.494
668.86	20.047
669.18	17.217
669.50	20.581
669.83	18.837
670.15	18.881
670.48	15.789
670.80	17.051
671.13	19.016
671.45	14.840
671.77	18.026
672.10	15.842
672.42	16.292
672.75	19.183
673.07	17.889
673.39	17.064
673.72	13.412
674.04	15.000
674.37	18.220
674.69	16.916
675.01	17.333
675.34	17.793
675.66	17.361
675.98	19.512
676.31	16.514
676.63	16.627
676.95	17.045
677.28	19.765
677.60	19.277
677.92	14.908
678.25	16.193
678.57	16.667
678.89	16.387
679.22	17.673
679.54	14.458
679.86	14.314
680.18	15.922
680.51	16.288
680.83	16.103
681.15	16.200
681.48	19.057
681.80	15.909
682.12	16.935
682.44	17.573
682.77	17.881
683.09	16.476
683.41	15.909
683.73	17.281
684.06	18.363
684.38	12.473
684.70	17.429
685.02	16.598
685.34	13.636
685.67	13.696
685.99	17.360
686.31	15.929
686.63	16.512
686.96	15.589
687.28	13.939
687.60	16.160
687.92	18.586
688.24	14.315
688.56	15.502
688.89	16.741
689.21	18.444
689.53	18.329
689.85	14.419
690.17	15.848
690.49	17.258
690.82	14.563
691.14	15.714
691.46	17.290
691.78	15.541
692.10	16.774
692.42	12.987
692.74	16.667
693.06	17.568
693.39	14.253
693.71	15.158
694.03	15.242
694.35	15.421
694.67	14.141
694.99	15.927
695.31	15.405
695.63	15.750
695.95	15.657
696.27	14.767
696.59	17.778
696.91	16.527
697.23	14.139
697.56	13.614
697.88	16.344
698.20	14.579
698.52	16.000
698.84	13.158
699.16	12.750
699.48	15.539
699.80	17.866
700.12	16.173
700.44	14.846
700.76	15.407
701.08	14.848
701.40	14.157
701.72	20.679
702.04	16.172
702.36	16.054
702.68	16.216
703.00	14.242
703.32	17.889
703.64	15.819
703.96	15.942
704.28	13.497
704.60	13.651
704.91	11.987
705.23	16.279
705.55	19.435
705.87	20.217
706.19	13.704
706.51	15.464
706.83	16.720
707.15	12.773
707.47	16.807
707.79	10.938
708.11	15.750
708.43	16.750
708.74	13.437
709.06	15.775
709.38	16.208
709.70	16.864
710.02	15.287
710.34	17.028
710.66	14.744
710.98	14.570
711.29	14.426
711.61	14.915
711.93	14.984
712.25	20.962
712.57	17.216
712.89	13.060
713.20	17.647
713.52	16.376
713.84	16.382
714.16	13.058
714.48	15.806
714.80	14.103
715.11	15.805
715.43	15.047
715.75	9.000
716.07	15.282
716.39	14.094
716.70	15.129
717.02	11.450
717.34	14.575
717.66	12.832
717.97	16.522
718.29	15.063
718.61	16.929
718.93	17.442
719.24	15.589
719.56	14.458
719.88	18.557
720.20	12.500
720.51	11.494
720.83	15.058
721.15	13.866
721.46	14.516
721.78	14.625
722.10	11.896
722.42	9.544
722.73	14.694
723.05	18.367
723.37	18.644
723.68	15.766
724.00	17.949
724.32	12.444
724.63	11.364
724.95	13.974
725.27	18.894
725.58	10.593
725.90	14.683
726.22	13.900
726.53	17.627
726.85	16.105
727.16	18.491
727.48	12.955
727.80	14.980
728.11	14.407
728.43	15.294
728.74	14.113
729.06	14.400
729.38	19.173
729.69	11.952
730.01	11.538
730.32	12.687
730.64	12.367
730.96	15.849
731.27	11.667
731.59	11.186
731.90	12.739
732.22	14.826
732.53	15.615
732.85	13.830
733.16	16.835
733.48	10.432
733.80	11.594
734.11	10.847
734.43	16.151
734.74	14.242
735.06	11.401
735.37	13.595
735.69	15.825
736.00	13.937
736.32	11.074
736.63	14.437
736.95	12.628
737.26	13.879
737.58	12.752
737.89	12.821
738.21	14.662
738.52	15.226
738.83	16.157
739.15	10.480
739.46	15.354
739.78	13.187
740.09	12.418
740.41	13.043
740.72	8.661
741.04	15.789
741.35	12.340
741.66	15.166
741.98	9.184
742.29	6.931
742.61	9.948
742.92	11.374
743.23	4.167
743.55	17.647
743.86	12.919
744.18	15.311
744.49	5.851
744.80	16.304
745.12	22.995
745.43	10.732
745.74	13.021
746.06	12.683
746.37	20.942
746.68	10.900
747.00	10.638
747.31	19.900
747.62	13.592
747.94	16.746
748.25	12.871
748.56	16.940
748.88	14.136
749.19	15.426
749.50	12.315
749.82	8.962
750.13	12.844
750.44	19.173
750.75	15.672
751.07	15.693
751.38	16.475
751.69	12.549
752.01	14.729
752.32	15.538
752.63	12.253
752.94	9.052
753.26	19.247
753.57	10.407
753.88	8.850
754.19	10.417
754.51	9.917
754.82	12.551
755.13	15.417
755.44	13.306
755.75	16.406
756.07	13.619
756.38	11.321
756.69	9.195
757.00	12.333
757.31	7.190
757.63	9.451
757.94	9.722
758.25	9.589
758.56	9.574
758.87	11.048
759.18	13.084
759.50	10.545
759.81	11.706
760.12	14.516
760.43	10.303
760.74	11.111
761.05	12.615
761.36	11.364
761.67	13.939
761.99	13.946
762.30	12.364
762.61	15.415
762.92	12.670
763.23	11.261
763.54	9.346
763.85	12.288
764.16	11.203
764.47	10.887
764.78	10.989
765.10	8.754
765.41	9.148
765.72	11.111
766.03	10.902
766.34	13.869
766.65	17.530
766.96	9.596
767.27	2.660
767.58	6.897
767.89	13.475
768.20	10.227
768.51	13.736
768.82	13.300
769.13	9.217
769.44	9.442
769.75	11.872
770.06	12.500
770.37	11.538
770.68	10.152
770.99	15.385
771.30	14.216
771.61	8.145
771.92	11.207
772.23	11.823
772.54	12.903
772.85	9.877
773.16	14.607
773.47	17.647
773.78	11.111
774.09	7.186
774.39	4.667
774.70	16.561
775.01	12.414
775.32	10.714
775.63	2.479
775.94	12.214
776.25	13.386
776.56	15.000
776.87	5.769
777.18	7.692
777.48	14.655
777.79	12.174
778.10	4.762
778.41	10.811
778.72	8.730
779.03	9.774
779.34	15.603
779.65	15.068
779.95	0.685
780.26	12.414
780.57	6.504
780.88	11.811
781.19	9.483
781.50	13.953
781.80	18.935
782.11	6.289
782.42	13.077
782.73	5.755
783.04	14.074
783.34	9.028
783.65	3.419
783.96	13.934
784.27	14.483
784.57	10.569
784.88	14.062
785.19	12.000
785.50	22.000
785.81	10.345
786.11	7.759
786.42	5.825
786.73	20.000
787.04	6.122
787.34	10.714
787.65	8.571
787.96	1.770
788.26	18.182
788.57	5.983
788.88	10.156
789.19	1.587
789.49	11.304
789.80	7.143
790.11	15.152
790.41	18.182
790.72	14.130
791.03	3.409
791.33	21.250
791.64	5.000
791.95	-6.977
792.25	12.766
792.56	22.472
792.87	9.589
793.17	5.797
793.48	2.667
793.79	7.500
794.09	26.250
794.40	3.774
794.70	5.825
795.01	2.439
795.32	8.547
795.62	12.381
795.93	12.745
796.23	13.208
796.54	10.417
796.85	13.235
797.15	4.225
797.46	20.833
797.76	6.061
798.07	5.814
798.37	3.947
798.68	10.606
798.99	14.815
799.29	22.857
799.60	13.043
799.90	8.000
800.21	-1.639
800.51	10.769
800.82	27.119
801.12	26.087
801.43	8.197
801.73	14.286
802.04	12.000
802.34	11.940
802.65	15.385
802.95	14.286
803.26	7.692
803.56	11.765
803.87	-30.435
804.17	14.667
804.48	19.048
804.78	1.852
805.09	21.739
805.39	-2.222
805.70	7.407
806.00	-12.281
806.30	4.225
806.61	11.429
806.91	11.111
807.22	13.158
807.52	28.000
807.83	18.182
808.13	15.278
808.43	27.941
808.74	0.000
809.04	-3.390
809.35	0.000
809.65	17.188
809.95	-21.622
810.26	9.091
810.56	9.589
810.86	0.000
811.17	2.000
811.47	12.245
811.77	10.526
812.08	4.545
812.38	22.642
812.69	-2.500
812.99	24.242
813.29	13.158
813.59	-8.571
813.90	-2.273
814.20	-23.077
814.50	9.615
814.81	15.094
815.11	-10.638
815.41	23.729
815.72	7.143
816.02	27.451
816.32	4.167
816.62	12.195
816.93	2.703
817.23	0.000
817.53	27.083
817.84	-2.174
818.14	17.308
818.44	5.263
818.74	17.391
819.04	-5.000
819.35	-16.216
819.65	20.588
819.95	22.222
820.25	11.905
820.56	22.500
820.86	-3.448
821.16	20.000
821.46	8.511
821.76	5.000
822.07	-18.605
822.37	-5.405
822.67	-15.625
822.97	16.667
823.27	-21.429
823.57	20.000
823.88	-51.852
824.18	7.143
824.48	-2.941
824.78	12.903
825.08	-30.435
825.38	3.030
825.69	-4.167
825.99	18.421
826.29	5.556
826.59	-26.667
826.89	-9.524
827.19	19.565
827.49	10.000
827.79	17.143
828.09	14.286
828.39	15.152
828.70	43.243
829.00	-21.429
829.30	-52.381
829.60	30.000
829.90	12.500
830.20	5.263
830.50	22.222
830.80	21.739
831.10	-9.091
831.40	33.333
831.70	19.355
832.00	9.524
832.30	0.000
832.60	0.000
832.90	-10.345
833.20	-10.000
833.50	15.152
833.80	-14.815
834.10	34.615
834.40	6.250
834.70	-122.222
835.00	-15.789
835.30	-3.846
835.60	33.333
835.90	19.355
836.20	27.273
836.50	35.714
836.80	-46.154
837.10	0.000
837.40	-200.000
837.70	27.273
838.00	-72.727
838.30	-34.783
838.60	-30.769
838.90	-54.545
839.19	-10.714
839.49	-36.667
839.79	-30.769
840.09	16.667
840.39	57.143
840.69	28.571
840.99	-7.692
841.29	-42.105
841.59	-70.000
841.88	-81.818
842.18	-60.000
842.48	-31.250
842.78	-6.667
843.08	3.704
843.38	-40.000
843.68	17.391
843.97	20.000
844.27	-46.667
844.57	-50.000
844.87	77.778
845.17	-38.095
845.47	13.333
845.76	-33.333
846.06	52.941
846.36	-30.000
846.66	-7.143
846.96	-13.333
847.25	-112.500
847.55	21.429
847.85	-50.000
848.15	-9.091
848.44	-566.667
848.74	20.000
849.04	14.815
849.34	-63.636
849.63	-150.000
849.93	-320.000
850.23	-27.778
850.53	10.000
850.82	-46.154
851.12	-11.111
851.42	-46.667
851.71	-23.077
852.01	21.429
852.31	-150.000
852.61	-36.364
852.90	-10.000
853.20	10.526
853.50	-16.667
853.79	17.391
854.09	16.667
854.39	-5.263
854.68	0.000
854.98	-3.226
855.28	-3.846
855.57	-15.000
855.87	38.889
856.17	-3.704
856.46	-35.714
856.76	-33.333
857.05	11.111
857.35	20.000
857.65	-44.444
857.94	-84.615
858.24	20.690
858.53	0.000
858.83	25.926
859.13	40.909
859.42	-26.087
859.72	-350.000
860.01	-533.333
860.31	52.000
860.60	42.857
860.90	133.333
861.20	-93.333
861.49	-700.000
861.79	6.667
862.08	-55.000
862.38	73.333
862.67	0.000
862.97	-33.333
863.26	-58.333
863.56	33.333
863.85	-466.667
864.15	-5.556
864.44	40.000
864.74	-7.143
865.03	225.000
865.33	-400.000
865.62	33.333
865.92	16.667
866.21	16.667
866.51	87.500
866.80	27.273
867.10	-300.000
867.39	0.000
867.69	0.000
867.98	38.462
868.27	-300.000
868.57	-53.333
868.86	44.444
869.16	-76.923
869.45	80.000
869.75	-400.000
870.04	0.000
870.33	-242.857
870.63	9.524
870.92	400.000
871.22	-80.000
871.51	-1600.000
871.80	0.000
872.10	600.000
>>>>>End Processed Spectral Data<<<<<
