SpectraSuite Data File
++++++++++++++++++++++++++++++++++++
Date: Fri May 15 21:00:58 PDT 2015
User: schluterlab
Dark Spectrum Present: Yes
Reference Spectrum Present: Yes
Number of Sampled Component Spectra: 1
Spectrometers: USB2E3373
Integration Time (usec): 3000 (USB2E3373)
Spectra Averaged: 3 (USB2E3373)
Boxcar Smoothing: 0 (USB2E3373)
Correct for Electrical Dark: No (USB2E3373)
Strobe/Lamp Enabled: No (USB2E3373)
Correct for Detector Non-linearity: No (USB2E3373)
Correct for Stray Light: No (USB2E3373)
Number of Pixels in Processed Spectrum: 2048
>>>>>Begin Processed Spectral Data<<<<<
178.53	0.000
178.91	0.000
179.29	-62.500
179.67	-450.000
180.04	-0.000
180.42	100.000
180.80	-500.000
181.18	200.000
181.56	1000.000
181.94	-250.000
182.31	600.000
182.69	-80.000
183.07	-400.000
183.45	100.000
183.83	150.000
184.20	-36.364
184.58	100.000
184.96	25.000
185.34	133.333
185.72	-200.000
186.09	84.615
186.47	-1400.000
186.85	283.333
187.23	166.667
187.61	-0.000
187.98	-166.667
188.36	-77.778
188.74	-166.667
189.12	-11.765
189.49	-27.778
189.87	0.000
190.25	64.286
190.63	-200.000
191.00	-300.000
191.38	-52.632
191.76	-400.000
192.14	325.000
192.51	250.000
192.89	-155.556
193.27	-85.714
193.65	83.333
194.02	136.364
194.40	0.000
194.78	-87.500
195.15	-100.000
195.53	-137.500
195.91	375.000
196.29	-150.000
196.66	76.923
197.04	200.000
197.42	-22.222
197.79	-133.333
198.17	-76.923
198.55	1600.000
198.92	-433.333
199.30	-300.000
199.68	-20.000
200.05	-200.000
200.43	0.000
200.81	66.667
201.18	-100.000
201.56	1000.000
201.94	-200.000
202.31	366.667
202.69	-140.000
203.07	200.000
203.44	-300.000
203.82	0.000
204.19	14.286
204.57	-566.667
204.95	50.000
205.32	-50.000
205.70	-100.000
206.08	-75.000
206.45	100.000
206.83	-14.286
207.20	-185.714
207.58	200.000
207.96	-300.000
208.33	-200.000
208.71	75.000
209.08	-200.000
209.46	-1200.000
209.84	40.000
210.21	-700.000
210.59	14.286
210.96	-116.667
211.34	-150.000
211.71	26.667
212.09	-142.857
212.46	-1600.000
212.84	0.000
213.22	20.000
213.59	400.000
213.97	61.538
214.34	72.727
214.72	-83.333
215.09	425.000
215.47	38.462
215.84	-18.182
216.22	-700.000
216.59	-62.500
216.97	-100.000
217.34	-175.000
217.72	-80.000
218.09	-37.500
218.47	150.000
218.84	-1500.000
219.22	-177.778
219.59	-120.000
219.97	200.000
220.34	50.000
220.72	-214.286
221.09	-300.000
221.47	-50.000
221.84	-600.000
222.22	-1050.000
222.59	-27.273
222.97	50.000
223.34	-566.667
223.72	14.286
224.09	57.143
224.46	-14.286
224.84	400.000
225.21	10.000
225.59	20.000
225.96	-500.000
226.34	350.000
226.71	-114.286
227.08	-83.333
227.46	-25.000
227.83	-600.000
228.21	-33.333
228.58	-18.182
228.95	-125.000
229.33	90.000
229.70	12.500
230.08	-287.500
230.45	-100.000
230.82	-85.714
231.20	-53.333
231.57	28.571
231.95	85.714
232.32	-70.000
232.69	21.429
233.07	-166.667
233.44	-80.000
233.81	40.000
234.19	-44.444
234.56	-88.235
234.93	450.000
235.31	150.000
235.68	-340.000
236.05	-100.000
236.43	-20.000
236.80	-5.882
237.17	28.125
237.55	-15.000
237.92	0.000
238.29	25.000
238.67	20.000
239.04	2.941
239.41	-29.268
239.79	-23.333
240.16	12.195
240.53	0.000
240.91	13.043
241.28	0.000
241.65	10.714
242.02	6.849
242.40	23.333
242.77	13.559
243.14	-3.030
243.51	10.000
243.89	24.138
244.26	16.092
244.63	9.524
245.00	10.309
245.38	15.464
245.75	2.247
246.12	7.759
246.49	9.917
246.87	3.846
247.24	6.723
247.61	7.895
247.98	7.317
248.36	8.750
248.73	11.842
249.10	10.390
249.47	8.861
249.84	16.993
250.22	18.824
250.59	15.033
250.96	19.249
251.33	8.721
251.70	10.000
252.08	12.183
252.45	14.356
252.82	16.583
253.19	15.207
253.56	8.411
253.94	19.820
254.31	20.435
254.68	18.421
255.05	14.961
255.42	17.467
255.79	13.514
256.16	15.175
256.54	17.910
256.91	13.308
257.28	13.383
257.65	13.109
258.02	13.121
258.39	15.825
258.76	13.187
259.14	15.282
259.51	21.036
259.88	11.684
260.25	17.647
260.62	14.931
260.99	15.593
261.36	18.836
261.73	14.241
262.10	19.453
262.47	12.270
262.85	11.912
263.22	16.000
263.59	15.888
263.96	18.323
264.33	15.758
264.70	14.583
265.07	14.881
265.44	16.714
265.81	14.689
266.18	15.574
266.55	16.195
266.92	16.321
267.29	18.016
267.66	16.880
268.03	17.277
268.40	16.188
268.77	19.519
269.14	16.787
269.51	16.452
269.88	14.963
270.25	13.010
270.62	15.122
270.99	14.834
271.36	14.425
271.73	16.432
272.10	17.275
272.47	16.785
272.84	15.099
273.21	16.937
273.58	18.795
273.95	15.332
274.32	16.628
274.69	14.253
275.06	18.527
275.43	14.512
275.80	16.777
276.17	13.563
276.54	14.989
276.91	14.254
277.28	12.664
277.65	17.355
278.02	14.255
278.39	16.411
278.76	13.417
279.13	12.033
279.50	19.748
279.87	15.767
280.23	12.473
280.60	16.569
280.97	17.374
281.34	14.231
281.71	17.248
282.08	12.883
282.45	15.068
282.82	12.934
283.19	14.507
283.56	15.607
283.92	14.611
284.29	13.269
284.66	13.953
285.03	16.896
285.40	11.531
285.77	16.872
286.14	13.718
286.51	15.867
286.87	14.260
287.24	13.996
287.61	11.993
287.98	14.912
288.35	15.425
288.72	16.287
289.08	13.715
289.45	15.114
289.82	14.510
290.19	15.358
290.56	14.065
290.93	13.973
291.29	12.327
291.66	14.016
292.03	11.483
292.40	13.226
292.77	15.470
293.13	10.552
293.50	13.354
293.87	14.198
294.24	13.447
294.60	12.221
294.97	14.137
295.34	12.577
295.71	12.817
296.08	12.108
296.44	10.526
296.81	12.500
297.18	13.188
297.55	12.737
297.91	13.425
298.28	13.193
298.65	13.433
299.02	11.051
299.38	10.260
299.75	11.862
300.12	11.780
300.48	11.594
300.85	12.928
301.22	11.688
301.59	12.237
301.95	13.038
302.32	13.619
302.69	11.692
303.05	12.129
303.42	11.457
303.79	12.734
304.15	11.231
304.52	10.939
304.89	11.462
305.25	11.138
305.62	11.319
305.99	12.398
306.35	12.370
306.72	12.711
307.09	12.315
307.45	12.974
307.82	12.384
308.19	12.427
308.55	12.977
308.92	12.745
309.29	11.620
309.65	12.271
310.02	11.881
310.38	11.636
310.75	13.661
311.12	13.455
311.48	12.513
311.85	13.717
312.22	12.975
312.58	14.013
312.95	13.020
313.31	13.768
313.68	13.717
314.05	13.776
314.41	15.361
314.78	15.464
315.14	15.930
315.51	16.356
315.87	15.369
316.24	16.886
316.61	18.012
316.97	17.857
317.34	16.016
317.70	17.686
318.07	17.308
318.43	18.333
318.80	18.466
319.16	19.336
319.53	19.278
319.89	20.276
320.26	19.939
320.62	19.860
320.99	19.311
321.35	20.966
321.72	22.015
322.08	21.652
322.45	22.030
322.81	23.183
323.18	21.786
323.54	21.139
323.91	23.953
324.27	23.535
324.64	25.655
325.00	24.635
325.37	24.610
325.73	24.297
326.10	25.522
326.46	26.368
326.83	26.772
327.19	25.981
327.56	27.020
327.92	27.113
328.29	25.446
328.65	27.170
329.01	27.114
329.38	28.111
329.74	27.290
330.11	26.877
330.47	26.994
330.84	27.981
331.20	28.422
331.56	27.315
331.93	28.858
332.29	29.973
332.66	26.244
333.02	28.810
333.38	29.423
333.75	29.762
334.11	27.484
334.48	28.740
334.84	28.938
335.20	29.277
335.57	28.468
335.93	28.455
336.29	29.006
336.66	27.339
337.02	27.138
337.38	28.611
337.75	29.364
338.11	27.051
338.47	28.011
338.84	28.835
339.20	26.965
339.56	28.624
339.93	28.469
340.29	27.798
340.65	28.763
341.02	28.191
341.38	27.257
341.74	26.767
342.11	26.516
342.47	28.470
342.83	27.163
343.20	27.439
343.56	27.739
343.92	28.521
344.28	28.010
344.65	27.375
345.01	26.880
345.37	26.997
345.73	26.946
346.10	28.818
346.46	27.923
346.82	27.496
347.19	25.520
347.55	28.404
347.91	26.375
348.27	27.809
348.63	28.705
349.00	27.646
349.36	27.016
349.72	28.441
350.08	27.213
350.45	26.576
350.81	25.748
351.17	26.384
351.53	27.347
351.89	26.920
352.26	26.400
352.62	26.129
352.98	25.703
353.34	26.892
353.70	26.780
354.07	26.532
354.43	25.861
354.79	26.424
355.15	26.190
355.51	26.187
355.87	26.375
356.24	25.285
356.60	25.546
356.96	26.190
357.32	25.240
357.68	25.020
358.04	25.848
358.40	25.322
358.77	27.352
359.13	26.261
359.49	25.116
359.85	26.131
360.21	25.279
360.57	25.172
360.93	26.097
361.29	24.169
361.66	25.392
362.02	25.152
362.38	26.733
362.74	25.738
363.10	27.013
363.46	25.352
363.82	26.371
364.18	25.904
364.54	24.853
364.90	24.875
365.26	24.818
365.62	27.226
365.98	26.613
366.35	26.293
366.71	25.942
367.07	25.762
367.43	25.593
367.79	25.300
368.15	25.485
368.51	25.346
368.87	24.695
369.23	25.415
369.59	26.749
369.95	27.273
370.31	26.879
370.67	25.970
371.03	25.541
371.39	25.675
371.75	26.447
372.11	25.606
372.47	25.518
372.83	26.828
373.19	26.605
373.55	25.343
373.91	26.566
374.27	27.144
374.63	27.207
374.99	25.674
375.35	26.253
375.71	26.154
376.07	26.124
376.42	27.823
376.78	26.309
377.14	27.353
377.50	26.494
377.86	27.175
378.22	25.909
378.58	26.346
378.94	26.024
379.30	26.575
379.66	27.210
380.02	26.242
380.38	26.293
380.74	26.571
381.09	27.423
381.45	26.789
381.81	27.514
382.17	26.586
382.53	27.171
382.89	27.119
383.25	27.131
383.61	28.171
383.97	27.746
384.32	27.517
384.68	26.935
385.04	26.838
385.40	27.567
385.76	28.050
386.12	28.784
386.48	28.225
386.83	27.838
387.19	27.595
387.55	28.231
387.91	27.689
388.27	28.083
388.62	28.571
388.98	27.808
389.34	27.795
389.70	29.211
390.06	27.124
390.42	27.915
390.77	29.039
391.13	27.743
391.49	28.072
391.85	27.355
392.20	28.437
392.56	28.608
392.92	28.068
393.28	28.715
393.64	28.048
393.99	29.404
394.35	29.538
394.71	28.863
395.07	27.278
395.42	28.051
395.78	28.795
396.14	28.373
396.50	28.472
396.85	28.783
397.21	28.509
397.57	27.837
397.92	28.820
398.28	28.161
398.64	27.410
399.00	28.837
399.35	27.540
399.71	28.374
400.07	28.658
400.42	29.009
400.78	29.149
401.14	28.675
401.49	28.529
401.85	28.093
402.21	28.434
402.57	28.000
402.92	27.729
403.28	28.195
403.63	28.184
403.99	28.125
404.35	29.419
404.70	27.976
405.06	28.202
405.42	28.278
405.77	26.612
406.13	27.881
406.49	27.176
406.84	28.484
407.20	27.995
407.55	26.851
407.91	27.941
408.27	27.215
408.62	28.123
408.98	28.035
409.34	27.819
409.69	27.326
410.05	27.586
410.40	27.407
410.76	26.779
411.11	26.812
411.47	27.087
411.83	26.868
412.18	28.507
412.54	26.904
412.89	27.032
413.25	27.256
413.60	26.025
413.96	26.933
414.31	27.378
414.67	26.876
415.03	27.230
415.38	27.023
415.74	27.231
416.09	28.217
416.45	27.752
416.80	27.098
417.16	27.348
417.51	27.182
417.87	27.184
418.22	27.008
418.58	27.157
418.93	27.712
419.29	25.480
419.64	27.738
420.00	27.708
420.35	27.224
420.71	27.157
421.06	27.010
421.42	27.524
421.77	26.821
422.12	25.936
422.48	25.880
422.83	26.798
423.19	26.637
423.54	27.278
423.90	26.443
424.25	27.153
424.61	26.928
424.96	26.887
425.31	28.192
425.67	27.347
426.02	27.326
426.38	27.426
426.73	27.603
427.09	27.722
427.44	27.235
427.79	27.283
428.15	27.245
428.50	26.711
428.85	27.027
429.21	26.825
429.56	27.008
429.92	26.605
430.27	26.266
430.62	25.771
430.98	26.115
431.33	27.971
431.68	26.531
432.04	27.390
432.39	27.268
432.74	26.037
433.10	27.184
433.45	27.240
433.80	26.117
434.16	25.873
434.51	26.828
434.86	26.655
435.22	26.697
435.57	26.700
435.92	26.587
436.28	26.118
436.63	27.039
436.98	27.346
437.34	26.316
437.69	27.251
438.04	26.325
438.39	26.878
438.75	27.080
439.10	26.372
439.45	26.902
439.81	26.728
440.16	27.197
440.51	26.925
440.86	27.976
441.22	26.527
441.57	26.380
441.92	28.174
442.27	26.663
442.63	27.463
442.98	26.824
443.33	27.156
443.68	27.003
444.03	26.726
444.39	26.365
444.74	28.149
445.09	27.339
445.44	27.009
445.79	26.766
446.15	26.762
446.50	26.622
446.85	26.833
447.20	27.789
447.55	27.734
447.91	27.524
448.26	26.807
448.61	27.173
448.96	27.194
449.31	26.416
449.66	26.829
450.02	27.610
450.37	27.919
450.72	26.919
451.07	28.101
451.42	26.779
451.77	27.306
452.12	27.093
452.47	27.109
452.83	26.973
453.18	26.882
453.53	27.307
453.88	26.776
454.23	27.044
454.58	26.511
454.93	27.899
455.28	26.032
455.63	27.340
455.98	27.180
456.34	27.075
456.69	27.510
457.04	27.914
457.39	27.582
457.74	27.267
458.09	26.898
458.44	27.501
458.79	26.499
459.14	26.945
459.49	27.940
459.84	26.452
460.19	26.699
460.54	26.589
460.89	27.216
461.24	27.019
461.59	26.722
461.94	26.289
462.29	27.141
462.64	27.641
462.99	27.150
463.34	27.399
463.69	26.898
464.04	27.179
464.39	26.804
464.74	25.521
465.09	26.700
465.44	26.774
465.79	25.340
466.14	26.910
466.49	26.452
466.84	26.591
467.19	26.909
467.54	26.564
467.89	26.595
468.24	25.973
468.59	27.873
468.94	25.397
469.29	26.820
469.64	27.546
469.99	27.540
470.34	26.689
470.68	27.442
471.03	27.176
471.38	26.890
471.73	27.521
472.08	27.815
472.43	27.315
472.78	25.977
473.13	26.735
473.48	26.906
473.83	25.841
474.17	27.008
474.52	26.675
474.87	26.182
475.22	25.381
475.57	25.974
475.92	26.988
476.27	26.775
476.61	26.157
476.96	25.544
477.31	26.122
477.66	25.506
478.01	26.109
478.36	25.490
478.70	27.080
479.05	26.374
479.40	25.861
479.75	26.434
480.10	26.472
480.45	26.500
480.79	26.586
481.14	25.256
481.49	25.665
481.84	25.483
482.19	25.725
482.53	25.995
482.88	26.205
483.23	25.528
483.58	25.755
483.92	25.847
484.27	25.160
484.62	25.549
484.97	25.041
485.31	24.747
485.66	23.563
486.01	23.551
486.36	22.717
486.70	23.550
487.05	24.369
487.40	23.837
487.75	24.479
488.09	23.486
488.44	24.656
488.79	24.393
489.13	25.120
489.48	24.968
489.83	24.843
490.17	25.034
490.52	25.727
490.87	24.896
491.22	25.740
491.56	25.617
491.91	24.665
492.26	25.474
492.60	25.672
492.95	26.660
493.30	25.403
493.64	25.982
493.99	25.217
494.34	24.757
494.68	24.571
495.03	24.380
495.37	25.123
495.72	25.694
496.07	25.317
496.41	24.340
496.76	24.551
497.11	24.313
497.45	25.155
497.80	26.085
498.14	25.335
498.49	25.292
498.84	24.651
499.18	25.351
499.53	25.645
499.87	24.465
500.22	25.074
500.56	24.609
500.91	25.100
501.26	24.271
501.60	24.840
501.95	24.357
502.29	24.310
502.64	24.421
502.98	24.716
503.33	24.111
503.67	24.627
504.02	25.464
504.36	24.394
504.71	24.141
505.06	24.308
505.40	25.482
505.75	24.330
506.09	25.190
506.44	25.616
506.78	24.643
507.13	25.750
507.47	24.961
507.82	24.359
508.16	24.089
508.51	24.974
508.85	25.170
509.19	24.375
509.54	24.450
509.88	23.948
510.23	25.121
510.57	25.922
510.92	23.774
511.26	25.041
511.61	25.083
511.95	24.438
512.30	24.945
512.64	24.819
512.98	24.986
513.33	24.902
513.67	24.957
514.02	25.801
514.36	25.943
514.70	25.524
515.05	25.617
515.39	25.679
515.74	25.329
516.08	25.822
516.42	25.324
516.77	25.980
517.11	25.460
517.46	25.194
517.80	25.209
518.14	24.985
518.49	25.000
518.83	25.091
519.17	24.560
519.52	25.400
519.86	24.850
520.20	25.091
520.55	25.453
520.89	26.098
521.23	25.649
521.58	25.678
521.92	25.000
522.26	25.504
522.61	25.455
522.95	25.762
523.29	26.048
523.64	25.222
523.98	25.924
524.32	24.678
524.66	24.968
525.01	25.974
525.35	26.248
525.69	24.714
526.04	25.331
526.38	26.200
526.72	24.526
527.06	24.319
527.41	25.660
527.75	24.598
528.09	24.651
528.43	26.199
528.78	24.488
529.12	25.097
529.46	24.821
529.80	25.079
530.15	25.347
530.49	24.579
530.83	24.008
531.17	25.386
531.51	26.334
531.86	24.133
532.20	23.382
532.54	24.847
532.88	25.394
533.22	24.866
533.57	23.788
533.91	24.086
534.25	25.065
534.59	24.246
534.93	24.607
535.27	22.716
535.62	23.655
535.96	23.744
536.30	24.011
536.64	24.052
536.98	24.878
537.32	24.467
537.66	25.456
538.01	24.056
538.35	24.411
538.69	24.700
539.03	23.445
539.37	24.092
539.71	23.654
540.05	23.693
540.39	24.792
540.73	23.780
541.07	23.895
541.42	24.731
541.76	25.189
542.10	24.088
542.44	24.114
542.78	22.436
543.12	23.832
543.46	24.826
543.80	24.358
544.14	22.897
544.48	23.318
544.82	24.129
545.16	24.385
545.50	24.166
545.84	24.221
546.18	24.255
546.52	24.946
546.86	24.227
547.20	23.176
547.54	23.251
547.88	24.457
548.22	22.617
548.56	22.296
548.90	23.518
549.24	23.072
549.58	22.990
549.92	23.517
550.26	23.516
550.60	24.238
550.94	23.600
551.28	24.730
551.62	24.615
551.96	23.383
552.30	23.830
552.64	23.061
552.98	23.136
553.32	23.538
553.66	23.875
554.00	22.920
554.34	23.634
554.68	24.263
555.02	24.033
555.36	22.812
555.69	21.978
556.03	22.484
556.37	21.922
556.71	23.321
557.05	23.415
557.39	22.379
557.73	22.639
558.07	23.906
558.41	23.813
558.75	23.461
559.08	23.089
559.42	22.619
559.76	23.139
560.10	22.401
560.44	22.785
560.78	22.098
561.12	23.695
561.45	23.190
561.79	22.969
562.13	22.285
562.47	22.806
562.81	22.983
563.15	23.413
563.48	23.338
563.82	22.855
564.16	22.214
564.50	22.095
564.84	22.423
565.17	22.602
565.51	23.497
565.85	21.948
566.19	22.944
566.52	22.386
566.86	22.301
567.20	22.229
567.54	21.898
567.88	22.086
568.21	21.946
568.55	21.087
568.89	21.561
569.23	21.618
569.56	20.096
569.90	19.813
570.24	19.650
570.57	19.200
570.91	19.414
571.25	18.777
571.59	18.779
571.92	18.726
572.26	18.569
572.60	18.853
572.93	18.513
573.27	18.370
573.61	18.079
573.95	18.050
574.28	17.664
574.62	17.620
574.96	17.402
575.29	17.718
575.63	17.906
575.97	17.620
576.30	17.515
576.64	17.748
576.98	17.812
577.31	17.793
577.65	17.569
577.98	17.477
578.32	16.913
578.66	16.527
578.99	16.963
579.33	17.062
579.67	17.386
580.00	17.696
580.34	17.164
580.67	16.939
581.01	17.483
581.35	16.882
581.68	16.965
582.02	16.535
582.35	16.862
582.69	16.985
583.02	16.877
583.36	17.057
583.70	18.017
584.03	17.431
584.37	17.871
584.70	17.308
585.04	17.228
585.37	17.715
585.71	16.983
586.04	17.121
586.38	17.071
586.72	17.848
587.05	17.851
587.39	17.920
587.72	17.933
588.06	17.326
588.39	17.488
588.73	17.369
589.06	17.678
589.40	18.113
589.73	18.729
590.07	18.769
590.40	18.576
590.73	18.245
591.07	18.533
591.40	18.255
591.74	18.959
592.07	19.666
592.41	19.125
592.74	18.598
593.08	17.324
593.41	17.792
593.75	17.501
594.08	17.885
594.41	17.467
594.75	17.786
595.08	18.502
595.42	18.108
595.75	18.100
596.09	18.256
596.42	18.024
596.75	18.295
597.09	18.952
597.42	18.835
597.75	18.507
598.09	19.058
598.42	18.637
598.76	18.790
599.09	18.429
599.42	18.113
599.76	17.758
600.09	18.175
600.42	17.400
600.76	17.719
601.09	18.092
601.42	17.156
601.76	17.745
602.09	17.492
602.42	18.366
602.76	18.081
603.09	18.272
603.42	19.231
603.76	17.661
604.09	18.023
604.42	18.274
604.76	18.825
605.09	18.556
605.42	18.600
605.75	19.089
606.09	18.386
606.42	17.807
606.75	18.485
607.09	18.330
607.42	17.856
607.75	17.673
608.08	17.969
608.42	17.999
608.75	18.554
609.08	18.635
609.41	18.477
609.75	18.145
610.08	19.021
610.41	17.778
610.74	18.479
611.07	18.398
611.41	19.668
611.74	18.923
612.07	19.058
612.40	18.873
612.73	19.379
613.07	19.235
613.40	19.748
613.73	19.026
614.06	19.254
614.39	19.289
614.72	19.328
615.06	19.218
615.39	18.395
615.72	18.568
616.05	19.385
616.38	18.974
616.71	19.388
617.05	20.568
617.38	19.422
617.71	20.189
618.04	19.873
618.37	20.050
618.70	21.320
619.03	20.833
619.36	19.609
619.69	20.243
620.03	22.352
620.36	20.315
620.69	21.913
621.02	20.183
621.35	21.245
621.68	21.259
622.01	22.583
622.34	21.309
622.67	21.688
623.00	21.210
623.33	20.351
623.66	20.568
623.99	21.483
624.32	20.456
624.65	20.226
624.99	21.144
625.32	19.712
625.65	21.995
625.98	21.273
626.31	21.280
626.64	22.964
626.97	23.298
627.30	22.417
627.63	22.964
627.96	22.282
628.29	22.572
628.62	22.616
628.95	22.545
629.28	22.581
629.61	22.832
629.94	22.972
630.26	23.913
630.59	23.725
630.92	23.897
631.25	22.769
631.58	23.678
631.91	22.259
632.24	22.362
632.57	24.773
632.90	24.911
633.23	24.353
633.56	23.929
633.89	25.031
634.22	24.198
634.55	23.634
634.88	23.116
635.20	25.769
635.53	25.467
635.86	24.317
636.19	25.097
636.52	24.617
636.85	24.566
637.18	23.145
637.51	23.019
637.83	24.047
638.16	26.057
638.49	25.749
638.82	25.921
639.15	24.559
639.48	25.585
639.81	25.244
640.13	25.541
640.46	25.948
640.79	23.711
641.12	25.258
641.45	24.625
641.77	25.630
642.10	27.330
642.43	27.010
642.76	27.228
643.09	27.302
643.41	25.890
643.74	25.865
644.07	27.915
644.40	27.196
644.73	25.919
645.05	27.349
645.38	28.042
645.71	24.823
646.04	26.930
646.36	28.723
646.69	26.259
647.02	29.112
647.35	29.851
647.67	29.616
648.00	29.291
648.33	27.645
648.66	25.593
648.98	24.958
649.31	24.298
649.64	24.019
649.96	24.635
650.29	26.576
650.62	25.812
650.94	27.037
651.27	25.698
651.60	27.568
651.92	27.622
652.25	25.222
652.58	24.333
652.90	27.444
653.23	25.714
653.56	23.519
653.88	25.945
654.21	22.067
654.54	24.278
654.86	25.127
655.19	23.246
655.52	20.511
655.84	15.304
656.17	16.027
656.49	21.726
656.82	21.899
657.15	16.367
657.47	12.341
657.80	9.194
658.13	8.967
658.45	13.805
658.78	13.748
659.10	14.113
659.43	14.611
659.75	15.146
660.08	15.241
660.41	19.612
660.73	21.961
661.06	24.090
661.38	24.266
661.71	23.614
662.03	29.399
662.36	25.934
662.68	26.991
663.01	30.131
663.33	25.058
663.66	27.442
663.98	25.116
664.31	26.013
664.63	25.346
664.96	26.739
665.28	23.400
665.61	27.922
665.93	29.348
666.26	27.766
666.58	27.293
666.91	27.294
667.23	29.009
667.56	27.014
667.88	26.139
668.21	25.537
668.53	30.496
668.86	28.066
669.18	28.302
669.50	25.666
669.83	26.279
670.15	27.273
670.48	27.751
670.80	26.498
671.13	25.056
671.45	24.886
671.77	28.541
672.10	25.347
672.42	26.030
672.75	23.979
673.07	26.476
673.39	23.486
673.72	23.274
674.04	23.542
674.37	24.788
674.69	26.981
675.01	26.222
675.34	23.874
675.66	26.620
675.98	26.829
676.31	25.917
676.63	25.653
676.95	24.773
677.28	29.176
677.60	27.952
677.92	25.000
678.25	28.009
678.57	23.377
678.89	24.790
679.22	26.846
679.54	25.100
679.86	20.875
680.18	24.660
680.51	21.591
680.83	23.260
681.15	25.200
681.48	25.615
681.80	28.512
682.12	24.798
682.44	23.849
682.77	23.841
683.09	24.714
683.41	24.091
683.73	26.959
684.06	22.345
684.38	23.656
684.70	23.747
685.02	23.859
685.34	20.356
685.67	24.765
685.99	26.582
686.31	24.248
686.63	22.449
686.96	19.962
687.28	23.434
687.60	21.673
687.92	23.434
688.24	23.185
688.56	23.362
688.89	26.786
689.21	25.556
689.53	24.362
689.85	23.953
690.17	23.214
690.49	25.532
690.82	24.515
691.14	23.333
691.46	25.234
691.78	21.396
692.10	22.581
692.42	25.108
692.74	23.718
693.06	21.396
693.39	22.624
693.71	20.362
694.03	20.785
694.35	24.766
694.67	23.737
694.99	27.676
695.31	30.026
695.63	26.750
695.95	22.222
696.27	25.648
696.59	27.500
696.91	26.050
697.23	21.851
697.56	26.238
697.88	24.731
698.20	24.829
698.52	23.765
698.84	23.684
699.16	22.750
699.48	24.311
699.80	24.318
700.12	25.067
700.44	24.930
700.76	22.965
701.08	22.424
701.40	28.012
701.72	28.704
702.04	26.073
702.36	25.753
702.68	24.324
703.00	25.455
703.32	27.859
703.64	20.904
703.96	23.768
704.28	24.847
704.60	26.667
704.91	22.713
705.23	26.910
705.55	30.389
705.87	32.491
706.19	25.926
706.51	29.210
706.83	27.974
707.15	23.988
707.47	25.490
707.79	21.354
708.11	25.500
708.43	21.500
708.74	24.806
709.06	27.606
709.38	26.300
709.70	26.627
710.02	25.159
710.34	29.102
710.66	21.154
710.98	22.848
711.29	27.541
711.61	25.424
711.93	24.756
712.25	32.302
712.57	29.304
712.89	22.015
713.20	26.644
713.52	26.132
713.84	25.597
714.16	24.055
714.48	22.581
714.80	23.077
715.11	26.140
715.43	20.063
715.75	19.667
716.07	23.256
716.39	21.141
716.70	25.092
717.02	21.756
717.34	26.721
717.66	32.743
717.97	27.826
718.29	27.615
718.61	27.953
718.93	26.744
719.24	25.475
719.56	20.884
719.88	25.773
720.20	27.273
720.51	19.157
720.83	27.799
721.15	24.370
721.46	23.790
721.78	20.949
722.10	19.703
722.42	21.577
722.73	24.082
723.05	29.796
723.37	28.390
723.68	26.577
724.00	23.504
724.32	24.444
724.63	20.909
724.95	26.201
725.27	22.581
725.58	25.847
725.90	25.000
726.22	24.710
726.53	25.424
726.85	25.094
727.16	25.660
727.48	18.219
727.80	22.672
728.11	24.153
728.43	22.745
728.74	17.339
729.06	24.400
729.38	30.451
729.69	19.920
730.01	21.154
730.32	26.866
730.64	25.442
730.96	20.377
731.27	21.667
731.59	19.661
731.90	21.656
732.22	23.344
732.53	22.924
732.85	21.277
733.16	27.273
733.48	20.144
733.80	19.928
734.11	20.000
734.43	25.086
734.74	22.121
735.06	17.915
735.37	21.752
735.69	20.875
736.00	19.512
736.32	24.497
736.63	17.958
736.95	21.843
737.26	18.505
737.58	21.141
737.89	19.414
738.21	16.917
738.52	23.045
738.83	19.214
739.15	22.271
739.46	22.047
739.78	18.315
740.09	22.222
740.41	21.377
740.72	16.142
741.04	21.862
741.35	20.851
741.66	22.749
741.98	21.939
742.29	22.277
742.61	24.084
742.92	20.853
743.23	20.833
743.55	21.719
743.86	26.316
744.18	20.096
744.49	22.872
744.80	22.826
745.12	24.599
745.43	25.366
745.74	23.958
746.06	20.976
746.37	25.131
746.68	20.853
747.00	28.191
747.31	26.866
747.62	19.903
747.94	24.402
748.25	24.257
748.56	26.776
748.88	29.319
749.19	29.255
749.50	21.182
749.82	23.113
750.13	22.018
750.44	21.805
750.75	22.388
751.07	26.277
751.38	15.709
751.69	22.745
752.01	17.829
752.32	18.327
752.63	20.553
752.94	24.569
753.26	27.615
753.57	20.814
753.88	18.584
754.19	19.583
754.51	18.182
754.82	19.028
755.13	25.417
755.44	27.823
755.75	22.656
756.07	22.568
756.38	17.358
756.69	14.943
757.00	18.333
757.31	18.954
757.63	18.293
757.94	16.944
758.25	18.356
758.56	17.287
758.87	16.997
759.18	22.118
759.50	20.000
759.81	19.398
760.12	19.677
760.43	17.879
760.74	17.901
761.05	16.615
761.36	17.898
761.67	18.485
761.99	22.789
762.30	16.727
762.61	21.344
762.92	18.100
763.23	23.874
763.54	21.495
763.85	23.305
764.16	19.917
764.47	18.548
764.78	21.245
765.10	23.906
765.41	18.927
765.72	18.730
766.03	18.797
766.34	19.343
766.65	26.295
766.96	17.172
767.27	21.809
767.58	18.391
767.89	12.057
768.20	28.409
768.51	23.626
768.82	19.704
769.13	17.972
769.44	17.167
769.75	16.895
770.06	22.845
770.37	20.192
770.68	19.797
770.99	18.100
771.30	22.549
771.61	19.457
771.92	21.552
772.23	21.182
772.54	23.118
772.85	18.519
773.16	19.101
773.47	32.680
773.78	22.876
774.09	25.749
774.39	14.667
774.70	22.930
775.01	22.069
775.32	19.286
775.63	21.488
775.94	19.847
776.25	30.709
776.56	25.833
776.87	18.269
777.18	22.222
777.48	21.552
777.79	23.478
778.10	5.714
778.41	15.315
778.72	21.429
779.03	25.564
779.34	26.950
779.65	23.973
779.95	14.384
780.26	31.034
780.57	13.821
780.88	28.346
781.19	17.241
781.50	14.729
781.80	13.018
782.11	12.579
782.42	16.923
782.73	10.072
783.04	19.259
783.34	18.056
783.65	6.838
783.96	18.852
784.27	25.517
784.57	17.886
784.88	25.781
785.19	26.000
785.50	31.000
785.81	25.000
786.11	17.241
786.42	16.505
786.73	13.636
787.04	16.327
787.34	16.964
787.65	18.095
787.96	20.354
788.26	21.818
788.57	10.256
788.88	21.875
789.19	14.286
789.49	11.304
789.80	11.224
790.11	7.071
790.41	15.455
790.72	18.478
791.03	23.864
791.33	32.500
791.64	18.750
791.95	10.465
792.25	24.468
792.56	24.719
792.87	10.959
793.17	15.942
793.48	16.000
793.79	12.500
794.09	13.750
794.40	15.094
794.70	6.796
795.01	13.008
795.32	11.111
795.62	20.000
795.93	11.765
796.23	26.415
796.54	22.917
796.85	14.706
797.15	23.944
797.46	38.889
797.76	48.485
798.07	16.279
798.37	11.842
798.68	9.091
798.99	22.222
799.29	25.714
799.60	11.594
799.90	10.667
800.21	34.426
800.51	12.308
800.82	15.254
801.12	14.493
801.43	9.836
801.73	34.921
802.04	6.000
802.34	13.433
802.65	19.231
802.95	23.214
803.26	1.923
803.56	17.647
803.87	6.522
804.17	6.667
804.48	11.111
804.78	11.111
805.09	6.522
805.39	26.667
805.70	5.556
806.00	1.754
806.30	18.310
806.61	22.857
806.91	-1.389
807.22	22.368
807.52	21.333
807.83	3.636
808.13	20.833
808.43	25.000
808.74	7.463
809.04	-5.085
809.35	1.923
809.65	21.875
809.95	-16.216
810.26	4.545
810.56	12.329
810.86	7.143
811.17	14.000
811.47	30.612
811.77	18.421
812.08	13.636
812.38	18.868
812.69	12.500
812.99	3.030
813.29	7.895
813.59	-17.143
813.90	25.000
814.20	-2.564
814.50	13.462
814.81	26.415
815.11	10.638
815.41	20.339
815.72	11.905
816.02	5.882
816.32	-2.083
816.62	14.634
816.93	10.811
817.23	0.000
817.53	35.417
817.84	15.217
818.14	15.385
818.44	10.526
818.74	26.087
819.04	-5.000
819.35	27.027
819.65	-11.765
819.95	0.000
820.25	2.381
820.56	20.000
820.86	-55.172
821.16	27.500
821.46	12.766
821.76	32.500
822.07	-2.326
822.37	-29.730
822.67	-12.500
822.97	54.762
823.27	-42.857
823.57	-44.000
823.88	-25.926
824.18	25.000
824.48	8.824
824.78	12.903
825.08	-56.522
825.38	36.364
825.69	-41.667
825.99	13.158
826.29	-13.889
826.59	-26.667
826.89	9.524
827.19	15.217
827.49	-10.000
827.79	11.429
828.09	35.714
828.39	-6.061
828.70	24.324
829.00	-3.571
829.30	33.333
829.60	43.333
829.90	12.500
830.20	31.579
830.50	-14.815
830.80	-34.783
831.10	0.000
831.40	36.364
831.70	-3.226
832.00	9.524
832.30	-28.571
832.60	-133.333
832.90	-3.448
833.20	-45.000
833.50	15.152
833.80	-11.111
834.10	-7.692
834.40	-3.125
834.70	-88.889
835.00	10.526
835.30	34.615
835.60	26.667
835.90	16.129
836.20	-4.545
836.50	7.143
836.80	-42.308
837.10	17.857
837.40	-433.333
837.70	27.273
838.00	-54.545
838.30	26.087
838.60	-46.154
838.90	4.545
839.19	-3.571
839.49	26.667
839.79	-7.692
840.09	-75.000
840.39	17.857
840.69	0.000
840.99	3.846
841.29	-57.895
841.59	-20.000
841.88	-90.909
842.18	-20.000
842.48	6.250
842.78	-53.333
843.08	0.000
843.38	-130.000
843.68	-13.043
843.97	80.000
844.27	-86.667
844.57	10.000
844.87	-16.667
845.17	-23.810
845.47	-6.667
845.76	-14.286
846.06	-29.412
846.36	0.000
846.66	0.000
846.96	-33.333
847.25	-137.500
847.55	57.143
847.85	-225.000
848.15	0.000
848.44	-666.667
848.74	-5.000
849.04	22.222
849.34	-81.818
849.63	-283.333
849.93	-60.000
850.23	0.000
850.53	-60.000
850.82	-123.077
851.12	-44.444
851.42	-26.667
851.71	7.692
852.01	7.143
852.31	-175.000
852.61	-72.727
852.90	0.000
853.20	10.526
853.50	25.000
853.79	-8.696
854.09	8.333
854.39	26.316
854.68	-29.167
854.98	3.226
855.28	26.923
855.57	15.000
855.87	-5.556
856.17	0.000
856.46	-85.714
856.76	66.667
857.05	22.222
857.35	12.000
857.65	27.778
857.94	-46.154
858.24	55.172
858.53	55.556
858.83	25.926
859.13	4.545
859.42	-8.696
859.72	-225.000
860.01	-500.000
860.31	16.000
860.60	-19.048
860.90	-400.000
861.20	-46.667
861.49	-750.000
861.79	-6.667
862.08	0.000
862.38	0.000
862.67	-220.000
862.97	-116.667
863.26	-58.333
863.56	44.444
863.85	-233.333
864.15	-16.667
864.44	-40.000
864.74	50.000
865.03	225.000
865.33	-100.000
865.62	-50.000
865.92	-83.333
866.21	-250.000
866.51	-31.250
866.80	-45.455
867.10	-450.000
867.39	58.333
867.69	0.000
867.98	-7.692
868.27	-66.667
868.57	-26.667
868.86	27.778
869.16	-92.308
869.45	26.667
869.75	-1700.000
870.04	0.000
870.33	-142.857
870.63	-9.524
870.92	666.667
871.22	-140.000
871.51	-1000.000
871.80	-88.889
872.10	466.667
>>>>>End Processed Spectral Data<<<<<
