SpectraSuite Data File
++++++++++++++++++++++++++++++++++++
Date: Fri May 15 20:39:24 PDT 2015
User: schluterlab
Dark Spectrum Present: Yes
Reference Spectrum Present: Yes
Number of Sampled Component Spectra: 1
Spectrometers: USB2E3373
Integration Time (usec): 3000 (USB2E3373)
Spectra Averaged: 3 (USB2E3373)
Boxcar Smoothing: 0 (USB2E3373)
Correct for Electrical Dark: No (USB2E3373)
Strobe/Lamp Enabled: No (USB2E3373)
Correct for Detector Non-linearity: No (USB2E3373)
Correct for Stray Light: No (USB2E3373)
Number of Pixels in Processed Spectrum: 2048
>>>>>Begin Processed Spectral Data<<<<<
178.53	0.000
178.91	0.000
179.29	100.000
179.67	-600.000
180.04	-28.571
180.42	50.000
180.80	-1500.000
181.18	-133.333
181.56	550.000
181.94	150.000
182.31	-0.000
182.69	-60.000
183.07	-33.333
183.45	-80.000
183.83	133.333
184.20	27.273
184.58	55.556
184.96	-225.000
185.34	-0.000
185.72	-200.000
186.09	76.923
186.47	-800.000
186.85	216.667
187.23	122.222
187.61	200.000
187.98	266.667
188.36	-33.333
188.74	33.333
189.12	23.529
189.49	33.333
189.87	0.000
190.25	64.286
190.63	450.000
191.00	-200.000
191.38	31.579
191.76	50.000
192.14	-150.000
192.51	400.000
192.89	11.111
193.27	-28.571
193.65	183.333
194.02	100.000
194.40	-80.000
194.78	-287.500
195.15	0.000
195.53	-37.500
195.91	225.000
196.29	50.000
196.66	115.385
197.04	-28.571
197.42	-22.222
197.79	-366.667
198.17	-107.692
198.55	1100.000
198.92	-133.333
199.30	200.000
199.68	-160.000
200.05	-133.333
200.43	0.000
200.81	33.333
201.18	-166.667
201.56	-200.000
201.94	250.000
202.31	-33.333
202.69	-200.000
203.07	100.000
203.44	600.000
203.82	0.000
204.19	-21.429
204.57	-200.000
204.95	87.500
205.32	70.000
205.70	-57.143
206.08	-125.000
206.45	177.778
206.83	35.714
207.20	0.000
207.58	900.000
207.96	166.667
208.33	-70.000
208.71	75.000
209.08	-66.667
209.46	-100.000
209.84	60.000
210.21	-500.000
210.59	28.571
210.96	-83.333
211.34	125.000
211.71	20.000
212.09	-114.286
212.46	-1500.000
212.84	0.000
213.22	40.000
213.59	650.000
213.97	0.000
214.34	0.000
214.72	-83.333
215.09	400.000
215.47	7.692
215.84	45.455
216.22	0.000
216.59	-25.000
216.97	-50.000
217.34	-175.000
217.72	-260.000
218.09	50.000
218.47	187.500
218.84	-500.000
219.22	-22.222
219.59	40.000
219.97	200.000
220.34	200.000
220.72	-42.857
221.09	0.000
221.47	100.000
221.84	-600.000
222.22	-300.000
222.59	18.182
222.97	58.333
223.34	-100.000
223.72	14.286
224.09	9.524
224.46	-25.000
224.84	133.333
225.21	-80.000
225.59	33.333
225.96	-150.000
226.34	475.000
226.71	114.286
227.08	50.000
227.46	-25.000
227.83	-500.000
228.21	0.000
228.58	109.091
228.95	-62.500
229.33	180.000
229.70	-31.250
230.08	50.000
230.45	-85.714
230.82	71.429
231.20	-6.667
231.57	100.000
231.95	128.571
232.32	-20.000
232.69	50.000
233.07	-33.333
233.44	-40.000
233.81	-90.000
234.19	-33.333
234.56	-11.765
234.93	350.000
235.31	-25.000
235.68	-180.000
236.05	-46.154
236.43	-35.000
236.80	29.412
237.17	40.625
237.55	5.000
237.92	-3.704
238.29	27.778
238.67	30.000
239.04	29.412
239.41	-7.317
239.79	16.667
240.16	26.829
240.53	13.158
240.91	13.043
241.28	22.222
241.65	41.071
242.02	35.616
242.40	16.667
242.77	20.339
243.14	9.091
243.51	23.750
243.89	33.333
244.26	19.540
244.63	22.619
245.00	28.866
245.38	38.144
245.75	19.101
246.12	18.103
246.49	20.661
246.87	39.423
247.24	16.807
247.61	25.439
247.98	24.390
248.36	19.375
248.73	22.368
249.10	20.779
249.47	22.152
249.84	22.222
250.22	28.824
250.59	26.797
250.96	26.761
251.33	24.419
251.70	32.353
252.08	23.350
252.45	21.782
252.82	21.106
253.19	28.111
253.56	25.701
253.94	26.577
254.31	26.957
254.68	28.509
255.05	24.803
255.42	28.821
255.79	27.799
256.16	26.459
256.54	27.239
256.91	28.897
257.28	26.022
257.65	25.843
258.02	25.177
258.39	26.599
258.76	26.007
259.14	32.890
259.51	28.155
259.88	25.430
260.25	28.758
260.62	28.472
260.99	23.729
261.36	28.425
261.73	25.316
262.10	27.964
262.47	26.380
262.85	25.705
263.22	27.077
263.59	27.103
263.96	26.398
264.33	26.667
264.70	26.488
265.07	25.298
265.44	31.445
265.81	25.424
266.18	26.230
266.55	25.193
266.92	28.238
267.29	27.154
267.66	27.621
268.03	26.178
268.40	24.021
268.77	29.412
269.14	25.659
269.51	26.992
269.88	28.180
270.25	21.684
270.62	26.585
270.99	26.598
271.36	26.650
271.73	26.526
272.10	28.710
272.47	24.823
272.84	26.980
273.21	26.218
273.58	26.265
273.95	27.689
274.32	27.252
274.69	24.208
275.06	28.125
275.43	24.263
275.80	26.049
276.17	26.207
276.54	26.767
276.91	25.658
277.28	25.328
277.65	23.554
278.02	23.404
278.39	24.945
278.76	25.367
279.13	22.407
279.50	27.311
279.87	25.054
280.23	23.441
280.60	25.926
280.97	27.677
281.34	24.038
281.71	27.310
282.08	23.926
282.45	25.832
282.82	23.938
283.19	24.178
283.56	26.012
283.92	23.340
284.29	24.038
284.66	24.031
285.03	23.183
285.40	25.142
285.77	23.374
286.14	25.451
286.51	26.384
286.87	23.400
287.24	22.836
287.61	24.515
287.98	24.386
288.35	23.397
288.72	25.394
289.08	23.090
289.45	22.496
289.82	22.727
290.19	22.526
290.56	22.470
290.93	22.559
291.29	20.339
291.66	21.732
292.03	21.053
292.40	22.258
292.77	20.574
293.13	18.182
293.50	20.486
293.87	22.595
294.24	19.784
294.60	22.504
294.97	22.768
295.34	20.859
295.71	19.970
296.08	19.880
296.44	18.208
296.81	18.889
297.18	19.565
297.55	21.680
297.91	20.137
298.28	20.317
298.65	18.725
299.02	18.598
299.38	16.963
299.75	18.483
300.12	19.764
300.48	19.104
300.85	19.011
301.22	19.481
301.59	19.079
301.95	19.241
302.32	18.677
302.69	19.403
303.05	18.069
303.42	18.057
303.79	18.808
304.15	17.921
304.52	17.598
304.89	18.830
305.25	18.281
305.62	16.453
305.99	17.193
306.35	19.538
306.72	16.423
307.09	19.384
307.45	18.944
307.82	17.245
308.19	19.048
308.55	18.539
308.92	19.063
309.29	16.983
309.65	17.976
310.02	18.482
310.38	17.234
310.75	19.016
311.12	20.237
311.48	18.240
311.85	19.686
312.22	18.776
312.58	17.834
312.95	18.036
313.31	17.288
313.68	16.754
314.05	18.571
314.41	19.175
314.78	18.557
315.14	20.144
315.51	19.669
315.87	18.648
316.24	19.616
316.61	20.768
316.97	19.048
317.34	18.652
317.70	19.598
318.07	17.788
318.43	19.118
318.80	19.223
319.16	21.289
319.53	21.842
319.89	20.374
320.26	20.445
320.62	21.163
320.99	19.729
321.35	21.172
321.72	21.807
322.08	22.356
322.45	21.624
322.81	21.807
323.18	19.921
323.54	21.815
323.91	21.422
324.27	21.289
324.64	22.566
325.00	22.354
325.37	24.334
325.73	23.209
326.10	22.797
326.46	23.229
326.83	23.097
327.19	23.191
327.56	24.066
327.92	25.792
328.29	23.839
328.65	25.094
329.01	23.713
329.38	24.055
329.74	23.890
330.11	23.540
330.47	23.377
330.84	22.500
331.20	26.046
331.56	24.167
331.93	25.114
332.29	25.206
332.66	24.706
333.02	23.885
333.38	24.106
333.75	24.359
334.11	23.545
334.48	24.297
334.84	24.542
335.20	24.154
335.57	23.753
335.93	24.932
336.29	24.033
336.66	22.707
337.02	22.491
337.38	23.426
337.75	24.182
338.11	23.986
338.47	24.361
338.84	23.105
339.20	23.035
339.56	24.954
339.93	23.008
340.29	23.578
340.65	24.462
341.02	24.202
341.38	23.451
341.74	22.880
342.11	23.397
342.47	23.932
342.83	22.924
343.20	22.474
343.56	23.478
343.92	23.915
344.28	25.363
344.65	22.884
345.01	22.558
345.37	22.540
345.73	22.929
346.10	24.072
346.46	23.129
346.82	23.404
347.19	21.613
347.55	23.642
347.91	22.249
348.27	22.635
348.63	23.254
349.00	22.806
349.36	22.943
349.72	24.378
350.08	22.541
350.45	22.426
350.81	22.010
351.17	23.453
351.53	22.939
351.89	22.378
352.26	22.400
352.62	22.258
352.98	23.775
353.34	22.866
353.70	22.573
354.07	24.516
354.43	22.098
354.79	22.956
355.15	22.778
355.51	22.627
355.87	23.220
356.24	21.697
356.60	22.312
356.96	24.048
357.32	22.604
357.68	21.658
358.04	22.052
358.40	22.669
358.77	22.807
359.13	22.018
359.49	21.418
359.85	23.557
360.21	21.372
360.57	21.653
360.93	22.844
361.29	20.770
361.66	22.727
362.02	23.106
362.38	22.087
362.74	23.164
363.10	22.197
363.46	21.942
363.82	23.216
364.18	23.100
364.54	22.132
364.90	22.294
365.26	21.689
365.62	23.650
365.98	21.334
366.35	23.962
366.71	22.247
367.07	23.222
367.43	21.999
367.79	22.191
368.15	22.685
368.51	22.870
368.87	21.823
369.23	22.383
369.59	22.813
369.95	23.314
370.31	23.988
370.67	22.910
371.03	23.152
371.39	22.538
371.75	23.004
372.11	23.395
372.47	22.929
372.83	23.208
373.19	22.539
373.55	23.466
373.91	22.966
374.27	23.246
374.63	22.398
374.99	23.546
375.35	23.607
375.71	23.357
376.07	22.753
376.42	23.129
376.78	23.221
377.14	22.817
377.50	22.643
377.86	22.289
378.22	23.484
378.58	22.885
378.94	22.117
379.30	22.957
379.66	22.445
380.02	23.666
380.38	22.276
380.74	22.442
381.09	24.601
381.45	23.242
381.81	23.381
382.17	22.716
382.53	23.423
382.89	23.603
383.25	23.398
383.61	23.720
383.97	22.857
384.32	23.452
384.68	24.087
385.04	23.775
385.40	23.398
385.76	24.340
386.12	24.644
386.48	25.032
386.83	23.399
387.19	22.711
387.55	23.463
387.91	23.289
388.27	24.664
388.62	23.914
388.98	23.511
389.34	24.235
389.70	23.928
390.06	24.103
390.42	24.223
390.77	24.330
391.13	22.446
391.49	23.609
391.85	24.561
392.20	23.415
392.56	24.158
392.92	24.427
393.28	24.057
393.64	23.544
393.99	24.451
394.35	23.782
394.71	24.010
395.07	23.130
395.42	23.983
395.78	24.495
396.14	23.897
396.50	24.540
396.85	24.276
397.21	25.063
397.57	24.263
397.92	23.847
398.28	24.943
398.64	24.217
399.00	25.564
399.35	23.928
399.71	23.837
400.07	25.333
400.42	23.807
400.78	24.740
401.14	23.654
401.49	24.538
401.85	24.375
402.21	25.241
402.57	24.875
402.92	24.279
403.28	25.564
403.63	24.905
403.99	24.426
404.35	24.672
404.70	24.762
405.06	24.677
405.42	24.922
405.77	24.463
406.13	25.087
406.49	25.518
406.84	25.183
407.20	25.888
407.55	24.469
407.91	24.198
408.27	25.749
408.62	26.277
408.98	25.447
409.34	25.774
409.69	24.289
410.05	24.754
410.40	25.864
410.76	25.392
411.11	25.562
411.47	26.101
411.83	25.424
412.18	25.804
412.54	26.155
412.89	25.123
413.25	25.872
413.60	25.714
413.96	24.785
414.31	26.585
414.67	26.235
415.03	25.166
415.38	25.783
415.74	26.840
416.09	26.780
416.45	26.131
416.80	24.653
417.16	27.348
417.51	26.382
417.87	26.336
418.22	26.231
418.58	25.552
418.93	26.646
419.29	25.352
419.64	26.053
420.00	27.393
420.35	26.328
420.71	26.549
421.06	25.905
421.42	26.022
421.77	26.127
422.12	26.788
422.48	26.042
422.83	26.798
423.19	26.242
423.54	25.338
423.90	26.207
424.25	27.153
424.61	27.540
424.96	26.887
425.31	27.325
425.67	27.289
426.02	27.150
426.38	27.990
426.73	28.027
427.09	27.405
427.44	27.412
427.79	27.107
428.15	27.367
428.50	27.438
428.85	26.658
429.21	28.183
429.56	27.547
429.92	27.016
430.27	27.368
430.62	26.869
430.98	27.389
431.33	28.128
431.68	27.159
432.04	27.781
432.39	27.439
432.74	28.443
433.10	28.333
433.45	27.778
433.80	27.336
434.16	27.922
434.51	27.796
434.86	28.339
435.22	27.201
435.57	28.260
435.92	27.665
436.28	27.609
436.63	28.237
436.98	27.926
437.34	27.405
437.69	27.728
438.04	28.148
438.39	28.222
438.75	28.355
439.10	28.183
439.45	28.789
439.81	29.541
440.16	29.394
440.51	29.731
440.86	29.849
441.22	28.790
441.57	28.698
441.92	29.748
442.27	29.047
442.63	29.229
442.98	28.949
443.33	28.214
443.68	28.753
444.03	29.657
444.39	29.120
444.74	29.376
445.09	28.341
445.44	30.028
445.79	30.119
446.15	29.240
446.50	29.007
446.85	29.437
447.20	29.510
447.55	30.078
447.91	29.498
448.26	29.653
448.61	29.534
448.96	29.776
449.31	30.462
449.66	29.617
450.02	29.492
450.37	29.816
450.72	29.954
451.07	30.253
451.42	30.212
451.77	29.596
452.12	30.443
452.47	29.749
452.83	29.270
453.18	29.222
453.53	30.215
453.88	31.087
454.23	30.731
454.58	31.108
454.93	30.863
455.28	29.587
455.63	30.874
455.98	31.028
456.34	30.779
456.69	31.830
457.04	30.750
457.39	30.741
457.74	30.048
458.09	29.429
458.44	30.603
458.79	30.084
459.14	31.350
459.49	31.224
459.84	30.795
460.19	30.218
460.54	30.868
460.89	30.966
461.24	31.242
461.59	30.582
461.94	30.000
462.29	30.941
462.64	31.429
462.99	30.196
463.34	30.598
463.69	31.274
464.04	31.235
464.39	31.231
464.74	30.859
465.09	30.817
465.44	30.698
465.79	30.442
466.14	31.471
466.49	30.650
466.84	31.648
467.19	31.477
467.54	31.609
467.89	31.522
468.24	32.056
468.59	32.889
468.94	30.794
469.29	32.262
469.64	32.878
469.99	33.146
470.34	31.399
470.68	33.035
471.03	32.272
471.38	32.668
471.73	32.423
472.08	32.497
472.43	32.282
472.78	32.419
473.13	33.401
473.48	32.769
473.83	31.071
474.17	32.707
474.52	32.291
474.87	32.545
475.22	33.191
475.57	32.355
475.92	33.352
476.27	32.654
476.61	33.391
476.96	32.794
477.31	33.369
477.66	32.809
478.01	32.566
478.36	33.115
478.70	33.496
479.05	34.341
479.40	33.704
479.75	33.264
480.10	32.924
480.45	33.200
480.79	34.592
481.14	33.555
481.49	32.118
481.84	33.639
482.19	33.115
482.53	33.141
482.88	32.649
483.23	33.637
483.58	32.877
483.92	32.430
484.27	32.862
484.62	33.303
484.97	32.504
485.31	32.189
485.66	30.199
486.01	30.230
486.36	30.195
486.70	31.135
487.05	31.472
487.40	31.515
487.75	32.620
488.09	32.756
488.44	32.909
488.79	33.209
489.13	33.814
489.48	33.775
489.83	32.780
490.17	34.022
490.52	33.256
490.87	33.087
491.22	34.527
491.56	33.349
491.91	34.417
492.26	34.225
492.60	34.021
492.95	34.973
493.30	33.464
493.64	34.185
493.99	34.300
494.34	33.835
494.68	33.952
495.03	33.723
495.37	34.102
495.72	34.578
496.07	35.366
496.41	33.255
496.76	34.500
497.11	32.976
497.45	34.272
497.80	35.974
498.14	34.873
498.49	33.723
498.84	34.132
499.18	35.743
499.53	35.417
499.87	34.387
500.22	34.570
500.56	35.703
500.91	34.689
501.26	34.849
501.60	35.121
501.95	35.468
502.29	35.738
502.64	35.569
502.98	36.458
503.33	34.678
503.67	35.759
504.02	35.679
504.36	36.863
504.71	35.455
505.06	35.531
505.40	36.497
505.75	36.392
506.09	36.645
506.44	37.115
506.78	37.092
507.13	36.556
507.47	37.180
507.82	36.592
508.16	36.873
508.51	37.566
508.85	37.363
509.19	38.584
509.54	37.855
509.88	37.864
510.23	38.838
510.57	38.482
510.92	37.687
511.26	38.352
511.61	38.394
511.95	39.452
512.30	39.135
512.64	39.065
512.98	39.641
513.33	39.508
513.67	40.307
514.02	41.133
514.36	41.314
514.70	42.483
515.05	42.421
515.39	41.027
515.74	41.856
516.08	42.499
516.42	42.933
516.77	42.598
517.11	42.136
517.46	42.190
517.80	43.325
518.14	43.295
518.49	42.067
518.83	43.621
519.17	43.542
519.52	42.096
519.86	43.157
520.20	43.985
520.55	43.715
520.89	43.852
521.23	44.332
521.58	44.669
521.92	44.872
522.26	44.567
522.61	44.481
522.95	46.490
523.29	45.743
523.64	45.235
523.98	46.209
524.32	45.425
524.66	46.479
525.01	46.169
525.35	47.310
525.69	46.869
526.04	45.635
526.38	47.860
526.72	45.520
527.06	46.757
527.41	47.361
527.75	46.448
528.09	47.176
528.43	48.076
528.78	47.063
529.12	47.677
529.46	47.628
529.80	47.562
530.15	47.855
530.49	48.350
530.83	48.427
531.17	47.884
531.51	48.837
531.86	47.043
532.20	47.947
532.54	48.128
532.88	48.323
533.22	48.320
533.57	47.706
533.91	47.781
534.25	48.633
534.59	47.466
534.93	46.696
535.27	46.574
535.62	48.153
535.96	48.793
536.30	48.285
536.64	48.794
536.98	47.666
537.32	49.858
537.66	49.579
538.01	49.161
538.35	48.821
538.69	48.469
539.03	47.368
539.37	48.048
539.71	48.398
540.05	47.115
540.39	48.753
540.73	49.093
541.07	47.790
541.42	47.849
541.76	48.727
542.10	48.383
542.44	48.714
542.78	48.107
543.12	47.459
543.46	48.401
543.80	49.063
544.14	46.796
544.48	47.435
544.82	47.437
545.16	49.249
545.50	49.332
545.84	48.017
546.18	49.787
546.52	49.315
546.86	48.958
547.20	49.428
547.54	47.562
547.88	48.777
548.22	47.600
548.56	48.153
548.90	47.978
549.24	47.865
549.58	47.814
549.92	48.177
550.26	48.278
550.60	49.591
550.94	49.216
551.28	49.845
551.62	51.462
551.96	48.496
552.30	49.781
552.64	48.731
552.98	48.664
553.32	48.359
553.66	48.113
554.00	49.635
554.34	48.597
554.68	48.746
555.02	50.521
555.36	48.691
555.69	49.231
556.03	48.537
556.37	48.968
556.71	47.653
557.05	50.708
557.39	49.145
557.73	49.625
558.07	49.548
558.41	48.698
558.75	49.493
559.08	48.936
559.42	50.238
559.76	49.079
560.10	48.777
560.44	47.282
560.78	49.231
561.12	48.872
561.45	48.911
561.79	49.510
562.13	47.835
562.47	50.144
562.81	49.063
563.15	48.378
563.48	47.878
563.82	48.524
564.16	48.886
564.50	47.162
564.84	47.657
565.17	48.357
565.51	49.180
565.85	48.765
566.19	48.011
566.52	49.196
566.86	48.072
567.20	46.638
567.54	47.932
567.88	48.272
568.21	48.190
568.55	46.630
568.89	45.945
569.23	46.365
569.56	45.490
569.90	44.702
570.24	43.208
570.57	44.618
570.91	44.441
571.25	43.144
571.59	43.507
571.92	42.222
572.26	43.327
572.60	42.357
572.93	42.516
573.27	43.041
573.61	42.721
573.95	41.944
574.28	41.419
574.62	42.131
574.96	41.037
575.29	41.444
575.63	40.814
575.97	41.448
576.30	41.186
576.64	40.927
576.98	42.445
577.31	41.558
577.65	41.399
577.98	41.251
578.32	40.271
578.66	40.791
578.99	41.179
579.33	41.119
579.67	41.004
580.00	41.190
580.34	41.567
580.67	40.900
581.01	41.595
581.35	40.741
581.68	40.445
582.02	40.136
582.35	40.669
582.69	40.534
583.02	41.102
583.36	41.330
583.70	41.407
584.03	41.924
584.37	42.518
584.70	41.676
585.04	40.777
585.37	41.057
585.71	40.681
586.04	40.948
586.38	40.971
586.72	41.406
587.05	41.219
587.39	41.990
587.72	41.826
588.06	41.904
588.39	41.897
588.73	41.453
589.06	42.727
589.40	42.378
589.73	43.264
590.07	42.258
590.40	42.221
590.73	43.699
591.07	43.893
591.40	43.455
591.74	43.801
592.07	42.254
592.41	43.065
592.74	42.135
593.08	41.181
593.41	41.186
593.75	40.693
594.08	40.817
594.41	41.667
594.75	42.023
595.08	42.187
595.42	41.774
595.75	42.358
596.09	42.494
596.42	42.580
596.75	43.384
597.09	42.961
597.42	42.367
597.75	43.106
598.09	42.191
598.42	41.922
598.76	41.227
599.09	41.346
599.42	40.053
599.76	41.084
600.09	40.913
600.42	40.334
600.76	40.119
601.09	40.420
601.42	40.188
601.76	42.001
602.09	41.460
602.42	42.418
602.76	42.063
603.09	41.570
603.42	43.102
603.76	41.411
604.09	41.555
604.42	41.836
604.76	41.478
605.09	41.910
605.42	42.167
605.75	41.856
606.09	42.208
606.42	40.200
606.75	40.996
607.09	41.011
607.42	40.186
607.75	40.986
608.08	40.341
608.42	40.795
608.75	42.892
609.08	42.302
609.41	43.959
609.75	42.288
610.08	41.188
610.41	41.304
610.74	42.028
611.07	42.119
611.41	42.034
611.74	42.217
612.07	40.792
612.40	42.615
612.73	42.599
613.07	41.957
613.40	41.521
613.73	42.753
614.06	40.623
614.39	42.358
614.72	41.513
615.06	41.285
615.39	40.175
615.72	40.958
616.05	41.732
616.38	41.254
616.71	42.141
617.05	42.804
617.38	41.735
617.71	43.082
618.04	42.730
618.37	43.947
618.70	42.508
619.03	44.236
619.36	43.271
619.69	43.973
620.03	42.951
620.36	42.346
620.69	41.542
621.02	44.113
621.35	45.311
621.68	44.048
622.01	44.000
622.34	44.294
622.67	43.612
623.00	43.262
623.33	43.140
623.66	42.259
623.99	41.982
624.32	43.270
624.65	41.278
624.99	43.341
625.32	40.713
625.65	43.912
625.98	43.030
626.31	42.893
626.64	44.714
626.97	43.717
627.30	43.082
627.63	43.674
627.96	45.013
628.29	43.293
628.62	46.116
628.95	44.990
629.28	45.665
629.61	44.666
629.94	45.552
630.26	45.850
630.59	44.121
630.92	46.359
631.25	45.128
631.58	45.925
631.91	44.737
632.24	45.298
632.57	46.705
632.90	47.212
633.23	45.412
633.56	47.481
633.89	45.993
634.22	47.160
634.55	45.997
634.88	44.700
635.20	45.128
635.53	48.667
635.86	45.384
636.19	47.995
636.52	45.791
636.85	45.409
637.18	44.528
637.51	46.918
637.83	45.072
638.16	47.067
638.49	43.324
638.82	45.921
639.15	44.776
639.48	44.704
639.81	46.304
640.13	47.330
640.46	47.376
640.79	45.066
641.12	45.938
641.45	43.393
641.77	44.296
642.10	48.025
642.43	45.820
642.76	50.000
643.09	48.627
643.41	45.631
643.74	45.799
644.07	47.291
644.40	48.986
644.73	49.037
645.05	47.651
645.38	48.501
645.71	49.113
646.04	50.449
646.36	48.582
646.69	50.719
647.02	49.338
647.35	47.948
647.67	46.984
648.00	50.373
648.33	46.075
648.66	45.763
648.98	43.886
649.31	45.950
649.64	44.427
649.96	45.057
650.29	46.337
650.62	47.009
650.94	46.852
651.27	43.948
651.60	45.766
651.92	47.552
652.25	45.293
652.58	46.833
652.90	47.170
653.23	44.202
653.56	44.839
653.88	43.814
654.21	43.257
654.54	46.180
654.86	47.538
655.19	42.836
655.52	39.474
655.84	33.533
656.17	36.643
656.49	49.898
656.82	51.525
657.15	40.095
657.47	30.449
657.80	22.614
658.13	22.803
658.45	35.329
658.78	35.857
659.10	36.279
659.43	37.071
659.75	37.987
660.08	38.000
660.41	41.879
660.73	44.337
661.06	45.581
661.38	43.640
661.71	42.710
662.03	48.498
662.36	47.692
662.68	45.796
663.01	47.380
663.33	48.724
663.66	46.047
663.98	48.837
664.31	44.350
664.63	46.544
664.96	46.087
665.28	42.826
665.61	44.372
665.93	43.043
666.26	44.902
666.58	45.190
666.91	49.412
667.23	48.585
667.56	48.341
667.88	43.885
668.21	46.062
668.53	48.936
668.86	46.934
669.18	46.462
669.50	43.826
669.83	43.488
670.15	45.688
670.48	44.019
670.80	46.313
671.13	43.177
671.45	44.977
671.77	46.567
672.10	41.584
672.42	40.637
672.75	40.142
673.07	42.039
673.39	42.936
673.72	40.039
674.04	41.667
674.37	44.068
674.69	41.328
675.01	45.778
675.34	45.045
675.66	43.287
675.98	43.459
676.31	45.413
676.63	44.656
676.95	42.273
677.28	47.529
677.60	46.988
677.92	42.890
678.25	41.794
678.57	44.372
678.89	40.126
679.22	44.743
679.54	41.968
679.86	41.948
680.18	41.748
680.51	39.015
680.83	40.954
681.15	42.600
681.48	42.623
681.80	41.529
682.12	40.524
682.44	39.331
682.77	43.929
683.09	40.961
683.41	43.636
683.73	41.475
684.06	41.150
684.38	42.796
684.70	44.009
685.02	38.589
685.34	37.352
685.67	38.837
685.99	40.506
686.31	40.000
686.63	39.147
686.96	37.262
687.28	37.374
687.60	37.262
687.92	40.000
688.24	40.726
688.56	41.485
688.89	41.518
689.21	41.778
689.53	38.051
689.85	41.628
690.17	39.732
690.49	40.426
690.82	40.049
691.14	41.429
691.46	42.290
691.78	37.162
692.10	38.280
692.42	40.476
692.74	38.248
693.06	40.315
693.39	40.950
693.71	39.140
694.03	36.028
694.35	41.589
694.67	40.909
694.99	36.031
695.31	40.992
695.63	41.250
695.95	39.141
696.27	39.637
696.59	39.722
696.91	42.577
697.23	37.789
697.56	40.347
697.88	37.419
698.20	39.180
698.52	35.529
698.84	37.560
699.16	39.000
699.48	40.100
699.80	38.213
700.12	41.240
700.44	38.936
700.76	38.953
701.08	38.182
701.40	39.759
701.72	44.444
702.04	39.604
702.36	40.468
702.68	39.640
703.00	39.394
703.32	39.296
703.64	37.006
703.96	42.029
704.28	40.491
704.60	40.635
704.91	37.539
705.23	39.535
705.55	45.230
705.87	40.433
706.19	42.222
706.51	40.206
706.83	41.801
707.15	37.383
707.47	40.056
707.79	32.813
708.11	39.750
708.43	35.500
708.74	35.917
709.06	37.465
709.38	41.896
709.70	40.237
710.02	38.535
710.34	41.486
710.66	36.859
710.98	32.450
711.29	39.672
711.61	37.288
711.93	38.762
712.25	39.863
712.57	39.194
712.89	39.179
713.20	44.291
713.52	37.979
713.84	40.614
714.16	41.581
714.48	38.710
714.80	36.538
715.11	39.514
715.43	34.169
715.75	35.333
716.07	38.206
716.39	40.604
716.70	36.162
717.02	34.733
717.34	42.915
717.66	39.381
717.97	42.174
718.29	33.473
718.61	40.551
718.93	42.636
719.24	36.122
719.56	38.956
719.88	37.801
720.20	35.227
720.51	34.483
720.83	35.521
721.15	41.597
721.46	35.887
721.78	32.806
722.10	34.201
722.42	36.929
722.73	33.878
723.05	39.184
723.37	38.983
723.68	39.640
724.00	42.735
724.32	38.222
724.63	37.727
724.95	38.865
725.27	38.249
725.58	36.864
725.90	35.317
726.22	37.838
726.53	40.000
726.85	37.079
727.16	43.019
727.48	34.413
727.80	39.271
728.11	38.559
728.43	36.078
728.74	36.290
729.06	36.800
729.38	38.722
729.69	34.263
730.01	29.231
730.32	35.448
730.64	30.389
730.96	35.094
731.27	33.667
731.59	32.881
731.90	36.306
732.22	35.962
732.53	35.880
732.85	35.461
733.16	40.067
733.48	30.935
733.80	35.145
734.11	32.542
734.43	35.052
734.74	34.545
735.06	33.225
735.37	32.326
735.69	32.323
736.00	34.843
736.32	32.886
736.63	33.803
736.95	34.812
737.26	34.164
737.58	29.530
737.89	36.264
738.21	30.827
738.52	35.391
738.83	35.808
739.15	28.384
739.46	31.890
739.78	32.601
740.09	32.353
740.41	33.696
740.72	34.646
741.04	39.271
741.35	32.766
741.66	28.436
741.98	39.796
742.29	39.109
742.61	31.414
742.92	27.488
743.23	33.333
743.55	34.842
743.86	35.407
744.18	31.579
744.49	36.170
744.80	32.609
745.12	40.107
745.43	34.634
745.74	35.938
746.06	33.171
746.37	35.079
746.68	36.967
747.00	35.638
747.31	39.801
747.62	41.748
747.94	35.885
748.25	30.693
748.56	34.973
748.88	32.984
749.19	44.149
749.50	36.453
749.82	25.943
750.13	35.321
750.44	30.075
750.75	32.836
751.07	39.416
751.38	31.418
751.69	26.667
752.01	31.008
752.32	32.271
752.63	32.411
752.94	33.190
753.26	38.494
753.57	31.674
753.88	35.841
754.19	33.750
754.51	26.033
754.82	33.603
755.13	36.667
755.44	33.871
755.75	34.766
756.07	34.630
756.38	32.075
756.69	27.969
757.00	33.000
757.31	32.680
757.63	29.878
757.94	28.889
758.25	27.945
758.56	29.521
758.87	24.929
759.18	26.480
759.50	28.727
759.81	30.435
760.12	28.065
760.43	29.394
760.74	33.951
761.05	28.923
761.36	26.705
761.67	33.030
761.99	36.054
762.30	27.273
762.61	29.249
762.92	30.317
763.23	34.234
763.54	30.841
763.85	30.508
764.16	31.535
764.47	27.823
764.78	31.136
765.10	31.987
765.41	31.546
765.72	29.206
766.03	30.075
766.34	33.212
766.65	29.482
766.96	33.838
767.27	36.702
767.58	32.184
767.89	29.787
768.20	27.841
768.51	35.165
768.82	31.527
769.13	25.806
769.44	29.614
769.75	30.594
770.06	28.017
770.37	33.173
770.68	31.980
770.99	25.339
771.30	34.804
771.61	23.982
771.92	29.310
772.23	32.512
772.54	30.645
772.85	31.481
773.16	33.708
773.47	40.523
773.78	36.601
774.09	33.533
774.39	28.667
774.70	26.752
775.01	28.276
775.32	21.429
775.63	25.620
775.94	43.511
776.25	28.346
776.56	34.167
776.87	26.923
777.18	29.915
777.48	27.586
777.79	34.783
778.10	23.810
778.41	24.324
778.72	36.508
779.03	30.827
779.34	31.915
779.65	31.507
779.95	24.658
780.26	39.310
780.57	21.138
780.88	23.622
781.19	31.897
781.50	20.930
781.80	26.036
782.11	22.642
782.42	30.769
782.73	22.302
783.04	31.852
783.34	25.000
783.65	13.675
783.96	33.607
784.27	31.724
784.57	32.520
784.88	33.594
785.19	27.000
785.50	33.000
785.81	36.207
786.11	31.897
786.42	32.039
786.73	34.545
787.04	38.776
787.34	21.429
787.65	30.476
787.96	27.434
788.26	33.636
788.57	29.915
788.88	34.375
789.19	25.397
789.49	26.957
789.80	25.510
790.11	27.273
790.41	21.818
790.72	30.435
791.03	28.409
791.33	28.750
791.64	33.750
791.95	27.907
792.25	28.723
792.56	34.831
792.87	24.658
793.17	36.232
793.48	32.000
793.79	26.250
794.09	45.000
794.40	21.698
794.70	14.563
795.01	18.699
795.32	25.641
795.62	30.476
795.93	24.510
796.23	32.075
796.54	26.042
796.85	29.412
797.15	14.085
797.46	33.333
797.76	50.000
798.07	25.581
798.37	14.474
798.68	6.061
798.99	28.395
799.29	25.714
799.60	30.435
799.90	21.333
800.21	34.426
800.51	32.308
800.82	28.814
801.12	34.783
801.43	32.787
801.73	17.460
802.04	32.000
802.34	38.806
802.65	42.308
802.95	17.857
803.26	13.462
803.56	19.608
803.87	10.870
804.17	24.000
804.48	36.508
804.78	31.481
805.09	17.391
805.39	8.889
805.70	18.519
806.00	1.754
806.30	16.901
806.61	24.286
806.91	12.500
807.22	36.842
807.52	32.000
807.83	25.455
808.13	18.056
808.43	32.353
808.74	26.866
809.04	25.424
809.35	17.308
809.65	39.063
809.95	10.811
810.26	25.000
810.56	21.918
810.86	-2.381
811.17	20.000
811.47	36.735
811.77	26.316
812.08	25.000
812.38	28.302
812.69	-10.000
812.99	30.303
813.29	26.316
813.59	-17.143
813.90	22.727
814.20	28.205
814.50	26.923
814.81	24.528
815.11	-4.255
815.41	37.288
815.72	26.190
816.02	27.451
816.32	22.917
816.62	17.073
816.93	2.703
817.23	34.286
817.53	12.500
817.84	4.348
818.14	26.923
818.44	5.263
818.74	32.609
819.04	12.500
819.35	32.432
819.65	-2.941
819.95	11.111
820.25	2.381
820.56	27.500
820.86	-24.138
821.16	50.000
821.46	31.915
821.76	42.500
822.07	-16.279
822.37	-16.216
822.67	6.250
822.97	40.476
823.27	14.286
823.57	-4.000
823.88	-37.037
824.18	28.571
824.48	14.706
824.78	41.935
825.08	21.739
825.38	-12.121
825.69	16.667
825.99	31.579
826.29	5.556
826.59	40.000
826.89	-4.762
827.19	32.609
827.49	-12.500
827.79	25.714
828.09	10.714
828.39	36.364
828.70	56.757
829.00	17.857
829.30	28.571
829.60	20.000
829.90	43.750
830.20	18.421
830.50	14.815
830.80	21.739
831.10	18.182
831.40	42.424
831.70	16.129
832.00	47.619
832.30	9.524
832.60	8.333
832.90	0.000
833.20	25.000
833.50	33.333
833.80	14.815
834.10	30.769
834.40	12.500
834.70	-22.222
835.00	21.053
835.30	73.077
835.60	-13.333
835.90	32.258
836.20	27.273
836.50	60.714
836.80	-15.385
837.10	3.571
837.40	-100.000
837.70	54.545
838.00	-18.182
838.30	30.435
838.60	-38.462
838.90	22.727
839.19	42.857
839.49	46.667
839.79	0.000
840.09	-66.667
840.39	50.000
840.69	3.571
840.99	19.231
841.29	-26.316
841.59	-160.000
841.88	-36.364
842.18	20.000
842.48	-31.250
842.78	-26.667
843.08	44.444
843.38	-70.000
843.68	-13.043
843.97	46.667
844.27	-20.000
844.57	-10.000
844.87	16.667
845.17	23.810
845.47	20.000
845.76	-4.762
846.06	23.529
846.36	80.000
846.66	0.000
846.96	26.667
847.25	-187.500
847.55	-28.571
847.85	37.500
848.15	-4.545
848.44	-266.667
848.74	15.000
849.04	44.444
849.34	-45.455
849.63	-166.667
849.93	40.000
850.23	-5.556
850.53	40.000
850.82	-153.846
851.12	11.111
851.42	40.000
851.71	-11.538
852.01	-7.143
852.31	-250.000
852.61	36.364
852.90	-15.000
853.20	-5.263
853.50	-8.333
853.79	17.391
854.09	70.833
854.39	42.105
854.68	-4.167
854.98	16.129
855.28	30.769
855.57	-40.000
855.87	33.333
856.17	11.111
856.46	57.143
856.76	53.333
857.05	33.333
857.35	56.000
857.65	22.222
857.94	-38.462
858.24	58.621
858.53	22.222
858.83	29.630
859.13	13.636
859.42	4.348
859.72	-100.000
860.01	-266.667
860.31	28.000
860.60	-4.762
860.90	33.333
861.20	-73.333
861.49	-350.000
861.79	-6.667
862.08	20.000
862.38	66.667
862.67	40.000
862.97	0.000
863.26	-25.000
863.56	-55.556
863.85	-466.667
864.15	-16.667
864.44	-20.000
864.74	-7.143
865.03	375.000
865.33	-240.000
865.62	83.333
865.92	66.667
866.21	66.667
866.51	6.250
866.80	-18.182
867.10	-150.000
867.39	66.667
867.69	0.000
867.98	7.692
868.27	-200.000
868.57	-13.333
868.86	77.778
869.16	-46.154
869.45	53.333
869.75	-200.000
870.04	0.000
870.33	-85.714
870.63	4.762
870.92	400.000
871.22	-240.000
871.51	-600.000
871.80	22.222
872.10	133.333
>>>>>End Processed Spectral Data<<<<<
