SpectraSuite Data File
++++++++++++++++++++++++++++++++++++
Date: Fri May 15 20:55:19 PDT 2015
User: schluterlab
Dark Spectrum Present: Yes
Reference Spectrum Present: Yes
Number of Sampled Component Spectra: 1
Spectrometers: USB2E3373
Integration Time (usec): 3000 (USB2E3373)
Spectra Averaged: 3 (USB2E3373)
Boxcar Smoothing: 0 (USB2E3373)
Correct for Electrical Dark: No (USB2E3373)
Strobe/Lamp Enabled: No (USB2E3373)
Correct for Detector Non-linearity: No (USB2E3373)
Correct for Stray Light: No (USB2E3373)
Number of Pixels in Processed Spectrum: 2048
>>>>>Begin Processed Spectral Data<<<<<
178.53	0.000
178.91	0.000
179.29	-62.500
179.67	-300.000
180.04	114.286
180.42	25.000
180.80	200.000
181.18	-200.000
181.56	400.000
181.94	100.000
182.31	700.000
182.69	20.000
183.07	-133.333
183.45	-200.000
183.83	216.667
184.20	9.091
184.58	111.111
184.96	-100.000
185.34	200.000
185.72	-500.000
186.09	76.923
186.47	0.000
186.85	133.333
187.23	88.889
187.61	-300.000
187.98	-100.000
188.36	11.111
188.74	-400.000
189.12	23.529
189.49	27.778
189.87	0.000
190.25	128.571
190.63	150.000
191.00	100.000
191.38	21.053
191.76	100.000
192.14	100.000
192.51	50.000
192.89	-111.111
193.27	28.571
193.65	83.333
194.02	172.727
194.40	0.000
194.78	-137.500
195.15	-50.000
195.53	-87.500
195.91	300.000
196.29	-100.000
196.66	161.538
197.04	85.714
197.42	-33.333
197.79	-466.667
198.17	-30.769
198.55	1000.000
198.92	100.000
199.30	300.000
199.68	0.000
200.05	-500.000
200.43	0.000
200.81	-133.333
201.18	-33.333
201.56	800.000
201.94	-250.000
202.31	-133.333
202.69	0.000
203.07	300.000
203.44	100.000
203.82	0.000
204.19	14.286
204.57	-533.333
204.95	112.500
205.32	80.000
205.70	-28.571
206.08	-200.000
206.45	111.111
206.83	85.714
207.20	-57.143
207.58	1100.000
207.96	-233.333
208.33	-40.000
208.71	125.000
209.08	-150.000
209.46	-300.000
209.84	-180.000
210.21	-1800.000
210.59	71.429
210.96	-33.333
211.34	100.000
211.71	73.333
212.09	-157.143
212.46	-1500.000
212.84	0.000
213.22	20.000
213.59	600.000
213.97	15.385
214.34	-9.091
214.72	-83.333
215.09	200.000
215.47	7.692
215.84	-81.818
216.22	33.333
216.59	0.000
216.97	750.000
217.34	150.000
217.72	-200.000
218.09	-12.500
218.47	137.500
218.84	-1100.000
219.22	-144.444
219.59	140.000
219.97	266.667
220.34	150.000
220.72	14.286
221.09	-400.000
221.47	100.000
221.84	-800.000
222.22	-550.000
222.59	63.636
222.97	-91.667
223.34	-200.000
223.72	-64.286
224.09	-38.095
224.46	21.429
224.84	400.000
225.21	70.000
225.59	86.667
225.96	-300.000
226.34	175.000
226.71	57.143
227.08	-100.000
227.46	-50.000
227.83	-550.000
228.21	-77.778
228.58	-63.636
228.95	-87.500
229.33	100.000
229.70	-31.250
230.08	25.000
230.45	-214.286
230.82	-71.429
231.20	-60.000
231.57	50.000
231.95	71.429
232.32	-60.000
232.69	57.143
233.07	-66.667
233.44	80.000
233.81	30.000
234.19	55.556
234.56	0.000
234.93	450.000
235.31	25.000
235.68	-160.000
236.05	-23.077
236.43	25.000
236.80	0.000
237.17	0.000
237.55	-15.000
237.92	-25.926
238.29	8.333
238.67	46.667
239.04	0.000
239.41	-9.756
239.79	10.000
240.16	51.220
240.53	21.053
240.91	28.261
241.28	26.984
241.65	17.857
242.02	34.247
242.40	21.667
242.77	28.814
243.14	21.212
243.51	33.750
243.89	27.586
244.26	18.391
244.63	40.476
245.00	26.804
245.38	16.495
245.75	29.213
246.12	26.724
246.49	32.231
246.87	32.692
247.24	22.689
247.61	31.579
247.98	21.951
248.36	25.000
248.73	19.737
249.10	31.169
249.47	27.215
249.84	21.569
250.22	27.647
250.59	34.641
250.96	33.333
251.33	27.907
251.70	24.118
252.08	26.396
252.45	26.733
252.82	26.633
253.19	28.111
253.56	18.692
253.94	30.631
254.31	29.130
254.68	31.140
255.05	25.591
255.42	27.948
255.79	28.571
256.16	24.514
256.54	29.478
256.91	24.715
257.28	25.279
257.65	24.345
258.02	26.596
258.39	25.926
258.76	33.700
259.14	27.907
259.51	26.861
259.88	25.086
260.25	28.431
260.62	35.069
260.99	26.441
261.36	25.685
261.73	31.013
262.10	31.003
262.47	27.914
262.85	25.705
263.22	24.615
263.59	29.595
263.96	31.056
264.33	26.364
264.70	30.060
265.07	26.786
265.44	27.762
265.81	26.554
266.18	29.235
266.55	24.936
266.92	27.461
267.29	26.632
267.66	26.343
268.03	27.487
268.40	29.504
268.77	32.353
269.14	27.098
269.51	30.334
269.88	28.678
270.25	25.000
270.62	24.390
270.99	26.854
271.36	26.895
271.73	27.230
272.10	25.547
272.47	27.423
272.84	27.475
273.21	27.842
273.58	30.120
273.95	27.460
274.32	27.252
274.69	23.529
275.06	26.786
275.43	26.984
275.80	27.594
276.17	25.747
276.54	25.054
276.91	28.070
277.28	27.074
277.65	27.686
278.02	25.957
278.39	28.665
278.76	26.625
279.13	25.934
279.50	27.941
279.87	28.294
280.23	26.022
280.60	31.579
280.97	27.475
281.34	25.385
281.71	26.899
282.08	27.403
282.45	27.593
282.82	25.290
283.19	26.499
283.56	26.975
283.92	25.047
284.29	24.808
284.66	24.806
285.03	25.540
285.40	24.953
285.77	23.374
286.14	23.827
286.51	27.675
286.87	22.303
287.24	25.046
287.61	23.457
287.98	25.965
288.35	24.610
288.72	26.095
289.08	24.479
289.45	26.186
289.82	24.301
290.19	24.232
290.56	24.185
290.93	23.401
291.29	21.726
291.66	23.150
292.03	24.242
292.40	23.387
292.77	22.648
293.13	18.182
293.50	21.396
293.87	21.527
294.24	21.638
294.60	20.715
294.97	20.536
295.34	21.319
295.71	21.759
296.08	20.179
296.44	19.061
296.81	18.889
297.18	21.014
297.55	22.222
297.91	20.137
298.28	19.789
298.65	19.539
299.02	19.272
299.38	16.963
299.75	20.138
300.12	17.932
300.48	18.050
300.85	18.631
301.22	18.442
301.59	18.684
301.95	19.114
302.32	20.104
302.69	19.527
303.05	19.183
303.42	19.552
303.79	19.860
304.15	19.355
304.52	18.549
304.89	18.246
305.25	16.707
305.62	18.786
305.99	18.246
306.35	18.035
306.72	17.435
307.09	19.270
307.45	19.059
307.82	18.056
308.19	17.538
308.55	18.430
308.92	19.499
309.29	17.095
309.65	17.976
310.02	17.602
310.38	17.673
310.75	19.563
311.12	18.084
311.48	16.861
311.85	17.801
312.22	17.827
312.58	20.064
312.95	18.036
313.31	18.427
313.68	18.534
314.05	18.776
314.41	19.072
314.78	20.000
315.14	20.966
315.51	20.083
315.87	19.365
316.24	21.537
316.61	21.555
316.97	21.131
317.34	21.387
317.70	21.319
318.07	23.173
318.43	23.529
318.80	24.242
319.16	24.023
319.53	25.166
319.89	25.591
320.26	25.304
320.62	27.382
320.99	24.843
321.35	28.674
321.72	28.868
322.08	29.507
322.45	29.137
322.81	29.175
323.18	30.324
323.54	30.502
323.91	31.159
324.27	31.836
324.64	33.989
325.00	35.128
325.37	36.639
325.73	36.174
326.10	38.147
326.46	38.744
326.83	38.495
327.19	40.017
327.56	40.921
327.92	42.606
328.29	40.357
328.65	42.264
329.01	43.658
329.38	44.793
329.74	44.193
330.11	43.744
330.47	45.547
330.84	45.865
331.20	48.479
331.56	46.019
331.93	49.315
332.29	50.687
332.66	48.959
333.02	49.071
333.38	47.204
333.75	49.634
334.11	49.150
334.48	50.952
334.84	49.725
335.20	51.876
335.57	50.861
335.93	51.039
336.29	51.934
336.66	51.226
337.02	52.045
337.38	51.019
337.75	54.000
338.11	52.480
338.47	53.832
338.84	54.621
339.20	53.565
339.56	54.220
339.93	53.626
340.29	54.220
340.65	54.749
341.02	55.230
341.38	53.805
341.74	51.767
342.11	54.159
342.47	56.406
342.83	54.585
343.20	55.052
343.56	56.174
343.92	55.624
344.28	56.106
344.65	56.477
345.01	57.217
345.37	55.425
345.73	56.151
346.10	57.377
346.46	56.266
346.82	55.974
347.19	55.445
347.55	57.811
347.91	56.715
348.27	56.023
348.63	57.581
349.00	57.014
349.36	58.271
349.72	58.375
350.08	56.311
350.45	57.702
350.81	58.306
351.17	56.270
351.53	57.469
351.89	57.308
352.26	56.160
352.62	58.710
352.98	56.225
353.34	56.039
353.70	58.010
354.07	59.113
354.43	59.007
354.79	59.538
355.15	58.254
355.51	59.889
355.87	58.576
356.24	57.912
356.60	60.226
356.96	61.032
357.32	58.866
357.68	58.405
358.04	60.097
358.40	60.852
358.77	60.447
359.13	61.569
359.49	59.322
359.85	61.154
360.21	60.287
360.57	59.296
360.93	60.893
361.29	59.063
361.66	61.834
362.02	61.742
362.38	61.310
362.74	61.696
363.10	61.926
363.46	60.934
363.82	60.556
364.18	61.255
364.54	60.882
364.90	63.369
365.26	61.281
365.62	62.336
365.98	61.437
366.35	63.729
366.71	63.415
367.07	63.425
367.43	62.976
367.79	62.403
368.15	62.455
368.51	64.312
368.87	62.383
369.23	62.744
369.59	64.577
369.95	65.249
370.31	63.584
370.67	65.075
371.03	62.211
371.39	63.457
371.75	63.883
372.11	64.907
372.47	64.645
372.83	63.804
373.19	63.552
373.55	62.960
373.91	64.075
374.27	65.627
374.63	65.398
374.99	64.823
375.35	65.390
375.71	65.944
376.07	66.222
376.42	65.034
376.78	65.436
377.14	65.200
377.50	65.936
377.86	65.930
378.22	65.412
378.58	66.282
378.94	65.280
379.30	66.064
379.66	66.395
380.02	65.420
380.38	66.220
380.74	64.572
381.09	66.258
381.45	65.382
381.81	66.687
382.17	66.688
382.53	67.645
382.89	67.546
383.25	68.326
383.61	68.110
383.97	67.810
384.32	67.042
384.68	67.307
385.04	65.931
385.40	66.957
385.76	69.686
386.12	68.887
386.48	69.540
386.83	67.153
387.19	67.643
387.55	69.511
387.91	69.071
388.27	65.995
388.62	68.974
388.98	68.754
389.34	67.083
389.70	68.863
390.06	66.016
390.42	69.624
390.77	68.149
391.13	67.844
391.49	69.017
391.85	70.175
392.20	67.797
392.56	68.468
392.92	68.409
393.28	68.986
393.64	68.529
393.99	69.091
394.35	70.082
394.71	70.115
395.07	67.002
395.42	69.642
395.78	69.967
396.14	68.474
396.50	69.562
396.85	69.865
397.21	67.920
397.57	68.464
397.92	68.544
398.28	68.736
398.64	67.048
399.00	69.470
399.35	67.664
399.71	66.513
400.07	68.319
400.42	67.381
400.78	68.463
401.14	68.300
401.49	69.267
401.85	69.470
402.21	67.349
402.57	68.312
402.92	67.315
403.28	68.296
403.63	68.979
403.99	68.495
404.35	68.707
404.70	68.274
405.06	68.684
405.42	68.738
405.77	68.332
406.13	67.520
406.49	67.022
406.84	68.826
407.20	67.008
407.55	66.645
407.91	68.382
408.27	66.221
408.62	67.323
408.98	67.344
409.34	67.534
409.69	66.085
410.05	66.626
410.40	67.346
410.76	67.370
411.11	66.687
411.47	67.258
411.83	66.290
412.18	68.790
412.54	66.417
412.89	65.702
413.25	67.690
413.60	67.205
413.96	65.767
414.31	66.402
414.67	65.683
415.03	66.178
415.38	65.013
415.74	67.101
416.09	66.884
416.45	66.509
416.80	66.028
417.16	67.196
417.51	67.355
417.87	66.297
418.22	65.997
418.58	67.291
418.93	66.771
419.29	65.365
419.64	66.559
420.00	67.191
420.35	65.731
420.71	65.978
421.06	66.114
421.42	65.745
421.77	66.705
422.12	65.323
422.48	65.836
422.83	65.197
423.19	65.858
423.54	65.021
423.90	64.075
424.25	66.188
424.61	65.789
424.96	64.228
425.31	65.916
425.67	65.552
426.02	66.254
426.38	65.811
426.73	66.404
427.09	66.582
427.44	65.294
427.79	65.645
428.15	65.716
428.50	66.323
428.85	64.742
429.21	64.403
429.56	67.547
429.92	64.818
430.27	63.509
430.62	65.604
430.98	64.597
431.33	64.932
431.68	63.946
432.04	64.785
432.39	64.803
432.74	64.101
433.10	65.057
433.45	64.098
433.80	65.932
434.16	64.266
434.51	64.355
434.86	65.447
435.22	65.115
435.57	64.379
435.92	65.928
436.28	63.148
436.63	64.005
436.98	64.253
437.34	64.307
437.69	65.295
438.04	64.729
438.39	63.042
438.75	65.574
439.10	64.063
439.45	63.238
439.81	63.609
440.16	64.371
440.51	64.060
440.86	64.532
441.22	62.726
441.57	64.901
441.92	63.169
442.27	63.914
442.63	64.561
442.98	63.527
443.33	62.994
443.68	62.918
444.03	64.878
444.39	63.355
444.74	65.273
445.09	64.031
445.44	63.419
445.79	64.466
446.15	62.004
446.50	63.228
446.85	64.187
447.20	62.982
447.55	63.225
447.91	62.437
448.26	62.721
448.61	63.385
448.96	64.200
449.31	62.139
449.66	63.821
450.02	61.780
450.37	62.893
450.72	63.230
451.07	62.848
451.42	61.361
451.77	61.965
452.12	61.184
452.47	62.524
452.83	62.014
453.18	61.607
453.53	62.073
453.88	61.688
454.23	60.971
454.58	62.028
454.93	61.340
455.28	60.508
455.63	62.058
455.98	60.493
456.34	61.558
456.69	62.516
457.04	61.752
457.39	61.422
457.74	61.004
458.09	59.741
458.44	59.918
458.79	61.120
459.14	61.156
459.49	61.134
459.84	60.011
460.19	59.163
460.54	60.086
460.89	60.000
461.24	60.559
461.59	58.907
461.94	58.302
462.29	59.831
462.64	59.003
462.99	59.445
463.34	59.040
463.69	58.559
464.04	60.048
464.39	58.824
464.74	58.712
465.09	59.701
465.44	57.819
465.79	57.313
466.14	58.837
466.49	57.907
466.84	58.001
467.19	57.071
467.54	57.344
467.89	57.802
468.24	56.630
468.59	57.651
468.94	57.333
469.29	57.770
469.64	57.553
469.99	58.444
470.34	56.246
470.68	58.315
471.03	57.325
471.38	56.419
471.73	57.143
472.08	57.056
472.43	56.107
472.78	57.094
473.13	56.735
473.48	55.570
473.83	55.230
474.17	57.319
474.52	55.392
474.87	56.303
475.22	55.217
475.57	55.054
475.92	56.555
476.27	56.054
476.61	56.134
476.96	53.430
477.31	55.273
477.66	54.101
478.01	55.138
478.36	54.194
478.70	54.867
479.05	54.341
479.40	54.955
479.75	54.067
480.10	54.480
480.45	54.150
480.79	55.589
481.14	53.996
481.49	54.138
481.84	53.475
482.19	52.947
482.53	53.861
482.88	53.174
483.23	52.207
483.58	52.972
483.92	53.195
484.27	52.416
484.62	52.443
484.97	52.239
485.31	51.698
485.66	51.666
486.01	52.347
486.36	52.028
486.70	52.847
487.05	52.111
487.40	50.982
487.75	51.268
488.09	50.278
488.44	50.034
488.79	50.467
489.13	51.362
489.48	50.876
489.83	51.390
490.17	50.382
490.52	50.115
490.87	50.393
491.22	50.764
491.56	51.233
491.91	49.379
492.26	50.122
492.60	50.384
492.95	50.812
493.30	49.194
493.64	50.835
493.99	50.290
494.34	49.563
494.68	48.714
495.03	48.564
495.37	48.773
495.72	50.480
496.07	49.171
496.41	49.387
496.76	49.608
497.11	48.859
497.45	49.451
497.80	49.092
498.14	47.889
498.49	49.060
498.84	49.102
499.18	48.293
499.53	48.165
499.87	48.200
500.22	48.318
500.56	47.403
500.91	48.143
501.26	47.405
501.60	47.959
501.95	48.278
502.29	46.973
502.64	48.166
502.98	48.298
503.33	46.590
503.67	46.120
504.02	46.432
504.36	47.947
504.71	46.263
505.06	46.653
505.40	46.091
505.75	47.784
506.09	47.238
506.44	48.922
506.78	46.480
507.13	47.053
507.47	46.684
507.82	46.421
508.16	47.121
508.51	47.849
508.85	47.671
509.19	46.514
509.54	46.488
509.88	45.523
510.23	45.992
510.57	46.446
510.92	44.670
511.26	45.827
511.61	46.865
511.95	46.247
512.30	46.120
512.64	44.240
512.98	45.368
513.33	45.271
513.67	44.343
514.02	46.568
514.36	44.743
514.70	47.203
515.05	46.240
515.39	45.809
515.74	46.108
516.08	45.607
516.42	47.173
516.77	44.880
517.11	45.104
517.46	45.482
517.80	45.709
518.14	45.928
518.49	43.510
518.83	43.621
519.17	44.997
519.52	44.227
519.86	44.598
520.20	44.775
520.55	42.964
520.89	44.354
521.23	43.699
521.58	44.353
521.92	44.103
522.26	43.266
522.61	44.351
522.95	45.828
523.29	44.346
523.64	44.346
523.98	43.746
524.32	43.686
524.66	44.110
525.01	44.026
525.35	43.163
525.69	43.367
526.04	42.196
526.38	43.385
526.72	43.427
527.06	43.061
527.41	43.668
527.75	43.365
528.09	42.591
528.43	43.552
528.78	43.234
529.12	43.742
529.46	42.170
529.80	42.179
530.15	43.696
530.49	43.232
530.83	43.639
531.17	41.504
531.51	42.818
531.86	42.760
532.20	41.893
532.54	41.661
532.88	43.806
533.22	42.137
533.57	42.857
533.91	42.885
534.25	43.034
534.59	41.822
534.93	42.165
535.27	41.434
535.62	41.996
535.96	42.140
536.30	43.008
536.64	40.662
536.98	41.882
537.32	40.967
537.66	43.268
538.01	42.867
538.35	42.164
538.69	40.812
539.03	39.713
539.37	41.117
539.71	41.854
540.05	40.597
540.39	41.066
540.73	41.074
541.07	41.644
541.42	40.524
541.76	42.051
542.10	40.743
542.44	41.279
542.78	39.160
543.12	41.209
543.46	40.612
543.80	41.430
544.14	39.386
544.48	40.240
544.82	40.738
545.16	42.555
545.50	41.389
545.84	41.218
546.18	41.773
546.52	39.726
546.86	39.827
547.20	40.486
547.54	37.809
547.88	40.625
548.22	39.448
548.56	39.182
548.90	40.296
549.24	38.912
549.58	38.575
549.92	38.099
550.26	39.048
550.60	39.628
550.94	38.835
551.28	39.258
551.62	39.615
551.96	39.699
552.30	38.377
552.64	39.210
552.98	39.944
553.32	38.516
553.66	38.679
554.00	39.270
554.34	39.143
554.68	38.201
555.02	38.021
555.36	38.594
555.69	38.315
556.03	38.330
556.37	38.719
556.71	37.834
557.05	38.852
557.39	37.546
557.73	38.306
558.07	38.839
558.41	38.438
558.75	37.646
559.08	39.086
559.42	38.651
559.76	38.991
560.10	38.761
560.44	37.156
560.78	38.462
561.12	38.646
561.45	38.159
561.79	37.815
562.13	38.112
562.47	37.914
562.81	38.473
563.15	38.787
563.48	38.472
563.82	37.474
564.16	38.092
564.50	37.162
564.84	37.818
565.17	36.687
565.51	38.593
565.85	38.615
566.19	36.538
566.52	38.539
566.86	37.982
567.20	36.613
567.54	38.382
567.88	39.367
568.21	38.292
568.55	36.902
568.89	38.039
569.23	37.602
569.56	38.004
569.90	38.530
570.24	37.179
570.57	38.109
570.91	37.679
571.25	36.962
571.59	37.122
571.92	36.444
572.26	36.624
572.60	36.279
572.93	36.084
573.27	36.270
573.61	36.366
573.95	37.220
574.28	36.679
574.62	36.562
574.96	36.549
575.29	36.143
575.63	35.501
575.97	35.674
576.30	36.407
576.64	35.258
576.98	37.117
577.31	36.815
577.65	36.835
577.98	36.496
578.32	36.225
578.66	35.289
578.99	35.915
579.33	35.199
579.67	35.024
580.00	35.873
580.34	35.398
580.67	34.545
581.01	35.831
581.35	35.530
581.68	35.997
582.02	35.805
582.35	35.896
582.69	36.112
583.02	35.463
583.36	35.131
583.70	35.748
584.03	35.363
584.37	35.432
584.70	35.192
585.04	34.352
585.37	35.135
585.71	35.004
586.04	35.149
586.38	34.916
586.72	35.438
587.05	35.500
587.39	35.337
587.72	35.976
588.06	35.206
588.39	35.175
588.73	35.073
589.06	35.095
589.40	35.430
589.73	35.414
590.07	35.650
590.40	34.868
590.73	35.791
591.07	35.539
591.40	35.619
591.74	35.294
592.07	35.019
592.41	35.689
592.74	34.767
593.08	33.915
593.41	35.157
593.75	34.544
594.08	34.089
594.41	34.789
594.75	34.198
595.08	34.166
595.42	34.928
595.75	34.998
596.09	34.754
596.42	34.601
596.75	35.124
597.09	34.533
597.42	34.688
597.75	33.944
598.09	33.182
598.42	33.529
598.76	33.719
599.09	34.295
599.42	33.156
599.76	33.634
600.09	33.786
600.42	34.003
600.76	33.618
601.09	33.244
601.42	33.412
601.76	33.744
602.09	32.591
602.42	34.078
602.76	33.489
603.09	33.762
603.42	35.493
603.76	33.387
604.09	34.265
604.42	33.587
604.76	34.001
605.09	33.547
605.42	33.950
605.75	32.750
606.09	33.291
606.42	33.111
606.75	33.117
607.09	33.407
607.42	33.141
607.75	33.837
608.08	32.974
608.42	32.983
608.75	32.867
609.08	33.084
609.41	32.843
609.75	33.417
610.08	33.749
610.41	32.464
610.74	33.155
611.07	33.592
611.41	33.679
611.74	34.115
612.07	32.869
612.40	33.206
612.73	32.542
613.07	33.127
613.40	32.549
613.73	32.792
614.06	33.389
614.39	32.826
614.72	32.829
615.06	32.514
615.39	31.878
615.72	32.670
616.05	34.246
616.38	31.168
616.71	32.661
617.05	32.983
617.38	31.867
617.71	32.830
618.04	33.270
618.37	32.913
618.70	33.465
619.03	33.958
619.36	30.970
619.69	32.828
620.03	32.944
620.36	33.333
620.69	33.476
621.02	31.422
621.35	33.029
621.68	31.888
622.01	33.250
622.34	32.961
622.67	32.729
623.00	32.466
623.33	31.707
623.66	32.536
623.99	32.980
624.32	32.243
624.65	32.707
624.99	32.656
625.32	32.070
625.65	33.150
625.98	32.635
626.31	31.671
626.64	32.669
626.97	32.024
627.30	31.786
627.63	32.496
627.96	32.165
628.29	31.267
628.62	33.628
628.95	32.766
629.28	33.770
629.61	32.403
629.94	31.085
630.26	31.522
630.59	34.131
630.92	32.103
631.25	29.744
631.58	32.709
631.91	31.469
632.24	32.454
632.57	32.500
632.90	30.605
633.23	32.353
633.56	32.368
633.89	31.936
634.22	33.580
634.55	31.004
634.88	30.779
635.20	31.026
635.53	31.200
635.86	31.339
636.19	32.730
636.52	31.505
636.85	30.893
637.18	32.579
637.51	31.950
637.83	30.092
638.16	31.105
638.49	30.381
638.82	31.447
639.15	29.579
639.48	30.399
639.81	31.939
640.13	30.592
640.46	30.029
640.79	30.486
641.12	32.792
641.45	31.832
641.77	31.111
642.10	31.912
642.43	32.637
642.76	31.353
643.09	30.695
643.41	30.583
643.74	29.984
644.07	31.034
644.40	30.236
644.73	30.123
645.05	31.879
645.38	30.688
645.71	32.801
646.04	30.700
646.36	31.206
646.69	32.014
647.02	30.624
647.35	30.970
647.67	29.250
648.00	32.090
648.33	31.399
648.66	31.864
648.98	27.806
649.31	30.744
649.64	30.612
649.96	30.146
650.29	32.538
650.62	31.795
650.94	28.704
651.27	29.423
651.60	31.171
651.92	29.371
652.25	27.353
652.58	32.500
652.90	30.017
653.23	30.420
653.56	27.242
653.88	30.069
654.21	28.196
654.54	29.202
654.86	30.560
655.19	30.994
655.52	33.669
655.84	32.209
656.17	35.459
656.49	47.851
656.82	47.964
657.15	35.929
657.47	26.693
657.80	19.419
658.13	18.737
658.45	28.148
658.78	27.404
659.10	26.908
659.43	26.908
659.75	26.986
660.08	26.000
660.41	27.988
660.73	27.348
661.06	28.769
661.38	27.006
661.71	27.105
662.03	28.326
662.36	27.692
662.68	25.885
663.01	30.349
663.33	28.074
663.66	28.372
663.98	29.302
664.31	28.998
664.63	25.806
664.96	25.435
665.28	26.049
665.61	25.974
665.93	28.478
666.26	28.633
666.58	29.083
666.91	25.176
667.23	28.538
667.56	27.962
667.88	29.257
668.21	30.072
668.53	27.896
668.86	28.538
669.18	25.000
669.50	30.266
669.83	27.674
670.15	31.235
670.48	28.708
670.80	28.111
671.13	27.293
671.45	26.256
671.77	31.545
672.10	28.119
672.42	27.341
672.75	30.373
673.07	29.517
673.39	28.440
673.72	25.444
674.04	26.250
674.37	28.814
674.69	26.981
675.01	28.222
675.34	27.928
675.66	30.093
675.98	27.716
676.31	28.211
676.63	28.029
676.95	26.136
677.28	32.941
677.60	31.325
677.92	27.064
678.25	27.133
678.57	26.407
678.89	26.471
679.22	29.754
679.54	28.112
679.86	27.833
680.18	25.825
680.51	29.167
680.83	25.845
681.15	27.000
681.48	31.557
681.80	28.926
682.12	28.024
682.44	28.452
682.77	28.918
683.09	28.375
683.41	25.455
683.73	28.571
684.06	28.097
684.38	25.806
684.70	30.501
685.02	28.216
685.34	26.680
685.67	23.640
685.99	27.486
686.31	28.673
686.63	27.829
686.96	27.947
687.28	25.455
687.60	26.806
687.92	31.313
688.24	25.605
688.56	26.638
688.89	25.446
689.21	28.000
689.53	25.058
689.85	27.674
690.17	27.902
690.49	26.241
690.82	26.456
691.14	27.619
691.46	27.804
691.78	28.153
692.10	28.172
692.42	28.788
692.74	28.846
693.06	26.351
693.39	26.923
693.71	26.244
694.03	25.404
694.35	28.972
694.67	29.545
694.99	25.849
695.31	27.937
695.63	25.750
695.95	26.263
696.27	27.202
696.59	24.444
696.91	31.092
697.23	27.249
697.56	28.713
697.88	28.172
698.20	23.462
698.52	27.529
698.84	25.120
699.16	23.500
699.48	26.817
699.80	26.303
700.12	25.876
700.44	26.331
700.76	23.256
701.08	23.636
701.40	26.807
701.72	30.247
702.04	27.393
702.36	29.766
702.68	26.126
703.00	29.394
703.32	25.513
703.64	25.424
703.96	27.536
704.28	25.767
704.60	24.444
704.91	23.028
705.23	25.914
705.55	28.622
705.87	28.159
706.19	23.333
706.51	28.179
706.83	29.582
707.15	22.430
707.47	25.210
707.79	22.396
708.11	29.250
708.43	26.000
708.74	28.424
709.06	30.704
709.38	27.829
709.70	30.178
710.02	25.478
710.34	28.173
710.66	21.795
710.98	24.172
711.29	25.574
711.61	24.068
711.93	27.362
712.25	27.148
712.57	26.374
712.89	23.881
713.20	29.758
713.52	26.481
713.84	26.962
714.16	27.491
714.48	30.000
714.80	27.885
715.11	27.052
715.43	23.824
715.75	27.667
716.07	24.252
716.39	22.148
716.70	22.878
717.02	19.847
717.34	25.101
717.66	26.991
717.97	26.087
718.29	30.962
718.61	26.772
718.93	21.318
719.24	28.137
719.56	24.096
719.88	22.680
720.20	28.030
720.51	20.307
720.83	21.622
721.15	27.731
721.46	22.581
721.78	19.763
722.10	24.907
722.42	26.141
722.73	31.429
723.05	26.939
723.37	30.508
723.68	27.477
724.00	23.932
724.32	24.889
724.63	20.000
724.95	27.511
725.27	24.885
725.58	26.695
725.90	19.841
726.22	30.116
726.53	26.102
726.85	25.094
727.16	26.415
727.48	18.219
727.80	22.672
728.11	23.729
728.43	20.784
728.74	21.774
729.06	21.600
729.38	30.827
729.69	22.311
730.01	21.923
730.32	27.985
730.64	26.502
730.96	25.660
731.27	23.333
731.59	24.746
731.90	24.841
732.22	28.076
732.53	26.578
732.85	21.986
733.16	25.253
733.48	19.065
733.80	25.725
734.11	25.424
734.43	26.804
734.74	23.636
735.06	23.127
735.37	29.909
735.69	26.599
736.00	24.390
736.32	24.832
736.63	26.056
736.95	22.867
737.26	20.996
737.58	23.826
737.89	23.077
738.21	24.436
738.52	26.337
738.83	24.017
739.15	26.201
739.46	30.709
739.78	23.443
740.09	26.471
740.41	24.638
740.72	20.472
741.04	25.911
741.35	20.851
741.66	25.118
741.98	23.469
742.29	19.802
742.61	24.607
742.92	17.536
743.23	18.519
743.55	26.244
743.86	27.273
744.18	25.359
744.49	25.000
744.80	19.022
745.12	28.877
745.43	20.000
745.74	24.479
746.06	23.415
746.37	26.178
746.68	24.171
747.00	26.064
747.31	27.861
747.62	21.359
747.94	25.837
748.25	25.248
748.56	23.497
748.88	24.607
749.19	27.128
749.50	23.153
749.82	21.226
750.13	19.725
750.44	25.188
750.75	27.612
751.07	28.832
751.38	26.054
751.69	23.922
752.01	28.682
752.32	26.295
752.63	22.134
752.94	23.276
753.26	30.544
753.57	19.910
753.88	25.221
754.19	24.167
754.51	20.661
754.82	23.887
755.13	26.667
755.44	23.387
755.75	25.000
756.07	22.568
756.38	23.019
756.69	26.820
757.00	23.667
757.31	22.222
757.63	25.000
757.94	24.167
758.25	21.370
758.56	22.606
758.87	21.813
759.18	23.676
759.50	23.273
759.81	22.742
760.12	20.645
760.43	25.152
760.74	23.457
761.05	25.231
761.36	22.159
761.67	26.364
761.99	25.510
762.30	21.091
762.61	26.087
762.92	28.054
763.23	19.369
763.54	20.093
763.85	23.729
764.16	22.407
764.47	25.806
764.78	23.810
765.10	25.926
765.41	23.659
765.72	25.397
766.03	20.301
766.34	25.182
766.65	27.888
766.96	27.778
767.27	19.681
767.58	16.092
767.89	27.660
768.20	21.591
768.51	19.231
768.82	21.182
769.13	17.051
769.44	24.034
769.75	24.658
770.06	21.121
770.37	18.750
770.68	20.305
770.99	23.077
771.30	27.941
771.61	26.697
771.92	21.983
772.23	24.631
772.54	28.495
772.85	23.457
773.16	25.843
773.47	29.412
773.78	24.183
774.09	30.539
774.39	22.667
774.70	18.471
775.01	24.138
775.32	25.714
775.63	11.570
775.94	19.084
776.25	19.685
776.56	13.333
776.87	15.385
777.18	24.786
777.48	30.172
777.79	13.043
778.10	6.667
778.41	17.117
778.72	24.603
779.03	15.038
779.34	26.241
779.65	28.767
779.95	22.603
780.26	22.069
780.57	21.138
780.88	22.835
781.19	18.103
781.50	17.829
781.80	18.935
782.11	20.755
782.42	25.385
782.73	23.022
783.04	22.222
783.34	18.056
783.65	2.564
783.96	15.574
784.27	30.345
784.57	15.447
784.88	18.750
785.19	16.000
785.50	28.000
785.81	21.552
786.11	12.069
786.42	22.330
786.73	23.636
787.04	14.286
787.34	25.000
787.65	25.714
787.96	15.044
788.26	23.636
788.57	11.111
788.88	23.438
789.19	16.667
789.49	16.522
789.80	24.490
790.11	19.192
790.41	20.909
790.72	28.261
791.03	23.864
791.33	22.500
791.64	11.250
791.95	23.256
792.25	27.660
792.56	25.843
792.87	4.110
793.17	5.797
793.48	17.333
793.79	13.750
794.09	38.750
794.40	16.038
794.70	22.330
795.01	15.447
795.32	19.658
795.62	18.095
795.93	30.392
796.23	19.811
796.54	20.833
796.85	26.471
797.15	14.085
797.46	27.778
797.76	19.697
798.07	26.744
798.37	13.158
798.68	13.636
798.99	13.580
799.29	20.000
799.60	11.594
799.90	21.333
800.21	16.393
800.51	24.615
800.82	6.780
801.12	14.493
801.43	11.475
801.73	14.286
802.04	14.000
802.34	10.448
802.65	15.385
802.95	-14.286
803.26	13.462
803.56	29.412
803.87	-6.522
804.17	22.667
804.48	30.159
804.78	0.000
805.09	19.565
805.39	8.889
805.70	18.519
806.00	-3.509
806.30	22.535
806.61	17.143
806.91	6.944
807.22	23.684
807.52	24.000
807.83	21.818
808.13	16.667
808.43	27.941
808.74	16.418
809.04	1.695
809.35	15.385
809.65	34.375
809.95	2.703
810.26	4.545
810.56	12.329
810.86	21.429
811.17	14.000
811.47	20.408
811.77	-7.895
812.08	11.364
812.38	9.434
812.69	12.500
812.99	-21.212
813.29	21.053
813.59	-11.429
813.90	34.091
814.20	10.256
814.50	32.692
814.81	18.868
815.11	0.000
815.41	38.983
815.72	19.048
816.02	27.451
816.32	16.667
816.62	7.317
816.93	2.703
817.23	0.000
817.53	20.833
817.84	-8.696
818.14	28.846
818.44	2.632
818.74	15.217
819.04	-5.000
819.35	5.405
819.65	20.588
819.95	11.111
820.25	9.524
820.56	50.000
820.86	-27.586
821.16	45.000
821.46	23.404
821.76	25.000
822.07	2.326
822.37	-16.216
822.67	3.125
822.97	9.524
823.27	3.571
823.57	-12.000
823.88	-22.222
824.18	17.857
824.48	26.471
824.78	35.484
825.08	-8.696
825.38	-6.061
825.69	-29.167
825.99	-2.632
826.29	-13.889
826.59	-53.333
826.89	-14.286
827.19	26.087
827.49	7.500
827.79	28.571
828.09	39.286
828.39	-6.061
828.70	51.351
829.00	25.000
829.30	-90.476
829.60	23.333
829.90	15.625
830.20	-7.895
830.50	18.519
830.80	4.348
831.10	27.273
831.40	24.242
831.70	25.806
832.00	4.762
832.30	14.286
832.60	0.000
832.90	-10.345
833.20	-15.000
833.50	-9.091
833.80	18.519
834.10	23.077
834.40	15.625
834.70	0.000
835.00	-5.263
835.30	38.462
835.60	26.667
835.90	9.677
836.20	4.545
836.50	35.714
836.80	-15.385
837.10	25.000
837.40	-300.000
837.70	54.545
838.00	9.091
838.30	30.435
838.60	46.154
838.90	0.000
839.19	25.000
839.49	6.667
839.79	-53.846
840.09	-25.000
840.39	10.714
840.69	-21.429
840.99	11.538
841.29	-42.105
841.59	-160.000
841.88	-45.455
842.18	-40.000
842.48	31.250
842.78	40.000
843.08	33.333
843.38	-170.000
843.68	21.739
843.97	73.333
844.27	-46.667
844.57	10.000
844.87	-38.889
845.17	-28.571
845.47	46.667
845.76	14.286
846.06	41.176
846.36	-10.000
846.66	-64.286
846.96	0.000
847.25	12.500
847.55	7.143
847.85	50.000
848.15	-50.000
848.44	-366.667
848.74	25.000
849.04	14.815
849.34	0.000
849.63	-183.333
849.93	-240.000
850.23	-27.778
850.53	70.000
850.82	0.000
851.12	-11.111
851.42	26.667
851.71	-11.538
852.01	-50.000
852.31	-200.000
852.61	0.000
852.90	-60.000
853.20	5.263
853.50	-75.000
853.79	17.391
854.09	25.000
854.39	68.421
854.68	12.500
854.98	9.677
855.28	57.692
855.57	15.000
855.87	-16.667
856.17	48.148
856.46	42.857
856.76	20.000
857.05	33.333
857.35	36.000
857.65	0.000
857.94	-7.692
858.24	34.483
858.53	50.000
858.83	25.926
859.13	31.818
859.42	-39.130
859.72	-275.000
860.01	-266.667
860.31	-20.000
860.60	33.333
860.90	-66.667
861.20	-93.333
861.49	-450.000
861.79	0.000
862.08	15.000
862.38	100.000
862.67	-260.000
862.97	-133.333
863.26	41.667
863.56	22.222
863.85	-166.667
864.15	44.444
864.44	-90.000
864.74	85.714
865.03	375.000
865.33	-100.000
865.62	-100.000
865.92	-16.667
866.21	-100.000
866.51	18.750
866.80	-45.455
867.10	-200.000
867.39	16.667
867.69	0.000
867.98	-23.077
868.27	-200.000
868.57	40.000
868.86	-22.222
869.16	-23.077
869.45	13.333
869.75	-1100.000
870.04	0.000
870.33	-57.143
870.63	42.857
870.92	266.667
871.22	-60.000
871.51	-1100.000
871.80	77.778
872.10	700.000
>>>>>End Processed Spectral Data<<<<<
