SpectraSuite Data File
++++++++++++++++++++++++++++++++++++
Date: Fri May 15 20:57:09 PDT 2015
User: schluterlab
Dark Spectrum Present: Yes
Reference Spectrum Present: Yes
Number of Sampled Component Spectra: 1
Spectrometers: USB2E3373
Integration Time (usec): 3000 (USB2E3373)
Spectra Averaged: 3 (USB2E3373)
Boxcar Smoothing: 0 (USB2E3373)
Correct for Electrical Dark: No (USB2E3373)
Strobe/Lamp Enabled: No (USB2E3373)
Correct for Detector Non-linearity: No (USB2E3373)
Correct for Stray Light: No (USB2E3373)
Number of Pixels in Processed Spectrum: 2048
>>>>>Begin Processed Spectral Data<<<<<
178.53	0.000
178.91	0.000
179.29	12.500
179.67	-300.000
180.04	-71.429
180.42	200.000
180.80	0.000
181.18	133.333
181.56	250.000
181.94	-250.000
182.31	900.000
182.69	-40.000
183.07	-366.667
183.45	-100.000
183.83	150.000
184.20	-72.727
184.58	33.333
184.96	-0.000
185.34	133.333
185.72	-450.000
186.09	115.385
186.47	-1000.000
186.85	150.000
187.23	155.556
187.61	500.000
187.98	-166.667
188.36	33.333
188.74	-200.000
189.12	35.294
189.49	5.556
189.87	0.000
190.25	42.857
190.63	450.000
191.00	-333.333
191.38	26.316
191.76	100.000
192.14	275.000
192.51	0.000
192.89	-22.222
193.27	-85.714
193.65	133.333
194.02	63.636
194.40	60.000
194.78	-200.000
195.15	0.000
195.53	-87.500
195.91	125.000
196.29	50.000
196.66	100.000
197.04	228.571
197.42	-111.111
197.79	-466.667
198.17	-107.692
198.55	1300.000
198.92	-300.000
199.30	0.000
199.68	-80.000
200.05	-300.000
200.43	0.000
200.81	200.000
201.18	-266.667
201.56	1200.000
201.94	-300.000
202.31	-0.000
202.69	-60.000
203.07	125.000
203.44	400.000
203.82	0.000
204.19	71.429
204.57	-466.667
204.95	150.000
205.32	70.000
205.70	-85.714
206.08	-300.000
206.45	211.111
206.83	71.429
207.20	-114.286
207.58	800.000
207.96	-66.667
208.33	-290.000
208.71	-375.000
209.08	-300.000
209.46	-500.000
209.84	0.000
210.21	-300.000
210.59	42.857
210.96	-133.333
211.34	25.000
211.71	20.000
212.09	-28.571
212.46	-1600.000
212.84	0.000
213.22	70.000
213.59	350.000
213.97	30.769
214.34	18.182
214.72	-16.667
215.09	550.000
215.47	69.231
215.84	-36.364
216.22	-200.000
216.59	-100.000
216.97	150.000
217.34	-100.000
217.72	-100.000
218.09	50.000
218.47	150.000
218.84	-2000.000
219.22	-44.444
219.59	-20.000
219.97	566.667
220.34	225.000
220.72	-14.286
221.09	50.000
221.47	150.000
221.84	-350.000
222.22	-900.000
222.59	-118.182
222.97	-41.667
223.34	33.333
223.72	-107.143
224.09	0.000
224.46	17.857
224.84	400.000
225.21	-70.000
225.59	46.667
225.96	-200.000
226.34	300.000
226.71	-100.000
227.08	-200.000
227.46	-100.000
227.83	-750.000
228.21	55.556
228.58	0.000
228.95	-12.500
229.33	120.000
229.70	0.000
230.08	-250.000
230.45	-100.000
230.82	42.857
231.20	-6.667
231.57	35.714
231.95	0.000
232.32	-30.000
232.69	-7.143
233.07	-233.333
233.44	-160.000
233.81	40.000
234.19	0.000
234.56	-5.882
234.93	150.000
235.31	100.000
235.68	-320.000
236.05	-100.000
236.43	20.000
236.80	17.647
237.17	15.625
237.55	0.000
237.92	-7.407
238.29	-2.778
238.67	-23.333
239.04	5.882
239.41	-24.390
239.79	-6.667
240.16	29.268
240.53	-10.526
240.91	-15.217
241.28	12.698
241.65	0.000
242.02	19.178
242.40	0.000
242.77	5.085
243.14	-4.545
243.51	22.500
243.89	19.540
244.26	4.598
244.63	13.095
245.00	7.216
245.38	3.093
245.75	6.742
246.12	16.379
246.49	13.223
246.87	15.385
247.24	10.084
247.61	17.544
247.98	17.886
248.36	14.375
248.73	10.526
249.10	9.740
249.47	13.291
249.84	13.072
250.22	15.294
250.59	18.954
250.96	15.493
251.33	14.535
251.70	15.294
252.08	11.675
252.45	18.317
252.82	13.568
253.19	15.668
253.56	8.879
253.94	14.414
254.31	17.391
254.68	18.421
255.05	16.142
255.42	15.284
255.79	17.375
256.16	11.673
256.54	16.045
256.91	17.110
257.28	19.703
257.65	11.985
258.02	16.312
258.39	17.508
258.76	20.879
259.14	18.272
259.51	16.181
259.88	14.433
260.25	16.667
260.62	14.236
260.99	13.220
261.36	14.384
261.73	14.557
262.10	13.374
262.47	15.644
262.85	14.734
263.22	15.692
263.59	18.069
263.96	14.286
264.33	17.576
264.70	14.286
265.07	18.155
265.44	17.564
265.81	16.384
266.18	14.208
266.55	17.481
266.92	19.689
267.29	18.277
267.66	15.857
268.03	12.827
268.40	10.966
268.77	20.856
269.14	17.266
269.51	18.509
269.88	13.217
270.25	16.327
270.62	11.707
270.99	15.601
271.36	14.914
271.73	14.554
272.10	18.005
272.47	15.366
272.84	13.614
273.21	15.777
273.58	17.108
273.95	16.247
274.32	13.857
274.69	13.801
275.06	17.634
275.43	14.966
275.80	14.790
276.17	16.782
276.54	19.058
276.91	15.570
277.28	14.629
277.65	15.083
278.02	15.957
278.39	16.630
278.76	16.562
279.13	13.900
279.50	15.966
279.87	14.903
280.23	14.839
280.60	16.959
280.97	15.556
281.34	12.308
281.71	17.864
282.08	13.292
282.45	14.677
282.82	12.934
283.19	17.215
283.56	14.836
283.92	13.662
284.29	14.615
284.66	15.116
285.03	13.949
285.40	13.800
285.77	13.357
286.14	15.884
286.51	14.760
286.87	14.625
287.24	12.891
287.61	13.757
287.98	16.667
288.35	15.078
288.72	15.412
289.08	13.368
289.45	14.587
289.82	14.161
290.19	12.799
290.56	12.864
290.93	11.953
291.29	12.481
291.66	13.543
292.03	12.121
292.40	13.548
292.77	13.557
293.13	11.526
293.50	9.560
293.87	12.366
294.24	11.901
294.60	13.413
294.97	11.905
295.34	12.577
295.71	12.221
296.08	11.958
296.44	10.100
296.81	10.139
297.18	10.290
297.55	12.331
297.91	13.014
298.28	12.269
298.65	11.533
299.02	12.129
299.38	8.618
299.75	11.172
300.12	10.995
300.48	9.881
300.85	10.773
301.22	11.039
301.59	11.184
301.95	12.278
302.32	13.748
302.69	10.448
303.05	10.891
303.42	10.336
303.79	12.033
304.15	11.589
304.52	9.988
304.89	10.292
305.25	11.622
305.62	10.385
305.99	9.357
306.35	10.289
306.72	9.449
307.09	10.034
307.45	11.251
307.82	10.764
308.19	10.105
308.55	11.123
308.92	10.675
309.29	10.503
309.65	10.118
310.02	10.891
310.38	11.745
310.75	12.131
311.12	11.841
311.48	11.877
311.85	9.738
312.22	11.076
312.58	11.677
312.95	8.858
313.31	9.006
313.68	10.890
314.05	12.041
314.41	12.680
314.78	11.031
315.14	12.230
315.51	12.008
315.87	12.295
316.24	13.246
316.61	13.189
316.97	14.484
317.34	13.965
317.70	14.149
318.07	13.558
318.43	14.804
318.80	14.583
319.16	15.234
319.53	16.239
319.89	16.339
320.26	16.296
320.62	18.756
320.99	18.476
321.35	18.602
321.72	19.938
322.08	19.033
322.45	19.797
322.81	18.861
323.18	20.707
323.54	22.683
323.91	22.298
324.27	23.730
324.64	24.906
325.00	23.996
325.37	26.905
325.73	24.841
326.10	27.339
326.46	28.969
326.83	28.521
327.19	29.119
327.56	29.626
327.92	30.370
328.29	30.179
328.65	33.396
329.01	31.710
329.38	31.982
329.74	32.672
330.11	33.735
330.47	34.323
330.84	34.231
331.20	37.833
331.56	34.907
331.93	35.251
332.29	37.397
332.66	35.928
333.02	36.059
333.38	35.930
333.75	37.454
334.11	37.153
334.48	38.803
334.84	38.462
335.20	38.152
335.57	38.078
335.93	38.482
336.29	38.674
336.66	39.510
337.02	39.219
337.38	39.352
337.75	39.000
338.11	40.757
338.47	40.420
338.84	41.220
339.20	40.494
339.56	40.642
339.93	39.123
340.29	40.459
340.65	41.487
341.02	41.046
341.38	39.823
341.74	40.371
342.11	39.428
342.47	40.480
342.83	41.869
343.20	41.725
343.56	42.348
343.92	42.161
344.28	41.503
344.65	40.415
345.01	41.054
345.37	40.706
345.73	41.004
346.10	41.242
346.46	41.043
346.82	41.162
347.19	41.397
347.55	43.191
347.91	42.718
348.27	41.714
348.63	42.164
349.00	41.099
349.36	41.895
349.72	42.123
350.08	41.803
350.45	41.899
350.81	42.525
351.17	42.997
351.53	42.694
351.89	41.618
352.26	40.960
352.62	41.613
352.98	40.723
353.34	41.143
353.70	41.343
354.07	42.177
354.43	41.473
354.79	41.371
355.15	41.905
355.51	42.326
355.87	43.366
356.24	42.577
356.60	43.007
356.96	41.508
357.32	42.252
357.68	41.986
358.04	42.973
358.40	42.203
358.77	43.062
359.13	43.555
359.49	41.294
359.85	41.420
360.21	43.780
360.57	41.239
360.93	42.511
361.29	41.239
361.66	42.476
362.02	42.727
362.38	42.803
362.74	42.316
363.10	43.266
363.46	41.957
363.82	42.600
364.18	42.140
364.54	42.647
364.90	43.082
365.26	42.940
365.62	43.723
365.98	42.522
366.35	42.462
366.71	42.572
367.07	43.033
367.43	42.056
367.79	41.625
368.15	43.288
368.51	42.899
368.87	43.216
369.23	42.888
369.59	43.222
369.95	43.402
370.31	42.775
370.67	42.463
371.03	43.689
371.39	41.357
371.75	42.637
372.11	42.225
372.47	42.086
372.83	43.293
373.19	42.154
373.55	41.733
373.91	42.189
374.27	43.586
374.63	43.360
374.99	42.270
375.35	43.802
375.71	44.126
376.07	44.101
376.42	43.810
376.78	44.698
377.14	43.263
377.50	42.563
377.86	43.240
378.22	43.459
378.58	43.269
378.94	42.785
379.30	43.231
379.66	43.950
380.02	43.899
380.38	43.457
380.74	43.866
381.09	43.804
381.45	43.547
381.81	42.875
382.17	44.226
382.53	43.535
382.89	44.068
383.25	45.053
383.61	45.000
383.97	43.683
384.32	43.965
384.68	44.272
385.04	43.444
385.40	43.808
385.76	45.094
386.12	45.537
386.48	45.402
386.83	43.691
387.19	43.895
387.55	45.044
387.91	44.988
388.27	43.651
388.62	44.682
388.98	44.936
389.34	45.284
389.70	44.189
390.06	43.235
390.42	44.236
390.77	44.735
391.13	44.136
391.49	43.467
391.85	44.704
392.20	44.193
392.56	44.692
392.92	44.451
393.28	44.693
393.64	44.865
393.99	45.643
394.35	44.402
394.71	44.381
395.07	43.683
395.42	43.594
395.78	43.388
396.14	44.704
396.50	44.134
396.85	44.495
397.21	44.925
397.57	43.699
397.92	43.140
398.28	44.368
398.64	41.687
399.00	43.397
399.35	42.720
399.71	42.734
400.07	43.410
400.42	42.778
400.78	43.539
401.14	43.134
401.49	43.300
401.85	42.169
402.21	43.012
402.57	43.188
402.92	41.217
403.28	42.794
403.63	42.686
403.99	43.559
404.35	42.848
404.70	41.369
405.06	42.127
405.42	42.138
405.77	41.371
406.13	41.269
406.49	42.747
406.84	42.115
407.20	42.505
407.55	41.533
407.91	41.043
408.27	41.236
408.62	42.338
408.98	40.665
409.34	42.193
409.69	40.439
410.05	41.010
410.40	40.617
410.76	41.435
411.11	40.250
411.47	41.749
411.83	39.611
412.18	40.862
412.54	39.763
412.89	39.963
413.25	39.410
413.60	40.932
413.96	39.264
414.31	40.366
414.67	38.935
415.03	39.814
415.38	39.360
415.74	38.241
416.09	39.321
416.45	38.825
416.80	38.929
417.16	38.881
417.51	39.574
417.87	37.419
418.22	38.212
418.58	39.264
418.93	39.749
419.29	36.364
419.64	37.330
420.00	38.413
420.35	36.418
420.71	37.606
421.06	37.324
421.42	37.680
421.77	36.821
422.12	36.947
422.48	36.600
422.83	36.949
423.19	37.585
423.54	36.214
423.90	35.630
424.25	35.936
424.61	36.047
424.96	35.656
425.31	36.684
425.67	35.915
426.02	35.984
426.38	37.257
426.73	35.956
427.09	36.139
427.44	35.471
427.79	34.885
428.15	35.558
428.50	35.130
428.85	34.767
429.21	35.880
429.56	34.987
429.92	35.028
430.27	34.035
430.62	33.978
430.98	34.395
431.33	33.701
431.68	34.642
432.04	33.706
432.39	33.485
432.74	32.231
433.10	33.506
433.45	33.572
433.80	34.010
434.16	33.407
434.51	33.495
434.86	33.101
435.22	33.595
435.57	33.874
435.92	32.994
436.28	31.306
436.63	32.744
436.98	32.561
437.34	31.881
437.69	33.095
438.04	32.593
438.39	32.560
438.75	32.423
439.10	31.862
439.45	32.806
439.81	31.009
440.16	32.185
440.51	32.776
440.86	32.628
441.22	30.204
441.57	31.071
441.92	31.584
442.27	30.987
442.63	32.173
442.98	31.936
443.33	31.330
443.68	30.557
444.03	31.346
444.39	30.497
444.74	31.996
445.09	30.902
445.44	29.915
445.79	31.099
446.15	29.681
446.50	29.673
446.85	30.978
447.20	29.718
447.55	30.915
447.91	29.103
448.26	29.994
448.61	29.649
448.96	30.006
449.31	29.538
449.66	29.675
450.02	29.207
450.37	29.283
450.72	27.892
451.07	29.241
451.42	28.777
451.77	28.813
452.12	29.067
452.47	28.332
452.83	28.386
453.18	27.767
453.53	27.750
453.88	28.233
454.23	28.273
454.58	28.463
454.93	28.157
455.28	26.984
455.63	28.518
455.98	28.382
456.34	28.161
456.69	28.907
457.04	27.851
457.39	28.190
457.74	27.872
458.09	27.310
458.44	27.267
458.79	27.283
459.14	28.547
459.49	27.224
459.84	27.637
460.19	26.820
460.54	27.200
460.89	27.443
461.24	26.522
461.59	27.257
461.94	26.604
462.29	26.357
462.64	26.645
462.99	26.811
463.34	26.704
463.69	26.255
464.04	26.513
464.39	25.288
464.74	25.767
465.09	26.887
465.44	26.197
465.79	24.717
466.14	25.485
466.49	25.762
466.84	25.877
467.19	26.783
467.54	25.415
467.89	24.889
468.24	25.061
468.59	26.413
468.94	25.143
469.29	26.361
469.64	25.496
469.99	26.419
470.34	24.710
470.68	27.069
471.03	25.053
471.38	25.107
471.73	26.331
472.08	25.237
472.43	24.362
472.78	24.195
473.13	24.558
473.48	25.212
473.83	24.222
474.17	25.194
474.52	25.526
474.87	25.152
475.22	25.198
475.57	24.054
475.92	24.520
476.27	24.389
476.61	25.463
476.96	24.317
477.31	24.392
477.66	24.607
478.01	24.874
478.36	24.237
478.70	24.850
479.05	25.549
479.40	24.324
479.75	23.775
480.10	23.912
480.45	24.250
480.79	24.723
481.14	24.078
481.49	23.350
481.84	23.986
482.19	24.041
482.53	23.549
482.88	23.246
483.23	22.937
483.58	22.783
483.92	23.282
484.27	22.744
484.62	23.622
484.97	22.844
485.31	22.724
485.66	22.031
486.01	21.921
486.36	22.100
486.70	22.414
487.05	22.694
487.40	22.311
487.75	22.620
488.09	21.941
488.44	22.696
488.79	22.488
489.13	22.957
489.48	22.488
489.83	22.152
490.17	22.607
490.52	22.263
490.87	22.166
491.22	22.445
491.56	21.490
491.91	22.180
492.26	22.606
492.60	21.689
492.95	22.676
493.30	22.228
493.64	21.807
493.99	22.319
494.34	21.990
494.68	22.000
495.03	21.606
495.37	21.933
495.72	22.413
496.07	22.927
496.41	21.274
496.76	21.879
497.11	21.006
497.45	21.909
497.80	22.452
498.14	21.162
498.49	21.838
498.84	21.707
499.18	21.536
499.53	21.677
499.87	22.082
500.22	21.414
500.56	21.583
500.91	21.335
501.26	21.256
501.60	20.610
501.95	21.689
502.29	21.453
502.64	21.911
502.98	21.411
503.33	21.374
503.67	21.735
504.02	21.701
504.36	21.029
504.71	20.354
505.06	21.339
505.40	21.624
505.75	21.649
506.09	21.186
506.44	21.150
506.78	21.378
507.13	21.717
507.47	20.313
507.82	20.459
508.16	20.814
508.51	20.514
508.85	21.141
509.19	20.756
509.54	20.965
509.88	20.766
510.23	22.001
510.57	21.272
510.92	19.883
511.26	20.404
511.61	21.562
511.95	20.986
512.30	20.953
512.64	21.202
512.98	20.213
513.33	20.705
513.67	20.864
514.02	21.625
514.36	22.229
514.70	21.853
515.05	22.092
515.39	21.133
515.74	20.838
516.08	22.355
516.42	22.379
516.77	21.123
517.11	21.365
517.46	21.005
517.80	21.037
518.14	21.066
518.49	20.974
518.83	20.717
519.17	20.861
519.52	20.367
519.86	20.708
520.20	21.203
520.55	20.013
520.89	21.079
521.23	21.026
521.58	21.199
521.92	20.897
522.26	21.275
522.61	20.649
522.95	21.788
523.29	20.775
523.64	21.283
523.98	21.322
524.32	20.361
524.66	21.255
525.01	21.558
525.35	21.841
525.69	20.135
526.04	20.767
526.38	21.790
526.72	20.275
527.06	21.012
527.41	20.251
527.75	20.442
528.09	20.664
528.43	21.269
528.78	20.726
529.12	20.839
529.46	20.468
529.80	20.013
530.15	21.452
530.49	20.135
530.83	20.383
531.17	19.476
531.51	20.999
531.86	19.782
532.20	19.276
532.54	20.830
532.88	20.123
533.22	20.497
533.57	20.708
533.91	20.104
534.25	21.159
534.59	19.820
534.93	20.390
535.27	19.734
535.62	19.378
535.96	20.483
536.30	20.185
536.64	19.366
536.98	20.000
537.32	21.124
537.66	21.178
538.01	19.790
538.35	19.348
538.69	20.772
539.03	19.686
539.37	19.987
539.71	19.905
540.05	19.891
540.39	20.152
540.73	20.921
541.07	20.787
541.42	20.497
541.76	20.096
542.10	20.303
542.44	19.249
542.78	19.064
543.12	19.162
543.46	19.680
543.80	19.709
544.14	18.158
544.48	19.654
544.82	19.207
545.16	20.492
545.50	20.227
545.84	19.405
546.18	19.858
546.52	19.971
546.86	19.482
547.20	20.029
547.54	19.152
547.88	19.022
548.22	18.869
548.56	18.206
548.90	18.733
549.24	19.904
549.58	19.394
549.92	17.513
550.26	18.535
550.60	19.628
550.94	19.417
551.28	19.629
551.62	19.692
551.96	19.023
552.30	19.371
552.64	18.970
552.98	19.269
553.32	18.188
553.66	18.360
554.00	17.591
554.34	18.612
554.68	19.469
555.02	20.238
555.36	17.801
555.69	18.681
556.03	17.702
556.37	19.431
556.71	18.195
557.05	18.195
557.39	18.364
557.73	18.066
558.07	18.250
558.41	18.530
558.75	19.252
559.08	18.991
559.42	18.413
559.76	18.815
560.10	18.196
560.44	18.764
560.78	19.231
561.12	18.406
561.45	18.763
561.79	18.347
562.13	18.240
562.47	18.129
562.81	18.516
563.15	19.252
563.48	17.822
563.82	18.188
564.16	17.758
564.50	18.041
564.84	17.604
565.17	18.310
565.51	17.623
565.85	19.067
566.19	18.037
566.52	18.968
566.86	18.252
567.20	18.120
567.54	18.187
567.88	18.571
568.21	18.156
568.55	17.717
568.89	18.275
569.23	17.429
569.56	17.426
569.90	17.905
570.24	17.268
570.57	17.855
570.91	17.951
571.25	17.165
571.59	16.973
571.92	17.689
572.26	17.180
572.60	16.899
572.93	17.571
573.27	16.865
573.61	17.422
573.95	17.258
574.28	16.870
574.62	16.552
574.96	16.654
575.29	16.406
575.63	16.714
575.97	16.725
576.30	16.615
576.64	16.397
576.98	16.885
577.31	17.351
577.65	16.628
577.98	16.864
578.32	16.642
578.66	16.742
578.99	16.308
579.33	16.663
579.67	16.452
580.00	16.937
580.34	16.667
580.67	16.667
581.01	16.402
581.35	16.559
581.68	16.611
582.02	16.315
582.35	16.397
582.69	16.576
583.02	16.663
583.36	16.537
583.70	16.978
584.03	17.098
584.37	17.194
584.70	16.484
585.04	16.399
585.37	16.609
585.71	16.514
586.04	16.263
586.38	16.271
586.72	16.987
587.05	16.927
587.39	16.970
587.72	16.867
588.06	16.911
588.39	16.149
588.73	16.545
589.06	16.601
589.40	17.076
589.73	16.904
590.07	17.296
590.40	16.989
590.73	17.010
591.07	17.345
591.40	16.874
591.74	17.104
592.07	17.301
592.41	16.475
592.74	16.328
593.08	16.207
593.41	16.310
593.75	16.421
594.08	16.890
594.41	16.703
594.75	16.031
595.08	16.610
595.42	16.342
595.75	16.410
596.09	16.575
596.42	17.073
596.75	16.652
597.09	16.538
597.42	16.531
597.75	16.445
598.09	16.116
598.42	16.426
598.76	16.002
599.09	16.747
599.42	16.862
599.76	16.253
600.09	16.101
600.42	16.073
600.76	15.416
601.09	15.534
601.42	15.785
601.76	16.197
602.09	16.213
602.42	16.891
602.76	15.959
603.09	16.279
603.42	17.642
603.76	16.129
604.09	15.796
604.42	15.863
604.76	17.000
605.09	16.590
605.42	16.840
605.75	15.893
606.09	16.433
606.42	15.888
606.75	16.190
607.09	16.747
607.42	15.064
607.75	16.252
608.08	15.454
608.42	15.852
608.75	16.530
609.08	16.193
609.41	16.244
609.75	15.978
610.08	16.475
610.41	16.039
610.74	16.285
611.07	16.331
611.41	16.969
611.74	16.471
612.07	16.167
612.40	15.646
612.73	15.706
613.07	16.029
613.40	16.521
613.73	15.949
614.06	16.249
614.39	16.300
614.72	15.630
615.06	16.369
615.39	16.157
615.72	16.039
616.05	16.648
616.38	14.986
616.71	16.208
617.05	16.306
617.38	16.719
617.71	17.107
618.04	17.206
618.37	16.898
618.70	17.096
619.03	17.083
619.36	16.570
619.69	16.831
620.03	18.188
620.36	16.738
620.69	15.989
621.02	16.743
621.35	17.178
621.68	15.901
622.01	17.833
622.34	16.760
622.67	15.615
623.00	17.152
623.33	16.463
623.66	16.156
623.99	15.431
624.32	15.589
624.65	16.241
624.99	17.758
625.32	15.542
625.65	16.732
625.98	16.841
626.31	16.043
626.64	17.764
626.97	16.579
627.30	17.075
627.63	18.111
627.96	17.251
628.29	16.559
628.62	16.224
628.95	15.230
629.28	16.633
629.61	15.553
629.94	17.595
630.26	16.403
630.59	15.921
630.92	16.718
631.25	16.308
631.58	16.740
631.91	16.338
632.24	16.170
632.57	16.705
632.90	15.540
633.23	17.059
633.56	16.247
633.89	16.523
634.22	18.025
634.55	16.264
634.88	18.646
635.20	15.641
635.53	16.000
635.86	15.215
636.19	16.947
636.52	16.837
636.85	16.625
637.18	15.597
637.51	16.604
637.83	18.528
638.16	18.554
638.49	15.395
638.82	17.105
639.15	16.554
639.48	16.644
639.81	17.713
640.13	16.739
640.46	16.618
640.79	16.200
641.12	17.578
641.45	18.769
641.77	16.444
642.10	18.641
642.43	17.685
642.76	17.657
643.09	18.901
643.41	15.534
643.74	15.815
644.07	19.540
644.40	16.892
644.73	16.287
645.05	14.765
645.38	17.989
645.71	16.489
646.04	15.081
646.36	18.440
646.69	16.547
647.02	15.879
647.35	18.097
647.67	19.196
648.00	17.351
648.33	17.065
648.66	16.271
648.98	14.908
649.31	14.876
649.64	15.856
649.96	14.587
650.29	18.569
650.62	16.239
650.94	15.926
651.27	16.387
651.60	16.396
651.92	19.056
652.25	15.098
652.58	16.333
652.90	17.667
653.23	17.311
653.56	15.059
653.88	14.089
654.21	15.762
654.54	15.450
654.86	17.657
655.19	15.497
655.52	17.879
655.84	15.012
656.17	16.367
656.49	21.896
656.82	22.947
657.15	17.841
657.47	13.321
657.80	9.688
658.13	9.559
658.45	15.019
658.78	14.700
659.10	14.759
659.43	15.009
659.75	15.294
660.08	14.345
660.41	16.241
660.73	14.227
661.06	17.504
661.38	16.634
661.71	14.990
662.03	16.953
662.36	17.363
662.68	16.150
663.01	16.594
663.33	13.457
663.66	15.349
663.98	16.279
664.31	17.058
664.63	15.438
664.96	12.826
665.28	13.907
665.61	14.069
665.93	16.957
666.26	18.004
666.58	13.870
666.91	13.647
667.23	15.802
667.56	15.877
667.88	15.108
668.21	16.945
668.53	20.331
668.86	16.981
669.18	14.858
669.50	14.528
669.83	13.488
670.15	15.385
670.48	15.072
670.80	16.129
671.13	14.989
671.45	12.329
671.77	15.880
672.10	16.436
672.42	16.854
672.75	17.052
673.07	18.247
673.39	15.413
673.72	14.398
674.04	15.417
674.37	15.254
674.69	16.274
675.01	18.000
675.34	16.667
675.66	15.509
675.98	16.630
676.31	15.596
676.63	13.539
676.95	15.909
677.28	16.000
677.60	20.000
677.92	14.450
678.25	14.442
678.57	14.719
678.89	15.546
679.22	15.213
679.54	14.056
679.86	14.314
680.18	16.311
680.51	15.720
680.83	13.917
681.15	15.800
681.48	17.623
681.80	17.355
682.12	14.516
682.44	16.736
682.77	16.336
683.09	14.645
683.41	15.682
683.73	15.438
684.06	14.159
684.38	14.409
684.70	16.122
685.02	16.805
685.34	13.834
685.67	14.259
685.99	15.190
686.31	16.106
686.63	16.883
686.96	12.738
687.28	14.343
687.60	13.878
687.92	15.354
688.24	15.927
688.56	17.467
688.89	17.634
689.21	16.444
689.53	14.153
689.85	13.953
690.17	16.295
690.49	15.839
690.82	14.320
691.14	16.905
691.46	15.421
691.78	15.991
692.10	15.699
692.42	14.502
692.74	14.530
693.06	13.964
693.39	15.611
693.71	14.932
694.03	14.550
694.35	17.523
694.67	13.131
694.99	15.144
695.31	18.277
695.63	15.500
695.95	15.152
696.27	14.249
696.59	18.056
696.91	16.527
697.23	13.625
697.56	13.614
697.88	16.774
698.20	15.490
698.52	15.765
698.84	13.636
699.16	14.500
699.48	16.291
699.80	17.618
700.12	12.129
700.44	17.087
700.76	16.279
701.08	14.545
701.40	14.157
701.72	18.519
702.04	19.142
702.36	16.054
702.68	15.315
703.00	15.455
703.32	12.023
703.64	12.712
703.96	15.072
704.28	13.497
704.60	14.286
704.91	13.249
705.23	14.950
705.55	20.141
705.87	18.051
706.19	13.704
706.51	13.058
706.83	17.363
707.15	14.642
707.47	14.846
707.79	13.281
708.11	13.750
708.43	14.500
708.74	18.863
709.06	18.873
709.38	14.985
709.70	15.976
710.02	15.605
710.34	16.409
710.66	13.462
710.98	14.901
711.29	16.066
711.61	15.254
711.93	14.984
712.25	17.526
712.57	16.484
712.89	14.179
713.20	15.225
713.52	13.589
713.84	12.969
714.16	12.371
714.48	15.161
714.80	14.103
715.11	17.325
715.43	12.853
715.75	13.333
716.07	11.960
716.39	12.416
716.70	12.546
717.02	14.885
717.34	19.433
717.66	12.389
717.97	12.609
718.29	15.481
718.61	17.323
718.93	14.341
719.24	11.787
719.56	13.253
719.88	12.371
720.20	14.394
720.51	13.027
720.83	13.127
721.15	18.908
721.46	12.500
721.78	11.858
722.10	12.268
722.42	9.959
722.73	13.878
723.05	11.837
723.37	13.136
723.68	17.568
724.00	15.385
724.32	8.000
724.63	9.091
724.95	14.410
725.27	15.207
725.58	11.441
725.90	12.698
726.22	15.058
726.53	17.288
726.85	14.981
727.16	21.887
727.48	9.717
727.80	14.980
728.11	12.288
728.43	10.196
728.74	12.500
729.06	10.800
729.38	19.925
729.69	9.562
730.01	14.615
730.32	15.299
730.64	15.194
730.96	15.849
731.27	18.333
731.59	14.576
731.90	16.242
732.22	17.666
732.53	17.276
732.85	17.730
733.16	17.172
733.48	12.950
733.80	12.681
734.11	15.593
734.43	15.808
734.74	17.879
735.06	8.795
735.37	16.616
735.69	14.141
736.00	13.589
736.32	15.436
736.63	14.789
736.95	15.700
737.26	15.302
737.58	13.423
737.89	14.286
738.21	11.654
738.52	14.815
738.83	8.297
739.15	7.860
739.46	16.929
739.78	9.890
740.09	13.725
740.41	17.754
740.72	16.142
741.04	17.409
741.35	12.766
741.66	17.062
741.98	15.816
742.29	15.347
742.61	12.042
742.92	6.635
743.23	10.648
743.55	17.195
743.86	14.833
744.18	8.134
744.49	11.702
744.80	13.587
745.12	17.647
745.43	13.659
745.74	9.896
746.06	15.122
746.37	9.424
746.68	18.009
747.00	14.894
747.31	20.398
747.62	11.650
747.94	13.397
748.25	16.832
748.56	13.661
748.88	10.471
749.19	15.957
749.50	14.286
749.82	10.849
750.13	12.385
750.44	15.414
750.75	18.284
751.07	19.708
751.38	14.176
751.69	11.373
752.01	13.566
752.32	12.749
752.63	8.300
752.94	11.207
753.26	20.502
753.57	12.217
753.88	7.965
754.19	7.083
754.51	14.463
754.82	16.599
755.13	16.667
755.44	17.339
755.75	17.578
756.07	5.837
756.38	10.189
756.69	9.579
757.00	19.333
757.31	14.052
757.63	11.585
757.94	12.778
758.25	12.877
758.56	11.170
758.87	11.331
759.18	12.150
759.50	12.727
759.81	16.722
760.12	14.839
760.43	11.818
760.74	17.284
761.05	8.923
761.36	12.500
761.67	15.152
761.99	13.265
762.30	8.727
762.61	12.648
762.92	15.385
763.23	12.613
763.54	14.486
763.85	11.017
764.16	11.618
764.47	12.500
764.78	15.385
765.10	17.508
765.41	15.457
765.72	15.873
766.03	10.902
766.34	14.964
766.65	17.131
766.96	13.636
767.27	10.106
767.58	8.046
767.89	11.348
768.20	10.795
768.51	13.736
768.82	14.778
769.13	11.060
769.44	8.584
769.75	9.589
770.06	12.500
770.37	16.827
770.68	7.614
770.99	16.290
771.30	16.176
771.61	15.385
771.92	21.983
772.23	16.749
772.54	12.903
772.85	15.432
773.16	16.854
773.47	19.608
773.78	18.301
774.09	8.982
774.39	14.000
774.70	17.197
775.01	15.172
775.32	10.000
775.63	9.917
775.94	15.267
776.25	13.386
776.56	19.167
776.87	8.654
777.18	6.838
777.48	12.931
777.79	1.739
778.10	4.762
778.41	14.414
778.72	7.937
779.03	11.278
779.34	7.092
779.65	12.329
779.95	13.014
780.26	14.483
780.57	6.504
780.88	8.661
781.19	19.828
781.50	13.178
781.80	16.568
782.11	8.176
782.42	4.615
782.73	5.755
783.04	11.852
783.34	12.500
783.65	1.709
783.96	7.377
784.27	15.172
784.57	16.260
784.88	14.844
785.19	14.000
785.50	12.000
785.81	9.483
786.11	12.069
786.42	8.738
786.73	16.364
787.04	4.082
787.34	10.714
787.65	8.571
787.96	1.770
788.26	4.545
788.57	7.692
788.88	21.875
789.19	13.492
789.49	7.826
789.80	9.184
790.11	7.071
790.41	7.273
790.72	8.696
791.03	14.773
791.33	20.000
791.64	2.500
791.95	10.465
792.25	11.702
792.56	13.483
792.87	5.479
793.17	4.348
793.48	-2.667
793.79	0.000
794.09	22.500
794.40	4.717
794.70	6.796
795.01	9.756
795.32	8.547
795.62	1.905
795.93	11.765
796.23	18.868
796.54	9.375
796.85	11.765
797.15	0.000
797.46	34.722
797.76	16.667
798.07	11.628
798.37	-7.895
798.68	-6.061
798.99	17.284
799.29	8.571
799.60	-2.899
799.90	21.333
800.21	21.311
800.51	9.231
800.82	8.475
801.12	15.942
801.43	24.590
801.73	19.048
802.04	18.000
802.34	1.493
802.65	1.923
802.95	7.143
803.26	5.769
803.56	5.882
803.87	-34.783
804.17	22.667
804.48	17.460
804.78	0.000
805.09	10.870
805.39	0.000
805.70	35.185
806.00	-7.018
806.30	7.042
806.61	10.000
806.91	-2.778
807.22	18.421
807.52	18.667
807.83	3.636
808.13	19.444
808.43	10.294
808.74	0.000
809.04	6.780
809.35	-7.692
809.65	-9.375
809.95	-35.135
810.26	-6.818
810.56	4.110
810.86	4.762
811.17	4.000
811.47	6.122
811.77	-15.789
812.08	-4.545
812.38	5.660
812.69	-10.000
812.99	-33.333
813.29	2.632
813.59	-5.714
813.90	4.545
814.20	-2.564
814.50	5.769
814.81	11.321
815.11	0.000
815.41	10.169
815.72	-2.381
816.02	21.569
816.32	2.083
816.62	-4.878
816.93	2.703
817.23	-34.286
817.53	16.667
817.84	-10.870
818.14	3.846
818.44	-21.053
818.74	36.957
819.04	-2.500
819.35	10.811
819.65	-29.412
819.95	2.778
820.25	-16.667
820.56	40.000
820.86	-10.345
821.16	25.000
821.46	17.021
821.76	-7.500
822.07	13.953
822.37	-16.216
822.67	-3.125
822.97	2.381
823.27	-39.286
823.57	-20.000
823.88	-3.704
824.18	-10.714
824.48	-5.882
824.78	-35.484
825.08	0.000
825.38	-21.212
825.69	-58.333
825.99	2.632
826.29	11.111
826.59	-73.333
826.89	-76.190
827.19	4.348
827.49	2.500
827.79	2.857
828.09	-21.429
828.39	0.000
828.70	18.919
829.00	17.857
829.30	-47.619
829.60	3.333
829.90	-18.750
830.20	10.526
830.50	22.222
830.80	-13.043
831.10	-18.182
831.40	12.121
831.70	19.355
832.00	4.762
832.30	4.762
832.60	-125.000
832.90	-20.690
833.20	5.000
833.50	6.061
833.80	3.704
834.10	11.538
834.40	3.125
834.70	11.111
835.00	-5.263
835.30	46.154
835.60	20.000
835.90	9.677
836.20	31.818
836.50	42.857
836.80	-11.538
837.10	3.571
837.40	33.333
837.70	-4.545
838.00	-54.545
838.30	-8.696
838.60	-61.538
838.90	22.727
839.19	0.000
839.49	23.333
839.79	23.077
840.09	0.000
840.39	-3.571
840.69	-3.571
840.99	-42.308
841.29	-36.842
841.59	-30.000
841.88	-54.545
842.18	-70.000
842.48	-18.750
842.78	-33.333
843.08	-11.111
843.38	-70.000
843.68	26.087
843.97	13.333
844.27	-46.667
844.57	10.000
844.87	11.111
845.17	-23.810
845.47	20.000
845.76	-28.571
846.06	-11.765
846.36	-20.000
846.66	-71.429
846.96	-46.667
847.25	-87.500
847.55	-7.143
847.85	-37.500
848.15	-95.455
848.44	-366.667
848.74	40.000
849.04	14.815
849.34	-109.091
849.63	-116.667
849.93	-240.000
850.23	-16.667
850.53	-70.000
850.82	-23.077
851.12	-33.333
851.42	-26.667
851.71	-42.308
852.01	-57.143
852.31	-525.000
852.61	-63.636
852.90	-20.000
853.20	10.526
853.50	-25.000
853.79	13.043
854.09	70.833
854.39	-10.526
854.68	-37.500
854.98	25.806
855.28	0.000
855.57	-65.000
855.87	-33.333
856.17	29.630
856.46	-14.286
856.76	-40.000
857.05	-33.333
857.35	48.000
857.65	-27.778
857.94	-23.077
858.24	20.690
858.53	-22.222
858.83	7.407
859.13	-13.636
859.42	-65.217
859.72	-125.000
860.01	-600.000
860.31	4.000
860.60	42.857
860.90	-233.333
861.20	-53.333
861.49	-800.000
861.79	-33.333
862.08	25.000
862.38	0.000
862.67	-260.000
862.97	66.667
863.26	-116.667
863.56	55.556
863.85	-600.000
864.15	11.111
864.44	-60.000
864.74	-21.429
865.03	325.000
865.33	-300.000
865.62	-66.667
865.92	-83.333
866.21	-150.000
866.51	12.500
866.80	-36.364
867.10	-300.000
867.39	33.333
867.69	0.000
867.98	-23.077
868.27	-366.667
868.57	6.667
868.86	16.667
869.16	-23.077
869.45	6.667
869.75	-1500.000
870.04	0.000
870.33	-100.000
870.63	-33.333
870.92	300.000
871.22	-200.000
871.51	-900.000
871.80	11.111
872.10	233.333
>>>>>End Processed Spectral Data<<<<<
