SpectraSuite Data File
++++++++++++++++++++++++++++++++++++
Date: Fri May 15 21:06:01 PDT 2015
User: schluterlab
Dark Spectrum Present: Yes
Reference Spectrum Present: Yes
Number of Sampled Component Spectra: 1
Spectrometers: USB2E3373
Integration Time (usec): 3000 (USB2E3373)
Spectra Averaged: 3 (USB2E3373)
Boxcar Smoothing: 0 (USB2E3373)
Correct for Electrical Dark: No (USB2E3373)
Strobe/Lamp Enabled: No (USB2E3373)
Correct for Detector Non-linearity: No (USB2E3373)
Correct for Stray Light: No (USB2E3373)
Number of Pixels in Processed Spectrum: 2048
>>>>>Begin Processed Spectral Data<<<<<
178.53	0.000
178.91	0.000
179.29	137.500
179.67	-650.000
180.04	28.571
180.42	50.000
180.80	-900.000
181.18	300.000
181.56	50.000
181.94	-200.000
182.31	1000.000
182.69	-80.000
183.07	-433.333
183.45	-120.000
183.83	283.333
184.20	-45.455
184.58	77.778
184.96	-100.000
185.34	300.000
185.72	-800.000
186.09	130.769
186.47	-700.000
186.85	250.000
187.23	122.222
187.61	-500.000
187.98	-300.000
188.36	-55.556
188.74	-333.333
189.12	-52.941
189.49	-11.111
189.87	0.000
190.25	50.000
190.63	150.000
191.00	-166.667
191.38	-26.316
191.76	100.000
192.14	75.000
192.51	-300.000
192.89	-88.889
193.27	-114.286
193.65	166.667
194.02	90.909
194.40	-20.000
194.78	-187.500
195.15	0.000
195.53	-75.000
195.91	350.000
196.29	0.000
196.66	69.231
197.04	114.286
197.42	66.667
197.79	-633.333
198.17	-76.923
198.55	1900.000
198.92	-433.333
199.30	-500.000
199.68	-80.000
200.05	-566.667
200.43	0.000
200.81	66.667
201.18	0.000
201.56	1000.000
201.94	50.000
202.31	66.667
202.69	-240.000
203.07	225.000
203.44	-800.000
203.82	0.000
204.19	7.143
204.57	-433.333
204.95	37.500
205.32	-50.000
205.70	28.571
206.08	-125.000
206.45	244.444
206.83	-14.286
207.20	-128.571
207.58	1300.000
207.96	-100.000
208.33	40.000
208.71	-25.000
209.08	-166.667
209.46	-1100.000
209.84	-160.000
210.21	-1100.000
210.59	-42.857
210.96	-216.667
211.34	125.000
211.71	73.333
212.09	-185.714
212.46	-1300.000
212.84	0.000
213.22	120.000
213.59	600.000
213.97	53.846
214.34	45.455
214.72	-283.333
215.09	400.000
215.47	0.000
215.84	-90.909
216.22	-133.333
216.59	-87.500
216.97	50.000
217.34	25.000
217.72	-260.000
218.09	0.000
218.47	175.000
218.84	-300.000
219.22	-55.556
219.59	-120.000
219.97	400.000
220.34	300.000
220.72	0.000
221.09	-350.000
221.47	-200.000
221.84	-350.000
222.22	-450.000
222.59	27.273
222.97	91.667
223.34	-166.667
223.72	-42.857
224.09	-33.333
224.46	0.000
224.84	800.000
225.21	-40.000
225.59	-6.667
225.96	-650.000
226.34	250.000
226.71	-100.000
227.08	-100.000
227.46	-12.500
227.83	-450.000
228.21	-66.667
228.58	-27.273
228.95	-212.500
229.33	110.000
229.70	-31.250
230.08	-187.500
230.45	-100.000
230.82	-57.143
231.20	6.667
231.57	-7.143
231.95	-14.286
232.32	-50.000
232.69	35.714
233.07	-100.000
233.44	-60.000
233.81	-70.000
234.19	22.222
234.56	-64.706
234.93	300.000
235.31	-75.000
235.68	-320.000
236.05	-53.846
236.43	-25.000
236.80	23.529
237.17	18.750
237.55	-15.000
237.92	3.704
238.29	-19.444
238.67	0.000
239.04	-47.059
239.41	-2.439
239.79	-16.667
240.16	2.439
240.53	2.632
240.91	8.696
241.28	9.524
241.65	23.214
242.02	21.918
242.40	13.333
242.77	8.475
243.14	-9.091
243.51	3.750
243.89	25.287
244.26	3.448
244.63	9.524
245.00	11.340
245.38	14.433
245.75	-4.494
246.12	13.793
246.49	13.223
246.87	16.346
247.24	6.723
247.61	6.140
247.98	20.325
248.36	13.750
248.73	11.184
249.10	13.636
249.47	13.291
249.84	14.379
250.22	12.353
250.59	14.379
250.96	16.432
251.33	9.302
251.70	11.176
252.08	20.812
252.45	14.851
252.82	17.588
253.19	15.668
253.56	13.551
253.94	15.315
254.31	12.609
254.68	19.298
255.05	11.811
255.42	14.847
255.79	16.216
256.16	12.840
256.54	15.299
256.91	15.970
257.28	17.100
257.65	15.730
258.02	13.475
258.39	17.845
258.76	19.780
259.14	18.937
259.51	17.476
259.88	17.526
260.25	14.706
260.62	19.444
260.99	13.559
261.36	10.616
261.73	14.557
262.10	18.845
262.47	15.337
262.85	18.182
263.22	12.923
263.59	15.888
263.96	16.460
264.33	16.061
264.70	17.262
265.07	13.690
265.44	19.263
265.81	15.819
266.18	15.847
266.55	15.938
266.92	20.207
267.29	14.883
267.66	16.113
268.03	14.921
268.40	16.449
268.77	20.588
269.14	14.868
269.51	15.681
269.88	14.214
270.25	15.561
270.62	14.634
270.99	16.624
271.36	16.381
271.73	16.667
272.10	16.058
272.47	16.785
272.84	15.347
273.21	19.722
273.58	16.386
273.95	15.561
274.32	13.395
274.69	14.253
275.06	18.080
275.43	17.914
275.80	15.673
276.17	12.644
276.54	17.773
276.91	16.009
277.28	14.629
277.65	17.562
278.02	16.383
278.39	17.068
278.76	16.352
279.13	14.523
279.50	16.597
279.87	14.255
280.23	14.839
280.60	14.815
280.97	16.364
281.34	15.000
281.71	16.016
282.08	13.497
282.45	14.286
282.82	14.479
283.19	13.153
283.56	17.919
283.92	16.129
284.29	15.000
284.66	15.504
285.03	15.521
285.40	14.367
285.77	14.236
286.14	15.343
286.51	17.528
286.87	14.260
287.24	16.206
287.61	14.462
287.98	15.088
288.35	16.984
288.72	16.988
289.08	13.542
289.45	14.763
289.82	14.336
290.19	15.529
290.56	13.551
290.93	14.478
291.29	14.484
291.66	14.803
292.03	14.514
292.40	15.323
292.77	13.876
293.13	11.526
293.50	11.533
293.87	13.435
294.24	11.128
294.60	14.009
294.97	13.244
295.34	12.730
295.71	13.264
296.08	11.958
296.44	11.522
296.81	12.917
297.18	13.478
297.55	15.041
297.91	13.288
298.28	13.852
298.65	12.212
299.02	12.668
299.38	9.029
299.75	10.483
300.12	10.995
300.48	11.726
300.85	11.027
301.22	11.688
301.59	11.316
301.95	12.911
302.32	12.581
302.69	12.687
303.05	13.366
303.42	11.083
303.79	13.668
304.15	12.067
304.52	9.988
304.89	10.058
305.25	10.654
305.62	10.268
305.99	10.526
306.35	10.636
306.72	11.024
307.09	11.174
307.45	11.137
307.82	11.458
308.19	11.963
308.55	11.014
308.92	11.656
309.29	11.732
309.65	10.764
310.02	11.661
310.38	11.745
310.75	11.585
311.12	11.733
311.48	11.241
311.85	11.832
312.22	11.181
312.58	11.465
312.95	10.886
313.31	11.077
313.68	12.147
314.05	11.429
314.41	12.371
314.78	13.196
315.14	13.566
315.51	13.665
315.87	13.320
316.24	13.852
316.61	14.272
316.97	14.881
317.34	14.258
317.70	14.723
318.07	14.423
318.43	13.922
318.80	14.489
319.16	15.430
319.53	15.575
319.89	15.748
320.26	15.891
320.62	15.948
320.99	17.223
321.35	17.266
321.72	18.172
322.08	18.228
322.45	17.665
322.81	18.369
323.18	19.136
323.54	18.822
323.91	19.961
324.27	19.727
324.64	21.816
325.00	19.891
325.37	23.232
325.73	22.847
326.10	21.980
326.46	23.139
326.83	23.447
327.19	23.801
327.56	24.414
327.92	24.560
328.29	24.911
328.65	24.811
329.01	24.632
329.38	26.359
329.74	26.440
330.11	26.599
330.47	26.716
330.84	27.596
331.20	28.042
331.56	27.778
331.93	27.580
332.29	28.414
332.66	28.597
333.02	29.275
333.38	28.231
333.75	28.846
334.11	28.469
334.48	29.646
334.84	29.029
335.20	28.820
335.57	28.558
335.93	29.449
336.29	28.821
336.66	29.609
337.02	29.089
337.38	28.796
337.75	29.273
338.11	30.658
338.47	31.022
338.84	29.390
339.20	29.982
339.56	30.275
339.93	30.439
340.29	31.193
340.65	32.079
341.02	30.053
341.38	30.000
341.74	29.947
342.11	30.243
342.47	30.516
342.83	30.623
343.20	30.575
343.56	30.522
343.92	31.621
344.28	31.341
344.65	30.915
345.01	30.596
345.37	30.782
345.73	31.046
346.10	29.767
346.46	29.941
346.82	29.787
347.19	29.759
347.55	31.161
347.91	30.259
348.27	30.477
348.63	31.090
349.00	29.861
349.36	30.756
349.72	30.846
350.08	29.754
350.45	30.567
350.81	30.648
351.17	29.967
351.53	31.184
351.89	30.058
352.26	29.280
352.62	30.242
352.98	29.317
353.34	29.308
353.70	30.987
354.07	30.323
354.43	30.104
354.79	30.223
355.15	29.921
355.51	31.171
355.87	30.259
356.24	29.119
356.60	29.992
356.96	31.349
357.32	29.952
357.68	30.102
358.04	30.048
358.40	30.466
358.77	30.861
359.13	30.504
359.49	30.123
359.85	30.421
360.21	30.702
360.57	30.681
360.93	31.694
361.29	29.758
361.66	30.643
362.02	30.227
362.38	30.998
362.74	29.069
363.10	30.700
363.46	29.948
363.82	31.255
364.18	30.480
364.54	29.265
364.90	29.391
365.26	29.476
365.62	31.752
365.98	30.572
366.35	31.100
366.71	30.155
367.07	30.334
367.43	29.978
367.79	29.965
368.15	29.361
368.51	30.153
368.87	30.725
369.23	29.675
369.59	30.248
369.95	30.792
370.31	31.214
370.67	30.896
371.03	29.276
371.39	29.103
371.75	29.890
372.11	29.672
372.47	30.843
372.83	29.737
373.19	30.171
373.55	30.108
373.91	29.878
374.27	30.546
374.63	30.581
374.99	30.000
375.35	30.641
375.71	30.070
376.07	29.846
376.42	30.612
376.78	30.872
377.14	29.384
377.50	31.009
377.86	31.325
378.22	29.100
378.58	29.936
378.94	29.175
379.30	29.008
379.66	29.843
380.02	29.185
380.38	29.763
380.74	29.743
381.09	30.368
381.45	30.214
381.81	29.858
382.17	30.203
382.53	30.481
382.89	31.011
383.25	29.683
383.61	29.756
383.97	28.762
384.32	29.206
384.68	30.031
385.04	29.105
385.40	29.620
385.76	30.881
386.12	31.113
386.48	30.460
386.83	29.677
387.19	29.853
387.55	29.235
387.91	30.012
388.27	28.632
388.62	30.145
388.98	29.834
389.34	29.544
389.70	30.827
390.06	29.578
390.42	30.570
390.77	29.889
391.13	29.634
391.49	29.690
391.85	28.265
392.20	28.562
392.56	29.243
392.92	29.771
393.28	28.774
393.64	28.889
393.99	31.223
394.35	28.653
394.71	29.885
395.07	27.970
395.42	28.233
395.78	29.967
396.14	28.436
396.50	29.106
396.85	29.620
397.21	28.195
397.57	28.589
397.92	28.700
398.28	29.310
398.64	28.434
399.00	29.402
399.35	28.217
399.71	28.202
400.07	27.872
400.42	28.274
400.78	28.230
401.14	28.252
401.49	27.457
401.85	28.032
402.21	28.554
402.57	28.438
402.92	27.164
403.28	28.822
403.63	27.743
403.99	27.870
404.35	28.795
404.70	27.381
405.06	27.615
405.42	27.657
405.77	27.310
406.13	27.008
406.49	28.301
406.84	28.056
407.20	27.815
407.55	28.203
407.91	26.939
408.27	27.533
408.62	27.077
408.98	27.480
409.34	27.447
409.69	26.421
410.05	27.032
410.40	26.914
410.76	27.503
411.11	26.938
411.47	27.482
411.83	26.868
412.18	27.735
412.54	27.278
412.89	25.862
413.25	27.076
413.60	26.832
413.96	26.871
414.31	27.866
414.67	25.978
415.03	26.631
415.38	26.762
415.74	27.362
416.09	26.323
416.45	26.199
416.80	26.305
417.16	27.348
417.51	26.116
417.87	25.619
418.22	26.490
418.58	26.689
418.93	25.956
419.29	25.864
419.64	26.766
420.00	26.637
420.35	25.910
420.71	27.217
421.06	27.440
421.42	27.284
421.77	26.590
422.12	26.107
422.48	26.475
422.83	26.160
423.19	26.411
423.54	25.397
423.90	26.443
424.25	25.890
424.61	25.826
424.96	25.726
425.31	27.556
425.67	26.056
426.02	27.150
426.38	27.051
426.73	27.300
427.09	26.582
427.44	26.118
427.79	26.400
428.15	26.760
428.50	26.408
428.85	25.737
429.21	26.372
429.56	26.900
429.92	26.091
430.27	25.714
430.62	24.830
430.98	26.380
431.33	26.236
431.68	26.269
432.04	26.942
432.39	25.043
432.74	25.616
433.10	27.414
433.45	26.225
433.80	25.827
434.16	25.097
434.51	26.237
434.86	26.132
435.22	26.304
435.57	26.388
435.92	26.347
436.28	25.164
436.63	25.328
436.98	25.724
437.34	25.106
437.69	26.893
438.04	25.983
438.39	25.351
438.75	26.290
439.10	26.203
439.45	26.050
439.81	25.627
440.16	26.128
440.51	25.672
440.86	27.251
441.22	25.792
441.57	26.380
441.92	26.653
442.27	25.776
442.63	27.623
442.98	26.307
443.33	26.266
443.68	25.729
444.03	26.776
444.39	26.168
444.74	26.867
445.09	26.225
445.44	26.097
445.79	26.612
446.15	26.211
446.50	25.180
446.85	25.983
447.20	25.808
447.55	27.176
447.91	26.227
448.26	26.522
448.61	26.598
448.96	26.678
449.31	26.821
449.66	26.190
450.02	26.868
450.37	26.200
450.72	26.002
451.07	26.582
451.42	25.843
451.77	26.281
452.12	25.778
452.47	26.336
452.83	26.207
453.18	26.945
453.53	26.422
453.88	26.472
454.23	26.552
454.58	26.385
454.93	26.289
455.28	24.952
455.63	26.596
455.98	26.518
456.34	25.734
456.69	25.794
457.04	26.969
457.39	26.428
457.74	26.481
458.09	25.839
458.44	25.980
458.79	25.210
459.14	27.174
459.49	26.507
459.84	26.114
460.19	25.546
460.54	26.895
460.89	25.909
461.24	26.273
461.59	25.594
461.94	25.031
462.29	26.357
462.64	27.375
462.99	24.848
463.34	24.270
463.69	25.225
464.04	26.150
464.39	25.591
464.74	24.724
465.09	25.702
465.44	26.255
465.79	24.943
466.14	25.884
466.49	25.072
466.84	25.996
467.19	25.907
467.54	26.373
467.89	25.395
468.24	25.426
468.59	25.587
468.94	25.714
469.29	25.770
469.64	25.222
469.99	26.209
470.34	24.369
470.68	26.771
471.03	25.053
471.38	25.535
471.73	25.840
472.08	25.170
472.43	24.832
472.78	24.743
473.13	25.782
473.48	25.277
473.83	25.778
474.17	24.870
474.52	24.888
474.87	25.030
475.22	24.222
475.57	24.901
475.92	25.617
476.27	24.680
476.61	25.405
476.96	25.209
477.31	25.473
477.66	24.494
478.01	25.379
478.36	24.455
478.70	25.122
479.05	25.549
479.40	25.331
479.75	24.713
480.10	25.294
480.45	24.850
480.79	25.076
481.14	25.051
481.49	24.039
481.84	23.842
482.19	24.275
482.53	24.940
482.88	24.582
483.23	24.088
483.58	24.292
483.92	24.105
484.27	23.883
484.62	24.249
484.97	23.632
485.31	23.338
485.66	22.407
486.01	22.569
486.36	22.601
486.70	23.459
487.05	23.610
487.40	23.785
487.75	23.634
488.09	23.455
488.44	23.281
488.79	24.019
489.13	24.399
489.48	24.027
489.83	24.484
490.17	23.596
490.52	24.388
490.87	23.600
491.22	24.117
491.56	23.767
491.91	23.375
492.26	24.404
492.60	23.369
492.95	24.889
493.30	23.693
493.64	24.312
493.99	24.541
494.34	23.641
494.68	23.286
495.03	23.260
495.37	23.503
495.72	23.725
496.07	23.902
496.41	23.113
496.76	23.261
497.11	23.801
497.45	23.819
497.80	23.915
498.14	23.000
498.49	23.057
498.84	23.553
499.18	23.394
499.53	22.966
499.87	23.054
500.22	23.096
500.56	22.995
500.91	23.645
501.26	23.529
501.60	23.119
501.95	23.096
502.29	22.518
502.64	23.263
502.98	22.348
503.33	22.142
503.67	22.361
504.02	22.874
504.36	23.305
504.71	22.626
505.06	22.547
505.40	22.893
505.75	23.196
506.09	22.808
506.44	22.639
506.78	23.112
507.13	22.699
507.47	21.880
507.82	22.650
508.16	22.610
508.51	22.141
508.85	23.234
509.19	23.576
509.54	23.324
509.88	22.168
510.23	22.431
510.57	22.288
510.92	21.642
511.26	22.095
511.61	21.727
511.95	23.233
512.30	22.450
512.64	22.705
512.98	21.729
513.33	22.328
513.67	21.887
514.02	23.169
514.36	22.857
514.70	23.485
515.05	23.032
515.39	21.606
515.74	23.593
516.08	22.833
516.42	23.557
516.77	22.996
517.11	23.145
517.46	22.202
517.80	21.752
518.14	21.984
518.49	22.656
518.83	21.871
519.17	21.286
519.52	22.143
519.86	21.729
520.20	21.932
520.55	21.326
520.89	22.961
521.23	21.976
521.58	22.965
521.92	21.859
522.26	22.511
522.61	23.182
522.95	22.980
523.29	22.999
523.64	22.808
523.98	22.748
524.32	21.649
524.66	22.087
525.01	22.662
525.35	22.165
525.69	21.818
526.04	20.767
526.38	23.152
526.72	21.844
527.06	21.466
527.41	22.493
527.75	21.582
528.09	22.126
528.43	23.700
528.78	21.452
529.12	21.355
529.46	21.053
529.80	22.039
530.15	21.914
530.49	20.606
530.83	22.093
531.17	20.752
531.51	21.614
531.86	20.734
532.20	21.086
532.54	21.239
532.88	21.766
533.22	21.573
533.57	22.084
533.91	20.627
534.25	22.331
534.59	20.975
534.93	20.453
535.27	20.368
535.62	20.933
535.96	21.331
536.30	21.834
536.64	21.089
536.98	20.139
537.32	21.764
537.66	21.669
538.01	20.769
538.35	20.666
538.69	20.639
539.03	21.121
539.37	20.727
539.71	20.995
540.05	20.842
540.39	21.330
540.73	21.967
541.07	21.064
541.42	21.035
541.76	19.959
542.10	20.853
542.44	20.153
542.78	20.096
543.12	20.742
543.46	21.001
543.80	21.374
544.14	20.093
544.48	20.919
544.82	20.437
545.16	21.516
545.50	21.362
545.84	21.034
546.18	20.851
546.52	20.981
546.86	21.352
547.20	20.672
547.54	19.435
547.88	21.060
548.22	19.724
548.56	20.646
548.90	21.698
549.24	20.248
549.58	19.817
549.92	19.514
550.26	20.879
550.60	20.669
550.94	20.687
551.28	20.479
551.62	20.538
551.96	20.752
552.30	20.102
552.64	20.522
552.98	19.620
553.32	20.970
553.66	19.303
554.00	19.927
554.34	21.418
554.68	20.133
555.02	20.536
555.36	18.848
555.69	19.414
556.03	20.771
556.37	19.431
556.71	19.639
557.05	19.239
557.39	20.818
557.73	18.291
558.07	20.136
558.41	18.989
558.75	20.109
559.08	20.016
559.42	19.206
559.76	19.616
560.10	19.343
560.44	19.136
560.78	19.441
561.12	19.535
561.45	19.677
561.79	19.608
562.13	20.369
562.47	19.137
562.81	19.957
563.15	19.535
563.48	19.943
563.82	19.012
564.16	19.777
564.50	19.392
564.84	19.880
565.17	19.182
565.51	19.877
565.85	19.547
566.19	19.496
566.52	19.504
566.86	19.987
567.20	18.555
567.54	19.039
567.88	19.098
568.21	19.457
568.55	18.370
568.89	19.199
569.23	18.681
569.56	18.651
569.90	18.879
570.24	19.278
570.57	18.873
570.91	19.031
571.25	18.218
571.59	18.094
571.92	18.044
572.26	17.633
572.60	18.295
572.93	18.607
573.27	17.900
573.61	18.616
573.95	17.613
574.28	17.956
574.62	17.340
574.96	17.627
575.29	17.945
575.63	17.362
575.97	17.457
576.30	17.796
576.64	17.536
576.98	18.662
577.31	17.842
577.65	17.592
577.98	18.216
578.32	17.977
578.66	17.064
578.99	17.525
579.33	17.412
579.67	17.613
580.00	17.646
580.34	17.736
580.67	17.409
581.01	17.963
581.35	17.614
581.68	17.359
582.02	17.434
582.35	17.697
582.69	17.569
583.02	17.304
583.36	17.743
583.70	17.783
584.03	17.932
584.37	17.984
584.70	17.857
585.04	17.306
585.37	17.101
585.71	17.625
586.04	17.776
586.38	17.365
586.72	17.590
587.05	17.966
587.39	17.640
587.72	17.879
588.06	17.935
588.39	17.345
588.73	17.949
589.06	17.841
589.40	17.905
589.73	18.510
590.07	18.353
590.40	18.344
590.73	18.987
591.07	17.769
591.40	17.765
591.74	17.828
592.07	18.553
592.41	18.286
592.74	17.802
593.08	16.801
593.41	17.364
593.75	17.501
594.08	17.130
594.41	17.467
594.75	17.519
595.08	17.404
595.42	17.814
595.75	17.950
596.09	17.435
596.42	18.148
596.75	17.895
597.09	18.132
597.42	17.841
597.75	18.049
598.09	17.248
598.42	17.915
598.76	17.117
599.09	17.628
599.42	17.279
599.76	17.532
600.09	17.345
600.42	17.210
600.76	17.051
601.09	16.489
601.42	16.960
601.76	17.705
602.09	17.327
602.42	17.987
602.76	17.572
603.09	17.276
603.42	18.060
603.76	17.258
604.09	17.173
604.42	17.766
604.76	17.445
605.09	17.230
605.42	17.968
605.75	17.294
606.09	17.325
606.42	16.972
606.75	17.143
607.09	17.714
607.42	17.058
607.75	16.874
608.08	16.532
608.42	17.908
608.75	17.783
609.08	17.040
609.41	18.173
609.75	17.692
610.08	17.124
610.41	16.908
610.74	17.796
611.07	17.881
611.41	17.488
611.74	18.337
612.07	17.291
612.40	17.998
612.73	17.232
613.07	17.323
613.40	17.670
613.73	16.900
614.06	17.418
614.39	17.936
614.72	17.311
615.06	17.095
615.39	17.303
615.72	16.523
616.05	17.654
616.38	17.664
616.71	17.798
617.05	17.974
617.38	17.725
617.71	17.421
618.04	17.651
618.37	18.096
618.70	18.086
619.03	18.889
619.36	17.583
619.69	17.741
620.03	18.627
620.36	17.597
620.69	18.701
621.02	18.425
621.35	19.170
621.68	18.282
622.01	17.083
622.34	18.516
622.67	18.060
623.00	17.841
623.33	17.454
623.66	18.474
623.99	16.868
624.32	18.023
624.65	17.970
624.99	17.381
625.32	17.589
625.65	18.460
625.98	19.178
626.31	15.794
626.64	18.111
626.97	19.634
627.30	18.564
627.63	17.764
627.96	18.598
628.29	19.426
628.62	19.469
628.95	19.138
629.28	17.540
629.61	17.547
629.94	19.159
630.26	18.083
630.59	19.147
630.92	18.462
631.25	16.513
631.58	18.833
631.91	17.544
632.24	19.381
632.57	18.636
632.90	16.607
633.23	19.412
633.56	19.018
633.89	17.879
634.22	18.025
634.55	18.679
634.88	19.157
635.20	18.462
635.53	18.133
635.86	18.075
636.19	18.499
636.52	18.622
636.85	17.990
637.18	16.855
637.51	18.365
637.83	18.134
638.16	20.055
638.49	16.349
638.82	19.474
639.15	18.589
639.48	17.194
639.81	19.386
640.13	17.605
640.46	16.472
640.79	18.851
641.12	18.021
641.45	18.018
641.77	17.630
642.10	19.905
642.43	17.846
642.76	21.287
643.09	19.709
643.41	18.123
643.74	17.463
644.07	18.719
644.40	19.426
644.73	18.739
645.05	19.463
645.38	19.400
645.71	17.908
646.04	18.492
646.36	19.504
646.69	18.525
647.02	20.605
647.35	20.896
647.67	19.744
648.00	19.963
648.33	20.478
648.66	18.814
648.98	17.085
649.31	16.529
649.64	17.739
649.96	16.856
650.29	17.376
650.62	18.803
650.94	17.037
651.27	16.387
651.60	18.559
651.92	18.706
652.25	17.940
652.58	18.667
652.90	21.269
653.23	18.992
653.56	18.274
653.88	18.213
654.21	14.536
654.54	18.166
654.86	19.185
655.19	17.251
655.52	18.189
655.84	15.550
656.17	17.372
656.49	23.832
656.82	24.872
657.15	19.170
657.47	14.181
657.80	10.779
658.13	10.615
658.45	16.411
658.78	16.442
659.10	16.302
659.43	16.564
659.75	16.478
660.08	16.483
660.41	18.999
660.73	17.127
661.06	19.064
661.38	18.200
661.71	16.838
662.03	19.528
662.36	18.681
662.68	17.478
663.01	21.834
663.33	15.777
663.66	16.744
663.98	16.279
664.31	21.535
664.63	13.825
664.96	15.435
665.28	15.894
665.61	19.264
665.93	18.261
666.26	19.523
666.58	16.779
666.91	16.941
667.23	17.689
667.56	18.483
667.88	16.547
668.21	18.854
668.53	17.021
668.86	18.868
669.18	15.094
669.50	18.402
669.83	16.512
670.15	15.851
670.48	18.900
670.80	19.816
671.13	17.673
671.45	14.612
671.77	20.386
672.10	18.218
672.42	19.288
672.75	17.229
673.07	20.751
673.39	17.431
673.72	16.174
674.04	15.625
674.37	19.703
674.69	18.630
675.01	19.111
675.34	15.315
675.66	19.907
675.98	19.512
676.31	19.725
676.63	16.390
676.95	17.045
677.28	20.471
677.60	20.000
677.92	16.284
678.25	17.068
678.57	17.749
678.89	18.277
679.22	15.213
679.54	17.470
679.86	14.911
680.18	18.447
680.51	18.939
680.83	18.688
681.15	19.000
681.48	17.213
681.80	17.562
682.12	18.548
682.44	17.364
682.77	18.543
683.09	16.934
683.41	19.773
683.73	17.512
684.06	17.478
684.38	15.914
684.70	18.083
685.02	15.560
685.34	15.810
685.67	16.135
685.99	16.998
686.31	16.283
686.63	16.698
686.96	16.160
687.28	13.737
687.60	16.350
687.92	16.364
688.24	16.532
688.56	19.432
688.89	17.411
689.21	20.000
689.53	18.794
689.85	17.907
690.17	18.304
690.49	16.548
690.82	16.748
691.14	17.857
691.46	12.617
691.78	17.568
692.10	20.000
692.42	18.398
692.74	16.667
693.06	15.541
693.39	13.122
693.71	15.611
694.03	15.704
694.35	16.355
694.67	19.192
694.99	16.188
695.31	19.060
695.63	15.000
695.95	14.646
696.27	16.062
696.59	18.611
696.91	19.608
697.23	15.424
697.56	17.574
697.88	18.710
698.20	18.451
698.52	17.412
698.84	15.789
699.16	17.250
699.48	16.792
699.80	16.377
700.12	15.903
700.44	18.487
700.76	13.081
701.08	13.333
701.40	18.675
701.72	20.370
702.04	17.162
702.36	18.060
702.68	15.015
703.00	18.788
703.32	16.716
703.64	18.079
703.96	15.652
704.28	16.871
704.60	18.413
704.91	12.618
705.23	14.286
705.55	16.254
705.87	19.856
706.19	18.519
706.51	17.526
706.83	18.006
707.15	14.330
707.47	16.246
707.79	15.104
708.11	15.750
708.43	14.500
708.74	16.279
709.06	16.338
709.38	17.431
709.70	19.527
710.02	17.197
710.34	17.028
710.66	12.500
710.98	16.225
711.29	19.016
711.61	16.610
711.93	14.984
712.25	19.244
712.57	16.850
712.89	12.687
713.20	16.955
713.52	18.815
713.84	15.700
714.16	16.151
714.48	20.000
714.80	16.987
715.11	18.237
715.43	14.420
715.75	17.333
716.07	17.608
716.39	17.450
716.70	14.391
717.02	12.214
717.34	16.599
717.66	14.602
717.97	16.087
718.29	17.155
718.61	14.961
718.93	16.279
719.24	17.871
719.56	16.064
719.88	16.838
720.20	14.394
720.51	13.793
720.83	16.216
721.15	15.126
721.46	11.694
721.78	15.810
722.10	13.383
722.42	11.618
722.73	18.776
723.05	18.367
723.37	16.949
723.68	17.117
724.00	12.821
724.32	10.667
724.63	9.545
724.95	15.284
725.27	14.286
725.58	16.525
725.90	13.095
726.22	15.058
726.53	20.000
726.85	15.356
727.16	18.491
727.48	17.004
727.80	12.955
728.11	15.678
728.43	14.118
728.74	9.677
729.06	17.200
729.38	20.677
729.69	15.936
730.01	14.231
730.32	16.418
730.64	20.141
730.96	13.962
731.27	12.333
731.59	13.898
731.90	11.146
732.22	17.035
732.53	16.611
732.85	18.085
733.16	20.875
733.48	7.914
733.80	10.145
734.11	14.576
734.43	15.808
734.74	16.364
735.06	15.961
735.37	17.221
735.69	14.141
736.00	15.331
736.32	18.121
736.63	11.620
736.95	16.724
737.26	14.235
737.58	13.423
737.89	12.821
738.21	15.038
738.52	16.872
738.83	17.031
739.15	14.847
739.46	17.323
739.78	16.117
740.09	16.340
740.41	19.928
740.72	14.961
741.04	19.028
741.35	17.872
741.66	9.953
741.98	17.347
742.29	14.851
742.61	15.183
742.92	7.583
743.23	12.037
743.55	16.290
743.86	12.440
744.18	13.397
744.49	12.766
744.80	14.674
745.12	17.647
745.43	14.634
745.74	18.229
746.06	14.146
746.37	12.565
746.68	14.692
747.00	12.234
747.31	17.413
747.62	11.650
747.94	17.703
748.25	13.366
748.56	8.743
748.88	13.089
749.19	17.553
749.50	19.212
749.82	10.377
750.13	11.927
750.44	16.917
750.75	17.910
751.07	20.073
751.38	16.475
751.69	10.980
752.01	15.891
752.32	9.562
752.63	8.300
752.94	15.948
753.26	17.992
753.57	13.575
753.88	18.142
754.19	13.750
754.51	14.876
754.82	12.955
755.13	15.417
755.44	16.935
755.75	13.281
756.07	13.230
756.38	13.962
756.69	13.793
757.00	14.667
757.31	16.013
757.63	14.329
757.94	15.556
758.25	13.699
758.56	14.096
758.87	13.598
759.18	12.461
759.50	16.000
759.81	19.398
760.12	13.871
760.43	13.030
760.74	12.654
761.05	12.615
761.36	13.920
761.67	17.879
761.99	13.265
762.30	14.182
762.61	12.253
762.92	14.932
763.23	16.216
763.54	10.748
763.85	12.712
764.16	14.523
764.47	13.306
764.78	12.088
765.10	19.865
765.41	15.142
765.72	10.476
766.03	6.767
766.34	12.044
766.65	20.319
766.96	14.141
767.27	11.702
767.58	12.644
767.89	12.057
768.20	10.795
768.51	14.286
768.82	10.345
769.13	8.295
769.44	12.446
769.75	10.046
770.06	11.207
770.37	15.385
770.68	14.213
770.99	8.597
771.30	20.098
771.61	15.385
771.92	20.690
772.23	13.793
772.54	16.129
772.85	17.901
773.16	18.539
773.47	18.301
773.78	9.804
774.09	10.180
774.39	13.333
774.70	17.834
775.01	23.448
775.32	11.429
775.63	3.306
775.94	6.870
776.25	17.323
776.56	17.500
776.87	12.500
777.18	6.838
777.48	14.655
777.79	11.304
778.10	11.429
778.41	9.009
778.72	18.254
779.03	9.774
779.34	14.184
779.65	17.808
779.95	13.699
780.26	7.586
780.57	8.130
780.88	11.811
781.19	13.793
781.50	15.504
781.80	13.609
782.11	12.579
782.42	10.769
782.73	10.791
783.04	14.074
783.34	5.556
783.65	-0.855
783.96	4.918
784.27	26.207
784.57	8.943
784.88	9.375
785.19	13.000
785.50	13.000
785.81	12.069
786.11	9.483
786.42	3.883
786.73	19.091
787.04	10.204
787.34	1.786
787.65	10.476
787.96	13.274
788.26	10.909
788.57	5.983
788.88	15.625
789.19	12.698
789.49	2.609
789.80	4.082
790.11	16.162
790.41	1.818
790.72	17.391
791.03	10.227
791.33	7.500
791.64	17.500
791.95	12.791
792.25	8.511
792.56	14.607
792.87	12.329
793.17	5.797
793.48	2.667
793.79	6.250
794.09	13.750
794.40	18.868
794.70	3.883
795.01	5.691
795.32	11.111
795.62	18.095
795.93	9.804
796.23	7.547
796.54	11.458
796.85	0.000
797.15	11.268
797.46	9.722
797.76	12.121
798.07	10.465
798.37	0.000
798.68	10.606
798.99	-4.938
799.29	12.857
799.60	-4.348
799.90	10.667
800.21	4.918
800.51	12.308
800.82	11.864
801.12	27.536
801.43	11.475
801.73	3.175
802.04	0.000
802.34	14.925
802.65	5.769
802.95	1.786
803.26	3.846
803.56	23.529
803.87	-6.522
804.17	12.000
804.48	15.873
804.78	9.259
805.09	-6.522
805.39	4.444
805.70	20.370
806.00	5.263
806.30	7.042
806.61	-1.429
806.91	-4.167
807.22	25.000
807.52	10.667
807.83	-1.818
808.13	5.556
808.43	22.059
808.74	11.940
809.04	3.390
809.35	0.000
809.65	9.375
809.95	-8.108
810.26	-9.091
810.56	4.110
810.86	7.143
811.17	-20.000
811.47	14.286
811.77	5.263
812.08	-6.818
812.38	13.208
812.69	-5.000
812.99	3.030
813.29	2.632
813.59	-37.143
813.90	-2.273
814.20	-30.769
814.50	7.692
814.81	9.434
815.11	-6.383
815.41	3.390
815.72	14.286
816.02	23.529
816.32	10.417
816.62	4.878
816.93	8.108
817.23	20.000
817.53	35.417
817.84	-8.696
818.14	-1.923
818.44	-13.158
818.74	-2.174
819.04	-47.500
819.35	-2.703
819.65	-26.471
819.95	0.000
820.25	26.190
820.56	37.500
820.86	-34.483
821.16	12.500
821.46	12.766
821.76	0.000
822.07	-16.279
822.37	-27.027
822.67	-3.125
822.97	0.000
823.27	21.429
823.57	-12.000
823.88	0.000
824.18	3.571
824.48	-8.824
824.78	-35.484
825.08	-17.391
825.38	-12.121
825.69	-83.333
825.99	7.895
826.29	13.889
826.59	-26.667
826.89	-80.952
827.19	4.348
827.49	10.000
827.79	-22.857
828.09	-14.286
828.39	18.182
828.70	32.432
829.00	-7.143
829.30	-66.667
829.60	-13.333
829.90	6.250
830.20	-15.789
830.50	-25.926
830.80	-26.087
831.10	9.091
831.40	-3.030
831.70	38.710
832.00	-4.762
832.30	4.762
832.60	8.333
832.90	-27.586
833.20	-50.000
833.50	12.121
833.80	0.000
834.10	-38.462
834.40	21.875
834.70	-133.333
835.00	-15.789
835.30	42.308
835.60	-26.667
835.90	-3.226
836.20	27.273
836.50	-3.571
836.80	-65.385
837.10	-3.571
837.40	-333.333
837.70	-18.182
838.00	-63.636
838.30	-43.478
838.60	-69.231
838.90	9.091
839.19	25.000
839.49	13.333
839.79	100.000
840.09	16.667
840.39	3.571
840.69	0.000
840.99	-11.538
841.29	15.789
841.59	-160.000
841.88	-81.818
842.18	30.000
842.48	25.000
842.78	0.000
843.08	3.704
843.38	-170.000
843.68	-21.739
843.97	-73.333
844.27	-73.333
844.57	20.000
844.87	0.000
845.17	0.000
845.47	-20.000
845.76	-38.095
846.06	0.000
846.36	-80.000
846.66	-50.000
846.96	-40.000
847.25	-225.000
847.55	14.286
847.85	50.000
848.15	-13.636
848.44	-700.000
848.74	-10.000
849.04	-3.704
849.34	-54.545
849.63	-150.000
849.93	-220.000
850.23	-33.333
850.53	30.000
850.82	-38.462
851.12	-33.333
851.42	-13.333
851.71	-38.462
852.01	-7.143
852.31	-250.000
852.61	27.273
852.90	-15.000
853.20	-21.053
853.50	-41.667
853.79	-8.696
854.09	12.500
854.39	-52.632
854.68	-54.167
854.98	35.484
855.28	26.923
855.57	25.000
855.87	22.222
856.17	-14.815
856.46	-35.714
856.76	-20.000
857.05	-11.111
857.35	12.000
857.65	-66.667
857.94	0.000
858.24	10.345
858.53	-5.556
858.83	-18.519
859.13	-22.727
859.42	-4.348
859.72	0.000
860.01	-300.000
860.31	8.000
860.60	4.762
860.90	0.000
861.20	-6.667
861.49	-350.000
861.79	-80.000
862.08	-25.000
862.38	-26.667
862.67	-260.000
862.97	-66.667
863.26	-66.667
863.56	16.667
863.85	-700.000
864.15	5.556
864.44	10.000
864.74	-28.571
865.03	225.000
865.33	-180.000
865.62	-100.000
865.92	-8.333
866.21	-200.000
866.51	37.500
866.80	-63.636
867.10	0.000
867.39	33.333
867.69	0.000
867.98	38.462
868.27	-366.667
868.57	-20.000
868.86	44.444
869.16	-61.538
869.45	40.000
869.75	-700.000
870.04	0.000
870.33	-242.857
870.63	-9.524
870.92	400.000
871.22	-280.000
871.51	-900.000
871.80	77.778
872.10	566.667
>>>>>End Processed Spectral Data<<<<<
