SpectraSuite Data File
++++++++++++++++++++++++++++++++++++
Date: Fri May 15 20:48:08 PDT 2015
User: schluterlab
Dark Spectrum Present: Yes
Reference Spectrum Present: Yes
Number of Sampled Component Spectra: 1
Spectrometers: USB2E3373
Integration Time (usec): 3000 (USB2E3373)
Spectra Averaged: 3 (USB2E3373)
Boxcar Smoothing: 0 (USB2E3373)
Correct for Electrical Dark: No (USB2E3373)
Strobe/Lamp Enabled: No (USB2E3373)
Correct for Detector Non-linearity: No (USB2E3373)
Correct for Stray Light: No (USB2E3373)
Number of Pixels in Processed Spectrum: 2048
>>>>>Begin Processed Spectral Data<<<<<
178.53	0.000
178.91	0.000
179.29	50.000
179.67	-850.000
180.04	57.143
180.42	-125.000
180.80	-100.000
181.18	100.000
181.56	750.000
181.94	-200.000
182.31	600.000
182.69	-240.000
183.07	-433.333
183.45	-200.000
183.83	166.667
184.20	0.000
184.58	122.222
184.96	-25.000
185.34	-33.333
185.72	-750.000
186.09	100.000
186.47	-400.000
186.85	300.000
187.23	188.889
187.61	300.000
187.98	-600.000
188.36	-11.111
188.74	-466.667
189.12	-47.059
189.49	-11.111
189.87	0.000
190.25	-42.857
190.63	150.000
191.00	-500.000
191.38	15.789
191.76	-250.000
192.14	125.000
192.51	-400.000
192.89	-22.222
193.27	-71.429
193.65	116.667
194.02	209.091
194.40	-30.000
194.78	-187.500
195.15	25.000
195.53	-175.000
195.91	300.000
196.29	-300.000
196.66	76.923
197.04	42.857
197.42	-111.111
197.79	-433.333
198.17	-138.462
198.55	900.000
198.92	-466.667
199.30	-100.000
199.68	-140.000
200.05	-300.000
200.43	0.000
200.81	-100.000
201.18	-333.333
201.56	1200.000
201.94	-100.000
202.31	-100.000
202.69	-120.000
203.07	300.000
203.44	0.000
203.82	0.000
204.19	42.857
204.57	-300.000
204.95	162.500
205.32	60.000
205.70	-85.714
206.08	-125.000
206.45	111.111
206.83	42.857
207.20	-271.429
207.58	800.000
207.96	-266.667
208.33	-40.000
208.71	75.000
209.08	-83.333
209.46	-500.000
209.84	60.000
210.21	-1400.000
210.59	85.714
210.96	-66.667
211.34	-175.000
211.71	6.667
212.09	-100.000
212.46	-800.000
212.84	0.000
213.22	110.000
213.59	900.000
213.97	-38.462
214.34	-27.273
214.72	-116.667
215.09	600.000
215.47	-30.769
215.84	-36.364
216.22	-566.667
216.59	12.500
216.97	-400.000
217.34	-250.000
217.72	-180.000
218.09	-62.500
218.47	112.500
218.84	-1600.000
219.22	-88.889
219.59	-180.000
219.97	133.333
220.34	450.000
220.72	28.571
221.09	-200.000
221.47	-400.000
221.84	-900.000
222.22	-800.000
222.59	-18.182
222.97	16.667
223.34	0.000
223.72	-14.286
224.09	14.286
224.46	14.286
224.84	666.667
225.21	30.000
225.59	13.333
225.96	100.000
226.34	225.000
226.71	-142.857
227.08	0.000
227.46	12.500
227.83	-400.000
228.21	0.000
228.58	-18.182
228.95	-112.500
229.33	130.000
229.70	-25.000
230.08	-100.000
230.45	-142.857
230.82	85.714
231.20	-20.000
231.57	-7.143
231.95	-57.143
232.32	-130.000
232.69	14.286
233.07	-233.333
233.44	-120.000
233.81	-120.000
234.19	-66.667
234.56	-17.647
234.93	400.000
235.31	-150.000
235.68	-300.000
236.05	-84.615
236.43	-85.000
236.80	-35.294
237.17	-9.375
237.55	-50.000
237.92	18.519
238.29	-19.444
238.67	-6.667
239.04	8.824
239.41	-19.512
239.79	-16.667
240.16	39.024
240.53	-21.053
240.91	-6.522
241.28	-3.175
241.65	-7.143
242.02	20.548
242.40	8.333
242.77	-3.390
243.14	-9.091
243.51	5.000
243.89	20.690
244.26	9.195
244.63	4.762
245.00	4.124
245.38	17.526
245.75	-4.494
246.12	1.724
246.49	7.438
246.87	9.615
247.24	5.042
247.61	7.895
247.98	10.569
248.36	11.875
248.73	8.553
249.10	7.792
249.47	5.696
249.84	1.961
250.22	5.882
250.59	9.150
250.96	12.207
251.33	3.488
251.70	5.294
252.08	8.122
252.45	8.416
252.82	8.543
253.19	9.677
253.56	5.607
253.94	9.459
254.31	10.435
254.68	8.333
255.05	10.630
255.42	6.987
255.79	8.880
256.16	9.339
256.54	10.821
256.91	5.323
257.28	11.896
257.65	5.993
258.02	9.929
258.39	10.774
258.76	12.088
259.14	8.970
259.51	13.916
259.88	9.278
260.25	12.092
260.62	10.417
260.99	8.136
261.36	7.192
261.73	8.861
262.10	12.766
262.47	6.442
262.85	7.837
263.22	11.077
263.59	8.100
263.96	10.870
264.33	9.697
264.70	9.821
265.07	10.417
265.44	10.765
265.81	8.757
266.18	8.470
266.55	11.825
266.92	12.694
267.29	11.227
267.66	11.253
268.03	9.948
268.40	8.877
268.77	13.369
269.14	14.149
269.51	13.368
269.88	9.975
270.25	8.163
270.62	7.317
270.99	9.207
271.36	7.335
271.73	10.329
272.10	11.922
272.47	11.111
272.84	8.911
273.21	11.601
273.58	12.048
273.95	10.069
274.32	9.007
274.69	7.919
275.06	10.938
275.43	10.431
275.80	8.830
276.17	8.736
276.54	13.276
276.91	10.307
277.28	8.734
277.65	10.950
278.02	9.149
278.39	9.190
278.76	10.482
279.13	8.506
279.50	12.395
279.87	10.799
280.23	12.043
280.60	9.942
280.97	12.323
281.34	11.346
281.71	10.062
282.08	12.270
282.45	10.372
282.82	9.459
283.19	10.832
283.56	10.405
283.92	8.918
284.29	9.231
284.66	12.984
285.03	9.037
285.40	10.775
285.77	10.721
286.14	11.552
286.51	10.886
286.87	7.861
287.24	11.234
287.61	10.582
287.98	12.632
288.35	9.532
288.72	9.632
289.08	9.375
289.45	10.369
289.82	9.965
290.19	10.922
290.56	10.120
290.93	8.418
291.29	7.858
291.66	10.236
292.03	7.974
292.40	9.355
292.77	9.410
293.13	5.519
293.50	6.980
293.87	9.466
294.24	9.119
294.60	8.346
294.97	9.077
295.34	7.362
295.71	9.985
296.08	8.670
296.44	7.255
296.81	10.139
297.18	7.971
297.55	10.840
297.91	8.767
298.28	9.103
298.65	6.920
299.02	7.682
299.38	6.566
299.75	8.690
300.12	7.984
300.48	7.115
300.85	7.985
301.22	8.701
301.59	7.237
301.95	7.848
302.32	8.690
302.69	8.955
303.05	7.550
303.42	7.347
303.79	8.645
304.15	8.005
304.52	5.945
304.89	7.485
305.25	6.659
305.62	5.951
305.99	8.187
306.35	6.012
306.72	8.211
307.09	7.526
307.45	8.152
307.82	7.176
308.19	8.246
308.55	7.852
308.92	8.061
309.29	7.263
309.65	6.781
310.02	7.701
310.38	6.915
310.75	8.306
311.12	7.320
311.48	7.953
311.85	7.539
312.22	7.700
312.58	7.856
312.95	6.724
313.31	7.971
313.68	6.283
314.05	8.367
314.41	9.278
314.78	9.794
315.14	9.866
315.51	9.731
315.87	9.016
316.24	10.415
316.61	9.449
316.97	10.119
317.34	10.156
317.70	9.369
318.07	9.808
318.43	11.176
318.80	9.659
319.16	11.328
319.53	11.206
319.89	11.614
320.26	12.247
320.62	13.741
320.99	11.587
321.35	12.539
321.72	14.019
322.08	14.300
322.45	14.315
322.81	13.752
323.18	15.113
323.54	13.996
323.91	14.995
324.27	15.430
324.64	16.948
325.00	16.788
325.37	18.365
325.73	17.588
326.10	18.074
326.46	19.193
326.83	19.948
327.19	19.529
327.56	21.112
327.92	23.063
328.29	21.339
328.65	22.547
329.01	21.691
329.38	23.871
329.74	22.002
330.11	23.911
330.47	23.655
330.84	24.231
331.20	25.951
331.56	24.537
331.93	25.753
332.29	26.398
332.66	26.154
333.02	26.022
333.38	24.015
333.75	28.022
334.11	25.425
334.48	26.383
334.84	26.557
335.20	25.984
335.57	24.297
335.93	27.010
336.29	26.519
336.66	26.249
337.02	25.465
337.38	26.204
337.75	26.818
338.11	26.961
338.47	26.369
338.84	26.433
339.20	27.422
339.56	27.523
339.93	27.037
340.29	27.706
340.65	26.971
341.02	27.482
341.38	28.053
341.74	26.855
342.11	26.083
342.47	28.025
342.83	27.768
343.20	28.136
343.56	28.696
343.92	27.724
344.28	27.583
344.65	27.375
345.01	27.571
345.37	26.661
345.73	29.205
346.10	27.696
346.46	26.913
346.82	27.414
347.19	27.265
347.55	27.402
347.91	27.184
348.27	27.243
348.63	28.961
349.00	27.892
349.36	28.346
349.72	28.441
350.08	28.934
350.45	28.731
350.81	27.492
351.17	28.583
351.53	29.469
351.89	27.002
352.26	28.080
352.62	27.581
352.98	27.871
353.34	27.456
353.70	27.994
354.07	28.065
354.43	28.183
354.79	27.498
355.15	28.651
355.51	28.085
355.87	28.560
356.24	27.977
356.60	26.516
356.96	28.889
357.32	28.035
357.68	27.600
358.04	28.998
358.40	27.251
358.77	27.512
359.13	28.022
359.49	27.504
359.85	27.847
360.21	27.592
360.57	28.233
360.93	27.610
361.29	28.172
361.66	27.978
362.02	29.015
362.38	30.008
362.74	28.690
363.10	28.367
363.46	27.947
363.82	29.001
364.18	26.937
364.54	26.029
364.90	27.670
365.26	28.239
365.62	29.124
365.98	28.152
366.35	29.643
366.71	28.529
367.07	27.358
367.43	27.678
367.79	28.481
368.15	28.715
368.51	27.822
368.87	26.992
369.23	28.014
369.59	28.717
369.95	27.933
370.31	28.902
370.67	29.104
371.03	27.857
371.39	27.571
371.75	27.985
372.11	28.388
372.47	28.994
372.83	28.957
373.19	28.673
373.55	27.726
373.91	28.654
374.27	28.065
374.63	29.002
374.99	28.865
375.35	28.203
375.71	28.671
376.07	28.301
376.42	28.639
376.78	28.389
377.14	27.082
377.50	28.818
377.86	28.514
378.22	28.462
378.58	28.269
378.94	28.544
379.30	28.384
379.66	28.652
380.02	27.958
380.38	27.815
380.74	27.947
381.09	29.264
381.45	28.685
381.81	28.809
382.17	28.490
382.53	28.357
382.89	28.374
383.25	29.496
383.61	28.659
383.97	28.317
384.32	28.893
384.68	28.297
385.04	27.206
385.40	28.376
385.76	29.371
386.12	29.043
386.48	28.352
386.83	28.028
387.19	28.816
387.55	28.294
387.91	28.912
388.27	28.388
388.62	29.012
388.98	28.484
389.34	27.295
389.70	28.900
390.06	28.383
390.42	27.720
390.77	27.404
391.13	27.554
391.49	28.008
391.85	27.940
392.20	27.684
392.56	27.400
392.92	27.892
393.28	28.538
393.64	27.508
393.99	28.339
394.35	27.198
394.71	27.842
395.07	26.838
395.42	27.140
395.78	28.534
396.14	27.932
396.50	27.584
396.85	28.075
397.21	27.444
397.57	27.461
397.92	27.442
398.28	27.356
398.64	26.265
399.00	27.257
399.35	26.580
399.71	28.087
400.07	26.300
400.42	26.255
400.78	27.189
401.14	26.437
401.49	26.563
401.85	26.447
402.21	27.410
402.57	26.687
402.92	26.035
403.28	27.130
403.63	26.482
403.99	26.084
404.35	26.546
404.70	25.655
405.06	25.969
405.42	26.663
405.77	25.973
406.13	26.892
406.49	26.229
406.84	26.467
407.20	27.815
407.55	24.662
407.91	26.203
408.27	25.749
408.62	27.262
408.98	25.570
409.34	26.394
409.69	24.289
410.05	24.569
410.40	25.741
410.76	26.176
411.11	25.812
411.47	26.298
411.83	25.110
412.18	26.319
412.54	25.343
412.89	24.877
413.25	24.609
413.60	25.404
413.96	24.049
414.31	25.122
414.67	25.144
415.03	24.700
415.38	24.151
415.74	25.863
416.09	26.323
416.45	23.970
416.80	24.785
417.16	24.931
417.51	24.850
417.87	25.424
418.22	24.611
418.58	25.017
418.93	26.270
419.29	24.712
419.64	24.887
420.00	26.071
420.35	23.343
420.71	24.787
421.06	24.616
421.42	25.481
421.77	25.145
422.12	23.893
422.48	24.743
422.83	24.536
423.19	23.928
423.54	23.574
423.90	23.793
424.25	24.914
424.61	25.214
424.96	24.797
425.31	25.708
425.67	24.531
426.02	24.028
426.38	24.984
426.73	24.576
427.09	25.696
427.44	25.118
427.79	24.867
428.15	24.697
428.50	25.318
428.85	22.973
429.21	25.297
429.56	24.582
429.92	24.191
430.27	24.762
430.62	24.203
430.98	24.416
431.33	24.238
431.68	23.862
432.04	24.930
432.39	23.731
432.74	24.293
433.10	24.713
433.45	23.775
433.80	24.376
434.16	24.211
434.51	23.763
434.86	24.913
435.22	24.846
435.57	25.140
435.92	24.970
436.28	24.329
436.63	23.845
436.98	23.233
437.34	23.412
437.69	25.045
438.04	23.077
438.39	23.763
438.75	23.376
439.10	23.090
439.45	24.224
439.81	23.609
440.16	23.990
440.51	23.821
440.86	23.988
441.22	23.473
441.57	23.620
441.92	24.397
442.27	24.113
442.63	24.465
442.98	23.665
443.33	24.040
443.68	24.138
444.03	24.540
444.39	24.250
444.74	24.861
445.09	23.552
445.44	24.444
445.79	24.342
446.15	23.844
446.50	23.405
446.85	24.230
447.20	23.983
447.55	23.493
447.91	22.899
448.26	23.620
448.61	23.949
448.96	23.580
449.31	23.642
449.66	24.390
450.02	23.503
450.37	23.770
450.72	23.654
451.07	24.114
451.42	23.720
451.77	23.930
452.12	22.847
452.47	23.760
452.83	23.734
453.18	23.529
453.53	24.210
453.88	23.679
454.23	23.725
454.58	23.300
454.93	25.193
455.28	21.841
455.63	23.869
455.98	22.910
456.34	23.627
456.69	22.554
457.04	25.268
457.39	22.904
457.74	22.914
458.09	22.778
458.44	23.698
458.79	23.025
459.14	22.769
459.49	24.299
459.84	23.237
460.19	23.483
460.54	23.044
460.89	22.841
461.24	22.981
461.59	23.515
461.94	22.327
462.29	24.065
462.64	24.518
462.99	23.290
463.34	22.670
463.69	21.300
464.04	22.821
464.39	22.984
464.74	22.945
465.09	23.331
465.44	22.562
465.79	22.562
466.14	22.520
466.49	22.082
466.84	23.319
467.19	23.091
467.54	22.286
467.89	22.868
468.24	22.871
468.59	23.365
468.94	22.603
469.29	23.213
469.64	23.582
469.99	22.915
470.34	21.980
470.68	22.371
471.03	23.001
471.38	23.395
471.73	22.479
472.08	22.456
472.43	22.752
472.78	22.824
473.13	22.177
473.48	22.410
473.83	22.042
474.17	22.474
474.52	22.144
474.87	22.848
475.22	21.965
475.57	21.796
475.92	22.655
476.27	23.632
476.61	22.280
476.96	22.253
477.31	22.499
477.66	22.247
478.01	22.010
478.36	21.678
478.70	22.077
479.05	22.363
479.40	21.834
479.75	21.741
480.10	22.222
480.45	21.700
480.79	22.457
481.14	21.926
481.49	21.232
481.84	21.573
482.19	21.703
482.53	21.775
482.88	22.816
483.23	21.497
483.58	22.075
483.92	21.926
484.27	21.149
484.62	21.201
484.97	20.730
485.31	21.026
485.66	19.909
486.01	20.310
486.36	19.713
486.70	20.468
487.05	20.751
487.40	21.044
487.75	20.958
488.09	20.797
488.44	21.080
488.79	20.770
489.13	21.394
489.48	20.479
489.83	21.300
490.17	21.169
490.52	21.293
490.87	21.518
491.22	21.347
491.56	21.205
491.91	20.937
492.26	21.536
492.60	21.305
492.95	21.397
493.30	20.616
493.64	21.071
493.99	21.014
494.34	20.631
494.68	20.762
495.03	20.681
495.37	20.265
495.72	21.252
496.07	21.561
496.41	20.943
496.76	20.958
497.11	20.447
497.45	20.477
497.80	21.594
498.14	21.759
498.49	20.924
498.84	21.008
499.18	20.181
499.53	21.429
499.87	21.012
500.22	20.821
500.56	21.079
500.91	21.235
501.26	20.514
501.60	20.266
501.95	20.573
502.29	21.114
502.64	20.077
502.98	20.523
503.33	19.933
503.67	20.289
504.02	21.359
504.36	20.633
504.71	19.495
505.06	19.930
505.40	20.761
505.75	20.670
506.09	20.324
506.44	21.355
506.78	21.735
507.13	20.165
507.47	19.896
507.82	19.925
508.16	20.391
508.51	20.042
508.85	20.565
509.19	19.532
509.54	20.804
509.88	20.065
510.23	20.925
510.57	21.058
510.92	19.776
511.26	19.694
511.61	20.627
511.95	21.205
512.30	19.678
512.64	20.868
512.98	20.045
513.33	20.817
513.67	21.035
514.02	20.137
514.36	21.143
514.70	21.212
515.05	21.328
515.39	20.661
515.74	21.317
516.08	20.681
516.42	21.614
516.77	20.714
517.11	19.466
517.46	19.509
517.80	20.381
518.14	19.596
518.49	21.094
518.83	20.535
519.17	19.648
519.52	20.012
519.86	19.388
520.20	20.049
520.55	19.262
520.89	21.016
521.23	20.709
521.58	20.505
521.92	20.449
522.26	20.364
522.61	21.039
522.95	20.728
523.29	21.410
523.64	21.156
523.98	20.350
524.32	19.459
524.66	20.166
525.01	20.195
525.35	20.026
525.69	20.269
526.04	19.577
526.38	21.206
526.72	19.882
527.06	20.039
527.41	19.921
527.75	19.638
528.09	19.668
528.43	22.282
528.78	20.066
529.12	19.484
529.46	19.688
529.80	20.646
530.15	20.594
530.49	19.731
530.83	20.657
531.17	19.812
531.51	19.220
531.86	19.443
532.20	18.511
532.54	19.741
532.88	20.260
533.22	19.825
533.57	19.528
533.91	19.191
534.25	20.052
534.59	18.666
534.93	19.257
535.27	18.528
535.62	19.507
535.96	20.417
536.30	20.251
536.64	20.055
536.98	19.164
537.32	19.559
537.66	19.846
538.01	19.650
538.35	19.071
538.69	18.509
539.03	18.865
539.37	19.314
539.71	19.291
540.05	19.212
540.39	19.598
540.73	19.456
541.07	18.785
541.42	20.565
541.76	19.821
542.10	19.270
542.44	18.972
542.78	17.894
543.12	18.132
543.46	19.958
543.80	19.986
544.14	18.224
544.48	18.388
544.82	19.754
545.16	19.126
545.50	19.826
545.84	19.405
546.18	19.362
546.52	19.755
546.86	18.979
547.20	19.814
547.54	17.739
547.88	18.750
548.22	18.409
548.56	18.272
548.90	18.598
549.24	18.320
549.58	18.547
549.92	18.656
550.26	20.147
550.60	18.662
550.94	18.372
551.28	18.934
551.62	18.000
551.96	17.820
552.30	18.129
552.64	17.913
552.98	18.987
553.32	17.903
553.66	18.215
554.00	18.394
554.34	19.276
554.68	17.552
555.02	18.229
555.36	17.726
555.69	18.681
556.03	18.273
556.37	17.794
556.71	18.917
557.05	17.226
557.39	17.993
557.73	18.291
558.07	18.552
558.41	18.836
558.75	19.018
559.08	18.203
559.42	18.254
559.76	17.774
560.10	18.196
560.44	18.466
560.78	18.042
561.12	18.265
561.45	17.217
561.79	18.347
562.13	17.956
562.47	17.626
562.81	17.939
563.15	17.278
563.48	17.680
563.82	19.218
564.16	17.688
564.50	16.824
564.84	17.871
565.17	17.773
565.51	17.828
565.85	17.010
566.19	17.905
566.52	18.499
566.86	17.416
567.20	17.123
567.54	17.397
567.88	17.106
568.21	17.647
568.55	17.174
568.89	18.224
569.23	16.899
569.56	16.900
569.90	17.052
570.24	16.040
570.57	16.582
570.91	16.731
571.25	16.573
571.59	15.976
571.92	15.852
572.26	16.274
572.60	16.496
572.93	16.065
573.27	15.893
573.61	15.811
573.95	16.166
574.28	15.704
574.62	15.637
574.96	15.981
575.29	15.699
575.63	15.159
575.97	15.533
576.30	15.744
576.64	15.338
576.98	16.165
577.31	16.097
577.65	15.894
577.98	15.680
578.32	15.558
578.66	15.173
578.99	15.606
579.33	15.638
579.67	15.695
580.00	15.595
580.34	16.020
580.67	15.381
581.01	15.466
581.35	15.590
581.68	15.253
582.02	15.122
582.35	15.227
582.69	15.427
583.02	15.189
583.36	15.188
583.70	15.992
584.03	15.874
584.37	16.460
584.70	15.989
585.04	14.974
585.37	15.332
585.71	15.379
586.04	15.784
586.38	15.364
586.72	15.265
587.05	16.205
587.39	15.236
587.72	15.938
588.06	15.527
588.39	15.409
588.73	15.904
589.06	15.753
589.40	15.970
589.73	15.809
590.07	16.276
590.40	16.022
590.73	17.092
591.07	15.988
591.40	16.251
591.74	16.018
592.07	16.605
592.41	16.122
592.74	15.412
593.08	15.194
593.41	16.079
593.75	15.440
594.08	15.517
594.41	15.684
594.75	15.115
595.08	15.891
595.42	15.164
595.75	15.359
596.09	15.715
596.42	15.668
596.75	15.808
597.09	15.581
597.42	16.034
597.75	16.125
598.09	15.844
598.42	15.478
598.76	15.358
599.09	15.465
599.42	15.460
599.76	15.350
600.09	15.649
600.42	15.580
600.76	14.933
601.09	15.153
601.42	15.707
601.76	15.085
602.09	15.017
602.42	16.259
602.76	15.153
603.09	16.279
603.42	15.761
603.76	15.282
604.09	14.662
604.42	15.990
604.76	16.288
605.09	16.088
605.42	15.034
605.75	14.623
606.09	14.862
606.42	15.346
606.75	15.411
607.09	15.253
607.42	15.596
607.75	15.275
608.08	15.004
608.42	15.487
608.75	15.759
609.08	15.595
609.41	14.924
609.75	15.575
610.08	16.326
610.41	15.169
610.74	15.115
611.07	14.884
611.41	15.257
611.74	15.725
612.07	15.846
612.40	15.919
612.73	15.198
613.07	15.467
613.40	15.974
613.73	14.941
614.06	16.082
614.39	15.454
614.72	14.846
615.06	15.587
615.39	15.338
615.72	14.478
616.05	15.084
616.38	15.214
616.71	14.985
617.05	15.812
617.38	15.525
617.71	15.283
618.04	15.746
618.37	16.456
618.70	15.380
619.03	16.181
619.36	15.268
619.69	15.921
620.03	15.778
620.36	15.737
620.69	15.632
621.02	15.826
621.35	17.261
621.68	15.646
622.01	16.250
622.34	15.323
622.67	15.694
623.00	16.616
623.33	15.930
623.66	15.333
623.99	15.280
624.32	16.578
624.65	14.586
624.99	16.328
625.32	15.087
625.65	16.261
625.98	16.922
626.31	15.212
626.64	16.984
626.97	15.271
627.30	15.849
627.63	16.551
627.96	15.723
628.29	17.021
628.62	16.912
628.95	14.729
629.28	17.238
629.61	16.052
629.94	17.009
630.26	16.897
630.59	17.482
630.92	16.000
631.25	16.205
631.58	17.070
631.91	15.241
632.24	15.711
632.57	17.159
632.90	16.489
633.23	16.471
633.56	16.121
633.89	15.906
634.22	17.654
634.55	14.358
634.88	15.837
635.20	15.641
635.53	16.800
635.86	15.865
636.19	17.723
636.52	16.964
636.85	15.509
637.18	15.220
637.51	17.107
637.83	15.769
638.16	18.554
638.49	14.578
638.82	18.158
639.15	16.554
639.48	16.919
639.81	17.294
640.13	15.296
640.46	17.347
640.79	15.022
641.12	17.578
641.45	16.517
641.77	17.481
642.10	16.746
642.43	16.720
642.76	14.851
643.09	18.740
643.41	17.314
643.74	15.980
644.07	15.928
644.40	17.905
644.73	17.163
645.05	15.940
645.38	18.519
645.71	16.844
646.04	16.338
646.36	15.957
646.69	18.525
647.02	17.769
647.35	17.351
647.67	17.733
648.00	17.164
648.33	17.747
648.66	17.797
648.98	15.243
649.31	14.711
649.64	15.856
649.96	13.614
650.29	16.014
650.62	17.607
650.94	15.926
651.27	14.711
651.60	15.856
651.92	15.734
652.25	16.163
652.58	17.333
652.90	19.554
653.23	15.798
653.56	15.567
653.88	15.808
654.21	14.186
654.54	14.771
654.86	17.827
655.19	15.497
655.52	15.789
655.84	13.303
656.17	14.409
656.49	19.441
656.82	20.520
657.15	15.839
657.47	12.163
657.80	9.262
658.13	8.861
658.45	13.925
658.78	14.282
659.10	14.450
659.43	14.575
659.75	14.603
660.08	15.586
660.41	16.037
660.73	16.436
661.06	16.984
661.38	13.307
661.71	16.016
662.03	17.382
662.36	16.484
662.68	16.372
663.01	19.214
663.33	14.385
663.66	15.349
663.98	16.744
664.31	17.910
664.63	13.594
664.96	12.174
665.28	15.232
665.61	17.316
665.93	15.870
666.26	17.570
666.58	15.884
666.91	12.941
667.23	16.745
667.56	17.062
667.88	17.506
668.21	17.900
668.53	18.440
668.86	17.217
669.18	11.085
669.50	17.191
669.83	16.047
670.15	16.550
670.48	16.507
670.80	17.512
671.13	15.660
671.45	12.557
671.77	16.094
672.10	17.030
672.42	16.667
672.75	15.453
673.07	16.637
673.39	14.128
673.72	12.229
674.04	15.208
674.37	15.890
674.69	14.775
675.01	15.556
675.34	13.964
675.66	15.741
675.98	17.517
676.31	15.367
676.63	15.439
676.95	13.409
677.28	15.765
677.60	14.458
677.92	16.284
678.25	13.567
678.57	13.636
678.89	13.655
679.22	14.318
679.54	14.859
679.86	14.314
680.18	13.786
680.51	12.879
680.83	14.115
681.15	15.400
681.48	15.369
681.80	15.083
682.12	16.331
682.44	15.690
682.77	15.232
683.09	14.188
683.41	15.682
683.73	13.364
684.06	16.372
684.38	12.903
684.70	13.725
685.02	14.315
685.34	11.265
685.67	13.884
685.99	16.275
686.31	14.513
686.63	14.657
686.96	14.829
687.28	12.121
687.60	13.878
687.92	13.737
688.24	14.113
688.56	14.629
688.89	15.179
689.21	15.111
689.53	15.545
689.85	12.558
690.17	13.839
690.49	14.421
690.82	13.835
691.14	9.524
691.46	16.121
691.78	15.766
692.10	14.839
692.42	14.935
692.74	13.889
693.06	14.865
693.39	11.086
693.71	11.991
694.03	12.240
694.35	17.290
694.67	15.657
694.99	13.316
695.31	17.755
695.63	12.500
695.95	14.899
696.27	14.767
696.59	14.722
696.91	12.045
697.23	13.882
697.56	16.337
697.88	14.409
698.20	12.756
698.52	15.529
698.84	15.311
699.16	14.000
699.48	15.288
699.80	11.166
700.12	15.364
700.44	14.846
700.76	13.372
701.08	11.515
701.40	15.060
701.72	16.667
702.04	17.492
702.36	13.712
702.68	14.414
703.00	14.242
703.32	13.783
703.64	10.452
703.96	14.783
704.28	14.417
704.60	14.603
704.91	12.303
705.23	17.940
705.55	13.428
705.87	15.162
706.19	14.444
706.51	10.653
706.83	17.042
707.15	11.526
707.47	15.406
707.79	13.021
708.11	13.750
708.43	14.500
708.74	14.470
709.06	16.901
709.38	12.232
709.70	12.722
710.02	11.146
710.34	14.551
710.66	12.500
710.98	14.238
711.29	14.754
711.61	13.220
711.93	14.007
712.25	15.464
712.57	15.385
712.89	8.209
713.20	12.457
713.52	11.150
713.84	14.676
714.16	14.433
714.48	11.613
714.80	17.308
715.11	13.374
715.43	11.912
715.75	11.000
716.07	12.957
716.39	10.738
716.70	10.332
717.02	15.267
717.34	12.146
717.66	11.947
717.97	10.000
718.29	13.808
718.61	12.992
718.93	11.628
719.24	15.589
719.56	10.040
719.88	13.058
720.20	12.879
720.51	12.261
720.83	13.514
721.15	10.504
721.46	13.306
721.78	11.462
722.10	13.011
722.42	7.054
722.73	13.878
723.05	13.061
723.37	19.492
723.68	18.018
724.00	16.667
724.32	11.556
724.63	12.273
724.95	14.847
725.27	16.590
725.58	16.102
725.90	6.349
726.22	16.988
726.53	14.237
726.85	14.232
727.16	14.340
727.48	9.312
727.80	14.980
728.11	10.169
728.43	14.510
728.74	9.677
729.06	11.200
729.38	16.541
729.69	11.155
730.01	13.077
730.32	14.552
730.64	12.367
730.96	11.321
731.27	7.667
731.59	8.814
731.90	8.917
732.22	15.142
732.53	16.611
732.85	13.830
733.16	20.202
733.48	5.755
733.80	14.130
734.11	10.508
734.43	13.058
734.74	12.121
735.06	10.423
735.37	14.804
735.69	14.478
736.00	13.589
736.32	11.745
736.63	9.859
736.95	15.358
737.26	8.185
737.58	10.738
737.89	16.117
738.21	12.030
738.52	12.757
738.83	14.410
739.15	11.790
739.46	13.386
739.78	9.158
740.09	16.013
740.41	14.855
740.72	9.055
741.04	12.146
741.35	7.660
741.66	11.848
741.98	4.592
742.29	7.921
742.61	2.094
742.92	6.635
743.23	7.870
743.55	11.765
743.86	4.785
744.18	9.569
744.49	13.298
744.80	8.152
745.12	14.973
745.43	7.805
745.74	12.500
746.06	13.171
746.37	10.995
746.68	15.166
747.00	10.106
747.31	15.920
747.62	13.107
747.94	12.919
748.25	9.901
748.56	10.383
748.88	7.330
749.19	13.298
749.50	16.749
749.82	8.019
750.13	9.633
750.44	15.414
750.75	14.925
751.07	17.153
751.38	11.494
751.69	7.843
752.01	15.891
752.32	11.155
752.63	12.648
752.94	6.897
753.26	17.992
753.57	10.860
753.88	11.062
754.19	7.917
754.51	8.678
754.82	10.526
755.13	15.417
755.44	11.694
755.75	14.453
756.07	10.506
756.38	10.189
756.69	12.644
757.00	12.000
757.31	11.438
757.63	6.402
757.94	11.944
758.25	10.959
758.56	13.032
758.87	9.632
759.18	10.903
759.50	7.273
759.81	11.706
760.12	12.903
760.43	11.515
760.74	12.346
761.05	12.923
761.36	12.216
761.67	11.818
761.99	12.245
762.30	10.545
762.61	12.648
762.92	9.955
763.23	9.910
763.54	7.009
763.85	14.407
764.16	9.544
764.47	10.887
764.78	14.652
765.10	15.152
765.41	8.202
765.72	13.651
766.03	9.398
766.34	11.679
766.65	15.936
766.96	7.071
767.27	10.106
767.58	6.897
767.89	4.965
768.20	11.364
768.51	13.187
768.82	9.852
769.13	7.834
769.44	10.730
769.75	7.306
770.06	10.345
770.37	10.096
770.68	13.706
770.99	11.765
771.30	10.784
771.61	7.240
771.92	9.052
772.23	18.227
772.54	13.441
772.85	8.642
773.16	10.112
773.47	13.072
773.78	8.497
774.09	15.569
774.39	8.667
774.70	7.643
775.01	13.793
775.32	9.286
775.63	0.826
775.94	6.107
776.25	8.661
776.56	8.333
776.87	7.692
777.18	16.239
777.48	15.517
777.79	8.696
778.10	3.810
778.41	2.703
778.72	3.175
779.03	10.526
779.34	8.511
779.65	13.699
779.95	4.110
780.26	24.138
780.57	-2.439
780.88	14.173
781.19	2.586
781.50	5.426
781.80	10.651
782.11	9.434
782.42	9.231
782.73	8.633
783.04	11.111
783.34	8.333
783.65	1.709
783.96	9.836
784.27	11.724
784.57	4.065
784.88	14.062
785.19	12.000
785.50	21.000
785.81	9.483
786.11	-1.724
786.42	0.000
786.73	11.818
787.04	10.204
787.34	3.571
787.65	16.190
787.96	5.310
788.26	7.273
788.57	12.821
788.88	13.281
789.19	7.143
789.49	7.826
789.80	5.102
790.11	11.111
790.41	2.727
790.72	16.304
791.03	7.955
791.33	18.750
791.64	5.000
791.95	-2.326
792.25	7.447
792.56	13.483
792.87	-4.110
793.17	-11.594
793.48	12.000
793.79	-1.250
794.09	26.250
794.40	14.151
794.70	12.621
795.01	-2.439
795.32	3.419
795.62	3.810
795.93	12.745
796.23	3.774
796.54	10.417
796.85	19.118
797.15	-7.042
797.46	25.000
797.76	16.667
798.07	0.000
798.37	2.632
798.68	-13.636
798.99	9.877
799.29	4.286
799.60	4.348
799.90	17.333
800.21	19.672
800.51	6.154
800.82	-6.780
801.12	1.449
801.43	3.279
801.73	23.810
802.04	-2.000
802.34	4.478
802.65	17.308
802.95	1.786
803.26	-7.692
803.56	0.000
803.87	-21.739
804.17	4.000
804.48	26.984
804.78	3.704
805.09	-10.870
805.39	-42.222
805.70	12.963
806.00	-26.316
806.30	-7.042
806.61	2.857
806.91	-12.500
807.22	7.895
807.52	8.000
807.83	10.909
808.13	6.944
808.43	22.059
808.74	-1.493
809.04	-13.559
809.35	-13.462
809.65	1.563
809.95	-37.838
810.26	-15.909
810.56	-5.479
810.86	-23.810
811.17	0.000
811.47	-4.082
811.77	-7.895
812.08	-6.818
812.38	11.321
812.69	-10.000
812.99	-6.061
813.29	-10.526
813.59	-45.714
813.90	2.273
814.20	-30.769
814.50	-5.769
814.81	0.000
815.11	-31.915
815.41	11.864
815.72	2.381
816.02	15.686
816.32	12.500
816.62	-2.439
816.93	-32.432
817.23	5.714
817.53	25.000
817.84	-32.609
818.14	5.769
818.44	-31.579
818.74	39.130
819.04	-52.500
819.35	5.405
819.65	11.765
819.95	0.000
820.25	-14.286
820.56	10.000
820.86	-51.724
821.16	15.000
821.46	21.277
821.76	-2.500
822.07	0.000
822.37	-18.919
822.67	-28.125
822.97	14.286
823.27	-32.143
823.57	-36.000
823.88	-14.815
824.18	3.571
824.48	-26.471
824.78	0.000
825.08	-34.783
825.38	15.152
825.69	-33.333
825.99	-5.263
826.29	5.556
826.59	-46.667
826.89	-90.476
827.19	4.348
827.49	-15.000
827.79	0.000
828.09	-17.857
828.39	18.182
828.70	21.622
829.00	-14.286
829.30	-66.667
829.60	-36.667
829.90	12.500
830.20	7.895
830.50	-11.111
830.80	4.348
831.10	13.636
831.40	36.364
831.70	12.903
832.00	-14.286
832.30	-23.810
832.60	-83.333
832.90	-17.241
833.20	-75.000
833.50	6.061
833.80	7.407
834.10	3.846
834.40	-6.250
834.70	-44.444
835.00	-5.263
835.30	30.769
835.60	40.000
835.90	41.935
836.20	4.545
836.50	10.714
836.80	-38.462
837.10	-21.429
837.40	-300.000
837.70	-13.636
838.00	-81.818
838.30	-21.739
838.60	-38.462
838.90	31.818
839.19	-7.143
839.49	-23.333
839.79	-69.231
840.09	-100.000
840.39	7.143
840.69	10.714
840.99	-11.538
841.29	-42.105
841.59	-80.000
841.88	-18.182
842.18	-80.000
842.48	-75.000
842.78	-20.000
843.08	-14.815
843.38	-110.000
843.68	13.043
843.97	-26.667
844.27	-93.333
844.57	-30.000
844.87	-22.222
845.17	-9.524
845.47	26.667
845.76	-100.000
846.06	29.412
846.36	-30.000
846.66	-7.143
846.96	-6.667
847.25	-137.500
847.55	50.000
847.85	-37.500
848.15	-63.636
848.44	-166.667
848.74	30.000
849.04	-7.407
849.34	-18.182
849.63	-50.000
849.93	-320.000
850.23	-38.889
850.53	-70.000
850.82	-84.615
851.12	-122.222
851.42	-40.000
851.71	-30.769
852.01	-85.714
852.31	-300.000
852.61	-45.455
852.90	-60.000
853.20	0.000
853.50	-91.667
853.79	-8.696
854.09	29.167
854.39	-73.684
854.68	-29.167
854.98	12.903
855.28	-3.846
855.57	-30.000
855.87	-27.778
856.17	25.926
856.46	-28.571
856.76	40.000
857.05	-33.333
857.35	12.000
857.65	16.667
857.94	-53.846
858.24	37.931
858.53	50.000
858.83	18.519
859.13	9.091
859.42	13.043
859.72	-250.000
860.01	-600.000
860.31	-4.000
860.60	28.571
860.90	-100.000
861.20	-126.667
861.49	-400.000
861.79	-46.667
862.08	-15.000
862.38	60.000
862.67	-180.000
862.97	133.333
863.26	-41.667
863.56	16.667
863.85	-233.333
864.15	11.111
864.44	10.000
864.74	0.000
865.03	350.000
865.33	-400.000
865.62	-16.667
865.92	-16.667
866.21	-266.667
866.51	12.500
866.80	-45.455
867.10	-150.000
867.39	58.333
867.69	0.000
867.98	38.462
868.27	-500.000
868.57	-33.333
868.86	16.667
869.16	-84.615
869.45	-66.667
869.75	-2000.000
870.04	0.000
870.33	-157.143
870.63	14.286
870.92	433.333
871.22	-180.000
871.51	-1000.000
871.80	55.556
872.10	366.667
>>>>>End Processed Spectral Data<<<<<
