SpectraSuite Data File
++++++++++++++++++++++++++++++++++++
Date: Fri May 15 20:38:24 PDT 2015
User: schluterlab
Dark Spectrum Present: Yes
Reference Spectrum Present: Yes
Number of Sampled Component Spectra: 1
Spectrometers: USB2E3373
Integration Time (usec): 3000 (USB2E3373)
Spectra Averaged: 3 (USB2E3373)
Boxcar Smoothing: 0 (USB2E3373)
Correct for Electrical Dark: No (USB2E3373)
Strobe/Lamp Enabled: No (USB2E3373)
Correct for Detector Non-linearity: No (USB2E3373)
Correct for Stray Light: No (USB2E3373)
Number of Pixels in Processed Spectrum: 2048
>>>>>Begin Processed Spectral Data<<<<<
178.53	0.000
178.91	0.000
179.29	25.000
179.67	-700.000
180.04	-114.286
180.42	-75.000
180.80	-500.000
181.18	166.667
181.56	700.000
181.94	-400.000
182.31	600.000
182.69	60.000
183.07	-100.000
183.45	-100.000
183.83	116.667
184.20	-81.818
184.58	133.333
184.96	-125.000
185.34	100.000
185.72	-350.000
186.09	130.769
186.47	100.000
186.85	200.000
187.23	100.000
187.61	-700.000
187.98	-166.667
188.36	0.000
188.74	-66.667
189.12	35.294
189.49	0.000
189.87	0.000
190.25	7.143
190.63	400.000
191.00	-100.000
191.38	-5.263
191.76	0.000
192.14	-150.000
192.51	250.000
192.89	11.111
193.27	-85.714
193.65	116.667
194.02	172.727
194.40	-30.000
194.78	-237.500
195.15	0.000
195.53	-137.500
195.91	150.000
196.29	-225.000
196.66	115.385
197.04	142.857
197.42	-55.556
197.79	-333.333
198.17	-38.462
198.55	1500.000
198.92	-133.333
199.30	200.000
199.68	-120.000
200.05	-466.667
200.43	0.000
200.81	-233.333
201.18	-100.000
201.56	1400.000
201.94	50.000
202.31	133.333
202.69	-60.000
203.07	200.000
203.44	-600.000
203.82	0.000
204.19	0.000
204.57	-333.333
204.95	187.500
205.32	50.000
205.70	-28.571
206.08	-50.000
206.45	188.889
206.83	21.429
207.20	-42.857
207.58	800.000
207.96	-200.000
208.33	-90.000
208.71	-175.000
209.08	-116.667
209.46	200.000
209.84	-160.000
210.21	-1200.000
210.59	14.286
210.96	-100.000
211.34	0.000
211.71	6.667
212.09	-14.286
212.46	-1300.000
212.84	0.000
213.22	80.000
213.59	-150.000
213.97	-23.077
214.34	45.455
214.72	0.000
215.09	400.000
215.47	-38.462
215.84	-100.000
216.22	-266.667
216.59	-37.500
216.97	-200.000
217.34	-225.000
217.72	-20.000
218.09	-37.500
218.47	100.000
218.84	-800.000
219.22	-11.111
219.59	60.000
219.97	366.667
220.34	100.000
220.72	114.286
221.09	-25.000
221.47	50.000
221.84	-50.000
222.22	-550.000
222.59	-63.636
222.97	116.667
223.34	-233.333
223.72	-21.429
224.09	4.762
224.46	17.857
224.84	333.333
225.21	30.000
225.59	93.333
225.96	350.000
226.34	175.000
226.71	-42.857
227.08	-16.667
227.46	50.000
227.83	-550.000
228.21	-77.778
228.58	27.273
228.95	-12.500
229.33	70.000
229.70	25.000
230.08	-150.000
230.45	-114.286
230.82	85.714
231.20	-26.667
231.57	57.143
231.95	71.429
232.32	-110.000
232.69	0.000
233.07	0.000
233.44	40.000
233.81	-20.000
234.19	22.222
234.56	29.412
234.93	300.000
235.31	150.000
235.68	-220.000
236.05	38.462
236.43	-20.000
236.80	-41.176
237.17	34.375
237.55	-20.000
237.92	14.815
238.29	13.889
238.67	16.667
239.04	-2.941
239.41	-12.195
239.79	43.333
240.16	48.780
240.53	18.421
240.91	4.348
241.28	20.635
241.65	25.000
242.02	31.507
242.40	21.667
242.77	23.729
243.14	33.333
243.51	18.750
243.89	39.080
244.26	16.092
244.63	35.714
245.00	22.680
245.38	39.175
245.75	20.225
246.12	25.000
246.49	33.884
246.87	28.846
247.24	33.613
247.61	24.561
247.98	27.642
248.36	28.750
248.73	25.000
249.10	19.481
249.47	29.114
249.84	32.026
250.22	27.647
250.59	37.908
250.96	26.761
251.33	25.581
251.70	36.471
252.08	33.503
252.45	34.158
252.82	30.151
253.19	31.797
253.56	26.636
253.94	32.432
254.31	26.522
254.68	35.965
255.05	27.953
255.42	29.694
255.79	32.432
256.16	30.350
256.54	36.567
256.91	31.939
257.28	31.227
257.65	29.213
258.02	28.014
258.39	29.630
258.76	36.264
259.14	32.226
259.51	35.922
259.88	31.959
260.25	29.739
260.62	33.333
260.99	32.542
261.36	31.507
261.73	31.962
262.10	31.003
262.47	32.209
262.85	28.840
263.22	33.846
263.59	34.268
263.96	31.988
264.33	37.273
264.70	27.976
265.07	34.226
265.44	28.612
265.81	29.944
266.18	36.066
266.55	31.105
266.92	35.492
267.29	31.070
267.66	29.923
268.03	31.937
268.40	30.548
268.77	35.294
269.14	30.695
269.51	32.648
269.88	32.170
270.25	29.592
270.62	30.732
270.99	29.923
271.36	30.318
271.73	30.516
272.10	34.307
272.47	30.496
272.84	31.436
273.21	31.555
273.58	31.807
273.95	32.952
274.32	29.561
274.69	28.733
275.06	34.375
275.43	31.973
275.80	33.775
276.17	31.954
276.54	29.122
276.91	34.211
277.28	28.384
277.65	29.959
278.02	31.915
278.39	33.042
278.76	29.769
279.13	28.008
279.50	31.092
279.87	30.238
280.23	29.677
280.60	30.214
280.97	31.919
281.34	29.615
281.71	32.649
282.08	29.448
282.45	30.137
282.82	31.274
283.19	27.660
283.56	29.480
283.92	30.361
284.29	29.615
284.66	30.426
285.03	28.684
285.40	29.679
285.77	26.889
286.14	28.339
286.51	32.103
286.87	28.519
287.24	29.098
287.61	29.101
287.98	29.474
288.35	27.730
288.72	28.371
289.08	27.083
289.45	29.174
289.82	28.147
290.19	28.328
290.56	26.587
290.93	27.104
291.29	24.191
291.66	26.772
292.03	26.635
292.40	27.903
292.77	27.273
293.13	22.565
293.50	24.583
293.87	24.885
294.24	26.430
294.60	26.528
294.97	23.214
295.34	22.393
295.71	24.143
296.08	25.561
296.44	22.333
296.81	23.611
297.18	22.464
297.55	23.984
297.91	22.740
298.28	24.274
298.65	21.845
299.02	22.372
299.38	20.930
299.75	21.379
300.12	22.775
300.48	20.553
300.85	21.420
301.22	22.208
301.59	22.632
301.95	22.658
302.32	24.125
302.69	22.761
303.05	21.658
303.42	21.918
303.79	22.547
304.15	23.178
304.52	21.641
304.89	20.819
305.25	21.671
305.62	20.070
305.99	20.468
306.35	21.503
306.72	19.910
307.09	22.121
307.45	20.781
307.82	20.833
308.19	22.067
308.55	20.065
308.92	22.113
309.29	21.341
309.65	20.990
310.02	21.342
310.38	22.283
310.75	22.732
311.12	22.390
311.48	20.679
311.85	21.152
312.22	20.992
312.58	21.125
312.95	22.412
313.31	22.153
313.68	22.199
314.05	21.735
314.41	22.268
314.78	21.237
315.14	24.769
315.51	23.810
315.87	22.439
316.24	24.671
316.61	24.409
316.97	23.810
317.34	24.023
317.70	26.099
318.07	24.808
318.43	25.686
318.80	25.189
319.16	27.734
319.53	28.490
319.89	27.165
320.26	27.328
320.62	28.786
320.99	28.288
321.35	28.469
321.72	30.737
322.08	29.909
322.45	30.558
322.81	32.122
323.18	29.931
323.54	31.757
323.91	33.009
324.27	32.031
324.64	32.397
325.00	34.854
325.37	35.354
325.73	34.180
326.10	33.787
326.46	35.964
326.83	36.220
327.19	35.135
327.56	35.274
327.92	36.092
328.29	35.804
328.65	37.925
329.01	37.500
329.38	38.894
329.74	36.733
330.11	35.774
330.47	37.662
330.84	38.269
331.20	37.833
331.56	36.389
331.93	38.904
332.29	37.397
332.66	37.738
333.02	37.825
333.38	36.297
333.75	38.004
334.11	35.900
334.48	39.166
334.84	38.095
335.20	38.426
335.57	37.625
335.93	37.940
336.29	40.331
336.66	37.965
337.02	39.126
337.38	37.500
337.75	38.364
338.11	38.864
338.47	38.504
338.84	38.909
339.20	40.311
339.56	38.991
339.93	38.675
340.29	40.092
340.65	40.143
341.02	38.652
341.38	38.319
341.74	39.134
342.11	37.002
342.47	39.146
342.83	39.273
343.20	38.415
343.56	39.739
343.92	38.175
344.28	40.222
344.65	38.946
345.01	37.857
345.37	38.772
345.73	38.075
346.10	39.603
346.46	37.426
346.82	39.525
347.19	35.661
347.55	39.432
347.91	38.916
348.27	37.672
348.63	39.267
349.00	38.146
349.36	39.651
349.72	37.811
350.08	38.033
350.45	38.148
350.81	38.455
351.17	37.541
351.53	37.388
351.89	37.159
352.26	37.600
352.62	38.629
352.98	38.313
353.34	36.957
353.70	37.864
354.07	38.629
354.43	37.710
354.79	37.820
355.15	38.175
355.51	38.845
355.87	39.159
356.24	38.010
356.60	38.884
356.96	38.730
357.32	38.419
357.68	37.295
358.04	37.722
358.40	37.058
358.77	39.474
359.13	39.552
359.49	36.980
359.85	37.598
360.21	38.915
360.57	37.337
360.93	38.351
361.29	36.480
361.66	38.009
362.02	38.106
362.38	40.213
362.74	38.531
363.10	39.503
363.46	38.695
363.82	38.693
364.18	38.672
364.54	38.456
364.90	38.566
365.26	39.447
365.62	40.365
365.98	38.930
366.35	41.005
366.71	39.468
367.07	39.042
367.43	38.749
367.79	38.516
368.15	39.196
368.51	38.966
368.87	39.124
369.23	37.329
369.59	39.650
369.95	40.323
370.31	39.379
370.67	39.776
371.03	39.432
371.39	39.023
371.75	39.707
372.11	40.086
372.47	40.311
372.83	40.667
373.19	39.444
373.55	40.072
373.91	40.029
374.27	41.176
374.63	40.919
374.99	39.362
375.35	39.485
375.71	40.839
376.07	40.871
376.42	41.633
376.78	41.007
377.14	40.826
377.50	40.837
377.86	42.102
378.22	40.651
378.58	41.603
378.94	40.517
379.30	41.547
379.66	42.382
380.02	41.570
380.38	41.570
380.74	40.754
381.09	42.270
381.45	41.284
381.81	42.073
382.17	41.878
382.53	41.974
382.89	42.373
383.25	41.630
383.61	42.256
383.97	41.968
384.32	41.714
384.68	42.724
385.04	41.789
385.40	41.817
385.76	43.648
386.12	42.303
386.48	42.784
386.83	41.788
387.19	42.796
387.55	43.225
387.91	41.993
388.27	42.308
388.62	44.556
388.98	43.094
389.34	42.224
389.70	43.878
390.06	41.787
390.42	43.718
390.77	43.362
391.13	42.308
391.49	42.691
391.85	43.145
392.20	42.812
392.56	43.039
392.92	44.040
393.28	43.927
393.64	43.063
393.99	44.451
394.35	42.884
394.71	43.870
395.07	43.620
395.42	43.230
395.78	44.039
396.14	43.821
396.50	42.739
396.85	44.430
397.21	43.609
397.57	43.260
397.92	43.619
398.28	43.391
398.64	42.108
399.00	43.510
399.35	42.720
399.71	43.423
400.07	43.652
400.42	42.778
400.78	44.091
401.14	43.497
401.49	43.836
401.85	43.815
402.21	44.036
402.57	43.812
402.92	42.409
403.28	43.546
403.63	43.632
403.99	43.941
404.35	42.099
404.70	42.917
405.06	43.008
405.42	44.500
405.77	42.592
406.13	43.132
406.49	43.162
406.84	44.193
407.20	43.889
407.55	44.366
407.91	42.714
408.27	43.658
408.62	44.062
408.98	44.609
409.34	43.866
409.69	43.346
410.05	43.288
410.40	42.407
410.76	43.064
411.11	43.187
411.47	44.773
411.83	41.871
412.18	43.243
412.54	43.258
412.89	42.734
413.25	43.803
413.60	42.795
413.96	43.067
414.31	43.415
414.67	41.565
415.03	42.277
415.38	43.016
415.74	42.541
416.09	44.154
416.45	44.227
416.80	42.366
417.16	43.785
417.51	43.038
417.87	43.090
418.22	43.782
418.58	44.548
418.93	43.887
419.29	42.446
419.64	43.811
420.00	44.647
420.35	42.687
420.71	43.925
421.06	42.787
421.42	42.788
421.77	43.121
422.12	42.906
422.48	43.476
422.83	42.749
423.19	43.341
423.54	42.622
423.90	43.168
424.25	43.226
424.61	44.186
424.96	43.380
425.31	44.772
425.67	43.251
426.02	43.698
426.38	43.644
426.73	44.613
427.09	44.937
427.44	44.235
427.79	43.430
428.15	44.357
428.50	44.518
428.85	43.428
429.21	43.577
429.56	44.636
429.92	43.246
430.27	42.957
430.62	44.015
430.98	43.577
431.33	42.902
431.68	42.386
432.04	42.873
432.39	43.126
432.74	44.438
433.10	43.793
433.45	43.011
433.80	43.239
434.16	43.490
434.51	43.495
434.86	43.902
435.22	43.242
435.57	43.793
435.92	43.174
436.28	43.113
436.63	43.297
436.98	42.410
437.34	43.557
437.69	44.425
438.04	42.678
438.39	43.067
438.75	43.777
439.10	44.539
439.45	44.066
439.81	43.180
440.16	45.012
440.51	44.955
440.86	44.713
441.22	43.439
441.57	44.205
441.92	44.963
442.27	45.288
442.63	43.576
442.98	43.998
443.33	43.461
443.68	43.183
444.03	44.362
444.39	43.778
444.74	44.983
445.09	44.042
445.44	43.419
445.79	45.075
446.15	43.392
446.50	42.818
446.85	43.943
447.20	43.743
447.55	44.587
447.91	43.880
448.26	44.109
448.61	43.696
448.96	44.980
449.31	44.566
449.66	43.961
450.02	44.381
450.37	44.280
450.72	43.986
451.07	44.937
451.42	43.633
451.77	45.208
452.12	42.404
452.47	42.434
452.83	43.993
453.18	43.074
453.53	43.489
453.88	44.566
454.23	43.946
454.58	44.710
454.93	43.170
455.28	42.984
455.63	43.831
455.98	44.257
456.34	44.253
456.69	43.583
457.04	43.919
457.39	43.439
457.74	43.289
458.09	42.790
458.44	43.593
458.79	43.585
459.14	42.906
459.49	43.403
459.84	43.260
460.19	44.296
460.54	42.787
460.89	43.068
461.24	42.857
461.59	44.240
461.94	42.579
462.29	44.632
462.64	43.721
462.99	42.586
463.34	42.976
463.69	42.214
464.04	42.070
464.39	43.420
464.74	42.699
465.09	42.670
465.44	42.874
465.79	42.007
466.14	42.816
466.49	41.806
466.84	42.237
467.19	42.428
467.54	42.912
467.89	43.209
468.24	42.457
468.59	42.794
468.94	42.476
469.29	43.082
469.64	43.062
469.99	43.588
470.34	42.730
470.68	43.922
471.03	43.241
471.38	42.796
471.73	43.137
472.08	40.977
472.43	42.886
472.78	41.467
473.13	43.469
473.48	42.736
473.83	41.345
474.17	43.070
474.52	42.310
474.87	43.212
475.22	43.380
475.57	41.502
475.92	43.500
476.27	41.502
476.61	42.998
476.96	41.327
477.31	42.401
477.66	42.528
478.01	42.841
478.36	42.484
478.70	42.741
479.05	42.363
479.40	43.190
479.75	41.345
480.10	41.577
480.45	41.350
480.79	42.296
481.14	42.828
481.49	41.527
481.84	42.471
482.19	41.113
482.53	41.247
482.88	41.193
483.23	41.747
483.58	40.896
483.92	40.755
484.27	40.109
484.62	40.430
484.97	40.672
485.31	40.101
485.66	38.447
486.01	39.285
486.36	39.643
486.70	39.225
487.05	40.116
487.40	39.891
487.75	39.775
488.09	39.030
488.44	40.096
488.79	39.559
489.13	40.705
489.48	40.017
489.83	40.359
490.17	40.629
490.52	40.600
490.87	39.843
491.22	40.926
491.56	40.417
491.91	39.723
492.26	41.711
492.60	40.067
492.95	41.466
493.30	40.352
493.64	41.650
493.99	40.048
494.34	40.194
494.68	39.762
495.03	40.049
495.37	40.628
495.72	40.737
496.07	40.000
496.41	39.764
496.76	40.534
497.11	39.218
497.45	39.332
497.80	40.313
498.14	39.344
498.49	39.766
498.84	39.820
499.18	39.307
499.53	39.385
499.87	39.543
500.22	39.911
500.56	40.645
500.91	39.759
501.26	38.754
501.60	39.006
501.95	39.981
502.29	39.177
502.64	39.961
502.98	39.369
503.33	39.481
503.67	39.084
504.02	39.101
504.36	39.485
504.71	39.192
505.06	39.960
505.40	39.239
505.75	39.794
506.09	38.875
506.44	40.298
506.78	39.898
507.13	38.418
507.47	38.433
507.82	38.248
508.16	38.616
508.51	38.930
508.85	39.403
509.19	38.744
509.54	38.820
509.88	38.727
510.23	39.322
510.57	37.948
510.92	38.220
511.26	38.080
511.61	39.439
511.95	39.726
512.30	39.357
512.64	38.954
512.98	39.360
513.33	38.612
513.67	39.227
514.02	39.874
514.36	40.286
514.70	39.627
515.05	40.188
515.39	39.138
515.74	40.719
516.08	39.390
516.42	39.517
516.77	39.731
517.11	39.169
517.46	40.096
517.80	39.571
518.14	39.069
518.49	38.942
518.83	39.672
519.17	38.266
519.52	38.780
519.86	38.535
520.20	38.821
520.55	38.649
520.89	38.833
521.23	38.695
521.58	39.558
521.92	39.872
522.26	38.452
522.61	40.195
522.95	40.066
523.29	38.691
523.64	39.009
523.98	39.987
524.32	38.144
524.66	38.988
525.01	38.766
525.35	39.987
525.69	37.980
526.04	38.294
526.38	39.689
526.72	38.195
527.06	38.846
527.41	38.720
527.75	38.338
528.09	39.468
528.43	39.770
528.78	37.756
529.12	37.548
529.46	38.142
529.80	37.809
530.15	37.756
530.49	37.239
530.83	39.124
531.17	38.348
531.51	38.167
531.86	38.681
532.20	38.622
532.54	38.325
532.88	38.877
533.22	37.366
533.57	38.204
533.91	37.467
534.25	39.388
534.59	38.101
534.93	36.753
535.27	37.183
535.62	38.302
535.96	38.617
536.30	37.137
536.64	37.285
536.98	37.422
537.32	38.193
537.66	38.499
538.01	37.552
538.35	37.240
538.69	38.083
539.03	37.936
539.37	38.223
539.71	37.014
540.05	36.592
540.39	38.019
540.73	38.145
541.07	36.809
541.42	37.903
541.76	37.096
542.10	37.302
542.44	37.874
542.78	36.407
543.12	36.264
543.46	37.204
543.80	36.780
544.14	35.915
544.48	36.309
544.82	36.637
545.16	36.885
545.50	37.650
545.84	36.686
546.18	37.801
546.52	37.130
546.86	36.520
547.20	37.339
547.54	35.972
547.88	35.734
548.22	35.306
548.56	34.960
548.90	36.456
549.24	36.295
549.58	36.460
549.92	36.455
550.26	36.190
550.60	36.580
550.94	36.968
551.28	36.012
551.62	37.308
551.96	37.218
552.30	36.696
552.64	35.896
552.98	35.443
553.32	35.378
553.66	36.284
554.00	36.569
554.34	36.041
554.68	35.472
555.02	36.235
555.36	35.004
555.69	35.531
556.03	35.546
556.37	35.943
556.71	35.668
557.05	35.570
557.39	35.242
557.73	35.682
558.07	36.048
558.41	36.217
558.75	35.698
559.08	35.855
559.42	35.794
559.76	35.949
560.10	35.474
560.44	35.815
560.78	35.804
561.12	35.261
561.45	36.191
561.79	36.765
562.13	34.847
562.47	35.180
562.81	35.519
563.15	34.908
563.48	35.078
563.82	35.415
564.16	34.889
564.50	35.743
564.84	35.007
565.17	34.004
565.51	35.929
565.85	35.665
566.19	35.345
566.52	34.584
566.86	35.219
567.20	34.060
567.54	35.158
567.88	35.267
568.21	35.294
568.55	33.967
568.89	34.292
569.23	33.558
569.56	34.063
569.90	34.064
570.24	32.713
570.57	32.618
570.91	33.740
571.25	32.752
571.59	31.859
571.92	32.148
572.26	31.733
572.60	31.783
572.93	31.660
573.27	31.787
573.61	31.921
573.95	31.813
574.28	31.886
574.62	31.528
574.96	31.488
575.29	30.818
575.63	30.371
575.97	30.848
576.30	31.319
576.64	30.861
576.98	31.712
577.31	31.679
577.65	31.537
577.98	31.298
578.32	30.886
578.66	30.303
578.99	30.650
579.33	30.577
579.67	30.734
580.00	30.734
580.34	31.219
580.67	30.119
581.01	30.860
581.35	30.491
581.68	30.506
582.02	30.501
582.35	30.288
582.69	30.814
583.02	30.592
583.36	30.873
583.70	31.075
584.03	31.582
584.37	31.310
584.70	31.099
585.04	30.052
585.37	30.418
585.71	29.894
586.04	30.333
586.38	30.355
586.72	30.818
587.05	31.456
587.39	31.451
587.72	30.973
588.06	31.165
588.39	30.874
588.73	30.922
589.06	31.442
589.40	30.937
589.73	30.705
590.07	31.118
590.40	31.269
590.73	31.796
591.07	31.340
591.40	31.211
591.74	31.855
592.07	31.679
592.41	31.405
592.74	31.063
593.08	30.527
593.41	31.137
593.75	31.044
594.08	30.038
594.41	30.277
594.75	30.496
595.08	30.306
595.42	31.027
595.75	30.830
596.09	30.805
596.42	31.005
596.75	30.950
597.09	30.979
597.42	31.120
597.75	30.463
598.09	30.874
598.42	29.964
598.76	30.545
599.09	30.729
599.42	29.557
599.76	30.135
600.09	29.902
600.42	30.023
600.76	30.646
601.09	29.389
601.42	30.004
601.76	30.647
602.09	30.074
602.42	31.045
602.76	30.475
603.09	30.523
603.42	31.187
603.76	29.718
604.09	30.660
604.42	30.922
604.76	30.263
605.09	31.261
605.42	30.384
605.75	30.210
606.09	30.064
606.42	29.566
606.75	30.043
607.09	29.802
607.42	29.464
607.75	30.373
608.08	29.739
608.42	29.785
608.75	31.036
609.08	30.493
609.41	31.218
609.75	29.990
610.08	30.554
610.41	30.000
610.74	30.034
611.07	29.612
611.41	30.721
611.74	30.384
612.07	30.246
612.40	31.346
612.73	30.565
613.07	30.371
613.40	30.361
613.73	29.882
614.06	30.885
614.39	30.400
614.72	29.972
615.06	30.559
615.39	29.531
615.72	29.494
616.05	30.615
616.38	28.604
616.71	29.786
617.05	29.895
617.38	31.678
617.71	30.755
618.04	31.175
618.37	31.021
618.70	31.023
619.03	32.500
619.36	31.331
619.69	31.842
620.03	32.505
620.36	32.332
620.69	30.621
621.02	30.275
621.35	32.697
621.68	31.037
622.01	32.750
622.34	30.886
622.67	30.994
623.00	31.700
623.33	30.716
623.66	31.114
623.99	30.560
624.32	30.951
624.65	31.353
624.99	31.226
625.32	30.553
625.65	31.265
625.98	31.185
626.31	30.756
626.64	31.629
626.97	31.326
627.30	30.911
627.63	31.456
627.96	32.165
628.29	30.805
628.62	32.547
628.95	31.864
629.28	31.855
629.61	31.505
629.94	32.649
630.26	31.719
630.59	32.362
630.92	31.077
631.25	29.538
631.58	31.718
631.91	32.566
632.24	30.849
632.57	32.727
632.90	32.384
633.23	32.824
633.56	33.249
633.89	30.580
634.22	33.827
634.55	31.385
634.88	32.950
635.20	31.026
635.53	33.333
635.86	31.209
636.19	33.118
636.52	31.633
636.85	31.141
637.18	31.698
637.51	32.704
637.83	33.246
638.16	34.652
638.49	29.292
638.82	30.789
639.15	32.022
639.48	31.912
639.81	31.939
640.13	34.343
640.46	34.985
640.79	32.548
641.12	31.462
641.45	32.282
641.77	33.481
642.10	31.122
642.43	31.190
642.76	34.818
643.09	34.087
643.41	32.362
643.74	33.937
644.07	34.647
644.40	34.291
644.73	31.173
645.05	31.376
645.38	32.099
645.71	32.624
646.04	33.573
646.36	30.496
646.69	34.173
647.02	31.569
647.35	32.090
647.67	31.993
648.00	33.209
648.33	29.522
648.66	31.695
648.98	29.146
649.31	33.554
649.64	29.670
649.96	29.498
650.29	31.687
650.62	31.795
650.94	33.704
651.27	32.402
651.60	31.532
651.92	34.091
652.25	31.794
652.58	32.500
652.90	31.389
653.23	31.933
653.56	30.964
653.88	28.351
654.21	31.699
654.54	30.390
654.86	33.107
655.19	28.801
655.52	29.876
655.84	26.513
656.17	29.575
656.49	39.444
656.82	40.792
657.15	30.962
657.47	23.090
657.80	17.314
658.13	16.910
658.45	25.821
658.78	25.174
659.10	25.870
659.43	25.823
659.75	26.936
660.08	26.828
660.41	28.805
660.73	28.591
661.06	30.156
661.38	29.550
661.71	27.926
662.03	32.189
662.36	30.989
662.68	30.752
663.01	32.751
663.33	32.019
663.66	30.233
663.98	28.605
664.31	31.983
664.63	29.032
664.96	28.913
665.28	30.022
665.61	31.169
665.93	31.739
666.26	34.056
666.58	29.306
666.91	30.824
667.23	33.726
667.56	33.175
667.88	32.134
668.21	30.788
668.53	33.097
668.86	34.198
669.18	32.547
669.50	29.782
669.83	30.698
670.15	31.935
670.48	31.579
670.80	30.415
671.13	26.622
671.45	26.256
671.77	31.116
672.10	28.911
672.42	28.652
672.75	30.373
673.07	29.159
673.39	32.477
673.72	27.613
674.04	29.167
674.37	31.568
674.69	30.193
675.01	33.556
675.34	30.631
675.66	29.398
675.98	28.825
676.31	32.110
676.63	30.166
676.95	31.591
677.28	31.294
677.60	32.530
677.92	29.128
678.25	28.446
678.57	28.788
678.89	28.782
679.22	31.096
679.54	29.719
679.86	28.429
680.18	31.068
680.51	28.220
680.83	27.833
681.15	29.200
681.48	31.352
681.80	31.198
682.12	30.242
682.44	28.661
682.77	32.671
683.09	28.375
683.41	30.227
683.73	29.724
684.06	31.416
684.38	27.527
684.70	31.373
685.02	30.498
685.34	28.063
685.67	27.767
685.99	29.656
686.31	27.434
686.63	27.829
686.96	27.757
687.28	24.646
687.60	25.856
687.92	31.717
688.24	28.831
688.56	30.568
688.89	27.679
689.21	31.333
689.53	27.378
689.85	27.442
690.17	28.571
690.49	28.132
690.82	29.612
691.14	28.810
691.46	27.103
691.78	26.126
692.10	30.323
692.42	27.489
692.74	28.632
693.06	29.054
693.39	25.339
693.71	28.733
694.03	27.945
694.35	27.804
694.67	27.778
694.99	24.804
695.31	30.287
695.63	29.000
695.95	29.293
696.27	29.793
696.59	28.889
696.91	28.571
697.23	27.763
697.56	27.228
697.88	29.892
698.20	28.474
698.52	26.353
698.84	24.163
699.16	28.000
699.48	29.073
699.80	26.551
700.12	24.798
700.44	29.972
700.76	28.198
701.08	26.061
701.40	28.916
701.72	33.951
702.04	28.383
702.36	28.428
702.68	29.730
703.00	31.212
703.32	28.739
703.64	26.271
703.96	26.957
704.28	30.982
704.60	30.476
704.91	27.445
705.23	28.239
705.55	33.216
705.87	28.159
706.19	28.148
706.51	31.271
706.83	27.653
707.15	23.053
707.47	27.451
707.79	26.823
708.11	30.750
708.43	29.000
708.74	28.165
709.06	30.423
709.38	30.887
709.70	27.811
710.02	30.573
710.34	32.817
710.66	25.000
710.98	25.497
711.29	30.164
711.61	27.119
711.93	25.407
712.25	31.271
712.57	28.938
712.89	27.239
713.20	28.028
713.52	28.571
713.84	25.597
714.16	25.430
714.48	29.677
714.80	27.885
715.11	23.708
715.43	24.765
715.75	28.667
716.07	28.904
716.39	27.852
716.70	19.926
717.02	24.427
717.34	29.555
717.66	28.319
717.97	24.783
718.29	30.126
718.61	26.378
718.93	26.744
719.24	28.137
719.56	30.924
719.88	28.179
720.20	26.894
720.51	25.287
720.83	24.710
721.15	26.471
721.46	25.806
721.78	23.715
722.10	26.394
722.42	24.481
722.73	26.531
723.05	24.490
723.37	27.119
723.68	31.081
724.00	26.923
724.32	29.778
724.63	23.182
724.95	24.891
725.27	30.876
725.58	25.000
725.90	22.222
726.22	25.869
726.53	29.831
726.85	31.461
727.16	31.698
727.48	25.101
727.80	29.555
728.11	27.119
728.43	23.922
728.74	21.774
729.06	26.400
729.38	34.586
729.69	20.319
730.01	23.462
730.32	26.493
730.64	28.975
730.96	27.170
731.27	25.000
731.59	24.746
731.90	27.389
732.22	26.183
732.53	26.246
732.85	24.468
733.16	28.956
733.48	21.942
733.80	22.826
734.11	23.051
734.43	29.210
734.74	31.515
735.06	19.870
735.37	28.097
735.69	29.630
736.00	27.178
736.32	20.470
736.63	27.113
736.95	24.232
737.26	24.555
737.58	22.819
737.89	23.810
738.21	24.060
738.52	27.984
738.83	28.384
739.15	27.511
739.46	26.772
739.78	26.374
740.09	26.144
740.41	25.362
740.72	21.260
741.04	27.530
741.35	26.809
741.66	22.749
741.98	29.592
742.29	29.703
742.61	28.796
742.92	26.066
743.23	19.907
743.55	26.244
743.86	26.316
744.18	26.316
744.49	20.213
744.80	21.739
745.12	29.947
745.43	16.585
745.74	29.167
746.06	26.829
746.37	22.513
746.68	27.488
747.00	25.532
747.31	32.836
747.62	23.786
747.94	26.316
748.25	20.792
748.56	25.683
748.88	24.607
749.19	28.191
749.50	23.153
749.82	25.943
750.13	20.183
750.44	28.947
750.75	26.866
751.07	29.927
751.38	23.372
751.69	24.314
752.01	24.031
752.32	30.677
752.63	22.134
752.94	21.552
753.26	33.473
753.57	22.624
753.88	25.664
754.19	20.000
754.51	24.380
754.82	23.887
755.13	27.083
755.44	24.597
755.75	24.609
756.07	22.957
756.38	21.887
756.69	24.138
757.00	23.000
757.31	23.529
757.63	21.951
757.94	23.333
758.25	25.205
758.56	25.798
758.87	23.229
759.18	23.053
759.50	24.000
759.81	26.421
760.12	27.742
760.43	23.333
760.74	25.617
761.05	25.846
761.36	23.580
761.67	23.939
761.99	23.469
762.30	20.364
762.61	24.111
762.92	25.339
763.23	20.270
763.54	19.626
763.85	22.458
764.16	22.822
764.47	22.581
764.78	19.048
765.10	25.926
765.41	23.659
765.72	22.222
766.03	22.180
766.34	21.898
766.65	22.709
766.96	25.758
767.27	21.809
767.58	18.966
767.89	21.277
768.20	26.136
768.51	26.923
768.82	26.108
769.13	17.512
769.44	22.747
769.75	21.005
770.06	26.293
770.37	23.077
770.68	25.381
770.99	22.172
771.30	28.922
771.61	23.529
771.92	29.310
772.23	24.631
772.54	20.968
772.85	27.160
773.16	23.596
773.47	30.719
773.78	29.412
774.09	23.353
774.39	24.667
774.70	22.293
775.01	25.517
775.32	15.714
775.63	18.182
775.94	15.267
776.25	22.047
776.56	28.333
776.87	22.115
777.18	20.513
777.48	18.966
777.79	28.696
778.10	20.000
778.41	19.820
778.72	25.397
779.03	28.571
779.34	21.277
779.65	26.027
779.95	9.589
780.26	21.379
780.57	21.138
780.88	22.835
781.19	18.966
781.50	21.705
781.80	19.527
782.11	17.610
782.42	24.615
782.73	19.424
783.04	20.741
783.34	20.139
783.65	7.692
783.96	18.852
784.27	26.207
784.57	13.821
784.88	25.781
785.19	29.000
785.50	23.000
785.81	32.759
786.11	24.138
786.42	12.621
786.73	30.909
787.04	21.429
787.34	16.964
787.65	25.714
787.96	19.469
788.26	29.091
788.57	19.658
788.88	18.750
789.19	23.016
789.49	20.870
789.80	21.429
790.11	28.283
790.41	20.000
790.72	28.261
791.03	13.636
791.33	28.750
791.64	13.750
791.95	13.953
792.25	24.468
792.56	33.708
792.87	17.808
793.17	24.638
793.48	16.000
793.79	28.750
794.09	26.250
794.40	23.585
794.70	13.592
795.01	9.756
795.32	14.530
795.62	24.762
795.93	26.471
796.23	27.358
796.54	23.958
796.85	29.412
797.15	22.535
797.46	26.389
797.76	16.667
798.07	26.744
798.37	6.579
798.68	12.121
798.99	30.864
799.29	28.571
799.60	14.493
799.90	14.667
800.21	27.869
800.51	24.615
800.82	32.203
801.12	24.638
801.43	24.590
801.73	20.635
802.04	8.000
802.34	10.448
802.65	9.615
802.95	5.357
803.26	15.385
803.56	29.412
803.87	-8.696
804.17	32.000
804.48	33.333
804.78	18.519
805.09	23.913
805.39	11.111
805.70	22.222
806.00	14.035
806.30	16.901
806.61	24.286
806.91	5.556
807.22	36.842
807.52	26.667
807.83	14.545
808.13	13.889
808.43	26.471
808.74	4.478
809.04	3.390
809.35	-13.462
809.65	25.000
809.95	-13.514
810.26	0.000
810.56	17.808
810.86	40.476
811.17	12.000
811.47	22.449
811.77	7.895
812.08	27.273
812.38	20.755
812.69	20.000
812.99	27.273
813.29	13.158
813.59	0.000
813.90	25.000
814.20	-7.692
814.50	21.154
814.81	9.434
815.11	2.128
815.41	23.729
815.72	7.143
816.02	41.176
816.32	16.667
816.62	19.512
816.93	10.811
817.23	17.143
817.53	14.583
817.84	17.391
818.14	13.462
818.44	-7.895
818.74	32.609
819.04	-17.500
819.35	21.622
819.65	-35.294
819.95	0.000
820.25	4.762
820.56	30.000
820.86	-10.345
821.16	50.000
821.46	21.277
821.76	32.500
822.07	11.628
822.37	-10.811
822.67	-12.500
822.97	7.143
823.27	-28.571
823.57	8.000
823.88	-3.704
824.18	32.143
824.48	17.647
824.78	29.032
825.08	17.391
825.38	-6.061
825.69	-37.500
825.99	-23.684
826.29	0.000
826.59	20.000
826.89	-38.095
827.19	4.348
827.49	20.000
827.79	17.143
828.09	3.571
828.39	12.121
828.70	35.135
829.00	3.571
829.30	-4.762
829.60	16.667
829.90	28.125
830.20	-5.263
830.50	0.000
830.80	43.478
831.10	27.273
831.40	42.424
831.70	25.806
832.00	4.762
832.30	-19.048
832.60	33.333
832.90	10.345
833.20	-55.000
833.50	18.182
833.80	25.926
834.10	0.000
834.40	34.375
834.70	-144.444
835.00	31.579
835.30	61.538
835.60	13.333
835.90	38.710
836.20	22.727
836.50	35.714
836.80	-42.308
837.10	10.714
837.40	-200.000
837.70	9.091
838.00	-27.273
838.30	8.696
838.60	30.769
838.90	40.909
839.19	35.714
839.49	46.667
839.79	7.692
840.09	-125.000
840.39	3.571
840.69	35.714
840.99	-3.846
841.29	15.789
841.59	-80.000
841.88	90.909
842.18	50.000
842.48	12.500
842.78	13.333
843.08	18.519
843.38	-80.000
843.68	43.478
843.97	-20.000
844.27	-26.667
844.57	0.000
844.87	-22.222
845.17	-23.810
845.47	73.333
845.76	33.333
846.06	29.412
846.36	-60.000
846.66	-14.286
846.96	26.667
847.25	-175.000
847.55	14.286
847.85	37.500
848.15	-40.909
848.44	-566.667
848.74	-20.000
849.04	22.222
849.34	-54.545
849.63	-133.333
849.93	-120.000
850.23	44.444
850.53	-80.000
850.82	0.000
851.12	-11.111
851.42	13.333
851.71	-7.692
852.01	-92.857
852.31	-225.000
852.61	-90.909
852.90	-30.000
853.20	-15.789
853.50	-91.667
853.79	-52.174
854.09	29.167
854.39	26.316
854.68	16.667
854.98	-3.226
855.28	11.538
855.57	-10.000
855.87	22.222
856.17	29.630
856.46	14.286
856.76	-46.667
857.05	66.667
857.35	60.000
857.65	38.889
857.94	38.462
858.24	48.276
858.53	38.889
858.83	48.148
859.13	-9.091
859.42	-21.739
859.72	-300.000
860.01	-366.667
860.31	4.000
860.60	42.857
860.90	-466.667
861.20	-40.000
861.49	-850.000
861.79	-20.000
862.08	-25.000
862.38	26.667
862.67	-320.000
862.97	-116.667
863.26	-75.000
863.56	16.667
863.85	-666.667
864.15	27.778
864.44	-40.000
864.74	0.000
865.03	450.000
865.33	-100.000
865.62	33.333
865.92	-33.333
866.21	-133.333
866.51	31.250
866.80	-54.545
867.10	-600.000
867.39	-8.333
867.69	0.000
867.98	30.769
868.27	-100.000
868.57	13.333
868.86	33.333
869.16	-23.077
869.45	13.333
869.75	-1400.000
870.04	0.000
870.33	-14.286
870.63	38.095
870.92	133.333
871.22	-160.000
871.51	-500.000
871.80	33.333
872.10	166.667
>>>>>End Processed Spectral Data<<<<<
