SpectraSuite Data File
++++++++++++++++++++++++++++++++++++
Date: Fri May 15 20:54:44 PDT 2015
User: schluterlab
Dark Spectrum Present: Yes
Reference Spectrum Present: Yes
Number of Sampled Component Spectra: 1
Spectrometers: USB2E3373
Integration Time (usec): 3000 (USB2E3373)
Spectra Averaged: 3 (USB2E3373)
Boxcar Smoothing: 0 (USB2E3373)
Correct for Electrical Dark: No (USB2E3373)
Strobe/Lamp Enabled: No (USB2E3373)
Correct for Detector Non-linearity: No (USB2E3373)
Correct for Stray Light: No (USB2E3373)
Number of Pixels in Processed Spectrum: 2048
>>>>>Begin Processed Spectral Data<<<<<
178.53	0.000
178.91	0.000
179.29	-62.500
179.67	50.000
180.04	-28.571
180.42	50.000
180.80	-200.000
181.18	-166.667
181.56	600.000
181.94	-250.000
182.31	1100.000
182.69	-60.000
183.07	-100.000
183.45	-60.000
183.83	150.000
184.20	63.636
184.58	66.667
184.96	-25.000
185.34	66.667
185.72	-250.000
186.09	61.538
186.47	-300.000
186.85	33.333
187.23	177.778
187.61	400.000
187.98	-100.000
188.36	-11.111
188.74	-333.333
189.12	-5.882
189.49	11.111
189.87	0.000
190.25	50.000
190.63	450.000
191.00	-33.333
191.38	10.526
191.76	450.000
192.14	150.000
192.51	300.000
192.89	-44.444
193.27	-57.143
193.65	216.667
194.02	100.000
194.40	-60.000
194.78	-262.500
195.15	-16.667
195.53	-37.500
195.91	325.000
196.29	-350.000
196.66	84.615
197.04	42.857
197.42	-66.667
197.79	-333.333
198.17	-123.077
198.55	1300.000
198.92	-133.333
199.30	-300.000
199.68	-160.000
200.05	-233.333
200.43	0.000
200.81	-33.333
201.18	-100.000
201.56	400.000
201.94	-850.000
202.31	-100.000
202.69	-180.000
203.07	250.000
203.44	600.000
203.82	0.000
204.19	0.000
204.57	-300.000
204.95	-12.500
205.32	50.000
205.70	57.143
206.08	75.000
206.45	88.889
206.83	42.857
207.20	-14.286
207.58	600.000
207.96	-33.333
208.33	0.000
208.71	-125.000
209.08	-150.000
209.46	-500.000
209.84	-80.000
210.21	-1000.000
210.59	100.000
210.96	16.667
211.34	25.000
211.71	0.000
212.09	-85.714
212.46	-800.000
212.84	0.000
213.22	60.000
213.59	400.000
213.97	23.077
214.34	36.364
214.72	-100.000
215.09	350.000
215.47	15.385
215.84	-27.273
216.22	-333.333
216.59	100.000
216.97	-100.000
217.34	50.000
217.72	40.000
218.09	12.500
218.47	125.000
218.84	-200.000
219.22	-144.444
219.59	-40.000
219.97	433.333
220.34	50.000
220.72	71.429
221.09	-100.000
221.47	300.000
221.84	-400.000
222.22	-650.000
222.59	72.727
222.97	25.000
223.34	-333.333
223.72	-7.143
224.09	76.190
224.46	14.286
224.84	366.667
225.21	40.000
225.59	53.333
225.96	150.000
226.34	350.000
226.71	-28.571
227.08	-16.667
227.46	50.000
227.83	-350.000
228.21	133.333
228.58	45.455
228.95	-50.000
229.33	60.000
229.70	-31.250
230.08	-87.500
230.45	-42.857
230.82	-57.143
231.20	20.000
231.57	28.571
231.95	0.000
232.32	-100.000
232.69	-14.286
233.07	0.000
233.44	-120.000
233.81	-70.000
234.19	55.556
234.56	0.000
234.93	100.000
235.31	100.000
235.68	-180.000
236.05	-53.846
236.43	10.000
236.80	70.588
237.17	12.500
237.55	45.000
237.92	22.222
238.29	13.889
238.67	53.333
239.04	20.588
239.41	7.317
239.79	36.667
240.16	34.146
240.53	47.368
240.91	50.000
241.28	47.619
241.65	60.714
242.02	52.055
242.40	36.667
242.77	45.763
243.14	30.303
243.51	41.250
243.89	47.126
244.26	40.230
244.63	38.095
245.00	37.113
245.38	43.299
245.75	26.966
246.12	44.828
246.49	33.058
246.87	45.192
247.24	39.496
247.61	43.860
247.98	47.967
248.36	28.125
248.73	43.421
249.10	35.065
249.47	37.975
249.84	42.484
250.22	40.000
250.59	47.059
250.96	40.845
251.33	41.860
251.70	43.529
252.08	43.147
252.45	45.050
252.82	47.739
253.19	43.779
253.56	42.991
253.94	40.541
254.31	39.565
254.68	48.684
255.05	43.701
255.42	44.541
255.79	42.471
256.16	43.191
256.54	41.418
256.91	45.247
257.28	45.725
257.65	41.199
258.02	43.617
258.39	43.771
258.76	44.322
259.14	42.857
259.51	45.955
259.88	41.237
260.25	43.791
260.62	42.361
260.99	42.373
261.36	42.123
261.73	43.354
262.10	42.857
262.47	43.865
262.85	41.379
263.22	43.385
263.59	45.483
263.96	45.963
264.33	42.727
264.70	44.643
265.07	46.131
265.44	45.042
265.81	44.068
266.18	45.628
266.55	46.530
266.92	46.632
267.29	45.953
267.66	40.153
268.03	42.932
268.40	45.170
268.77	45.989
269.14	43.165
269.51	47.044
269.88	43.890
270.25	42.092
270.62	44.146
270.99	43.223
271.36	44.254
271.73	45.070
272.10	47.689
272.47	44.681
272.84	46.040
273.21	42.691
273.58	45.060
273.95	43.707
274.32	43.418
274.69	39.819
275.06	44.643
275.43	45.351
275.80	43.267
276.17	48.046
276.54	42.612
276.91	43.421
277.28	40.830
277.65	40.083
278.02	41.915
278.39	45.514
278.76	42.348
279.13	39.212
279.50	44.748
279.87	43.629
280.23	40.000
280.60	42.495
280.97	41.818
281.34	41.154
281.71	44.764
282.08	41.513
282.45	41.292
282.82	42.278
283.19	42.940
283.56	40.655
283.92	41.366
284.29	40.192
284.66	41.473
285.03	41.061
285.40	40.265
285.77	38.664
286.14	37.545
286.51	43.542
286.87	38.574
287.24	40.700
287.61	38.977
287.98	41.053
288.35	38.302
288.72	37.303
289.08	38.194
289.45	38.137
289.82	38.112
290.19	39.078
290.56	36.021
290.93	37.205
291.29	34.823
291.66	38.740
292.03	34.928
292.40	35.484
292.77	34.769
293.13	32.468
293.50	33.080
293.87	34.351
294.24	34.158
294.60	34.575
294.97	32.887
295.34	31.288
295.71	34.724
296.08	33.034
296.44	31.010
296.81	32.222
297.18	31.739
297.55	31.165
297.91	30.822
298.28	32.058
298.65	30.801
299.02	29.919
299.38	29.001
299.75	29.379
300.12	30.628
300.48	28.195
300.85	30.292
301.22	30.260
301.59	30.526
301.95	28.608
302.32	31.128
302.69	27.488
303.05	28.094
303.42	27.771
303.79	28.154
304.15	28.674
304.52	28.062
304.89	27.836
305.25	26.998
305.62	25.904
305.99	28.772
306.35	27.168
306.72	27.109
307.09	28.506
307.45	28.129
307.82	27.894
308.19	27.294
308.55	26.936
308.92	28.758
309.29	26.480
309.65	27.341
310.02	26.073
310.38	27.223
310.75	28.525
311.12	28.095
311.48	26.935
311.85	26.597
312.22	26.582
312.58	26.221
312.95	25.507
313.31	25.569
313.68	26.597
314.05	26.837
314.41	27.423
314.78	26.289
315.14	26.619
315.51	27.847
315.87	26.434
316.24	27.604
316.61	27.067
316.97	25.794
317.34	25.781
317.70	25.526
318.07	25.577
318.43	26.961
318.80	25.663
319.16	26.953
319.53	25.641
319.89	26.575
320.26	27.024
320.62	27.884
320.99	24.322
321.35	24.974
321.72	26.480
322.08	25.780
322.45	26.396
322.81	25.442
323.18	27.380
323.54	26.255
323.91	24.635
324.27	26.172
324.64	27.341
325.00	27.372
325.37	27.365
325.73	26.383
326.10	26.249
326.46	26.099
326.83	25.809
327.19	26.940
327.56	25.717
327.92	27.905
328.29	25.893
328.65	26.321
329.01	26.746
329.38	26.175
329.74	25.873
330.11	26.043
330.47	24.583
330.84	25.481
331.20	26.711
331.56	25.833
331.93	25.936
332.29	25.481
332.66	25.611
333.02	25.465
333.38	24.381
333.75	26.740
334.11	24.530
334.48	26.020
334.84	27.381
335.20	26.898
335.57	24.025
335.93	26.287
336.29	25.046
336.66	25.613
337.02	24.721
337.38	24.537
337.75	25.909
338.11	25.068
338.47	25.274
338.84	25.508
339.20	25.229
339.56	25.413
339.93	24.351
340.29	24.862
340.65	25.269
341.02	24.734
341.38	24.513
341.74	23.852
342.11	23.917
342.47	24.110
342.83	25.087
343.20	25.523
343.56	25.304
343.92	24.269
344.28	24.680
344.65	23.661
345.01	24.460
345.37	23.465
345.73	25.607
346.10	24.935
346.46	25.231
346.82	24.304
347.19	23.608
347.55	24.227
347.91	23.706
348.27	23.363
348.63	25.043
349.00	23.708
349.36	23.774
349.72	24.876
350.08	23.934
350.45	23.943
350.81	23.007
351.17	23.453
351.53	23.755
351.89	22.709
352.26	24.160
352.62	24.919
352.98	22.731
353.34	23.108
353.70	24.353
354.07	24.597
354.43	22.898
354.79	22.461
355.15	23.492
355.51	24.367
355.87	23.463
356.24	22.431
356.60	22.555
356.96	23.413
357.32	23.403
357.68	22.361
358.04	22.456
358.40	23.392
358.77	24.242
359.13	22.338
359.49	22.419
359.85	22.855
360.21	22.967
360.57	22.953
360.93	22.239
361.29	21.903
361.66	22.649
362.02	23.788
362.38	23.686
362.74	23.997
363.10	22.799
363.46	22.758
363.82	24.042
364.18	22.288
364.54	22.426
364.90	22.366
365.26	22.271
365.62	23.723
365.98	22.507
366.35	23.379
366.71	22.173
367.07	23.295
367.43	21.208
367.79	22.544
368.15	22.685
368.51	22.505
368.87	22.111
369.23	22.527
369.59	23.397
369.95	22.141
370.31	22.977
370.67	22.164
371.03	21.658
371.39	21.444
371.75	21.685
372.11	21.398
372.47	22.411
372.83	22.001
373.19	21.826
373.55	21.588
373.91	21.886
374.27	21.616
374.63	22.613
374.99	21.773
375.35	21.866
375.71	22.308
376.07	20.997
376.42	21.293
376.78	22.148
377.14	21.530
377.50	21.912
377.86	22.021
378.22	21.506
378.58	21.090
378.94	20.731
379.30	20.961
379.66	21.944
380.02	21.582
380.38	20.876
380.74	21.604
381.09	22.454
381.45	20.612
381.81	20.666
382.17	21.066
382.53	20.737
382.89	21.406
383.25	21.717
383.61	22.317
383.97	20.571
384.32	21.013
384.68	22.291
385.04	20.466
385.40	20.660
385.76	21.572
386.12	21.604
386.48	21.456
386.83	20.545
387.19	21.001
387.55	21.769
387.91	20.782
388.27	19.841
388.62	21.460
388.98	20.994
389.34	20.737
389.70	20.883
390.06	20.013
390.42	21.697
390.77	20.863
391.13	20.681
391.49	20.569
391.85	21.118
392.20	20.904
392.56	20.598
392.92	21.139
393.28	20.991
393.64	20.541
393.99	21.630
394.35	20.240
394.71	21.648
395.07	20.239
395.42	20.644
395.78	21.107
396.14	21.059
396.50	21.560
396.85	21.442
397.21	20.739
397.57	20.815
397.92	20.911
398.28	21.149
398.64	20.602
399.00	21.783
399.35	20.260
399.71	20.505
400.07	20.738
400.42	20.685
400.78	21.127
401.14	20.266
401.49	19.952
401.85	21.268
402.21	20.361
402.57	20.875
402.92	20.514
403.28	21.115
403.63	20.681
403.99	21.173
404.35	21.049
404.70	20.298
405.06	20.153
405.42	20.199
405.77	19.640
406.13	19.092
406.49	20.545
406.84	20.599
407.20	20.470
407.55	19.897
407.91	20.521
408.27	19.312
408.62	20.985
408.98	20.025
409.34	21.128
409.69	20.478
410.05	19.951
410.40	20.123
410.76	21.291
411.11	21.062
411.47	20.776
411.83	20.465
412.18	20.914
412.54	20.724
412.89	20.505
413.25	20.156
413.60	19.876
413.96	19.755
414.31	21.341
414.67	20.783
415.03	20.439
415.38	20.170
415.74	20.977
416.09	21.424
416.45	21.202
416.80	20.621
417.16	21.685
417.51	21.252
417.87	20.600
418.22	21.049
418.58	20.936
418.93	21.505
419.29	20.038
419.64	20.480
420.00	21.348
420.35	19.821
420.71	21.324
421.06	20.810
421.42	20.673
421.77	20.751
422.12	20.602
422.48	20.682
422.83	20.650
423.19	20.090
423.54	20.929
423.90	20.789
424.25	21.355
424.61	20.502
424.96	21.312
425.31	21.144
425.67	20.892
426.02	21.614
426.38	21.916
426.73	21.126
427.09	21.456
427.44	21.765
427.79	20.801
428.15	21.238
428.50	21.320
428.85	20.393
429.21	21.505
429.56	21.725
429.92	21.315
430.27	20.652
430.62	20.544
430.98	21.762
431.33	21.556
431.68	21.088
432.04	21.129
432.39	21.449
432.74	20.806
433.10	21.379
433.45	20.848
433.80	21.416
434.16	20.997
434.51	20.484
434.86	21.487
435.22	20.639
435.57	20.836
435.92	20.778
436.28	19.917
436.63	20.479
436.98	20.162
437.34	20.024
437.69	20.692
438.04	21.595
438.39	21.014
438.75	20.765
439.10	20.770
439.45	21.546
439.81	21.284
440.16	22.031
440.51	21.672
440.86	22.356
441.22	20.984
441.57	21.468
441.92	21.511
442.27	21.563
442.63	21.574
442.98	21.884
443.33	20.979
443.68	21.432
444.03	22.156
444.39	21.102
444.74	22.742
445.09	21.715
445.44	21.709
445.79	21.609
446.15	21.311
446.50	20.965
446.85	22.157
447.20	21.637
447.55	22.656
447.91	21.715
448.26	21.742
448.61	22.222
448.96	21.572
449.31	21.850
449.66	22.067
450.02	21.449
450.37	22.407
450.72	21.821
451.07	22.342
451.42	21.785
451.77	21.157
452.12	21.711
452.47	22.022
452.83	22.203
453.18	21.695
453.53	22.187
453.88	22.040
454.23	21.942
454.58	23.300
454.93	22.809
455.28	21.587
455.63	22.195
455.98	23.692
456.34	21.903
456.69	22.681
457.04	22.558
457.39	22.053
457.74	22.491
458.09	21.542
458.44	22.001
458.79	22.185
459.14	23.169
459.49	23.224
459.84	22.786
460.19	22.027
460.54	22.555
460.89	22.557
461.24	22.671
461.59	22.743
461.94	21.887
462.29	22.618
462.64	22.990
462.99	23.223
463.34	22.114
463.69	21.493
464.04	22.215
464.39	22.862
464.74	22.454
465.09	22.333
465.44	23.312
465.79	21.712
466.14	22.406
466.49	22.427
466.84	22.784
467.19	22.466
467.54	22.669
467.89	22.615
468.24	22.689
468.59	23.302
468.94	23.302
469.29	23.738
469.64	24.197
469.99	22.285
470.34	22.594
470.68	24.385
471.03	23.284
471.38	23.110
471.73	22.829
472.08	23.134
472.43	23.356
472.78	22.138
473.13	23.061
473.48	23.583
473.83	23.412
474.17	23.705
474.52	22.655
474.87	24.182
475.22	23.002
475.57	22.699
475.92	22.929
476.27	23.923
476.61	23.843
476.96	22.867
477.31	23.148
477.66	22.416
478.01	23.638
478.36	23.693
478.70	23.600
479.05	24.231
479.40	23.370
479.75	22.784
480.10	23.554
480.45	23.000
480.79	23.414
481.14	24.078
481.49	22.512
481.84	23.600
482.19	22.872
482.53	23.309
482.88	23.819
483.23	23.608
483.58	23.019
483.92	23.572
484.27	22.744
484.62	23.129
484.97	22.512
485.31	22.290
485.66	22.058
486.01	21.567
486.36	21.766
486.70	21.820
487.05	22.068
487.40	22.518
487.75	21.859
488.09	22.373
488.44	22.455
488.79	22.899
489.13	23.197
489.48	22.873
489.83	23.004
490.17	23.730
490.52	23.649
490.87	23.091
491.22	24.021
491.56	23.150
491.91	23.566
492.26	23.772
492.60	23.608
492.95	24.643
493.30	23.254
493.64	23.870
493.99	23.478
494.34	23.641
494.68	24.429
495.03	23.504
495.37	23.749
495.72	23.170
496.07	24.585
496.41	23.868
496.76	23.399
497.11	23.055
497.45	24.964
497.80	25.126
498.14	24.441
498.49	24.175
498.84	24.401
499.18	24.197
499.53	24.157
499.87	23.833
500.22	23.640
500.56	23.298
500.91	23.745
501.26	23.875
501.60	24.250
501.95	24.260
502.29	24.504
502.64	24.421
502.98	24.519
503.33	24.015
503.67	24.145
504.02	24.145
504.36	24.048
504.71	23.434
505.06	23.553
505.40	24.061
505.75	24.742
506.09	24.430
506.44	24.897
506.78	24.796
507.13	24.612
507.47	24.543
507.82	24.573
508.16	24.775
508.51	24.397
508.85	24.490
509.19	24.215
509.54	24.504
509.88	23.948
510.23	23.938
510.57	24.746
510.92	24.627
511.26	24.277
511.61	24.532
511.95	24.658
512.30	25.665
512.64	25.153
512.98	24.593
513.33	25.630
513.67	24.389
514.02	26.087
514.36	25.943
514.70	25.874
515.05	26.557
515.39	25.738
515.74	26.287
516.08	25.403
516.42	26.914
516.77	27.209
517.11	25.519
517.46	25.374
517.80	25.805
518.14	26.454
518.49	25.541
518.83	26.002
519.17	25.834
519.52	25.992
519.86	26.110
520.20	26.428
520.55	26.016
520.89	25.721
521.23	25.839
521.58	26.246
521.92	27.244
522.26	26.936
522.61	26.364
522.95	27.152
523.29	26.429
523.64	27.510
523.98	26.960
524.32	26.869
524.66	27.849
525.01	26.299
525.35	26.960
525.69	26.263
526.04	25.860
526.38	27.237
526.72	25.245
527.06	26.589
527.41	27.441
527.75	26.139
528.09	26.512
528.43	27.414
528.78	26.799
529.12	26.581
529.46	25.926
529.80	26.979
530.15	26.799
530.49	27.071
530.83	25.787
531.17	26.729
531.51	27.428
531.86	27.192
532.20	26.026
532.54	26.685
532.88	27.379
533.22	26.210
533.57	26.147
533.91	25.783
534.25	26.107
534.59	26.106
534.93	26.180
535.27	25.381
535.62	26.248
535.96	26.354
536.30	27.836
536.64	27.292
536.98	26.341
537.32	26.956
537.66	26.508
538.01	27.343
538.35	26.699
538.69	26.698
539.03	25.837
539.37	26.312
539.71	26.721
540.05	26.544
540.39	27.285
540.73	26.848
541.07	27.624
541.42	26.546
541.76	27.805
542.10	25.740
542.44	25.990
542.78	25.327
543.12	26.648
543.46	26.773
543.80	26.371
544.14	25.834
544.48	26.449
544.82	27.136
545.16	26.913
545.50	26.502
545.84	26.983
546.18	25.957
546.52	27.469
546.86	26.024
547.20	26.609
547.54	26.643
547.88	25.883
548.22	26.430
548.56	26.583
548.90	26.617
549.24	25.826
549.58	26.164
549.92	25.447
550.26	26.154
550.60	27.138
550.94	26.587
551.28	27.512
551.62	27.692
551.96	27.218
552.30	26.681
552.64	26.093
552.98	25.668
553.32	27.033
553.66	26.996
554.00	28.029
554.34	26.514
554.68	26.696
555.02	27.455
555.36	26.402
555.69	26.960
556.03	25.625
556.37	26.406
556.71	27.004
557.05	27.218
557.39	26.097
557.73	27.961
558.07	27.376
558.41	26.953
558.75	26.890
559.08	26.793
559.42	27.698
559.76	27.702
560.10	27.294
560.44	26.508
560.78	26.434
561.12	27.504
561.45	27.407
561.79	27.591
562.13	26.828
562.47	26.619
562.81	26.153
563.15	27.504
563.48	27.086
563.82	26.699
564.16	27.159
564.50	26.216
564.84	26.037
565.17	25.822
565.51	27.049
565.85	27.366
566.19	26.127
566.52	27.346
566.86	26.928
567.20	25.592
567.54	25.912
567.88	25.952
568.21	26.244
568.55	24.783
568.89	25.411
569.23	25.036
569.56	23.862
569.90	24.564
570.24	23.744
570.57	23.600
570.91	24.503
571.25	23.742
571.59	22.734
571.92	23.022
572.26	23.219
572.60	22.853
572.93	23.125
573.27	22.414
573.61	22.912
573.95	22.802
574.28	22.405
574.62	22.324
574.96	22.688
575.29	22.161
575.63	22.078
575.97	22.635
576.30	22.463
576.64	22.464
576.98	22.342
577.31	22.118
577.65	21.835
577.98	21.957
578.32	21.940
578.66	21.964
578.99	22.087
579.33	21.659
579.67	22.104
580.00	22.076
580.34	22.289
580.67	21.958
581.01	22.334
581.35	22.093
581.68	22.122
582.02	22.279
582.35	21.968
582.69	21.582
583.02	21.662
583.36	22.356
583.70	22.871
584.03	23.019
584.37	23.264
584.70	22.692
585.04	21.762
585.37	22.236
585.71	22.069
586.04	22.189
586.38	22.086
586.72	22.209
587.05	22.819
587.39	22.812
587.72	22.772
588.06	22.751
588.39	23.070
588.73	23.168
589.06	23.222
589.40	22.848
589.73	24.133
590.07	23.829
590.40	22.988
590.73	24.176
591.07	23.579
591.40	24.132
591.74	25.294
592.07	24.351
592.41	24.337
592.74	23.297
593.08	22.599
593.41	23.361
593.75	22.898
594.08	22.863
594.41	23.399
594.75	23.244
595.08	23.193
595.42	22.819
595.75	23.169
596.09	23.651
596.42	23.357
596.75	24.156
597.09	24.647
597.42	23.397
597.75	24.324
598.09	23.857
598.42	23.330
598.76	23.552
599.09	23.998
599.42	23.266
599.76	23.363
600.09	23.152
600.42	23.199
600.76	23.440
601.09	23.168
601.42	22.718
601.76	23.859
602.09	23.309
602.42	24.052
602.76	23.854
603.09	23.796
603.42	24.289
603.76	22.823
604.09	22.924
604.42	23.646
604.76	24.344
605.09	24.040
605.42	23.657
605.75	24.387
606.09	24.501
606.42	23.603
606.75	23.983
607.09	23.077
607.42	23.793
607.75	23.712
608.08	22.776
608.42	23.253
608.75	24.578
609.08	24.714
609.41	24.213
609.75	24.194
610.08	24.264
610.41	23.671
610.74	24.525
611.07	23.928
611.41	24.598
611.74	25.213
612.07	24.251
612.40	24.125
612.73	24.181
613.07	24.297
613.40	24.672
613.73	24.622
614.06	25.264
614.39	24.647
614.72	24.258
615.06	24.525
615.39	24.127
615.72	23.950
616.05	24.022
616.38	24.330
616.71	25.199
617.05	25.015
617.38	24.953
617.71	25.031
618.04	25.841
618.37	26.040
618.70	25.215
619.03	26.944
619.36	25.615
619.69	26.687
620.03	26.589
620.36	26.252
620.69	26.053
621.02	25.382
621.35	27.054
621.68	27.211
622.01	27.333
622.34	25.778
622.67	26.656
623.00	26.723
623.33	26.524
623.66	25.280
623.99	26.551
624.32	26.692
624.65	24.586
624.99	26.712
625.32	25.701
625.65	27.337
625.98	26.994
626.31	26.683
626.64	27.556
626.97	28.534
627.30	28.196
627.63	27.383
627.96	27.853
628.29	27.567
628.62	29.892
628.95	28.156
629.28	28.528
629.61	27.717
629.94	28.152
630.26	27.964
630.59	29.657
630.92	28.308
631.25	27.897
631.58	29.295
631.91	28.947
632.24	27.523
632.57	28.864
632.90	28.233
633.23	28.706
633.56	30.730
633.89	29.716
634.22	29.630
634.55	30.496
634.88	29.502
635.20	30.000
635.53	30.000
635.86	28.479
636.19	29.495
636.52	30.230
636.85	27.543
637.18	28.679
637.51	31.447
637.83	29.304
638.16	32.333
638.49	29.428
638.82	30.921
639.15	29.308
639.48	29.161
639.81	30.962
640.13	31.169
640.46	31.050
640.79	31.370
641.12	29.985
641.45	31.081
641.77	30.815
642.10	33.333
642.43	31.029
642.76	31.683
643.09	32.472
643.41	30.421
643.74	31.466
644.07	33.990
644.40	30.236
644.73	31.349
645.05	33.221
645.38	33.686
645.71	31.915
646.04	35.189
646.36	31.738
646.69	34.173
647.02	33.081
647.35	33.022
647.67	31.261
648.00	34.701
648.33	31.229
648.66	31.017
648.98	29.313
649.31	28.926
649.64	31.083
649.96	28.687
650.29	31.175
650.62	31.966
650.94	32.037
651.27	32.402
651.60	30.811
651.92	31.119
652.25	30.551
652.58	29.500
652.90	32.933
653.23	30.924
653.56	29.272
653.88	28.351
654.21	26.445
654.54	29.372
654.86	30.730
655.19	28.655
655.52	27.012
655.84	21.386
656.17	23.316
656.49	31.574
656.82	32.624
657.15	24.887
657.47	18.789
657.80	13.778
658.13	13.688
658.45	21.146
658.78	21.598
659.10	21.773
659.43	22.387
659.75	22.743
660.08	24.069
660.41	25.945
660.73	28.315
661.06	29.983
661.38	32.877
661.71	28.131
662.03	33.262
662.36	30.110
662.68	28.761
663.01	33.843
663.33	30.858
663.66	33.488
663.98	31.163
664.31	30.064
664.63	31.797
664.96	29.565
665.28	30.905
665.61	33.117
665.93	33.478
666.26	34.490
666.58	30.872
666.91	31.529
667.23	35.377
667.56	30.095
667.88	32.614
668.21	33.413
668.53	34.988
668.86	30.660
669.18	32.075
669.50	32.446
669.83	34.186
670.15	32.401
670.48	30.861
670.80	36.406
671.13	30.872
671.45	31.050
671.77	34.120
672.10	31.683
672.42	30.337
672.75	30.551
673.07	31.664
673.39	30.642
673.72	29.389
674.04	29.583
674.37	31.568
674.69	32.548
675.01	32.000
675.34	31.532
675.66	33.796
675.98	35.477
676.31	32.110
676.63	29.216
676.95	29.091
677.28	31.765
677.60	31.807
677.92	30.505
678.25	29.103
678.57	29.221
678.89	30.042
679.22	34.004
679.54	31.928
679.86	29.622
680.18	28.932
680.51	26.894
680.83	28.231
681.15	28.800
681.48	27.869
681.80	32.025
682.12	31.048
682.44	25.732
682.77	32.450
683.09	31.579
683.41	30.227
683.73	32.028
684.06	31.858
684.38	27.742
684.70	32.898
685.02	30.913
685.34	26.680
685.67	27.955
685.99	28.029
686.31	28.673
686.63	27.273
686.96	25.285
687.28	24.444
687.60	29.087
687.92	31.111
688.24	31.855
688.56	29.476
688.89	30.357
689.21	32.889
689.53	27.610
689.85	29.070
690.17	30.134
690.49	31.442
690.82	29.854
691.14	28.571
691.46	30.607
691.78	31.532
692.10	30.108
692.42	28.788
692.74	31.624
693.06	28.604
693.39	28.281
693.71	30.543
694.03	27.252
694.35	30.841
694.67	34.091
694.99	31.332
695.31	31.332
695.63	28.750
695.95	29.293
696.27	30.311
696.59	29.167
696.91	26.050
697.23	30.591
697.56	29.950
697.88	31.828
698.20	29.613
698.52	32.471
698.84	28.947
699.16	32.500
699.48	31.830
699.80	28.040
700.12	30.189
700.44	31.653
700.76	29.070
701.08	27.879
701.40	33.133
701.72	37.037
702.04	33.333
702.36	28.094
702.68	30.030
703.00	29.697
703.32	28.446
703.64	27.684
703.96	30.725
704.28	29.448
704.60	35.238
704.91	27.129
705.23	31.894
705.55	35.336
705.87	34.296
706.19	35.556
706.51	30.928
706.83	28.939
707.15	27.414
707.47	29.412
707.79	27.865
708.11	29.000
708.43	27.750
708.74	29.199
709.06	32.113
709.38	27.829
709.70	31.953
710.02	31.210
710.34	32.817
710.66	25.321
710.98	26.159
711.29	30.492
711.61	33.220
711.93	33.550
712.25	33.677
712.57	31.502
712.89	33.582
713.20	34.602
713.52	28.920
713.84	34.471
714.16	25.430
714.48	27.097
714.80	32.372
715.11	29.483
715.43	26.332
715.75	29.667
716.07	27.243
716.39	33.221
716.70	27.675
717.02	27.863
717.34	37.652
717.66	31.416
717.97	33.478
718.29	29.707
718.61	27.165
718.93	34.496
719.24	30.798
719.56	31.325
719.88	33.677
720.20	30.682
720.51	25.670
720.83	33.591
721.15	33.613
721.46	31.048
721.78	26.087
722.10	26.394
722.42	25.726
722.73	30.612
723.05	37.959
723.37	30.508
723.68	35.586
724.00	29.915
724.32	31.556
724.63	29.545
724.95	31.441
725.27	30.876
725.58	30.932
725.90	25.000
726.22	27.413
726.53	30.508
726.85	33.708
727.16	33.585
727.48	27.530
727.80	28.745
728.11	33.898
728.43	29.020
728.74	21.774
729.06	28.800
729.38	33.459
729.69	25.896
730.01	25.769
730.32	30.224
730.64	30.742
730.96	25.283
731.27	29.667
731.59	24.068
731.90	26.433
732.22	25.552
732.53	35.548
732.85	33.688
733.16	31.650
733.48	24.101
733.80	25.725
734.11	27.119
734.43	30.241
734.74	24.545
735.06	26.384
735.37	25.076
735.69	26.599
736.00	26.829
736.32	29.530
736.63	26.408
736.95	26.621
737.26	25.267
737.58	26.510
737.89	26.740
738.21	28.947
738.52	30.864
738.83	31.004
739.15	27.074
739.46	32.677
739.78	27.473
740.09	24.183
740.41	27.899
740.72	29.921
741.04	29.150
741.35	26.383
741.66	32.227
741.98	30.612
742.29	30.198
742.61	30.890
742.92	21.801
743.23	26.852
743.55	29.864
743.86	29.187
744.18	33.014
744.49	31.915
744.80	33.696
745.12	35.294
745.43	24.390
745.74	32.292
746.06	27.805
746.37	34.555
746.68	30.806
747.00	30.851
747.31	36.816
747.62	28.641
747.94	29.187
748.25	31.188
748.56	28.962
748.88	30.890
749.19	35.638
749.50	31.034
749.82	24.057
750.13	27.982
750.44	30.075
750.75	30.597
751.07	31.022
751.38	24.904
751.69	25.490
752.01	30.620
752.32	25.896
752.63	28.854
752.94	27.155
753.26	35.983
753.57	29.864
753.88	28.761
754.19	29.167
754.51	26.446
754.82	24.291
755.13	30.833
755.44	27.823
755.75	28.906
756.07	22.179
756.38	23.019
756.69	26.054
757.00	24.333
757.31	21.895
757.63	23.780
757.94	26.667
758.25	21.918
758.56	23.138
758.87	19.263
759.18	21.807
759.50	27.636
759.81	27.425
760.12	25.484
760.43	28.788
760.74	24.383
761.05	26.154
761.36	24.148
761.67	27.879
761.99	27.211
762.30	23.636
762.61	29.644
762.92	23.982
763.23	29.730
763.54	29.439
763.85	27.542
764.16	30.290
764.47	21.774
764.78	25.641
765.10	31.650
765.41	28.076
765.72	24.444
766.03	22.180
766.34	24.088
766.65	31.474
766.96	29.798
767.27	28.191
767.58	23.563
767.89	21.986
768.20	27.841
768.51	25.275
768.82	22.167
769.13	23.963
769.44	26.180
769.75	24.201
770.06	28.448
770.37	26.923
770.68	23.858
770.99	25.792
771.30	23.039
771.61	26.244
771.92	30.172
772.23	29.557
772.54	26.882
772.85	27.778
773.16	25.281
773.47	37.908
773.78	33.987
774.09	27.545
774.39	28.667
774.70	28.025
775.01	37.931
775.32	25.714
775.63	31.405
775.94	19.847
776.25	19.685
776.56	33.333
776.87	28.846
777.18	20.513
777.48	21.552
777.79	26.957
778.10	16.190
778.41	35.135
778.72	30.159
779.03	23.308
779.34	34.752
779.65	30.137
779.95	24.658
780.26	27.586
780.57	25.203
780.88	21.260
781.19	32.759
781.50	32.558
781.80	24.852
782.11	23.899
782.42	29.231
782.73	22.302
783.04	29.630
783.34	25.000
783.65	18.803
783.96	22.951
784.27	20.690
784.57	24.390
784.88	29.688
785.19	30.000
785.50	40.000
785.81	32.759
786.11	17.241
786.42	18.447
786.73	35.455
787.04	21.429
787.34	32.143
787.65	31.429
787.96	25.664
788.26	25.455
788.57	23.077
788.88	29.687
789.19	26.190
789.49	27.826
789.80	27.551
790.11	13.131
790.41	29.091
790.72	28.261
791.03	28.409
791.33	38.750
791.64	30.000
791.95	26.744
792.25	26.596
792.56	19.101
792.87	23.288
793.17	24.638
793.48	28.000
793.79	23.750
794.09	40.000
794.40	16.981
794.70	26.214
795.01	18.699
795.32	24.786
795.62	13.333
795.93	25.490
796.23	23.585
796.54	36.458
796.85	23.529
797.15	28.169
797.46	31.944
797.76	30.303
798.07	36.047
798.37	18.421
798.68	27.273
798.99	28.395
799.29	21.429
799.60	33.333
799.90	28.000
800.21	22.951
800.51	18.462
800.82	18.644
801.12	33.333
801.43	34.426
801.73	28.571
802.04	14.000
802.34	16.418
802.65	28.846
802.95	39.286
803.26	23.077
803.56	27.451
803.87	2.174
804.17	29.333
804.48	25.397
804.78	29.630
805.09	26.087
805.39	11.111
805.70	24.074
806.00	12.281
806.30	30.986
806.61	15.714
806.91	2.778
807.22	22.368
807.52	36.000
807.83	27.273
808.13	20.833
808.43	19.118
808.74	14.925
809.04	18.644
809.35	7.692
809.65	17.188
809.95	-5.405
810.26	15.909
810.56	12.329
810.86	7.143
811.17	38.000
811.47	26.531
811.77	-7.895
812.08	11.364
812.38	16.981
812.69	22.500
812.99	18.182
813.29	21.053
813.59	20.000
813.90	15.909
814.20	33.333
814.50	32.692
814.81	28.302
815.11	10.638
815.41	30.508
815.72	4.762
816.02	29.412
816.32	31.250
816.62	34.146
816.93	0.000
817.23	2.857
817.53	20.833
817.84	-13.043
818.14	21.154
818.44	-10.526
818.74	17.391
819.04	-15.000
819.35	43.243
819.65	17.647
819.95	33.333
820.25	-2.381
820.56	30.000
820.86	6.897
821.16	25.000
821.46	36.170
821.76	30.000
822.07	30.233
822.37	-5.405
822.67	-6.250
822.97	21.429
823.27	0.000
823.57	-28.000
823.88	-51.852
824.18	14.286
824.48	11.765
824.78	29.032
825.08	21.739
825.38	39.394
825.69	0.000
825.99	23.684
826.29	8.333
826.59	-20.000
826.89	14.286
827.19	47.826
827.49	15.000
827.79	2.857
828.09	32.143
828.39	27.273
828.70	29.730
829.00	21.429
829.30	33.333
829.60	50.000
829.90	25.000
830.20	26.316
830.50	29.630
830.80	0.000
831.10	18.182
831.40	57.576
831.70	25.806
832.00	38.095
832.30	19.048
832.60	66.667
832.90	13.793
833.20	40.000
833.50	27.273
833.80	37.037
834.10	23.077
834.40	46.875
834.70	-11.111
835.00	10.526
835.30	26.923
835.60	100.000
835.90	25.806
836.20	9.091
836.50	28.571
836.80	-26.923
837.10	-10.714
837.40	-166.667
837.70	63.636
838.00	54.545
838.30	47.826
838.60	38.462
838.90	50.000
839.19	50.000
839.49	53.333
839.79	15.385
840.09	-41.667
840.39	32.143
840.69	14.286
840.99	15.385
841.29	-26.316
841.59	-50.000
841.88	9.091
842.18	40.000
842.48	31.250
842.78	-6.667
843.08	7.407
843.38	-90.000
843.68	17.391
843.97	33.333
844.27	-93.333
844.57	15.000
844.87	-11.111
845.17	-38.095
845.47	20.000
845.76	9.524
846.06	35.294
846.36	-30.000
846.66	14.286
846.96	60.000
847.25	-100.000
847.55	14.286
847.85	-25.000
848.15	0.000
848.44	-333.333
848.74	55.000
849.04	22.222
849.34	9.091
849.63	-100.000
849.93	-160.000
850.23	-11.111
850.53	90.000
850.82	-7.692
851.12	144.444
851.42	20.000
851.71	0.000
852.01	-7.143
852.31	0.000
852.61	-18.182
852.90	-5.000
853.20	21.053
853.50	-8.333
853.79	4.348
854.09	25.000
854.39	10.526
854.68	4.167
854.98	48.387
855.28	50.000
855.57	-5.000
855.87	83.333
856.17	44.444
856.46	-57.143
856.76	-6.667
857.05	77.778
857.35	16.000
857.65	5.556
857.94	-38.462
858.24	51.724
858.53	33.333
858.83	70.370
859.13	31.818
859.42	4.348
859.72	-75.000
860.01	-566.667
860.31	28.000
860.60	33.333
860.90	-200.000
861.20	-20.000
861.49	-350.000
861.79	-40.000
862.08	10.000
862.38	40.000
862.67	-200.000
862.97	33.333
863.26	25.000
863.56	44.444
863.85	-333.333
864.15	44.444
864.44	-100.000
864.74	50.000
865.03	350.000
865.33	-260.000
865.62	50.000
865.92	-8.333
866.21	-150.000
866.51	25.000
866.80	-9.091
867.10	-350.000
867.39	50.000
867.69	0.000
867.98	30.769
868.27	-466.667
868.57	-33.333
868.86	27.778
869.16	-84.615
869.45	20.000
869.75	-300.000
870.04	0.000
870.33	-14.286
870.63	38.095
870.92	466.667
871.22	-160.000
871.51	-1000.000
871.80	133.333
872.10	333.333
>>>>>End Processed Spectral Data<<<<<
