SpectraSuite Data File
++++++++++++++++++++++++++++++++++++
Date: Fri May 15 20:29:44 PDT 2015
User: schluterlab
Dark Spectrum Present: Yes
Reference Spectrum Present: Yes
Number of Sampled Component Spectra: 1
Spectrometers: USB2E3373
Integration Time (usec): 3000 (USB2E3373)
Spectra Averaged: 3 (USB2E3373)
Boxcar Smoothing: 0 (USB2E3373)
Correct for Electrical Dark: No (USB2E3373)
Strobe/Lamp Enabled: No (USB2E3373)
Correct for Detector Non-linearity: No (USB2E3373)
Correct for Stray Light: No (USB2E3373)
Number of Pixels in Processed Spectrum: 2048
>>>>>Begin Processed Spectral Data<<<<<
178.53	0.000
178.91	0.000
179.29	0.000
179.67	-650.000
180.04	14.286
180.42	50.000
180.80	-200.000
181.18	133.333
181.56	-200.000
181.94	-100.000
182.31	400.000
182.69	-160.000
183.07	-333.333
183.45	-80.000
183.83	83.333
184.20	-63.636
184.58	177.778
184.96	-0.000
185.34	200.000
185.72	-550.000
186.09	38.462
186.47	-1500.000
186.85	83.333
187.23	122.222
187.61	-0.000
187.98	-200.000
188.36	0.000
188.74	-200.000
189.12	5.882
189.49	33.333
189.87	0.000
190.25	35.714
190.63	50.000
191.00	33.333
191.38	-15.789
191.76	200.000
192.14	50.000
192.51	-150.000
192.89	66.667
193.27	14.286
193.65	33.333
194.02	163.636
194.40	60.000
194.78	-37.500
195.15	-16.667
195.53	-150.000
195.91	325.000
196.29	-150.000
196.66	76.923
197.04	-28.571
197.42	-111.111
197.79	-333.333
198.17	-53.846
198.55	1900.000
198.92	-300.000
199.30	-1300.000
199.68	-100.000
200.05	-100.000
200.43	0.000
200.81	100.000
201.18	366.667
201.56	1600.000
201.94	-300.000
202.31	33.333
202.69	-160.000
203.07	50.000
203.44	100.000
203.82	0.000
204.19	64.286
204.57	-500.000
204.95	125.000
205.32	30.000
205.70	-28.571
206.08	-100.000
206.45	200.000
206.83	92.857
207.20	71.429
207.58	-400.000
207.96	-366.667
208.33	-90.000
208.71	-250.000
209.08	-150.000
209.46	-1200.000
209.84	-120.000
210.21	-1500.000
210.59	14.286
210.96	133.333
211.34	-75.000
211.71	26.667
212.09	-42.857
212.46	-1300.000
212.84	0.000
213.22	100.000
213.59	500.000
213.97	-23.077
214.34	18.182
214.72	16.667
215.09	350.000
215.47	30.769
215.84	-54.545
216.22	-300.000
216.59	-12.500
216.97	100.000
217.34	325.000
217.72	-80.000
218.09	75.000
218.47	125.000
218.84	-100.000
219.22	-33.333
219.59	-80.000
219.97	266.667
220.34	125.000
220.72	-14.286
221.09	50.000
221.47	-400.000
221.84	-350.000
222.22	-550.000
222.59	-9.091
222.97	-16.667
223.34	-66.667
223.72	7.143
224.09	47.619
224.46	28.571
224.84	266.667
225.21	-20.000
225.59	53.333
225.96	150.000
226.34	200.000
226.71	-185.714
227.08	-150.000
227.46	-37.500
227.83	-300.000
228.21	-44.444
228.58	0.000
228.95	0.000
229.33	120.000
229.70	-6.250
230.08	-100.000
230.45	-128.571
230.82	-14.286
231.20	-6.667
231.57	42.857
231.95	-57.143
232.32	60.000
232.69	92.857
233.07	-333.333
233.44	0.000
233.81	0.000
234.19	33.333
234.56	-17.647
234.93	250.000
235.31	-125.000
235.68	-140.000
236.05	38.462
236.43	-35.000
236.80	11.765
237.17	40.625
237.55	45.000
237.92	51.852
238.29	16.667
238.67	40.000
239.04	23.529
239.41	-12.195
239.79	13.333
240.16	43.902
240.53	21.053
240.91	4.348
241.28	31.746
241.65	44.643
242.02	36.986
242.40	31.667
242.77	27.119
243.14	18.182
243.51	26.250
243.89	42.529
244.26	18.391
244.63	30.952
245.00	29.897
245.38	35.052
245.75	22.472
246.12	26.724
246.49	25.620
246.87	38.462
247.24	26.891
247.61	28.947
247.98	25.203
248.36	26.875
248.73	32.237
249.10	25.325
249.47	36.709
249.84	28.758
250.22	31.176
250.59	30.065
250.96	32.394
251.33	32.558
251.70	30.000
252.08	30.457
252.45	25.743
252.82	28.643
253.19	32.719
253.56	26.636
253.94	31.081
254.31	29.565
254.68	33.333
255.05	28.346
255.42	29.258
255.79	28.571
256.16	24.514
256.54	30.970
256.91	27.376
257.28	27.138
257.65	30.337
258.02	28.014
258.39	33.333
258.76	28.938
259.14	28.571
259.51	25.890
259.88	30.241
260.25	30.719
260.62	32.639
260.99	28.136
261.36	28.425
261.73	28.481
262.10	28.875
262.47	28.221
262.85	27.586
263.22	31.077
263.59	27.103
263.96	35.093
264.33	32.727
264.70	30.060
265.07	31.250
265.44	28.895
265.81	30.791
266.18	31.148
266.55	29.563
266.92	29.793
267.29	31.854
267.66	31.458
268.03	29.319
268.40	28.460
268.77	34.225
269.14	29.257
269.51	29.563
269.88	25.686
270.25	29.082
270.62	28.049
270.99	28.645
271.36	29.095
271.73	28.638
272.10	29.684
272.47	30.496
272.84	25.990
273.21	30.858
273.58	26.265
273.95	31.121
274.32	32.564
274.69	27.376
275.06	28.348
275.43	29.025
275.80	31.567
276.17	29.425
276.54	28.266
276.91	27.632
277.28	26.201
277.65	30.372
278.02	26.809
278.39	29.759
278.76	31.237
279.13	27.178
279.50	29.622
279.87	29.374
280.23	27.742
280.60	28.460
280.97	28.889
281.34	27.692
281.71	30.390
282.08	25.767
282.45	28.376
282.82	26.834
283.19	28.240
283.56	29.865
283.92	28.653
284.29	28.462
284.66	27.907
285.03	28.684
285.40	29.112
285.77	25.835
286.14	27.256
286.51	27.675
286.87	25.594
287.24	28.177
287.61	26.455
287.98	27.193
288.35	28.943
288.72	28.196
289.08	25.000
289.45	26.362
289.82	26.399
290.19	26.280
290.56	24.357
290.93	24.747
291.29	22.496
291.66	25.197
292.03	23.923
292.40	25.645
292.77	22.488
293.13	22.403
293.50	23.976
293.87	23.511
294.24	24.266
294.60	23.100
294.97	23.214
295.34	22.239
295.71	24.441
296.08	22.720
296.44	18.777
296.81	20.556
297.18	23.333
297.55	22.900
297.91	21.918
298.28	21.372
298.65	20.353
299.02	21.429
299.38	19.973
299.75	22.069
300.12	20.681
300.48	21.476
300.85	21.420
301.22	19.870
301.59	20.263
301.95	23.165
302.32	22.568
302.69	21.020
303.05	19.307
303.42	20.672
303.79	21.028
304.15	19.594
304.52	21.284
304.89	18.129
305.25	18.160
305.62	19.720
305.99	18.363
306.35	19.422
306.72	17.885
307.09	21.095
307.45	19.862
307.82	18.866
308.19	20.093
308.55	18.648
308.92	21.786
309.29	18.547
309.65	18.192
310.02	19.252
310.38	19.759
310.75	19.563
311.12	21.421
311.48	19.406
311.85	19.686
312.22	19.515
312.58	19.108
312.95	19.104
313.31	18.323
313.68	19.162
314.05	19.694
314.41	20.722
314.78	18.351
315.14	21.172
315.51	20.497
315.87	19.672
316.24	21.132
316.61	20.571
316.97	21.032
317.34	20.508
317.70	21.606
318.07	21.442
318.43	21.569
318.80	21.307
319.16	23.828
319.53	23.457
319.89	21.949
320.26	21.761
320.62	23.771
320.99	22.965
321.35	24.563
321.72	24.922
322.08	23.968
322.45	26.193
322.81	25.933
323.18	26.104
323.54	26.448
323.91	27.264
324.27	28.125
324.64	28.371
325.00	28.558
325.37	30.670
325.73	28.830
326.10	29.609
326.46	31.390
326.83	32.458
327.19	32.171
327.56	32.493
327.92	34.595
328.29	35.089
328.65	35.000
329.01	36.029
329.38	35.945
329.74	37.583
330.11	37.442
330.47	36.735
330.84	35.673
331.20	40.494
331.56	37.037
331.93	39.178
332.29	39.047
332.66	39.005
333.02	40.242
333.38	38.955
333.75	41.209
334.11	38.944
334.48	42.158
334.84	41.484
335.20	41.903
335.57	40.617
335.93	41.102
336.29	43.186
336.66	43.324
337.02	42.658
337.38	42.870
337.75	43.818
338.11	44.094
338.47	43.704
338.84	44.362
339.20	44.241
339.56	44.587
339.93	44.852
340.29	45.413
340.65	44.086
341.02	46.543
341.38	44.248
341.74	43.463
342.11	44.021
342.47	45.819
342.83	46.453
343.20	44.338
343.56	46.000
343.92	45.970
344.28	44.663
344.65	44.991
345.01	46.500
345.37	44.659
345.73	45.105
346.10	45.557
346.46	44.743
346.82	44.517
347.19	44.057
347.55	46.366
347.91	45.955
348.27	43.816
348.63	44.804
349.00	44.053
349.36	46.384
349.72	46.269
350.08	46.148
350.45	45.571
350.81	44.269
351.17	45.033
351.53	45.306
351.89	44.839
352.26	45.440
352.62	45.726
352.98	44.096
353.34	45.169
353.70	47.006
354.07	46.210
354.43	44.996
354.79	46.243
355.15	45.873
355.51	45.095
355.87	46.440
356.24	44.780
356.60	46.968
356.96	46.905
357.32	44.089
357.68	45.113
358.04	46.284
358.40	45.338
358.77	46.491
359.13	45.637
359.49	45.455
359.85	46.256
360.21	47.049
360.57	45.907
360.93	45.537
361.29	45.317
361.66	46.160
362.02	47.652
362.38	47.296
362.74	46.253
363.10	48.081
363.46	45.738
363.82	46.882
364.18	46.421
364.54	44.412
364.90	46.667
365.26	46.579
365.62	47.518
365.98	46.994
366.35	47.414
366.71	47.450
367.07	46.226
367.43	46.657
367.79	46.996
368.15	46.734
368.51	47.269
368.87	46.016
369.23	47.148
369.59	48.032
369.95	47.434
370.31	46.532
370.67	47.910
371.03	46.378
371.39	47.629
371.75	47.179
372.11	46.576
372.47	48.447
372.83	47.693
373.19	46.790
373.55	47.509
373.91	46.724
374.27	48.405
374.63	46.734
374.99	47.305
375.35	47.841
375.71	47.552
376.07	48.455
376.42	48.639
376.78	48.591
377.14	46.378
377.50	47.543
377.86	48.527
378.22	47.862
378.58	47.821
378.94	47.700
379.30	47.473
379.66	48.903
380.02	48.866
380.38	48.691
380.74	47.816
381.09	48.957
381.45	48.318
381.81	48.365
382.17	49.810
382.53	48.345
382.89	49.843
383.25	50.218
383.61	50.061
383.97	49.333
384.32	48.718
384.68	50.464
385.04	48.468
385.40	49.160
385.76	50.503
386.12	49.806
386.48	50.958
386.83	49.778
387.19	50.427
387.55	51.568
387.91	49.756
388.27	49.145
388.62	51.857
388.98	50.829
389.34	50.968
389.70	51.212
390.06	49.591
390.42	49.870
390.77	51.079
391.13	50.946
391.49	50.388
391.85	51.072
392.20	50.910
392.56	51.049
392.92	51.674
393.28	52.182
393.64	50.811
393.99	52.602
394.35	52.498
394.71	51.916
395.07	50.849
395.42	51.609
395.78	53.160
396.14	52.396
396.50	51.173
396.85	51.513
397.21	51.504
397.57	51.473
397.92	51.947
398.28	51.897
398.64	51.566
399.00	52.991
399.35	52.991
399.71	52.671
400.07	52.418
400.42	53.060
400.78	52.603
401.14	52.813
401.49	53.186
401.85	52.712
402.21	52.108
402.57	53.500
402.92	52.384
403.28	53.195
403.63	54.540
403.99	53.571
404.35	53.529
404.70	52.500
405.06	52.409
405.42	52.641
405.77	53.864
406.13	54.366
406.49	53.286
406.84	53.912
407.20	54.365
407.55	53.252
407.91	54.011
408.27	54.047
408.62	54.831
408.98	55.145
409.34	53.408
409.69	53.747
410.05	53.879
410.40	54.074
410.76	54.825
411.11	55.375
411.47	55.621
411.83	53.735
412.18	55.856
412.54	54.057
412.89	53.202
413.25	53.911
413.60	55.280
413.96	54.356
414.31	55.610
414.67	54.650
415.03	54.993
415.38	53.655
415.74	54.919
416.09	55.193
416.45	55.706
416.80	55.188
417.16	58.287
417.51	55.363
417.87	55.280
418.22	56.477
418.58	55.853
418.93	56.238
419.29	54.802
419.64	55.606
420.00	57.809
420.35	55.463
420.71	56.683
421.06	56.047
421.42	55.288
421.77	57.746
422.12	55.505
422.48	56.145
422.83	55.858
423.19	56.264
423.54	56.614
423.90	55.948
424.25	57.176
424.61	57.283
424.96	56.330
425.31	58.752
425.67	57.864
426.02	57.715
426.38	57.921
426.73	57.990
427.09	59.557
427.44	58.941
427.79	57.808
428.15	58.434
428.50	57.541
428.85	56.511
429.21	58.517
429.56	58.544
429.92	56.497
430.27	57.293
430.62	57.292
430.98	56.953
431.33	58.097
431.68	56.777
432.04	59.530
432.39	57.216
432.74	57.426
433.10	58.333
433.45	58.841
433.80	58.212
434.16	58.892
434.51	59.140
434.86	60.105
435.22	59.226
435.57	59.701
435.92	59.281
436.28	58.497
436.63	60.068
436.98	58.343
437.34	58.500
437.69	60.525
438.04	59.601
438.39	59.377
438.75	60.656
439.10	60.328
439.45	61.412
439.81	59.511
440.16	63.124
440.51	61.373
440.86	61.873
441.22	59.219
441.57	60.320
441.92	61.805
442.27	60.698
442.63	61.456
442.98	62.206
443.33	60.768
443.68	62.016
444.03	61.699
444.39	61.289
444.74	62.988
445.09	61.971
445.44	62.336
445.79	63.228
446.15	60.297
446.50	61.120
446.85	62.965
447.20	61.835
447.55	61.272
447.91	61.985
448.26	62.379
448.61	61.831
448.96	62.192
449.31	62.197
449.66	61.672
450.02	62.693
450.37	63.308
450.72	62.314
451.07	62.722
451.42	61.860
451.77	62.508
452.12	61.423
452.47	64.070
452.83	64.134
453.18	63.188
453.53	63.527
453.88	63.206
454.23	64.413
454.58	65.302
454.93	63.080
455.28	62.603
455.63	64.228
455.98	63.079
456.34	63.538
456.69	64.231
457.04	63.957
457.39	63.730
457.74	64.087
458.09	62.390
458.44	64.073
458.79	64.034
459.14	64.130
459.49	64.418
459.84	63.621
460.19	64.867
460.54	64.242
460.89	66.193
461.24	65.342
461.59	64.430
461.94	63.270
462.29	65.380
462.64	66.113
462.99	64.523
463.34	64.882
463.69	65.187
464.04	64.407
464.39	66.465
464.74	64.049
465.09	64.691
465.44	64.686
465.79	63.776
466.14	64.196
466.49	65.325
466.84	65.080
467.19	65.394
467.54	65.964
467.89	66.519
468.24	65.450
468.59	67.048
468.94	65.714
469.29	66.623
469.64	66.029
469.99	68.465
470.34	66.416
470.68	67.636
471.03	68.719
471.38	67.404
471.73	66.597
472.08	67.503
472.43	67.450
472.78	66.484
473.13	67.823
473.48	65.798
473.83	66.874
474.17	67.487
474.52	66.624
474.87	65.273
475.22	66.809
475.57	66.629
475.92	66.813
476.27	68.102
476.61	68.576
476.96	67.038
477.31	67.063
477.66	66.517
478.01	67.546
478.36	66.721
478.70	68.787
479.05	68.626
479.40	67.038
479.75	67.779
480.10	67.435
480.45	67.100
480.79	67.573
481.14	69.211
481.49	66.601
481.84	68.485
482.19	66.745
482.53	68.585
482.88	67.494
483.23	67.418
483.58	67.689
483.92	67.861
484.27	66.682
484.62	66.831
484.97	67.454
485.31	65.571
485.66	63.084
486.01	63.111
486.36	63.345
486.70	64.252
487.05	65.848
487.40	65.822
487.75	65.718
488.09	66.780
488.44	66.265
488.79	67.239
489.13	68.429
489.48	69.175
489.83	67.085
490.17	68.315
490.52	68.684
490.87	67.793
491.22	69.436
491.56	68.548
491.91	66.778
492.26	69.859
492.60	70.010
492.95	70.831
493.30	69.126
493.64	70.481
493.99	69.179
494.34	69.417
494.68	68.667
495.03	69.538
495.37	71.001
495.72	70.772
496.07	70.537
496.41	69.340
496.76	69.599
497.11	68.514
497.45	70.072
497.80	72.402
498.14	69.051
498.49	70.086
498.84	70.509
499.18	70.934
499.53	70.238
499.87	68.531
500.22	69.634
500.56	71.205
500.91	69.127
501.26	69.254
501.60	70.192
501.95	70.063
502.29	70.169
502.64	69.981
502.98	71.238
503.33	69.164
503.67	70.072
504.02	69.844
504.36	69.520
504.71	70.303
505.06	68.948
505.40	69.695
505.75	70.670
506.09	69.336
506.44	72.074
506.78	70.357
507.13	71.096
507.47	70.287
507.82	70.887
508.16	70.312
508.51	69.885
508.85	72.109
509.19	71.155
509.54	70.938
509.88	70.119
510.23	71.329
510.57	71.994
510.92	70.789
511.26	71.686
511.61	72.332
511.95	70.411
512.30	72.062
512.64	72.176
512.98	71.196
513.33	71.013
513.67	72.030
514.02	73.799
514.36	73.714
514.70	73.252
515.05	72.444
515.39	73.908
515.74	74.192
516.08	72.803
516.42	73.439
516.77	72.382
517.11	73.709
517.46	74.566
517.80	71.990
518.14	73.423
518.49	71.815
518.83	73.329
519.17	72.226
519.52	73.357
519.86	73.529
520.20	74.423
520.55	74.296
520.89	73.087
521.23	74.414
521.58	74.763
521.92	75.385
522.26	73.455
522.61	74.675
522.95	74.636
523.29	73.126
523.64	74.587
523.98	75.178
524.32	74.356
524.66	75.352
525.01	74.286
525.35	76.086
525.69	75.152
526.04	73.743
526.38	75.032
526.72	72.400
527.06	73.995
527.41	74.077
527.75	73.727
528.09	72.492
528.43	74.477
528.78	74.257
529.12	73.355
529.46	72.580
529.80	72.578
530.15	74.851
530.49	74.815
530.83	74.419
531.17	74.144
531.51	73.598
531.86	72.944
532.20	74.530
532.54	73.587
532.88	74.949
533.22	73.118
533.57	72.018
533.91	74.413
534.25	74.935
534.59	74.022
534.93	70.736
535.27	70.812
535.62	70.706
535.96	72.603
536.30	71.834
536.64	72.846
536.98	72.474
537.32	74.111
537.66	74.684
538.01	73.706
538.35	73.440
538.69	71.305
539.03	72.386
539.37	70.794
539.71	72.256
540.05	70.876
540.39	73.892
540.73	72.245
541.07	73.066
541.42	70.632
541.76	71.989
542.10	71.301
542.44	72.550
542.78	69.718
543.12	72.871
543.46	72.462
543.80	72.727
544.14	70.027
544.48	70.353
544.82	72.180
545.16	72.609
545.50	71.028
545.84	71.601
546.18	71.348
546.52	72.386
546.86	71.244
547.20	72.747
547.54	69.682
547.88	70.177
548.22	68.442
548.56	68.470
548.90	72.237
549.24	70.592
549.58	71.016
549.92	70.479
550.26	71.355
550.60	72.639
550.94	72.591
551.28	71.329
551.62	71.692
551.96	71.203
552.30	70.468
552.64	70.945
552.98	70.253
553.32	70.043
553.66	71.045
554.00	71.898
554.34	71.418
554.68	70.428
555.02	71.131
555.36	70.007
555.69	69.744
556.03	70.664
556.37	69.822
556.71	71.119
557.05	71.439
557.39	68.476
557.73	70.690
558.07	70.814
558.41	70.214
558.75	70.928
559.08	70.449
559.42	71.746
559.76	71.737
560.10	70.872
560.44	70.812
560.78	69.021
561.12	69.676
561.45	70.555
561.79	70.518
562.13	69.198
562.47	69.640
562.81	69.380
563.15	67.913
563.48	69.095
563.82	69.183
564.16	68.524
564.50	67.500
564.84	66.600
565.17	66.935
565.51	70.833
565.85	70.576
566.19	68.236
566.52	68.231
566.86	68.702
567.20	66.750
567.54	66.545
567.88	66.960
568.21	66.742
568.55	65.598
568.89	66.786
569.23	65.575
569.56	63.923
569.90	63.581
570.24	61.556
570.57	62.364
570.91	62.740
571.25	60.572
571.59	60.012
571.92	59.081
572.26	59.934
572.60	59.845
572.93	59.868
573.27	60.063
573.61	60.591
573.95	59.913
574.28	59.322
574.62	58.174
574.96	58.439
575.29	57.976
575.63	57.580
575.97	57.875
576.30	58.589
576.64	57.987
576.98	58.533
577.31	59.155
577.65	58.670
577.98	57.756
578.32	57.059
578.66	56.695
578.99	57.253
579.33	57.082
579.67	57.608
580.00	57.696
580.34	57.687
580.67	56.726
581.01	57.829
581.35	56.934
581.68	56.308
582.02	56.396
582.35	56.193
582.69	56.700
583.02	56.719
583.36	57.062
583.70	57.944
584.03	59.077
584.37	59.317
584.70	57.775
585.04	56.554
585.37	56.708
585.71	56.381
586.04	56.430
586.38	56.308
586.72	57.389
587.05	57.568
587.39	56.947
587.72	57.928
588.06	56.629
588.39	57.163
588.73	57.357
589.06	58.284
589.40	57.553
589.73	58.050
590.07	58.346
590.40	58.591
590.73	59.596
591.07	59.330
591.40	59.573
591.74	58.778
592.07	60.250
592.41	58.613
592.74	57.348
593.08	55.187
593.41	56.376
593.75	56.493
594.08	55.716
594.41	56.550
594.75	57.366
595.08	56.943
595.42	57.490
595.75	56.741
596.09	57.975
596.42	57.586
596.75	57.416
597.09	57.449
597.42	57.046
597.75	58.635
598.09	56.406
598.42	55.866
598.76	55.985
599.09	55.168
599.42	54.793
599.76	55.719
600.09	55.581
600.42	55.231
600.76	54.569
601.09	55.496
601.42	55.738
601.76	55.339
602.09	55.404
602.42	56.698
602.76	56.452
603.09	56.852
603.42	57.065
603.76	55.363
604.09	55.043
604.42	56.514
604.76	56.342
605.09	57.084
605.42	56.614
605.75	54.641
606.09	54.862
606.42	55.338
606.75	55.758
607.09	54.769
607.42	55.029
607.75	55.107
608.08	55.031
608.42	54.820
608.75	56.434
609.08	56.801
609.41	56.041
609.75	56.250
610.08	56.066
610.41	54.686
610.74	55.729
611.07	56.951
611.41	55.631
611.74	56.503
612.07	55.835
612.40	56.400
612.73	56.667
613.07	55.849
613.40	55.744
613.73	56.463
614.06	54.758
614.39	56.289
614.72	55.126
615.06	55.140
615.39	53.766
615.72	53.767
616.05	54.581
616.38	55.442
616.71	56.820
617.05	56.208
617.38	56.442
617.71	56.352
618.04	56.698
618.37	56.747
618.70	55.776
619.03	58.403
619.36	56.802
619.69	59.212
620.03	57.633
620.36	56.652
620.69	57.031
621.02	56.346
621.35	60.913
621.68	59.184
622.01	60.000
622.34	57.542
622.67	56.703
623.00	56.662
623.33	56.098
623.66	57.292
623.99	55.673
624.32	57.186
624.65	56.241
624.99	56.208
625.32	54.966
625.65	56.638
625.98	57.131
626.31	57.440
626.64	59.099
626.97	57.679
627.30	57.268
627.63	58.579
627.96	58.491
628.29	57.724
628.62	59.980
628.95	58.417
629.28	59.274
629.61	59.123
629.94	59.335
630.26	58.794
630.59	60.146
630.92	59.282
631.25	58.256
631.58	59.912
631.91	59.759
632.24	60.206
632.57	60.114
632.90	57.888
633.23	59.765
633.56	62.469
633.89	61.652
634.22	62.346
634.55	62.262
634.88	60.409
635.20	60.513
635.53	61.467
635.86	60.208
636.19	62.225
636.52	62.755
636.85	57.568
637.18	59.371
637.51	60.252
637.83	59.001
638.16	62.619
638.49	58.583
638.82	60.526
639.15	58.073
639.48	59.560
639.81	59.554
640.13	61.039
640.46	60.204
640.79	60.088
641.12	61.891
641.45	59.159
641.77	59.556
642.10	62.085
642.43	60.932
642.76	60.891
643.09	62.682
643.41	61.327
643.74	59.143
644.07	61.248
644.40	61.318
644.73	62.697
645.05	59.899
645.38	62.787
645.71	61.348
646.04	64.632
646.36	64.362
646.69	60.971
647.02	64.650
647.35	63.246
647.67	61.060
648.00	62.687
648.33	59.727
648.66	60.339
648.98	59.129
649.31	58.182
649.64	56.358
649.96	56.564
650.29	60.818
650.62	58.462
650.94	58.148
651.27	58.845
651.60	59.099
651.92	60.315
652.25	59.680
652.58	58.167
652.90	58.834
653.23	59.664
653.56	57.530
653.88	55.670
654.21	57.968
654.54	56.197
654.86	58.234
655.19	52.778
655.52	52.477
655.84	43.895
656.17	46.760
656.49	63.080
656.82	65.877
657.15	50.831
657.47	38.608
657.80	29.243
658.13	28.707
658.45	45.315
658.78	46.098
659.10	46.577
659.43	46.474
659.75	48.989
660.08	48.897
660.41	51.788
660.73	53.177
661.06	54.593
661.38	56.947
661.71	55.852
662.03	59.871
662.36	57.143
662.68	58.850
663.01	60.699
663.33	58.469
663.66	59.767
663.98	56.279
664.31	60.768
664.63	56.452
664.96	56.522
665.28	56.733
665.61	58.658
665.93	57.391
666.26	55.531
666.58	58.389
666.91	60.000
667.23	60.849
667.56	59.242
667.88	60.671
668.21	58.473
668.53	58.865
668.86	57.547
669.18	57.547
669.50	53.753
669.83	58.837
670.15	57.110
670.48	53.349
670.80	55.760
671.13	55.034
671.45	54.110
671.77	55.150
672.10	52.871
672.42	51.311
672.75	55.773
673.07	54.919
673.39	54.128
673.72	50.099
674.04	51.458
674.37	55.508
674.69	58.244
675.01	54.000
675.34	53.829
675.66	59.491
675.98	54.324
676.31	55.734
676.63	56.057
676.95	52.727
677.28	58.588
677.60	55.181
677.92	55.275
678.25	55.142
678.57	52.381
678.89	51.891
679.22	53.244
679.54	48.193
679.86	50.298
680.18	52.621
680.51	52.462
680.83	48.310
681.15	51.000
681.48	54.303
681.80	51.446
682.12	51.210
682.44	50.000
682.77	51.876
683.09	52.403
683.41	52.045
683.73	52.765
684.06	51.549
684.38	48.602
684.70	52.723
685.02	49.378
685.34	49.407
685.67	49.343
685.99	48.644
686.31	48.319
686.63	48.609
686.96	47.148
687.28	48.889
687.60	48.479
687.92	50.909
688.24	49.395
688.56	50.873
688.89	50.446
689.21	52.667
689.53	48.956
689.85	50.233
690.17	48.438
690.49	47.991
690.82	49.757
691.14	49.524
691.46	48.598
691.78	49.099
692.10	46.667
692.42	48.485
692.74	48.077
693.06	49.324
693.39	48.643
693.71	47.059
694.03	49.654
694.35	49.299
694.67	46.970
694.99	48.042
695.31	49.086
695.63	47.750
695.95	47.727
696.27	50.000
696.59	51.111
696.91	47.339
697.23	47.301
697.56	51.485
697.88	47.097
698.20	46.241
698.52	48.706
698.84	46.411
699.16	45.000
699.48	47.118
699.80	47.395
700.12	45.283
700.44	51.821
700.76	45.349
701.08	43.636
701.40	48.795
701.72	50.309
702.04	51.485
702.36	50.502
702.68	48.348
703.00	50.303
703.32	46.921
703.64	44.915
703.96	49.275
704.28	43.558
704.60	48.571
704.91	47.634
705.23	47.841
705.55	50.530
705.87	51.264
706.19	53.333
706.51	45.361
706.83	50.482
707.15	41.433
707.47	48.459
707.79	43.490
708.11	43.250
708.43	43.000
708.74	42.119
709.06	50.423
709.38	45.260
709.70	45.562
710.02	48.089
710.34	47.059
710.66	41.667
710.98	44.702
711.29	48.197
711.61	45.085
711.93	49.186
712.25	44.674
712.57	50.916
712.89	47.388
713.20	47.751
713.52	45.993
713.84	45.734
714.16	46.048
714.48	45.484
714.80	47.756
715.11	41.641
715.43	42.633
715.75	42.667
716.07	40.864
716.39	45.302
716.70	41.328
717.02	46.565
717.34	45.344
717.66	50.442
717.97	46.087
718.29	48.954
718.61	46.063
718.93	43.023
719.24	43.346
719.56	43.373
719.88	44.674
720.20	40.530
720.51	40.230
720.83	42.471
721.15	42.437
721.46	45.968
721.78	45.850
722.10	39.777
722.42	41.079
722.73	40.000
723.05	44.490
723.37	44.492
723.68	54.505
724.00	41.453
724.32	44.889
724.63	42.727
724.95	46.725
725.27	46.083
725.58	42.797
725.90	43.651
726.22	40.154
726.53	45.085
726.85	42.697
727.16	43.019
727.48	35.628
727.80	47.368
728.11	44.492
728.43	42.745
728.74	38.710
729.06	45.200
729.38	48.496
729.69	37.450
730.01	40.385
730.32	41.418
730.64	39.929
730.96	39.245
731.27	39.667
731.59	42.034
731.90	38.217
732.22	42.902
732.53	42.857
732.85	43.972
733.16	43.098
733.48	32.374
733.80	35.145
734.11	38.644
734.43	39.863
734.74	40.303
735.06	37.785
735.37	40.483
735.69	44.444
736.00	38.328
736.32	39.597
736.63	39.789
736.95	36.860
737.26	37.722
737.58	35.235
737.89	40.659
738.21	38.722
738.52	41.152
738.83	44.978
739.15	35.808
739.46	42.913
739.78	36.630
740.09	38.235
740.41	41.667
740.72	39.370
741.04	36.032
741.35	40.000
741.66	41.232
741.98	43.367
742.29	42.574
742.61	43.455
742.92	35.071
743.23	38.426
743.55	46.154
743.86	38.278
744.18	37.799
744.49	40.957
744.80	43.478
745.12	47.594
745.43	36.585
745.74	41.146
746.06	43.415
746.37	42.932
746.68	39.810
747.00	38.830
747.31	45.274
747.62	38.835
747.94	39.713
748.25	39.109
748.56	47.541
748.88	35.602
749.19	45.213
749.50	40.394
749.82	34.906
750.13	35.321
750.44	42.105
750.75	42.537
751.07	37.591
751.38	41.762
751.69	34.902
752.01	42.636
752.32	35.060
752.63	39.921
752.94	34.914
753.26	46.025
753.57	36.199
753.88	42.478
754.19	31.667
754.51	39.256
754.82	38.462
755.13	43.750
755.44	41.129
755.75	37.500
756.07	38.521
756.38	35.849
756.69	38.314
757.00	40.333
757.31	31.373
757.63	33.841
757.94	29.444
758.25	33.425
758.56	33.245
758.87	31.728
759.18	29.907
759.50	34.545
759.81	38.796
760.12	38.387
760.43	34.848
760.74	35.802
761.05	32.923
761.36	32.955
761.67	38.788
761.99	34.014
762.30	32.727
762.61	34.783
762.92	36.652
763.23	41.892
763.54	36.449
763.85	37.288
764.16	34.855
764.47	33.065
764.78	32.234
765.10	42.088
765.41	30.915
765.72	34.603
766.03	30.827
766.34	35.036
766.65	35.060
766.96	36.869
767.27	38.830
767.58	33.333
767.89	36.879
768.20	38.636
768.51	36.264
768.82	28.571
769.13	31.336
769.44	27.897
769.75	31.050
770.06	31.897
770.37	36.538
770.68	38.579
770.99	28.054
771.30	37.255
771.61	33.484
771.92	34.483
772.23	39.409
772.54	35.484
772.85	35.802
773.16	34.270
773.47	49.020
773.78	35.948
774.09	34.731
774.39	35.333
774.70	42.038
775.01	37.931
775.32	32.857
775.63	23.140
775.94	30.534
776.25	40.157
776.56	30.833
776.87	27.885
777.18	31.624
777.48	30.172
777.79	34.783
778.10	29.524
778.41	35.135
778.72	42.063
779.03	36.842
779.34	38.298
779.65	32.877
779.95	27.397
780.26	32.414
780.57	28.455
780.88	42.520
781.19	35.345
781.50	38.760
781.80	34.320
782.11	27.673
782.42	35.385
782.73	33.094
783.04	34.074
783.34	34.722
783.65	23.077
783.96	31.148
784.27	41.379
784.57	37.398
784.88	31.250
785.19	35.000
785.50	50.000
785.81	31.034
786.11	34.483
786.42	23.301
786.73	42.727
787.04	44.898
787.34	34.821
787.65	34.286
787.96	30.973
788.26	29.091
788.57	32.479
788.88	34.375
789.19	34.921
789.49	26.087
789.80	33.673
790.11	26.263
790.41	22.727
790.72	32.609
791.03	31.818
791.33	43.750
791.64	30.000
791.95	25.581
792.25	23.404
792.56	47.191
792.87	21.918
793.17	30.435
793.48	33.333
793.79	27.500
794.09	37.500
794.40	29.245
794.70	33.981
795.01	26.829
795.32	27.350
795.62	29.524
795.93	28.431
796.23	36.792
796.54	33.333
796.85	41.176
797.15	29.577
797.46	36.111
797.76	39.394
798.07	30.233
798.37	23.684
798.68	24.242
798.99	37.037
799.29	34.286
799.60	18.841
799.90	32.000
800.21	26.230
800.51	35.385
800.82	40.678
801.12	46.377
801.43	31.148
801.73	28.571
802.04	2.000
802.34	14.925
802.65	36.538
802.95	21.429
803.26	7.692
803.56	27.451
803.87	15.217
804.17	2.667
804.48	36.508
804.78	14.815
805.09	17.391
805.39	8.889
805.70	31.481
806.00	3.509
806.30	32.394
806.61	34.286
806.91	12.500
807.22	39.474
807.52	33.333
807.83	21.818
808.13	16.667
808.43	33.824
808.74	29.851
809.04	23.729
809.35	5.769
809.65	12.500
809.95	-24.324
810.26	13.636
810.56	24.658
810.86	30.952
811.17	10.000
811.47	30.612
811.77	10.526
812.08	18.182
812.38	33.962
812.69	22.500
812.99	33.333
813.29	36.842
813.59	-11.429
813.90	9.091
814.20	38.462
814.50	32.692
814.81	33.962
815.11	12.766
815.41	33.898
815.72	38.095
816.02	39.216
816.32	45.833
816.62	4.878
816.93	24.324
817.23	20.000
817.53	37.500
817.84	30.435
818.14	40.385
818.44	7.895
818.74	30.435
819.04	-20.000
819.35	29.730
819.65	20.588
819.95	22.222
820.25	21.429
820.56	25.000
820.86	3.448
821.16	42.500
821.46	27.660
821.76	35.000
822.07	27.907
822.37	-13.514
822.67	-6.250
822.97	11.905
823.27	7.143
823.57	0.000
823.88	-11.111
824.18	14.286
824.48	32.353
824.78	45.161
825.08	-13.043
825.38	21.212
825.69	-25.000
825.99	44.737
826.29	11.111
826.59	-13.333
826.89	-38.095
827.19	26.087
827.49	25.000
827.79	14.286
828.09	46.429
828.39	21.212
828.70	43.243
829.00	7.143
829.30	9.524
829.60	40.000
829.90	34.375
830.20	7.895
830.50	40.741
830.80	26.087
831.10	50.000
831.40	72.727
831.70	22.581
832.00	38.095
832.30	-42.857
832.60	-66.667
832.90	37.931
833.20	0.000
833.50	15.152
833.80	14.815
834.10	-3.846
834.40	28.125
834.70	-66.667
835.00	42.105
835.30	46.154
835.60	73.333
835.90	38.710
836.20	-4.545
836.50	3.571
836.80	-46.154
837.10	7.143
837.40	-300.000
837.70	27.273
838.00	-54.545
838.30	26.087
838.60	-7.692
838.90	27.273
839.19	42.857
839.49	50.000
839.79	-84.615
840.09	-116.667
840.39	64.286
840.69	57.143
840.99	3.846
841.29	10.526
841.59	-70.000
841.88	-36.364
842.18	60.000
842.48	6.250
842.78	-60.000
843.08	25.926
843.38	-150.000
843.68	26.087
843.97	-40.000
844.27	-40.000
844.57	5.000
844.87	22.222
845.17	-23.810
845.47	26.667
845.76	-4.762
846.06	47.059
846.36	100.000
846.66	28.571
846.96	6.667
847.25	-87.500
847.55	42.857
847.85	75.000
848.15	-27.273
848.44	-433.333
848.74	15.000
849.04	14.815
849.34	90.909
849.63	-216.667
849.93	-460.000
850.23	16.667
850.53	-20.000
850.82	23.077
851.12	22.222
851.42	80.000
851.71	0.000
852.01	64.286
852.31	0.000
852.61	36.364
852.90	35.000
853.20	21.053
853.50	-91.667
853.79	13.043
854.09	25.000
854.39	-42.105
854.68	25.000
854.98	3.226
855.28	30.769
855.57	0.000
855.87	66.667
856.17	33.333
856.46	-28.571
856.76	-6.667
857.05	66.667
857.35	48.000
857.65	0.000
857.94	0.000
858.24	-6.897
858.53	38.889
858.83	40.741
859.13	13.636
859.42	-4.348
859.72	-50.000
860.01	-466.667
860.31	12.000
860.60	42.857
860.90	66.667
861.20	-73.333
861.49	-500.000
861.79	-66.667
862.08	30.000
862.38	140.000
862.67	-20.000
862.97	116.667
863.26	8.333
863.56	5.556
863.85	-200.000
864.15	-44.444
864.44	-60.000
864.74	128.571
865.03	200.000
865.33	-140.000
865.62	-133.333
865.92	0.000
866.21	-16.667
866.51	43.750
866.80	-72.727
867.10	-350.000
867.39	41.667
867.69	0.000
867.98	-7.692
868.27	-466.667
868.57	46.667
868.86	16.667
869.16	-61.538
869.45	46.667
869.75	-1600.000
870.04	0.000
870.33	-128.571
870.63	42.857
870.92	233.333
871.22	-240.000
871.51	-600.000
871.80	155.556
872.10	266.667
>>>>>End Processed Spectral Data<<<<<
