SpectraSuite Data File
++++++++++++++++++++++++++++++++++++
Date: Fri May 15 20:40:56 PDT 2015
User: schluterlab
Dark Spectrum Present: Yes
Reference Spectrum Present: Yes
Number of Sampled Component Spectra: 1
Spectrometers: USB2E3373
Integration Time (usec): 3000 (USB2E3373)
Spectra Averaged: 3 (USB2E3373)
Boxcar Smoothing: 0 (USB2E3373)
Correct for Electrical Dark: No (USB2E3373)
Strobe/Lamp Enabled: No (USB2E3373)
Correct for Detector Non-linearity: No (USB2E3373)
Correct for Stray Light: No (USB2E3373)
Number of Pixels in Processed Spectrum: 2048
>>>>>Begin Processed Spectral Data<<<<<
178.53	0.000
178.91	0.000
179.29	-50.000
179.67	-400.000
180.04	28.571
180.42	225.000
180.80	500.000
181.18	500.000
181.56	400.000
181.94	-250.000
182.31	1500.000
182.69	100.000
183.07	66.667
183.45	-300.000
183.83	250.000
184.20	-90.909
184.58	111.111
184.96	-200.000
185.34	-166.667
185.72	0.000
186.09	23.077
186.47	-200.000
186.85	116.667
187.23	155.556
187.61	500.000
187.98	-433.333
188.36	-122.222
188.74	100.000
189.12	41.176
189.49	-16.667
189.87	0.000
190.25	64.286
190.63	0.000
191.00	-66.667
191.38	21.053
191.76	150.000
192.14	50.000
192.51	400.000
192.89	0.000
193.27	-85.714
193.65	116.667
194.02	36.364
194.40	40.000
194.78	-87.500
195.15	-75.000
195.53	-37.500
195.91	200.000
196.29	75.000
196.66	53.846
197.04	100.000
197.42	11.111
197.79	-466.667
198.17	-130.769
198.55	1400.000
198.92	-533.333
199.30	-200.000
199.68	-200.000
200.05	-300.000
200.43	0.000
200.81	33.333
201.18	-200.000
201.56	1000.000
201.94	-450.000
202.31	-133.333
202.69	-40.000
203.07	275.000
203.44	-300.000
203.82	0.000
204.19	35.714
204.57	-533.333
204.95	87.500
205.32	0.000
205.70	71.429
206.08	-75.000
206.45	177.778
206.83	107.143
207.20	-185.714
207.58	500.000
207.96	-200.000
208.33	-110.000
208.71	-25.000
209.08	-200.000
209.46	500.000
209.84	-200.000
210.21	-1600.000
210.59	71.429
210.96	33.333
211.34	-75.000
211.71	20.000
212.09	-14.286
212.46	-1400.000
212.84	0.000
213.22	60.000
213.59	300.000
213.97	15.385
214.34	36.364
214.72	-133.333
215.09	525.000
215.47	30.769
215.84	-90.909
216.22	-233.333
216.59	-12.500
216.97	-200.000
217.34	50.000
217.72	-60.000
218.09	25.000
218.47	112.500
218.84	-500.000
219.22	-44.444
219.59	-80.000
219.97	433.333
220.34	350.000
220.72	-85.714
221.09	-125.000
221.47	100.000
221.84	-450.000
222.22	-250.000
222.59	0.000
222.97	0.000
223.34	-100.000
223.72	-100.000
224.09	9.524
224.46	-10.714
224.84	300.000
225.21	110.000
225.59	20.000
225.96	-50.000
226.34	-75.000
226.71	14.286
227.08	-33.333
227.46	37.500
227.83	-600.000
228.21	11.111
228.58	45.455
228.95	-62.500
229.33	10.000
229.70	-18.750
230.08	-37.500
230.45	-85.714
230.82	-57.143
231.20	-66.667
231.57	100.000
231.95	-128.571
232.32	-10.000
232.69	0.000
233.07	-133.333
233.44	100.000
233.81	-80.000
234.19	122.222
234.56	5.882
234.93	200.000
235.31	175.000
235.68	-280.000
236.05	-38.462
236.43	-25.000
236.80	23.529
237.17	31.250
237.55	45.000
237.92	-22.222
238.29	44.444
238.67	36.667
239.04	26.471
239.41	2.439
239.79	43.333
240.16	46.341
240.53	28.947
240.91	21.739
241.28	23.810
241.65	55.357
242.02	49.315
242.40	35.000
242.77	38.983
243.14	28.788
243.51	35.000
243.89	36.782
244.26	24.138
244.63	41.667
245.00	30.928
245.38	35.052
245.75	25.843
246.12	28.448
246.49	42.149
246.87	43.269
247.24	32.773
247.61	36.842
247.98	35.772
248.36	31.250
248.73	48.026
249.10	37.662
249.47	44.304
249.84	33.987
250.22	40.588
250.59	39.869
250.96	40.845
251.33	36.047
251.70	41.765
252.08	45.685
252.45	43.564
252.82	42.714
253.19	43.779
253.56	44.393
253.94	38.739
254.31	40.435
254.68	42.982
255.05	37.402
255.42	38.865
255.79	38.610
256.16	39.300
256.54	40.672
256.91	35.741
257.28	37.546
257.65	37.828
258.02	39.716
258.39	43.098
258.76	43.590
259.14	37.209
259.51	40.777
259.88	36.426
260.25	37.255
260.62	40.625
260.99	35.254
261.36	36.986
261.73	42.089
262.10	39.818
262.47	39.571
262.85	42.947
263.22	37.846
263.59	43.925
263.96	41.925
264.33	46.061
264.70	40.774
265.07	40.476
265.44	44.759
265.81	37.853
266.18	41.257
266.55	38.303
266.92	40.674
267.29	42.298
267.66	40.665
268.03	43.717
268.40	40.209
268.77	44.118
269.14	36.691
269.51	42.159
269.88	39.900
270.25	37.500
270.62	38.780
270.99	38.619
271.36	39.364
271.73	38.028
272.10	41.606
272.47	35.461
272.84	41.089
273.21	40.139
273.58	42.651
273.95	39.588
274.32	40.416
274.69	34.163
275.06	40.179
275.43	37.188
275.80	40.397
276.17	40.230
276.54	37.687
276.91	39.254
277.28	37.118
277.65	39.463
278.02	39.149
278.39	39.825
278.76	40.671
279.13	32.988
279.50	41.387
279.87	37.365
280.23	34.409
280.60	39.376
280.97	36.768
281.34	37.885
281.71	43.121
282.08	37.219
282.45	36.595
282.82	36.873
283.19	36.750
283.56	38.150
283.92	37.192
284.29	36.923
284.66	36.434
285.03	35.756
285.40	35.539
285.77	35.852
286.14	35.921
286.51	37.823
286.87	37.112
287.24	35.359
287.61	33.333
287.98	37.193
288.35	35.875
288.72	38.879
289.08	36.458
289.45	35.149
289.82	34.790
290.19	36.519
290.56	31.732
290.93	33.502
291.29	32.203
291.66	33.071
292.03	34.131
292.40	32.258
292.77	32.536
293.13	28.084
293.50	28.528
293.87	31.450
294.24	31.066
294.60	32.936
294.97	30.952
295.34	30.521
295.71	29.061
296.08	29.895
296.44	29.303
296.81	30.139
297.18	28.551
297.55	29.133
297.91	29.178
298.28	28.496
298.65	28.494
299.02	27.628
299.38	27.223
299.75	28.000
300.12	25.262
300.48	27.404
300.85	27.123
301.22	26.883
301.59	27.105
301.95	27.975
302.32	28.145
302.69	28.731
303.05	25.743
303.42	27.397
303.79	27.453
304.15	27.599
304.52	25.089
304.89	26.082
305.25	26.513
305.62	25.438
305.99	25.848
306.35	24.393
306.72	24.409
307.09	26.112
307.45	26.636
307.82	23.958
308.19	26.597
308.55	25.954
308.92	27.233
309.29	26.480
309.65	25.081
310.02	26.403
310.38	25.686
310.75	26.120
311.12	25.619
311.48	25.875
311.85	25.026
312.22	23.945
312.58	25.796
312.95	24.013
313.31	25.052
313.68	25.026
314.05	23.265
314.41	25.464
314.78	25.979
315.14	25.385
315.51	24.120
315.87	24.078
316.24	25.480
316.61	24.606
316.97	24.504
317.34	24.609
317.70	25.813
318.07	25.192
318.43	25.588
318.80	24.242
319.16	25.684
319.53	25.451
319.89	24.902
320.26	23.988
320.62	25.677
320.99	25.157
321.35	24.872
321.72	22.741
322.08	23.565
322.45	24.365
322.81	24.754
323.18	24.338
323.54	24.324
323.91	24.051
324.27	24.609
324.64	24.157
325.00	26.095
325.37	24.977
325.73	23.391
326.10	25.522
326.46	25.291
326.83	25.634
327.19	24.586
327.56	26.064
327.92	25.968
328.29	22.946
328.65	24.811
329.01	24.449
329.38	24.885
329.74	24.363
330.11	24.004
330.47	24.304
330.84	24.808
331.20	25.665
331.56	24.074
331.93	24.566
332.29	24.748
332.66	24.163
333.02	24.257
333.38	23.465
333.75	24.542
334.11	23.903
334.48	24.116
334.84	24.451
335.20	23.422
335.57	23.028
335.93	24.571
336.29	24.125
336.66	22.525
337.02	23.606
337.38	24.259
337.75	24.273
338.11	25.518
338.47	25.182
338.84	24.399
339.20	23.857
339.56	23.578
339.93	23.814
340.29	22.936
340.65	23.566
341.02	23.316
341.38	22.655
341.74	22.085
342.11	22.704
342.47	22.687
342.83	24.048
343.20	23.084
343.56	24.087
343.92	23.295
344.28	23.228
344.65	22.539
345.01	21.435
345.37	23.633
345.73	23.682
346.10	23.296
346.46	23.381
346.82	22.504
347.19	22.527
347.55	23.058
347.91	23.867
348.27	22.716
348.63	22.743
349.00	22.806
349.36	22.111
349.72	23.632
350.08	22.459
350.45	23.065
350.81	23.090
351.17	22.313
351.53	24.408
351.89	22.543
352.26	22.240
352.62	22.339
352.98	21.928
353.34	22.705
353.70	23.058
354.07	22.339
354.43	22.578
354.79	22.626
355.15	23.889
355.51	22.231
355.87	22.896
356.24	21.860
356.60	22.231
356.96	22.381
357.32	22.045
357.68	22.048
358.04	21.486
358.40	22.267
358.77	22.249
359.13	21.617
359.49	21.341
359.85	22.465
360.21	22.169
360.57	21.270
360.93	21.256
361.29	21.148
361.66	22.492
362.02	22.348
362.38	22.163
362.74	22.029
363.10	21.971
363.46	20.904
363.82	22.915
364.18	21.107
364.54	20.956
364.90	22.151
365.26	21.470
365.62	22.920
365.98	21.774
366.35	22.287
366.71	21.508
367.07	22.279
367.43	21.136
367.79	21.837
368.15	21.321
368.51	21.413
368.87	20.962
369.23	20.505
369.59	21.501
369.95	22.214
370.31	21.387
370.67	20.373
371.03	20.836
371.39	21.007
371.75	21.465
372.11	20.827
372.47	21.006
372.83	22.072
373.19	21.755
373.55	21.300
373.91	21.022
374.27	21.758
374.63	21.823
374.99	20.355
375.35	20.752
375.71	21.608
376.07	20.435
376.42	21.293
376.78	21.141
377.14	20.853
377.50	20.518
377.86	22.155
378.22	21.251
378.58	21.154
378.94	20.605
379.30	20.524
379.66	21.066
380.02	21.030
380.38	20.694
380.74	21.185
381.09	21.534
381.45	21.040
381.81	20.666
382.17	20.241
382.53	20.675
382.89	20.967
383.25	20.846
383.61	21.220
383.97	20.190
384.32	20.200
384.68	20.805
385.04	20.466
385.40	20.597
385.76	21.698
386.12	21.022
386.48	20.307
386.83	20.419
387.19	21.123
387.55	21.016
387.91	21.577
388.27	20.330
388.62	21.082
388.98	21.363
389.34	20.300
389.70	20.510
390.06	20.201
390.42	20.142
390.77	20.994
391.13	19.609
391.49	20.440
391.85	20.338
392.20	20.088
392.56	21.170
392.92	21.080
393.28	20.932
393.64	20.841
393.99	20.940
394.35	20.304
394.71	20.945
395.07	19.987
395.42	19.976
395.78	20.456
396.14	20.492
396.50	20.799
396.85	20.670
397.21	20.363
397.57	20.313
397.92	19.952
398.28	20.000
398.64	20.120
399.00	20.429
399.35	19.695
399.71	20.333
400.07	21.765
400.42	20.318
400.78	20.637
401.14	19.903
401.49	19.476
401.85	19.927
402.21	20.663
402.57	20.063
402.92	18.821
403.28	20.865
403.63	20.870
403.99	20.217
404.35	20.237
404.70	20.119
405.06	20.094
405.42	20.137
405.77	19.930
406.13	20.081
406.49	19.361
406.84	19.866
407.20	20.229
407.55	19.382
407.91	20.455
408.27	19.567
408.62	19.815
408.98	19.717
409.34	20.694
409.69	20.801
410.05	19.643
410.40	20.802
410.76	20.567
411.11	20.687
411.47	19.855
411.83	18.707
412.18	19.949
412.54	20.037
412.89	19.458
413.25	19.434
413.60	20.124
413.96	19.755
414.31	20.305
414.67	19.564
415.03	20.639
415.38	19.843
415.74	21.107
416.09	20.509
416.45	20.122
416.80	19.233
417.16	20.511
417.51	20.453
417.87	19.817
418.22	20.078
418.58	19.732
418.93	20.188
419.29	19.526
419.64	19.572
420.00	20.466
420.35	19.343
420.71	20.778
421.06	19.214
421.42	20.673
421.77	20.636
422.12	20.034
422.48	19.491
422.83	20.360
423.19	20.316
423.54	19.224
423.90	20.259
424.25	20.436
424.61	19.706
424.96	19.861
425.31	20.566
425.67	20.070
426.02	21.025
426.38	19.912
426.73	20.460
427.09	21.203
427.44	20.235
427.79	20.507
428.15	20.874
428.50	20.109
428.85	19.963
429.21	20.939
429.56	20.377
429.92	20.288
430.27	19.198
430.62	19.498
430.98	19.480
431.33	20.978
431.68	19.937
432.04	20.067
432.39	19.852
432.74	19.363
433.10	21.149
433.45	20.251
433.80	20.313
434.16	19.889
434.51	20.376
434.86	20.674
435.22	20.022
435.57	20.274
435.92	20.120
436.28	19.738
436.63	19.795
436.98	20.046
437.34	20.448
437.69	19.738
438.04	20.057
438.39	19.670
438.75	20.158
439.10	20.543
439.45	20.633
439.81	20.245
440.16	19.952
440.51	20.119
440.86	21.208
441.22	20.814
441.57	19.978
441.92	20.619
442.27	21.175
442.63	21.574
442.98	20.735
443.33	20.757
443.68	19.841
444.03	21.908
444.39	21.545
444.74	21.293
445.09	20.768
445.44	21.140
445.79	21.145
446.15	21.145
446.50	20.133
446.85	21.360
447.20	20.490
447.55	20.815
447.91	21.433
448.26	21.685
448.61	21.704
448.96	21.572
449.31	21.387
449.66	21.080
450.02	21.677
450.37	21.043
450.72	20.790
451.07	21.582
451.42	21.536
451.77	22.242
452.12	20.813
452.47	20.863
452.83	21.201
453.18	21.948
453.53	22.124
453.88	21.494
454.23	21.942
454.58	21.977
454.93	22.101
455.28	20.254
455.63	21.637
455.98	22.069
456.34	20.881
456.69	22.935
457.04	22.747
457.39	21.446
457.74	21.886
458.09	21.071
458.44	22.352
458.79	22.633
459.14	22.254
459.49	22.985
459.84	22.448
460.19	21.966
460.54	22.677
460.89	21.023
461.24	21.615
461.59	22.268
461.94	21.887
462.29	22.075
462.64	22.857
462.99	22.343
463.34	21.419
463.69	22.008
464.04	22.518
464.39	22.680
464.74	22.515
465.09	23.206
465.44	22.677
465.79	21.145
466.14	23.432
466.49	21.737
466.84	22.665
467.19	22.340
467.54	22.478
467.89	22.489
468.24	22.749
468.59	22.984
468.94	22.476
469.29	22.820
469.64	22.146
469.99	22.775
470.34	22.048
470.68	22.446
471.03	23.425
471.38	22.967
471.73	23.179
472.08	22.795
472.43	22.416
472.78	22.344
473.13	22.721
473.48	22.541
473.83	22.914
474.17	23.705
474.52	23.165
474.87	23.333
475.22	22.697
475.57	21.852
475.92	22.710
476.27	22.992
476.61	23.785
476.96	22.755
477.31	22.499
477.66	23.034
478.01	22.403
478.36	22.876
478.70	23.545
479.05	22.857
479.40	23.370
479.75	22.054
480.10	22.529
480.45	22.850
480.79	23.112
481.14	23.566
481.49	22.069
481.84	22.828
482.19	22.357
482.53	22.878
482.88	23.246
483.23	22.601
483.58	23.349
483.92	22.023
484.27	22.151
484.62	22.456
484.97	22.678
485.31	22.074
485.66	22.972
486.01	22.805
486.36	22.367
486.70	22.414
487.05	22.515
487.40	22.544
487.75	22.338
488.09	21.879
488.44	22.318
488.79	22.936
489.13	22.596
489.48	22.189
489.83	22.063
490.17	22.157
490.52	22.725
490.87	22.304
491.22	23.352
491.56	23.197
491.91	22.945
492.26	23.189
492.60	22.889
492.95	23.020
493.30	22.765
493.64	22.495
493.99	23.768
494.34	23.398
494.68	23.286
495.03	23.552
495.37	22.915
495.72	23.322
496.07	23.756
496.41	22.170
496.76	23.215
497.11	22.077
497.45	22.912
497.80	22.957
498.14	23.150
498.49	23.261
498.84	23.154
499.18	23.845
499.53	23.512
499.87	22.665
500.22	23.244
500.56	23.752
500.91	23.193
501.26	22.887
501.60	23.217
501.95	23.823
502.29	23.487
502.64	24.035
502.98	23.483
503.33	23.247
503.67	23.855
504.02	23.509
504.36	23.949
504.71	23.838
505.06	22.999
505.40	23.858
505.75	24.021
506.09	23.112
506.44	23.614
506.78	23.776
507.13	23.940
507.47	22.611
507.82	22.810
508.16	23.719
508.51	23.033
508.85	23.862
509.19	23.204
509.54	23.217
509.88	23.517
510.23	23.615
510.57	24.265
510.92	22.761
511.26	23.895
511.61	23.707
511.95	24.438
512.30	24.390
512.64	24.318
512.98	24.088
513.33	23.671
513.67	23.252
514.02	24.371
514.36	24.514
514.70	23.951
515.05	24.383
515.39	24.498
515.74	24.910
516.08	23.610
516.42	24.794
516.77	23.991
517.11	24.095
517.46	24.177
517.80	23.838
518.14	25.046
518.49	24.279
518.83	23.390
519.17	23.772
519.52	24.393
519.86	24.430
520.20	24.423
520.55	24.078
520.89	24.906
521.23	25.269
521.58	25.237
521.92	24.167
522.26	24.203
522.61	23.896
522.95	25.298
523.29	24.460
523.64	24.714
523.98	25.859
524.32	25.000
524.66	25.096
525.01	25.714
525.35	24.563
525.69	23.636
526.04	23.611
526.38	24.643
526.72	24.199
527.06	23.995
527.41	24.472
527.75	23.995
528.09	24.452
528.43	25.456
528.78	25.017
529.12	25.806
529.46	24.886
529.80	24.889
530.15	25.281
530.49	25.051
530.83	25.581
531.17	25.319
531.51	24.761
531.86	24.881
532.20	24.843
532.54	24.575
532.88	25.462
533.22	24.530
533.57	25.098
533.91	24.478
534.25	24.805
534.59	24.310
534.93	24.418
535.27	23.921
535.62	24.563
535.96	24.853
536.30	24.604
536.64	24.397
536.98	24.530
537.32	24.467
537.66	25.105
538.01	25.315
538.35	24.827
538.69	23.835
539.03	24.129
539.37	24.226
539.71	23.586
540.05	24.100
540.39	25.346
540.73	24.338
541.07	24.862
541.42	26.008
541.76	25.189
542.10	25.052
542.44	24.809
542.78	23.882
543.12	24.176
543.46	25.661
543.80	24.913
544.14	24.032
544.48	24.783
544.82	24.607
545.16	25.751
545.50	25.367
545.84	24.363
546.18	25.106
546.52	24.730
546.86	24.515
547.20	26.037
547.54	24.240
547.88	25.272
548.22	24.063
548.56	23.945
548.90	24.326
549.24	25.275
549.58	25.247
549.92	23.445
550.26	25.934
550.60	24.387
550.94	23.525
551.28	25.811
551.62	26.385
551.96	25.789
552.30	24.781
552.64	24.542
552.98	25.035
553.32	24.964
553.66	25.617
554.00	25.766
554.34	26.071
554.68	23.968
555.02	25.298
555.36	24.009
555.69	23.297
556.03	25.625
556.37	24.555
556.71	24.621
557.05	24.758
557.39	24.907
557.73	25.862
558.07	25.792
558.41	24.732
558.75	25.409
559.08	26.399
559.42	26.111
559.76	26.421
560.10	24.924
560.44	25.168
560.78	25.804
561.12	26.023
561.45	24.947
561.79	25.910
562.13	25.337
562.47	24.820
562.81	24.856
563.15	25.388
563.48	24.823
563.82	25.463
564.16	24.861
564.50	24.527
564.84	24.431
565.17	24.816
565.51	25.342
565.85	24.691
566.19	25.066
566.52	25.201
566.86	25.064
567.20	24.222
567.54	24.696
567.88	24.722
568.21	25.905
568.55	23.859
568.89	25.154
569.23	24.747
569.56	24.518
569.90	24.767
570.24	23.930
570.57	24.800
570.91	24.573
571.25	24.268
571.59	23.637
571.92	23.467
572.26	23.792
572.60	23.008
572.93	23.313
573.27	23.448
573.61	23.449
573.95	23.621
574.28	23.067
574.62	22.731
574.96	23.111
575.29	22.817
575.63	22.519
575.97	22.662
576.30	23.278
576.64	23.020
576.98	23.269
577.31	23.224
577.65	23.394
577.98	23.352
578.32	23.233
578.66	22.695
578.99	22.812
579.33	22.833
579.67	22.559
580.00	23.063
580.34	23.109
580.67	22.774
581.01	23.175
581.35	22.976
581.68	23.480
582.02	23.160
582.35	22.804
582.69	22.789
583.02	23.115
583.36	22.853
583.70	23.494
584.03	23.436
584.37	24.111
584.70	23.599
585.04	22.824
585.37	23.808
585.71	23.352
586.04	23.399
586.38	22.779
586.72	23.529
587.05	23.917
587.39	23.791
587.72	23.866
588.06	23.249
588.39	23.925
588.73	24.206
589.06	24.690
589.40	24.058
589.73	24.461
590.07	24.585
590.40	25.116
590.73	24.341
591.07	24.555
591.40	25.067
591.74	25.023
592.07	25.093
592.41	25.044
592.74	24.612
593.08	23.996
593.41	24.613
593.75	24.174
594.08	24.854
594.41	24.127
594.75	24.084
595.08	24.745
595.42	24.144
595.75	24.972
596.09	24.394
596.42	24.928
596.75	24.734
597.09	24.556
597.42	24.345
597.75	25.744
598.09	24.808
598.42	24.233
598.76	24.882
599.09	24.639
599.42	24.668
599.76	24.417
600.09	25.075
600.42	24.602
600.76	24.926
601.09	24.046
601.42	24.207
601.76	23.978
602.09	24.381
602.42	25.232
602.76	25.000
603.09	25.374
603.42	25.753
603.76	24.637
604.09	25.071
604.42	25.254
604.76	25.990
605.09	25.594
605.42	24.831
605.75	25.350
606.09	24.926
606.42	25.271
606.75	25.065
607.09	25.363
607.42	24.723
607.75	25.089
608.08	24.349
608.42	24.852
608.75	25.735
609.08	25.361
609.41	25.888
609.75	25.806
610.08	26.111
610.41	24.879
610.74	24.525
611.07	25.168
611.41	25.376
611.74	25.533
612.07	25.161
612.40	25.930
612.73	25.706
613.07	24.466
613.40	26.696
613.73	25.462
614.06	26.377
614.39	26.509
614.72	25.378
615.06	25.419
615.39	24.782
615.72	25.027
616.05	25.196
616.38	25.128
616.71	25.566
617.05	25.633
617.38	26.147
617.71	26.101
618.04	26.095
618.37	26.545
618.70	27.129
619.03	26.667
619.36	25.687
619.69	26.611
620.03	27.319
620.36	25.179
620.69	27.409
621.02	26.223
621.35	27.552
621.68	27.806
622.01	26.417
622.34	26.656
622.67	27.050
623.00	26.110
623.33	26.982
623.66	26.103
623.99	26.399
624.32	26.616
624.65	26.692
624.99	27.013
625.32	27.142
625.65	27.965
625.98	26.430
626.31	26.600
626.64	27.123
626.97	27.487
627.30	27.408
627.63	26.950
627.96	27.853
628.29	26.549
628.62	27.827
628.95	27.655
629.28	28.024
629.61	28.116
629.94	28.641
630.26	27.964
630.59	27.992
630.92	28.615
631.25	27.385
631.58	28.194
631.91	27.412
632.24	28.211
632.57	28.409
632.90	28.233
633.23	28.588
633.56	28.841
633.89	28.483
634.22	28.519
634.55	28.590
634.88	29.374
635.20	28.077
635.53	29.067
635.86	28.609
636.19	29.754
636.52	27.296
636.85	28.784
637.18	26.792
637.51	28.302
637.83	27.464
638.16	31.514
638.49	26.703
638.82	31.184
639.15	26.730
639.48	26.960
639.81	29.568
640.13	27.850
640.46	27.988
640.79	28.130
641.12	28.360
641.45	28.228
641.77	30.074
642.10	30.332
642.43	29.421
642.76	29.538
643.09	28.110
643.41	29.126
643.74	28.666
644.07	28.900
644.40	31.757
644.73	32.049
645.05	26.846
645.38	31.393
645.71	28.723
646.04	31.059
646.36	29.255
646.69	31.475
647.02	32.136
647.35	28.731
647.67	32.358
648.00	30.410
648.33	30.546
648.66	27.627
648.98	28.141
649.31	28.926
649.64	28.571
649.96	27.391
650.29	28.790
650.62	29.915
650.94	30.556
651.27	27.188
651.60	30.811
651.92	29.196
652.25	27.176
652.58	29.833
652.90	28.473
653.23	28.739
653.56	28.934
653.88	27.835
654.21	26.795
654.54	27.844
654.86	31.070
655.19	26.462
655.52	28.251
655.84	26.236
656.17	28.579
656.49	37.509
656.82	37.947
657.15	28.730
657.47	20.765
657.80	15.193
658.13	14.628
658.45	22.479
658.78	22.225
659.10	22.222
659.43	21.483
659.75	22.398
660.08	23.586
660.41	25.638
660.73	25.552
661.06	27.556
661.38	26.810
661.71	27.310
662.03	30.043
662.36	30.769
662.68	31.858
663.01	32.751
663.33	29.002
663.66	30.465
663.98	25.814
664.31	28.145
664.63	28.341
664.96	27.826
665.28	27.594
665.61	29.870
665.93	29.783
666.26	30.586
666.58	25.951
666.91	28.706
667.23	30.896
667.56	28.436
667.88	28.537
668.21	30.310
668.53	30.733
668.86	31.604
669.18	30.189
669.50	29.056
669.83	27.907
670.15	28.904
670.48	28.947
670.80	30.415
671.13	29.083
671.45	27.169
671.77	29.828
672.10	32.475
672.42	26.966
672.75	29.307
673.07	30.948
673.39	31.009
673.72	27.219
674.04	27.917
674.37	28.390
674.69	28.908
675.01	30.000
675.34	28.153
675.66	28.935
675.98	31.707
676.31	28.211
676.63	31.829
676.95	31.591
677.28	32.941
677.60	32.289
677.92	31.422
678.25	29.759
678.57	31.169
678.89	29.412
679.22	30.201
679.54	27.912
679.86	29.423
680.18	27.379
680.51	31.629
680.83	26.839
681.15	28.000
681.48	30.943
681.80	29.545
682.12	28.226
682.44	26.987
682.77	28.256
683.09	26.316
683.41	27.955
683.73	28.571
684.06	28.761
684.38	28.172
684.70	29.194
685.02	25.726
685.34	26.680
685.67	27.205
685.99	28.752
686.31	29.381
686.63	26.345
686.96	27.567
687.28	25.455
687.60	25.285
687.92	29.697
688.24	27.218
688.56	29.694
688.89	28.348
689.21	29.778
689.53	27.842
689.85	24.884
690.17	31.473
690.49	27.187
690.82	28.883
691.14	25.952
691.46	28.271
691.78	29.730
692.10	30.538
692.42	26.190
692.74	27.564
693.06	29.054
693.39	29.638
693.71	24.887
694.03	27.714
694.35	29.907
694.67	29.040
694.99	27.415
695.31	30.026
695.63	29.750
695.95	27.525
696.27	26.166
696.59	27.222
696.91	26.331
697.23	26.735
697.56	30.198
697.88	28.817
698.20	28.246
698.52	26.588
698.84	26.555
699.16	27.000
699.48	29.073
699.80	26.799
700.12	28.302
700.44	30.252
700.76	28.779
701.08	27.879
701.40	31.928
701.72	33.642
702.04	27.723
702.36	30.100
702.68	26.426
703.00	29.394
703.32	27.273
703.64	28.531
703.96	31.304
704.28	30.675
704.60	32.063
704.91	25.237
705.23	31.229
705.55	32.155
705.87	31.047
706.19	31.481
706.51	26.460
706.83	28.939
707.15	25.857
707.47	29.132
707.79	25.521
708.11	30.250
708.43	28.000
708.74	26.615
709.06	30.141
709.38	32.416
709.70	24.260
710.02	26.433
710.34	29.412
710.66	25.641
710.98	29.139
711.29	29.180
711.61	30.169
711.93	31.270
712.25	35.052
712.57	30.403
712.89	30.224
713.20	30.450
713.52	30.314
713.84	30.717
714.16	27.148
714.48	30.000
714.80	28.205
715.11	29.179
715.43	27.900
715.75	25.667
716.07	28.239
716.39	27.517
716.70	26.937
717.02	29.008
717.34	28.340
717.66	28.319
717.97	29.565
718.29	29.289
718.61	26.772
718.93	24.806
719.24	29.658
719.56	30.924
719.88	32.990
720.20	29.167
720.51	26.437
720.83	31.274
721.15	26.891
721.46	29.435
721.78	22.530
722.10	25.279
722.42	26.556
722.73	28.980
723.05	34.694
723.37	33.051
723.68	31.982
724.00	30.342
724.32	28.444
724.63	25.000
724.95	26.201
725.27	29.954
725.58	29.237
725.90	26.587
726.22	29.344
726.53	29.153
726.85	27.715
727.16	30.189
727.48	23.077
727.80	29.960
728.11	27.119
728.43	30.588
728.74	23.790
729.06	27.200
729.38	31.579
729.69	28.287
730.01	27.308
730.32	28.731
730.64	28.269
730.96	27.547
731.27	27.333
731.59	27.797
731.90	28.344
732.22	27.760
732.53	30.565
732.85	24.823
733.16	29.630
733.48	23.381
733.80	28.986
734.11	24.068
734.43	23.711
734.74	25.152
735.06	26.059
735.37	27.190
735.69	31.313
736.00	24.390
736.32	29.195
736.63	32.042
736.95	28.669
737.26	26.690
737.58	25.168
737.89	24.542
738.21	27.444
738.52	29.218
738.83	33.188
739.15	21.397
739.46	28.346
739.78	27.106
740.09	26.797
740.41	25.725
740.72	27.559
741.04	30.769
741.35	25.106
741.66	32.701
741.98	26.020
742.29	28.713
742.61	29.319
742.92	23.223
743.23	28.241
743.55	31.674
743.86	25.359
744.18	27.273
744.49	28.191
744.80	27.174
745.12	31.551
745.43	26.829
745.74	30.208
746.06	23.415
746.37	28.272
746.68	27.014
747.00	22.340
747.31	27.363
747.62	28.641
747.94	33.971
748.25	24.257
748.56	27.869
748.88	28.272
749.19	33.511
749.50	31.034
749.82	28.774
750.13	29.817
750.44	29.323
750.75	25.000
751.07	33.212
751.38	27.969
751.69	24.314
752.01	28.682
752.32	24.303
752.63	23.320
752.94	25.000
753.26	33.891
753.57	29.864
753.88	26.991
754.19	23.333
754.51	28.926
754.82	24.291
755.13	32.083
755.44	29.435
755.75	27.734
756.07	30.739
756.38	25.660
756.69	24.521
757.00	27.000
757.31	27.451
757.63	21.951
757.94	24.444
758.25	24.384
758.56	23.936
758.87	21.530
759.18	22.118
759.50	28.727
759.81	28.428
760.12	29.355
760.43	24.242
760.74	26.852
761.05	24.308
761.36	25.852
761.67	27.273
761.99	26.190
762.30	22.545
762.61	26.087
762.92	28.507
763.23	29.730
763.54	23.832
763.85	28.814
764.16	25.311
764.47	27.419
764.78	23.077
765.10	25.589
765.41	25.237
765.72	27.302
766.03	21.805
766.34	26.642
766.65	31.474
766.96	25.253
767.27	26.064
767.58	24.138
767.89	26.950
768.20	21.591
768.51	26.923
768.82	31.527
769.13	24.885
769.44	22.747
769.75	24.658
770.06	23.707
770.37	25.000
770.68	27.411
770.99	25.339
771.30	26.471
771.61	27.602
771.92	26.724
772.23	33.005
772.54	29.570
772.85	28.395
773.16	26.404
773.47	32.026
773.78	28.758
774.09	25.749
774.39	32.000
774.70	28.025
775.01	26.207
775.32	27.857
775.63	15.702
775.94	28.244
776.25	29.921
776.56	17.500
776.87	23.077
777.18	27.350
777.48	29.310
777.79	13.043
778.10	12.381
778.41	27.928
778.72	23.810
779.03	28.571
779.34	26.950
779.65	36.986
779.95	17.808
780.26	28.966
780.57	23.577
780.88	29.134
781.19	13.793
781.50	25.581
781.80	24.260
782.11	25.157
782.42	33.077
782.73	24.460
783.04	20.741
783.34	23.611
783.65	22.222
783.96	28.689
784.27	31.724
784.57	25.203
784.88	21.094
785.19	34.000
785.50	41.000
785.81	26.724
786.11	19.828
786.42	24.272
786.73	34.545
787.04	29.592
787.34	22.321
787.65	19.048
787.96	23.009
788.26	33.636
788.57	25.641
788.88	25.781
789.19	17.460
789.49	24.348
789.80	18.367
790.11	16.162
790.41	23.636
790.72	27.174
791.03	38.636
791.33	32.500
791.64	36.250
791.95	29.070
792.25	21.277
792.56	17.978
792.87	31.507
793.17	26.087
793.48	20.000
793.79	22.500
794.09	21.250
794.40	21.698
794.70	19.417
795.01	17.073
795.32	28.205
795.62	23.810
795.93	18.627
796.23	23.585
796.54	30.208
796.85	27.941
797.15	23.944
797.46	16.667
797.76	37.879
798.07	31.395
798.37	28.947
798.68	18.182
798.99	32.099
799.29	22.857
799.60	7.246
799.90	28.000
800.21	36.066
800.51	24.615
800.82	16.949
801.12	40.580
801.43	42.623
801.73	26.984
802.04	24.000
802.34	14.925
802.65	32.692
802.95	-7.143
803.26	23.077
803.56	35.294
803.87	-2.174
804.17	24.000
804.48	26.984
804.78	29.630
805.09	26.087
805.39	20.000
805.70	24.074
806.00	19.298
806.30	18.310
806.61	35.714
806.91	13.889
807.22	34.211
807.52	25.333
807.83	20.000
808.13	30.556
808.43	17.647
808.74	23.881
809.04	18.644
809.35	17.308
809.65	28.125
809.95	-18.919
810.26	13.636
810.56	27.397
810.86	26.190
811.17	8.000
811.47	36.735
811.77	7.895
812.08	18.182
812.38	26.415
812.69	27.500
812.99	30.303
813.29	28.947
813.59	-20.000
813.90	22.727
814.20	7.692
814.50	30.769
814.81	20.755
815.11	27.660
815.41	30.508
815.72	19.048
816.02	23.529
816.32	29.167
816.62	9.756
816.93	29.730
817.23	57.143
817.53	37.500
817.84	17.391
818.14	21.154
818.44	-5.263
818.74	45.652
819.04	-25.000
819.35	24.324
819.65	2.941
819.95	16.667
820.25	28.571
820.56	37.500
820.86	-27.586
821.16	22.500
821.46	46.809
821.76	60.000
822.07	37.209
822.37	0.000
822.67	9.375
822.97	28.571
823.27	25.000
823.57	20.000
823.88	18.519
824.18	32.143
824.48	14.706
824.78	-12.903
825.08	17.391
825.38	33.333
825.69	62.500
825.99	42.105
826.29	8.333
826.59	-33.333
826.89	19.048
827.19	-2.174
827.49	-12.500
827.79	51.429
828.09	-7.143
828.39	21.212
828.70	54.054
829.00	-7.143
829.30	14.286
829.60	40.000
829.90	21.875
830.20	15.789
830.50	11.111
830.80	-4.348
831.10	-54.545
831.40	48.485
831.70	22.581
832.00	47.619
832.30	9.524
832.60	-8.333
832.90	24.138
833.20	-10.000
833.50	6.061
833.80	29.630
834.10	38.462
834.40	6.250
834.70	33.333
835.00	5.263
835.30	57.692
835.60	53.333
835.90	35.484
836.20	13.636
836.50	28.571
836.80	3.846
837.10	35.714
837.40	200.000
837.70	-4.545
838.00	-72.727
838.30	-4.348
838.60	0.000
838.90	36.364
839.19	10.714
839.49	16.667
839.79	23.077
840.09	-25.000
840.39	25.000
840.69	53.571
840.99	-7.692
841.29	-26.316
841.59	-70.000
841.88	-9.091
842.18	80.000
842.48	18.750
842.78	-26.667
843.08	11.111
843.38	-70.000
843.68	-4.348
843.97	53.333
844.27	-40.000
844.57	20.000
844.87	5.556
845.17	-9.524
845.47	20.000
845.76	9.524
846.06	29.412
846.36	-10.000
846.66	21.429
846.96	20.000
847.25	-175.000
847.55	64.286
847.85	-37.500
848.15	-9.091
848.44	-433.333
848.74	10.000
849.04	29.630
849.34	90.909
849.63	-166.667
849.93	-160.000
850.23	-72.222
850.53	110.000
850.82	-46.154
851.12	33.333
851.42	6.667
851.71	23.077
852.01	14.286
852.31	-250.000
852.61	-90.909
852.90	-15.000
853.20	-10.526
853.50	-58.333
853.79	82.609
854.09	12.500
854.39	26.316
854.68	50.000
854.98	22.581
855.28	7.692
855.57	50.000
855.87	33.333
856.17	62.963
856.46	-28.571
856.76	-66.667
857.05	-22.222
857.35	20.000
857.65	0.000
857.94	0.000
858.24	31.034
858.53	27.778
858.83	59.259
859.13	13.636
859.42	4.348
859.72	-100.000
860.01	-133.333
860.31	0.000
860.60	9.524
860.90	-200.000
861.20	-73.333
861.49	-150.000
861.79	-20.000
862.08	-15.000
862.38	20.000
862.67	140.000
862.97	-33.333
863.26	25.000
863.56	61.111
863.85	-333.333
864.15	77.778
864.44	-130.000
864.74	107.143
865.03	75.000
865.33	-240.000
865.62	-16.667
865.92	25.000
866.21	-300.000
866.51	50.000
866.80	18.182
867.10	-200.000
867.39	58.333
867.69	0.000
867.98	7.692
868.27	-366.667
868.57	0.000
868.86	5.556
869.16	-69.231
869.45	100.000
869.75	-1700.000
870.04	0.000
870.33	-157.143
870.63	19.048
870.92	266.667
871.22	-60.000
871.51	-500.000
871.80	44.444
872.10	100.000
>>>>>End Processed Spectral Data<<<<<
