SpectraSuite Data File
++++++++++++++++++++++++++++++++++++
Date: Fri May 15 20:34:29 PDT 2015
User: schluterlab
Dark Spectrum Present: Yes
Reference Spectrum Present: Yes
Number of Sampled Component Spectra: 1
Spectrometers: USB2E3373
Integration Time (usec): 3000 (USB2E3373)
Spectra Averaged: 3 (USB2E3373)
Boxcar Smoothing: 0 (USB2E3373)
Correct for Electrical Dark: No (USB2E3373)
Strobe/Lamp Enabled: No (USB2E3373)
Correct for Detector Non-linearity: No (USB2E3373)
Correct for Stray Light: No (USB2E3373)
Number of Pixels in Processed Spectrum: 2048
>>>>>Begin Processed Spectral Data<<<<<
178.53	0.000
178.91	0.000
179.29	-12.500
179.67	-850.000
180.04	-42.857
180.42	-75.000
180.80	-200.000
181.18	66.667
181.56	700.000
181.94	150.000
182.31	600.000
182.69	-160.000
183.07	-133.333
183.45	-140.000
183.83	83.333
184.20	-36.364
184.58	88.889
184.96	75.000
185.34	166.667
185.72	-300.000
186.09	92.308
186.47	-400.000
186.85	233.333
187.23	100.000
187.61	-0.000
187.98	-366.667
188.36	22.222
188.74	-100.000
189.12	17.647
189.49	0.000
189.87	0.000
190.25	50.000
190.63	-200.000
191.00	-200.000
191.38	0.000
191.76	400.000
192.14	75.000
192.51	-200.000
192.89	-33.333
193.27	-142.857
193.65	266.667
194.02	81.818
194.40	20.000
194.78	-175.000
195.15	-75.000
195.53	-87.500
195.91	25.000
196.29	-100.000
196.66	123.077
197.04	157.143
197.42	-100.000
197.79	-500.000
198.17	-153.846
198.55	2400.000
198.92	-533.333
199.30	300.000
199.68	-240.000
200.05	-466.667
200.43	0.000
200.81	-200.000
201.18	-200.000
201.56	1300.000
201.94	-350.000
202.31	-66.667
202.69	-300.000
203.07	225.000
203.44	400.000
203.82	0.000
204.19	-78.571
204.57	-566.667
204.95	100.000
205.32	-10.000
205.70	14.286
206.08	0.000
206.45	-33.333
206.83	28.571
207.20	-71.429
207.58	600.000
207.96	-233.333
208.33	-70.000
208.71	50.000
209.08	-166.667
209.46	-1600.000
209.84	-160.000
210.21	-1900.000
210.59	28.571
210.96	-150.000
211.34	-250.000
211.71	0.000
212.09	-142.857
212.46	-1400.000
212.84	0.000
213.22	10.000
213.59	700.000
213.97	-15.385
214.34	-45.455
214.72	-166.667
215.09	475.000
215.47	7.692
215.84	-9.091
216.22	-133.333
216.59	-87.500
216.97	150.000
217.34	-100.000
217.72	-240.000
218.09	-37.500
218.47	175.000
218.84	-800.000
219.22	-55.556
219.59	-120.000
219.97	666.667
220.34	300.000
220.72	0.000
221.09	-225.000
221.47	50.000
221.84	-500.000
222.22	-750.000
222.59	81.818
222.97	50.000
223.34	66.667
223.72	-71.429
224.09	-33.333
224.46	-14.286
224.84	366.667
225.21	-20.000
225.59	-13.333
225.96	-400.000
226.34	375.000
226.71	-28.571
227.08	-83.333
227.46	-12.500
227.83	-1050.000
228.21	-11.111
228.58	-100.000
228.95	50.000
229.33	270.000
229.70	-43.750
230.08	-125.000
230.45	-185.714
230.82	42.857
231.20	-40.000
231.57	-35.714
231.95	-171.429
232.32	-160.000
232.69	0.000
233.07	-400.000
233.44	-300.000
233.81	-80.000
234.19	-44.444
234.56	-5.882
234.93	600.000
235.31	150.000
235.68	-140.000
236.05	-138.462
236.43	-50.000
236.80	-88.235
237.17	-15.625
237.55	-15.000
237.92	-22.222
238.29	0.000
238.67	-20.000
239.04	-8.824
239.41	-12.195
239.79	-76.667
240.16	-9.756
240.53	-34.211
240.91	-19.565
241.28	11.111
241.65	-3.571
242.02	21.918
242.40	-3.333
242.77	0.000
243.14	-15.152
243.51	5.000
243.89	5.747
244.26	-3.448
244.63	-2.381
245.00	3.093
245.38	-7.216
245.75	-14.607
246.12	-1.724
246.49	0.000
246.87	1.923
247.24	-2.521
247.61	-3.509
247.98	-3.252
248.36	0.000
248.73	1.974
249.10	1.299
249.47	-4.430
249.84	-1.307
250.22	-0.588
250.59	7.190
250.96	4.225
251.33	-4.651
251.70	4.706
252.08	3.046
252.45	2.475
252.82	0.000
253.19	9.677
253.56	0.935
253.94	2.703
254.31	3.913
254.68	7.018
255.05	-1.575
255.42	3.493
255.79	2.703
256.16	5.058
256.54	4.104
256.91	1.141
257.28	7.063
257.65	3.371
258.02	5.674
258.39	10.438
258.76	2.930
259.14	5.648
259.51	3.560
259.88	3.780
260.25	6.863
260.62	10.069
260.99	0.339
261.36	2.055
261.73	2.848
262.10	3.343
262.47	4.294
262.85	5.643
263.22	1.231
263.59	5.296
263.96	4.658
264.33	1.818
264.70	3.869
265.07	5.357
265.44	3.683
265.81	6.497
266.18	4.372
266.55	6.941
266.92	6.218
267.29	2.350
267.66	5.627
268.03	5.236
268.40	2.350
268.77	8.556
269.14	5.036
269.51	3.085
269.88	5.237
270.25	0.255
270.62	1.220
270.99	3.581
271.36	2.689
271.73	4.930
272.10	3.650
272.47	4.965
272.84	3.218
273.21	4.176
273.58	3.133
273.95	5.034
274.32	2.079
274.69	2.262
275.06	4.018
275.43	3.855
275.80	1.987
276.17	1.839
276.54	4.925
276.91	5.702
277.28	5.677
277.65	4.959
278.02	3.830
278.39	1.969
278.76	5.031
279.13	-1.452
279.50	3.782
279.87	4.536
280.23	2.796
280.60	5.653
280.97	4.848
281.34	2.308
281.71	6.571
282.08	3.476
282.45	2.348
282.82	2.896
283.19	5.416
283.56	4.239
283.92	1.898
284.29	3.462
284.66	3.682
285.03	3.143
285.40	4.159
285.77	3.515
286.14	4.874
286.51	5.720
286.87	4.388
287.24	2.026
287.61	2.469
287.98	4.737
288.35	4.679
288.72	6.655
289.08	2.431
289.45	3.339
289.82	4.720
290.19	3.584
290.56	4.631
290.93	2.525
291.29	2.928
291.66	4.882
292.03	4.625
292.40	1.935
292.77	3.509
293.13	0.487
293.50	2.731
293.87	4.275
294.24	4.946
294.60	2.981
294.97	4.762
295.34	3.221
295.71	2.683
296.08	3.737
296.44	1.138
296.81	4.028
297.18	1.884
297.55	5.014
297.91	3.014
298.28	3.430
298.65	2.578
299.02	3.504
299.38	0.137
299.75	2.621
300.12	1.440
300.48	1.845
300.85	2.915
301.22	1.948
301.59	1.711
301.95	4.177
302.32	5.318
302.69	2.861
303.05	1.856
303.42	3.113
303.79	2.804
304.15	3.704
304.52	1.189
304.89	1.988
305.25	3.874
305.62	2.567
305.99	2.339
306.35	3.006
306.72	2.587
307.09	2.737
307.45	4.133
307.82	2.546
308.19	3.717
308.55	3.599
308.92	3.704
309.29	1.229
309.65	2.260
310.02	2.970
310.38	2.964
310.75	2.623
311.12	1.938
311.48	2.651
311.85	2.827
312.22	3.376
312.58	3.503
312.95	3.095
313.31	3.313
313.68	3.141
314.05	3.776
314.41	4.845
314.78	3.711
315.14	4.111
315.51	3.934
315.87	3.484
316.24	4.853
316.61	4.331
316.97	5.556
317.34	4.590
317.70	4.207
318.07	4.231
318.43	5.098
318.80	5.208
319.16	5.078
319.53	7.692
319.89	5.610
320.26	6.781
320.62	4.915
320.99	4.802
321.35	7.503
321.72	7.580
322.08	8.359
322.45	7.513
322.81	8.153
323.18	8.440
323.54	8.398
323.91	7.790
324.27	8.203
324.64	9.738
325.00	9.854
325.37	10.101
325.73	9.429
326.10	9.264
326.46	10.942
326.83	10.499
327.19	9.765
327.56	10.339
327.92	11.620
328.29	11.161
328.65	11.698
329.01	11.029
329.38	12.258
329.74	11.898
330.11	11.863
330.47	12.709
330.84	10.865
331.20	13.593
331.56	12.315
331.93	13.790
332.29	14.024
332.66	12.579
333.02	12.639
333.38	11.916
333.75	13.004
334.11	12.444
334.48	13.871
334.84	13.095
335.20	13.175
335.57	12.149
335.93	13.369
336.29	13.812
336.66	13.533
337.02	11.431
337.38	12.500
337.75	12.818
338.11	13.526
338.47	13.686
338.84	14.233
339.20	12.706
339.56	13.853
339.93	14.145
340.29	13.303
340.65	13.799
341.02	12.500
341.38	12.301
341.74	12.544
342.11	12.912
342.47	12.811
342.83	13.235
343.20	12.805
343.56	12.435
343.92	12.489
344.28	15.286
344.65	12.522
345.01	13.051
345.37	13.625
345.73	13.222
346.10	13.201
346.46	13.204
346.82	12.848
347.19	12.219
347.55	12.865
347.91	12.945
348.27	13.824
348.63	13.458
349.00	14.110
349.36	12.801
349.72	13.765
350.08	13.279
350.45	13.647
350.81	11.628
351.17	13.355
351.53	12.245
351.89	12.634
352.26	12.160
352.62	13.387
352.98	13.333
353.34	12.399
353.70	13.269
354.07	13.065
354.43	12.410
354.79	12.634
355.15	13.492
355.51	12.579
355.87	12.460
356.24	12.724
356.60	12.935
356.96	13.492
357.32	13.259
357.68	12.432
358.04	12.601
358.40	13.826
358.77	13.716
359.13	12.730
359.49	12.943
359.85	12.168
360.21	13.158
360.57	13.619
360.93	13.464
361.29	11.934
361.66	12.461
362.02	13.939
362.38	12.262
362.74	12.263
363.10	14.221
363.46	12.602
363.82	13.449
364.18	13.063
364.54	12.941
364.90	13.262
365.26	13.028
365.62	14.161
365.98	12.537
366.35	14.421
366.71	13.673
367.07	13.280
367.43	13.300
367.79	13.498
368.15	13.065
368.51	12.964
368.87	13.496
369.23	12.563
369.59	13.484
369.95	14.809
370.31	14.162
370.67	13.433
371.03	13.069
371.39	13.786
371.75	13.187
372.11	13.909
372.47	14.423
372.83	14.904
373.19	14.265
373.55	13.213
373.91	14.183
374.27	15.308
374.63	13.711
374.99	14.184
375.35	15.251
375.71	14.126
376.07	13.624
376.42	15.170
376.78	14.564
377.14	13.879
377.50	14.343
377.86	14.458
378.22	14.040
378.58	15.449
378.94	14.682
379.30	14.286
379.66	15.047
380.02	14.224
380.38	14.242
380.74	14.722
381.09	15.767
381.45	15.168
381.81	14.621
382.17	15.546
382.53	15.428
382.89	15.505
383.25	14.872
383.61	15.671
383.97	15.111
384.32	15.197
384.68	15.294
385.04	15.135
385.40	14.312
385.76	17.107
386.12	15.847
386.48	15.709
386.83	15.029
387.19	15.873
387.55	16.562
387.91	15.403
388.27	16.300
388.62	16.174
388.98	16.145
389.34	16.302
389.70	17.029
390.06	15.607
390.42	15.220
390.77	16.612
391.13	16.393
391.49	16.818
391.85	15.919
392.20	16.070
392.56	16.020
392.92	16.735
393.28	16.922
393.64	16.336
393.99	17.367
394.35	17.078
394.71	17.050
395.07	16.593
395.42	16.576
395.78	17.980
396.14	16.772
396.50	16.360
396.85	16.420
397.21	16.416
397.57	16.614
397.92	17.436
398.28	16.724
398.64	17.108
399.00	16.648
399.35	16.253
399.71	16.715
400.07	16.989
400.42	16.769
400.78	17.575
401.14	18.149
401.49	17.927
401.85	16.697
402.21	17.410
402.57	16.750
402.92	17.189
403.28	17.669
403.63	17.276
403.99	16.709
404.35	16.740
404.70	17.024
405.06	16.275
405.42	16.346
405.77	16.967
406.13	16.997
406.49	16.282
406.84	17.359
407.20	16.857
407.55	16.871
407.91	16.511
408.27	17.017
408.62	17.908
408.98	17.129
409.34	17.596
409.69	16.602
410.05	15.948
410.40	16.914
410.76	16.888
411.11	16.500
411.47	16.568
411.83	16.761
412.18	17.375
412.54	17.416
412.89	16.256
413.25	17.148
413.60	16.584
413.96	16.380
414.31	16.707
414.67	16.613
415.03	17.310
415.38	16.710
415.74	16.938
416.09	16.917
416.45	17.151
416.80	17.383
417.16	17.334
417.51	17.722
417.87	17.210
418.22	17.358
418.58	16.254
418.93	18.245
419.29	16.325
419.64	16.915
420.00	17.947
420.35	17.015
420.71	16.525
421.06	17.373
421.42	17.788
421.77	17.110
422.12	16.288
422.48	17.650
422.83	17.401
423.19	16.535
423.54	16.814
423.90	17.197
424.25	17.738
424.61	17.319
424.96	16.841
425.31	17.851
425.67	17.782
426.02	17.786
426.38	17.846
426.73	17.373
427.09	17.722
427.44	17.941
427.79	17.619
428.15	18.204
428.50	17.081
428.85	17.199
429.21	17.770
429.56	18.329
429.92	18.028
430.27	17.794
430.62	17.041
430.98	17.357
431.33	17.613
431.68	17.164
432.04	18.055
432.39	16.771
432.74	17.318
433.10	17.989
433.45	17.503
433.80	17.121
434.16	17.008
434.51	18.065
434.86	17.770
435.22	18.452
435.57	18.278
435.92	18.144
436.28	17.710
436.63	18.654
436.98	17.265
437.34	18.572
437.69	17.710
438.04	17.664
438.39	17.654
438.75	18.944
439.10	18.393
439.45	18.381
439.81	18.165
440.16	18.765
440.51	18.448
440.86	19.396
441.22	18.439
441.57	18.653
441.92	19.203
442.27	18.958
442.63	19.968
442.98	18.150
443.33	18.420
443.68	18.143
444.03	19.921
444.39	19.380
444.74	19.231
445.09	19.543
445.44	18.575
445.79	20.578
446.15	19.824
446.50	18.968
446.85	19.660
447.20	19.917
447.55	21.261
447.91	19.515
448.26	19.636
448.61	20.898
448.96	19.793
449.31	19.480
449.66	20.151
450.02	19.566
450.37	19.739
450.72	19.931
451.07	20.949
451.42	20.287
451.77	20.313
452.12	20.096
452.47	19.639
452.83	19.258
453.18	19.102
453.53	21.113
453.88	20.219
454.23	20.160
454.58	19.899
454.93	20.812
455.28	19.492
455.63	20.893
455.98	20.926
456.34	20.370
456.69	21.093
457.04	20.479
457.39	19.684
457.74	20.254
458.09	19.717
458.44	19.836
458.79	20.112
459.14	20.709
459.49	21.910
459.84	20.530
460.19	20.570
460.54	20.049
460.89	20.455
461.24	20.186
461.59	20.368
461.94	19.560
462.29	20.024
462.64	20.465
462.99	18.822
463.34	20.376
463.69	18.790
464.04	20.460
464.39	20.133
464.74	19.755
465.09	20.898
465.44	20.658
465.79	20.181
466.14	20.696
466.49	19.954
466.84	20.048
467.19	20.463
467.54	19.668
467.89	19.646
468.24	20.377
468.59	20.825
468.94	19.746
469.29	20.393
469.64	20.574
469.99	21.233
470.34	20.273
470.68	19.836
471.03	20.453
471.38	19.615
471.73	20.798
472.08	19.810
472.43	19.463
472.78	19.534
473.13	20.816
473.48	20.000
473.83	19.863
474.17	20.337
474.52	20.676
474.87	19.515
475.22	20.866
475.57	19.537
475.92	20.132
476.27	19.383
476.61	20.313
476.96	19.688
477.31	20.065
477.66	19.719
478.01	19.483
478.36	19.390
478.70	19.793
479.05	19.835
479.40	19.555
479.75	18.874
480.10	19.867
480.45	19.750
480.79	20.393
481.14	19.980
481.49	18.867
481.84	19.691
482.19	19.224
482.53	19.904
482.88	19.284
483.23	18.138
483.58	18.962
483.92	18.829
484.27	19.098
484.62	19.139
484.97	18.864
485.31	18.533
485.66	18.565
486.01	18.503
486.36	18.761
486.70	19.027
487.05	19.321
487.40	19.131
487.75	18.507
488.09	18.232
488.44	18.294
488.79	17.632
489.13	19.191
489.48	18.469
489.83	18.341
490.17	18.292
490.52	18.707
490.87	19.297
491.22	18.911
491.56	18.406
491.91	18.595
492.26	18.230
492.60	18.378
492.95	19.085
493.30	17.733
493.64	18.075
493.99	18.502
494.34	18.155
494.68	17.905
495.03	17.810
495.37	17.763
495.72	18.274
496.07	18.537
496.41	18.019
496.76	18.747
497.11	17.885
497.45	18.329
497.80	18.517
498.14	17.685
498.49	18.588
498.84	18.313
499.18	18.624
499.53	17.907
499.87	17.996
500.22	17.804
500.56	17.953
500.91	17.269
501.26	17.202
501.60	17.314
501.95	17.467
502.29	17.337
502.64	17.761
502.98	17.563
503.33	16.667
503.67	17.590
504.02	18.231
504.36	17.862
504.71	16.919
505.06	16.860
505.40	17.056
505.75	16.598
506.09	17.537
506.44	17.454
506.78	17.500
507.13	17.528
507.47	17.232
507.82	16.560
508.16	16.587
508.51	16.789
508.85	17.321
509.19	16.232
509.54	17.051
509.88	16.990
510.23	17.106
510.57	16.622
510.92	16.418
511.26	17.021
511.61	17.382
511.95	17.315
512.30	16.685
512.64	17.140
512.98	16.171
513.33	17.124
513.67	16.202
514.02	17.220
514.36	17.314
514.70	17.716
515.05	17.156
515.39	16.883
515.74	17.904
516.08	16.796
516.42	17.845
516.77	17.262
517.11	16.736
517.46	16.697
517.80	16.925
518.14	16.656
518.49	16.887
518.83	17.132
519.17	16.192
519.52	16.696
519.86	16.627
520.20	16.889
520.55	16.010
520.89	17.315
521.23	16.086
521.58	16.972
521.92	17.372
522.26	16.070
522.61	15.974
522.95	16.954
523.29	16.518
523.64	16.773
523.98	15.943
524.32	16.044
524.66	17.093
525.01	16.039
525.35	16.202
525.69	16.027
526.04	15.146
526.38	16.018
526.72	16.089
527.06	15.694
527.41	16.359
527.75	15.684
528.09	16.013
528.43	16.678
528.78	16.304
529.12	15.290
529.46	15.660
529.80	15.516
530.15	16.238
530.49	15.758
530.83	15.595
531.17	14.976
531.51	15.663
531.86	15.228
532.20	15.727
532.54	14.772
532.88	15.332
533.22	14.987
533.57	15.072
533.91	15.601
534.25	14.974
534.59	15.202
534.93	14.475
535.27	14.848
535.62	15.230
535.96	15.525
536.30	15.172
536.64	14.404
536.98	14.425
537.32	15.363
537.66	15.638
538.01	14.476
538.35	14.771
538.69	14.714
539.03	14.764
539.37	14.738
539.71	14.110
540.05	14.121
540.39	15.512
540.73	13.947
541.07	15.677
541.42	16.196
541.76	15.348
542.10	14.315
542.44	14.454
542.78	12.870
543.12	14.011
543.46	14.395
543.80	14.781
544.14	13.618
544.48	14.390
544.82	14.354
545.16	13.934
545.50	14.553
545.84	15.014
546.18	13.830
546.52	14.420
546.86	14.809
547.20	14.306
547.54	12.933
547.88	13.655
548.22	14.267
548.56	12.731
548.90	13.410
549.24	13.223
549.58	14.175
549.92	13.510
550.26	13.773
550.60	14.275
550.94	14.414
551.28	13.138
551.62	13.769
551.96	13.609
552.30	12.719
552.64	13.963
552.98	13.924
553.32	12.839
553.66	13.135
554.00	12.555
554.34	14.402
554.68	12.168
555.02	13.393
555.36	12.939
555.69	12.821
556.03	13.062
556.37	13.167
556.71	13.791
557.05	12.975
557.39	12.193
557.73	12.594
558.07	13.348
558.41	12.864
558.75	12.860
559.08	12.530
559.42	12.222
559.76	12.570
560.10	11.850
560.44	12.063
560.78	13.217
561.12	12.976
561.45	12.860
561.79	12.885
562.13	12.775
562.47	12.590
562.81	13.112
563.15	12.341
563.48	12.942
563.82	12.766
564.16	12.117
564.50	12.230
564.84	13.788
565.17	11.133
565.51	12.637
565.85	12.277
566.19	12.202
566.52	12.332
566.86	12.532
567.20	12.391
567.54	12.287
567.88	11.951
568.21	12.104
568.55	11.522
568.89	12.423
569.23	12.374
569.56	11.471
569.90	12.464
570.24	11.649
570.57	12.436
570.91	12.060
571.25	11.641
571.59	11.772
571.92	11.615
572.26	11.051
572.60	11.225
572.93	11.296
573.27	11.223
573.61	11.396
573.95	11.633
574.28	11.255
574.62	10.882
574.96	11.269
575.29	11.080
575.63	11.117
575.97	11.006
576.30	10.964
576.64	11.205
576.98	11.248
577.31	11.010
577.65	11.422
577.98	11.179
578.32	11.116
578.66	10.724
578.99	10.950
579.33	10.892
579.67	10.901
580.00	11.595
580.34	10.995
580.67	11.202
581.01	10.783
581.35	11.003
581.68	10.825
582.02	10.773
582.35	11.049
582.69	10.654
583.02	10.874
583.36	10.953
583.70	10.826
584.03	11.120
584.37	11.293
584.70	10.687
585.04	10.363
585.37	10.491
585.71	10.467
586.04	10.590
586.38	10.376
586.72	11.162
587.05	10.919
587.39	10.959
587.72	10.798
588.06	10.794
588.39	11.108
588.73	11.020
589.06	11.350
589.40	10.716
589.73	10.953
590.07	11.140
590.40	10.178
590.73	10.956
591.07	10.984
591.40	10.329
591.74	10.317
592.07	11.874
592.41	10.468
592.74	10.832
593.08	10.164
593.41	10.346
593.75	10.173
594.08	10.882
594.41	10.408
594.75	10.458
595.08	10.481
595.42	9.937
595.75	10.477
596.09	10.907
596.42	10.748
596.75	10.879
597.09	10.433
597.42	11.427
597.75	10.765
598.09	10.140
598.42	9.702
598.76	10.382
599.09	10.176
599.42	9.663
599.76	10.609
600.09	10.068
600.42	10.273
600.76	9.733
601.09	10.305
601.42	9.832
601.76	10.123
602.09	10.314
602.42	11.289
602.76	10.144
603.09	10.091
603.42	10.033
603.76	9.839
604.09	9.964
604.42	10.618
604.76	10.547
605.09	10.420
605.42	10.609
605.75	9.982
606.09	9.639
606.42	9.925
606.75	9.870
607.09	10.286
607.42	9.127
607.75	9.991
608.08	9.659
608.42	10.233
608.75	10.169
609.08	10.314
609.41	10.558
609.75	9.829
610.08	10.035
610.41	9.662
610.74	10.336
611.07	9.922
611.41	9.704
611.74	10.448
612.07	9.797
612.40	10.011
612.73	9.944
613.07	9.280
613.40	9.956
613.73	9.905
614.06	10.017
614.39	10.209
614.72	9.580
615.06	10.112
615.39	10.044
615.72	8.988
616.05	9.944
616.38	8.889
616.71	9.969
617.05	10.377
617.38	9.868
617.71	8.679
618.04	9.714
618.37	10.719
618.70	10.495
619.03	10.278
619.36	9.768
619.69	9.932
620.03	9.131
620.36	10.229
620.69	8.922
621.02	10.245
621.35	11.701
621.68	9.099
622.01	10.000
622.34	10.694
622.67	10.726
623.00	10.720
623.33	9.680
623.66	9.349
623.99	9.834
624.32	9.658
624.65	9.549
624.99	9.857
625.32	8.491
625.65	10.448
625.98	10.475
626.31	9.643
626.64	8.925
626.97	10.558
627.30	10.508
627.63	10.919
627.96	9.704
628.29	9.713
628.62	9.538
628.95	10.220
629.28	9.073
629.61	9.073
629.94	8.602
630.26	9.881
630.59	10.094
630.92	8.410
631.25	9.846
631.58	7.709
631.91	9.211
632.24	10.206
632.57	10.114
632.90	9.253
633.23	9.647
633.56	8.312
633.89	9.988
634.22	9.012
634.55	10.801
634.88	8.940
635.20	8.974
635.53	9.600
635.86	10.403
636.19	9.702
636.52	9.949
636.85	8.189
637.18	9.057
637.51	9.308
637.83	8.936
638.16	10.232
638.49	9.537
638.82	10.000
639.15	10.041
639.48	9.078
639.81	8.508
640.13	8.802
640.46	9.184
640.79	7.953
641.12	9.158
641.45	8.559
641.77	9.037
642.10	10.111
642.43	10.611
642.76	10.891
643.09	8.724
643.41	8.414
643.74	7.578
644.07	11.166
644.40	11.318
644.73	10.333
645.05	10.570
645.38	9.171
645.71	7.447
646.04	10.413
646.36	10.106
646.69	10.072
647.02	8.507
647.35	8.022
647.67	10.238
648.00	9.142
648.33	11.263
648.66	10.508
648.98	8.710
649.31	6.942
649.64	9.105
649.96	9.076
650.29	9.540
650.62	9.060
650.94	8.704
651.27	8.380
651.60	9.369
651.92	9.965
652.25	6.394
652.58	10.167
652.90	9.777
653.23	7.563
653.56	6.261
653.88	8.419
654.21	8.056
654.54	10.696
654.86	8.319
655.19	8.187
655.52	8.901
655.84	8.052
656.17	9.205
656.49	12.406
656.82	13.015
657.15	9.943
657.47	7.614
657.80	5.539
658.13	5.735
658.45	8.255
658.78	8.871
659.10	8.446
659.43	8.210
659.75	8.436
660.08	8.621
660.41	9.908
660.73	9.530
661.06	7.799
661.38	7.241
661.71	5.339
662.03	10.515
662.36	10.110
662.68	6.416
663.01	10.917
663.33	6.032
663.66	4.884
663.98	9.535
664.31	8.316
664.63	8.065
664.96	5.217
665.28	6.181
665.61	8.225
665.93	8.261
666.26	9.544
666.58	4.698
666.91	8.471
667.23	7.547
667.56	7.820
667.88	5.755
668.21	6.205
668.53	12.293
668.86	9.434
669.18	5.660
669.50	4.843
669.83	7.907
670.15	6.294
670.48	6.938
670.80	8.065
671.13	8.277
671.45	6.621
671.77	9.442
672.10	9.901
672.42	8.052
672.75	10.124
673.07	9.660
673.39	9.358
673.72	6.312
674.04	6.458
674.37	8.263
674.69	9.422
675.01	11.111
675.34	6.532
675.66	8.565
675.98	7.317
676.31	6.422
676.63	6.888
676.95	7.273
677.28	8.941
677.60	8.675
677.92	7.339
678.25	7.659
678.57	8.009
678.89	7.143
679.22	8.054
679.54	8.635
679.86	6.759
680.18	8.350
680.51	7.386
680.83	6.759
681.15	9.800
681.48	9.631
681.80	8.678
682.12	9.073
682.44	6.695
682.77	9.713
683.09	7.780
683.41	7.727
683.73	6.221
684.06	8.407
684.38	4.731
684.70	8.061
685.02	5.602
685.34	6.324
685.67	7.880
685.99	10.127
686.31	8.319
686.63	7.421
686.96	6.274
687.28	5.253
687.60	5.894
687.92	9.293
688.24	7.460
688.56	6.332
688.89	7.589
689.21	8.444
689.53	9.049
689.85	7.442
690.17	9.375
690.49	7.092
690.82	5.340
691.14	7.381
691.46	7.710
691.78	7.883
692.10	10.968
692.42	7.576
692.74	9.402
693.06	8.559
693.39	7.692
693.71	7.466
694.03	5.081
694.35	11.215
694.67	8.838
694.99	6.789
695.31	8.877
695.63	5.500
695.95	6.566
696.27	7.772
696.59	9.444
696.91	8.123
697.23	5.656
697.56	6.931
697.88	12.473
698.20	8.656
698.52	6.588
698.84	7.177
699.16	6.750
699.48	7.769
699.80	7.196
700.12	6.469
700.44	7.563
700.76	6.977
701.08	6.667
701.40	7.530
701.72	11.420
702.04	6.271
702.36	4.682
702.68	7.207
703.00	8.485
703.32	7.918
703.64	6.215
703.96	9.275
704.28	6.442
704.60	6.984
704.91	6.309
705.23	5.980
705.55	9.187
705.87	7.581
706.19	6.296
706.51	6.186
706.83	6.431
707.15	1.246
707.47	8.403
707.79	4.948
708.11	9.500
708.43	7.000
708.74	9.302
709.06	5.634
709.38	7.339
709.70	7.396
710.02	5.414
710.34	12.074
710.66	3.846
710.98	4.636
711.29	8.197
711.61	5.424
711.93	11.401
712.25	7.560
712.57	5.128
712.89	7.463
713.20	10.035
713.52	8.711
713.84	4.437
714.16	5.498
714.48	2.903
714.80	9.936
715.11	8.511
715.43	2.821
715.75	7.333
716.07	5.316
716.39	7.383
716.70	7.380
717.02	5.344
717.34	10.121
717.66	7.080
717.97	4.783
718.29	2.929
718.61	7.087
718.93	6.977
719.24	9.886
719.56	11.245
719.88	4.811
720.20	1.894
720.51	3.448
720.83	9.653
721.15	10.084
721.46	4.435
721.78	4.348
722.10	7.063
722.42	3.320
722.73	9.388
723.05	10.612
723.37	11.864
723.68	9.459
724.00	9.829
724.32	4.444
724.63	3.182
724.95	4.367
725.27	7.834
725.58	5.932
725.90	3.175
726.22	5.405
726.53	7.797
726.85	4.494
727.16	10.566
727.48	5.263
727.80	6.073
728.11	4.661
728.43	9.020
728.74	0.403
729.06	4.400
729.38	9.774
729.69	5.976
730.01	0.385
730.32	6.343
730.64	9.541
730.96	5.283
731.27	7.000
731.59	2.712
731.90	7.962
732.22	10.410
732.53	10.963
732.85	8.511
733.16	9.428
733.48	7.554
733.80	5.072
734.11	5.763
734.43	5.842
734.74	9.394
735.06	3.909
735.37	10.574
735.69	6.061
736.00	6.620
736.32	6.711
736.63	8.451
736.95	6.826
737.26	4.626
737.58	5.705
737.89	5.495
738.21	6.767
738.52	8.642
738.83	5.240
739.15	3.930
739.46	7.087
739.78	6.960
740.09	9.804
740.41	5.072
740.72	4.724
741.04	5.263
741.35	9.362
741.66	4.739
741.98	7.653
742.29	8.911
742.61	5.236
742.92	4.265
743.23	0.463
743.55	9.050
743.86	2.871
744.18	0.000
744.49	0.000
744.80	3.261
745.12	12.299
745.43	1.951
745.74	3.125
746.06	0.000
746.37	4.188
746.68	5.213
747.00	0.000
747.31	6.468
747.62	5.340
747.94	5.742
748.25	4.455
748.56	1.093
748.88	0.524
749.19	5.851
749.50	2.463
749.82	0.472
750.13	1.835
750.44	8.647
750.75	4.104
751.07	12.409
751.38	4.981
751.69	1.961
752.01	9.302
752.32	8.765
752.63	5.929
752.94	5.172
753.26	11.715
753.57	4.977
753.88	1.770
754.19	4.167
754.51	4.132
754.82	0.405
755.13	14.583
755.44	6.452
755.75	10.156
756.07	7.782
756.38	6.038
756.69	4.215
757.00	4.333
757.31	6.536
757.63	1.220
757.94	7.778
758.25	4.110
758.56	3.989
758.87	7.365
759.18	4.361
759.50	5.455
759.81	8.361
760.12	7.097
760.43	6.970
760.74	5.864
761.05	5.538
761.36	9.091
761.67	8.485
761.99	7.143
762.30	8.364
762.61	5.138
762.92	6.335
763.23	1.802
763.54	4.673
763.85	7.203
764.16	4.979
764.47	6.048
764.78	4.029
765.10	10.101
765.41	2.208
765.72	6.349
766.03	3.008
766.34	5.474
766.65	8.367
766.96	7.576
767.27	11.170
767.58	1.149
767.89	0.000
768.20	4.545
768.51	3.846
768.82	7.882
769.13	4.147
769.44	6.009
769.75	1.826
770.06	9.052
770.37	2.404
770.68	1.523
770.99	1.810
771.30	4.902
771.61	3.620
771.92	6.897
772.23	8.374
772.54	7.527
772.85	-0.617
773.16	6.180
773.47	10.458
773.78	9.150
774.09	4.192
774.39	3.333
774.70	0.637
775.01	11.724
775.32	0.000
775.63	1.653
775.94	9.160
776.25	3.937
776.56	5.000
776.87	5.769
777.18	3.419
777.48	11.207
777.79	-3.478
778.10	-18.095
778.41	-1.802
778.72	5.556
779.03	2.256
779.34	1.418
779.65	3.425
779.95	-1.370
780.26	4.828
780.57	-7.317
780.88	8.661
781.19	-6.897
781.50	6.977
781.80	4.142
782.11	1.258
782.42	-0.769
782.73	-2.158
783.04	0.000
783.34	4.861
783.65	-10.256
783.96	-5.738
784.27	12.414
784.57	-4.065
784.88	3.906
785.19	4.000
785.50	3.000
785.81	-3.448
786.11	-3.448
786.42	0.971
786.73	8.182
787.04	0.000
787.34	7.143
787.65	0.952
787.96	4.425
788.26	8.182
788.57	9.402
788.88	5.469
789.19	0.000
789.49	0.870
789.80	-2.041
790.11	2.020
790.41	0.000
790.72	10.870
791.03	5.682
791.33	13.750
791.64	5.000
791.95	-5.814
792.25	-1.064
792.56	15.730
792.87	-12.329
793.17	-11.594
793.48	-2.667
793.79	-2.500
794.09	-1.250
794.40	0.943
794.70	-1.942
795.01	-3.252
795.32	4.274
795.62	-1.905
795.93	4.902
796.23	0.943
796.54	5.208
796.85	7.353
797.15	-8.451
797.46	-2.778
797.76	-1.515
798.07	5.814
798.37	5.263
798.68	-18.182
798.99	-8.642
799.29	12.857
799.60	-4.348
799.90	9.333
800.21	0.000
800.51	-1.538
800.82	1.695
801.12	-8.696
801.43	3.279
801.73	-4.762
802.04	-12.000
802.34	-11.940
802.65	15.385
802.95	-5.357
803.26	-5.769
803.56	-5.882
803.87	-52.174
804.17	5.333
804.48	0.000
804.78	-1.852
805.09	-32.609
805.39	-24.444
805.70	7.407
806.00	-33.333
806.30	15.493
806.61	17.143
806.91	-1.389
807.22	5.263
807.52	6.667
807.83	-25.455
808.13	9.722
808.43	-8.824
808.74	-1.493
809.04	-20.339
809.35	3.846
809.65	18.750
809.95	-51.351
810.26	-20.455
810.56	0.000
810.86	4.762
811.17	2.000
811.47	-2.041
811.77	-2.632
812.08	-18.182
812.38	-3.774
812.69	15.000
812.99	-9.091
813.29	-2.632
813.59	-65.714
813.90	2.273
814.20	-15.385
814.50	-9.615
814.81	5.660
815.11	-17.021
815.41	8.475
815.72	-2.381
816.02	-3.922
816.32	-2.083
816.62	-17.073
816.93	-8.108
817.23	2.857
817.53	10.417
817.84	4.348
818.14	1.923
818.44	-23.684
818.74	15.217
819.04	-37.500
819.35	5.405
819.65	-20.588
819.95	0.000
820.25	-9.524
820.56	10.000
820.86	-31.034
821.16	10.000
821.46	-19.149
821.76	-12.500
822.07	-16.279
822.37	-21.622
822.67	-46.875
822.97	7.143
823.27	-39.286
823.57	0.000
823.88	-22.222
824.18	10.714
824.48	-14.706
824.78	-9.677
825.08	-47.826
825.38	-12.121
825.69	-41.667
825.99	5.263
826.29	-22.222
826.59	-66.667
826.89	-95.238
827.19	6.522
827.49	10.000
827.79	-11.429
828.09	-3.571
828.39	-9.091
828.70	5.405
829.00	-53.571
829.30	-33.333
829.60	-10.000
829.90	0.000
830.20	-26.316
830.50	-44.444
830.80	-17.391
831.10	-45.455
831.40	3.030
831.70	67.742
832.00	14.286
832.30	-33.333
832.60	-83.333
832.90	-6.897
833.20	-60.000
833.50	-12.121
833.80	-22.222
834.10	-11.538
834.40	0.000
834.70	-111.111
835.00	-26.316
835.30	15.385
835.60	-86.667
835.90	-9.677
836.20	-31.818
836.50	3.571
836.80	-7.692
837.10	10.714
837.40	-333.333
837.70	-18.182
838.00	-145.455
838.30	0.000
838.60	-100.000
838.90	-13.636
839.19	-25.000
839.49	-16.667
839.79	7.692
840.09	-91.667
840.39	-7.143
840.69	-28.571
840.99	-26.923
841.29	-21.053
841.59	-230.000
841.88	-72.727
842.18	-70.000
842.48	-68.750
842.78	-66.667
843.08	0.000
843.38	-160.000
843.68	4.348
843.97	20.000
844.27	-86.667
844.57	-20.000
844.87	-11.111
845.17	-76.190
845.47	-6.667
845.76	-28.571
846.06	-76.471
846.36	-170.000
846.66	-71.429
846.96	-60.000
847.25	-237.500
847.55	-14.286
847.85	-100.000
848.15	-31.818
848.44	-466.667
848.74	-40.000
849.04	7.407
849.34	0.000
849.63	-166.667
849.93	-300.000
850.23	27.778
850.53	-30.000
850.82	-7.692
851.12	-33.333
851.42	6.667
851.71	-23.077
852.01	-42.857
852.31	-125.000
852.61	-9.091
852.90	-15.000
853.20	0.000
853.50	-116.667
853.79	-4.348
854.09	0.000
854.39	-31.579
854.68	0.000
854.98	-6.452
855.28	-15.385
855.57	-20.000
855.87	-50.000
856.17	11.111
856.46	-28.571
856.76	-6.667
857.05	-88.889
857.35	0.000
857.65	-22.222
857.94	-46.154
858.24	-17.241
858.53	-72.222
858.83	25.926
859.13	45.455
859.42	-47.826
859.72	-150.000
860.01	-433.333
860.31	-24.000
860.60	9.524
860.90	-333.333
861.20	-40.000
861.49	-500.000
861.79	-20.000
862.08	-40.000
862.38	53.333
862.67	-260.000
862.97	-66.667
863.26	-66.667
863.56	-27.778
863.85	-333.333
864.15	44.444
864.44	-50.000
864.74	14.286
865.03	200.000
865.33	-60.000
865.62	0.000
865.92	-8.333
866.21	-233.333
866.51	6.250
866.80	-90.909
867.10	-450.000
867.39	8.333
867.69	0.000
867.98	-23.077
868.27	-366.667
868.57	20.000
868.86	-16.667
869.16	-138.462
869.45	13.333
869.75	-600.000
870.04	0.000
870.33	-114.286
870.63	-4.762
870.92	500.000
871.22	-300.000
871.51	-1800.000
871.80	33.333
872.10	333.333
>>>>>End Processed Spectral Data<<<<<
