SpectraSuite Data File
++++++++++++++++++++++++++++++++++++
Date: Fri May 15 20:37:10 PDT 2015
User: schluterlab
Dark Spectrum Present: Yes
Reference Spectrum Present: Yes
Number of Sampled Component Spectra: 1
Spectrometers: USB2E3373
Integration Time (usec): 3000 (USB2E3373)
Spectra Averaged: 3 (USB2E3373)
Boxcar Smoothing: 0 (USB2E3373)
Correct for Electrical Dark: No (USB2E3373)
Strobe/Lamp Enabled: No (USB2E3373)
Correct for Detector Non-linearity: No (USB2E3373)
Correct for Stray Light: No (USB2E3373)
Number of Pixels in Processed Spectrum: 2048
>>>>>Begin Processed Spectral Data<<<<<
178.53	0.000
178.91	0.000
179.29	75.000
179.67	-550.000
180.04	28.571
180.42	-400.000
180.80	-1300.000
181.18	66.667
181.56	-700.000
181.94	250.000
182.31	1600.000
182.69	20.000
183.07	-133.333
183.45	-60.000
183.83	166.667
184.20	-18.182
184.58	166.667
184.96	-25.000
185.34	-0.000
185.72	-450.000
186.09	38.462
186.47	-800.000
186.85	266.667
187.23	77.778
187.61	-200.000
187.98	-33.333
188.36	-11.111
188.74	-166.667
189.12	-5.882
189.49	27.778
189.87	0.000
190.25	42.857
190.63	0.000
191.00	-233.333
191.38	42.105
191.76	0.000
192.14	325.000
192.51	0.000
192.89	11.111
193.27	-128.571
193.65	183.333
194.02	190.909
194.40	-120.000
194.78	-175.000
195.15	-8.333
195.53	75.000
195.91	300.000
196.29	-350.000
196.66	53.846
197.04	142.857
197.42	-166.667
197.79	-333.333
198.17	-115.385
198.55	800.000
198.92	-466.667
199.30	-200.000
199.68	60.000
200.05	-533.333
200.43	0.000
200.81	-33.333
201.18	-100.000
201.56	1300.000
201.94	-400.000
202.31	100.000
202.69	-160.000
203.07	150.000
203.44	-600.000
203.82	0.000
204.19	-35.714
204.57	-233.333
204.95	125.000
205.32	60.000
205.70	114.286
206.08	75.000
206.45	122.222
206.83	28.571
207.20	-185.714
207.58	-0.000
207.96	-600.000
208.33	-60.000
208.71	25.000
209.08	-166.667
209.46	-300.000
209.84	20.000
210.21	-1200.000
210.59	71.429
210.96	-33.333
211.34	-75.000
211.71	20.000
212.09	42.857
212.46	-600.000
212.84	0.000
213.22	60.000
213.59	300.000
213.97	53.846
214.34	27.273
214.72	-250.000
215.09	350.000
215.47	-30.769
215.84	-81.818
216.22	-400.000
216.59	-12.500
216.97	350.000
217.34	-175.000
217.72	-100.000
218.09	12.500
218.47	150.000
218.84	-900.000
219.22	-55.556
219.59	-160.000
219.97	333.333
220.34	75.000
220.72	-100.000
221.09	-175.000
221.47	100.000
221.84	-500.000
222.22	-850.000
222.59	45.455
222.97	33.333
223.34	0.000
223.72	-28.571
224.09	-28.571
224.46	10.714
224.84	800.000
225.21	10.000
225.59	0.000
225.96	0.000
226.34	425.000
226.71	-185.714
227.08	-266.667
227.46	-87.500
227.83	0.000
228.21	-55.556
228.58	-9.091
228.95	-37.500
229.33	140.000
229.70	-6.250
230.08	-137.500
230.45	28.571
230.82	-14.286
231.20	-20.000
231.57	-7.143
231.95	28.571
232.32	-130.000
232.69	92.857
233.07	-533.333
233.44	80.000
233.81	-60.000
234.19	-33.333
234.56	-47.059
234.93	250.000
235.31	75.000
235.68	-120.000
236.05	-69.231
236.43	-70.000
236.80	-5.882
237.17	-3.125
237.55	-20.000
237.92	-37.037
238.29	2.778
238.67	10.000
239.04	11.765
239.41	-24.390
239.79	10.000
240.16	19.512
240.53	10.526
240.91	-2.174
241.28	7.937
241.65	19.643
242.02	16.438
242.40	-6.667
242.77	6.780
243.14	3.030
243.51	5.000
243.89	10.345
244.26	1.149
244.63	9.524
245.00	15.464
245.38	4.124
245.75	-5.618
246.12	-2.586
246.49	11.570
246.87	6.731
247.24	1.681
247.61	6.140
247.98	11.382
248.36	3.125
248.73	13.158
249.10	1.948
249.47	7.595
249.84	10.458
250.22	8.235
250.59	5.882
250.96	14.554
251.33	9.302
251.70	10.000
252.08	11.675
252.45	10.891
252.82	6.533
253.19	12.903
253.56	5.140
253.94	13.964
254.31	15.652
254.68	13.596
255.05	9.449
255.42	9.170
255.79	10.425
256.16	8.560
256.54	11.194
256.91	9.886
257.28	7.063
257.65	10.487
258.02	10.284
258.39	13.805
258.76	12.821
259.14	11.296
259.51	9.061
259.88	8.935
260.25	8.824
260.62	9.028
260.99	11.525
261.36	7.877
261.73	8.544
262.10	12.766
262.47	7.975
262.85	9.091
263.22	8.615
263.59	10.592
263.96	8.696
264.33	12.121
264.70	8.929
265.07	8.631
265.44	11.048
265.81	9.887
266.18	10.383
266.55	11.054
266.92	12.176
267.29	9.399
267.66	11.509
268.03	8.639
268.40	13.316
268.77	12.032
269.14	13.189
269.51	12.853
269.88	10.224
270.25	10.969
270.62	10.244
270.99	8.184
271.36	5.379
271.73	11.033
272.10	10.949
272.47	12.293
272.84	13.119
273.21	12.993
273.58	10.361
273.95	11.899
274.32	9.238
274.69	8.597
275.06	12.500
275.43	10.204
275.80	9.272
276.17	11.264
276.54	11.349
276.91	9.868
277.28	11.572
277.65	11.777
278.02	11.489
278.39	6.346
278.76	9.853
279.13	6.432
279.50	10.294
279.87	12.527
280.23	8.602
280.60	11.891
280.97	11.515
281.34	10.577
281.71	13.347
282.08	9.407
282.45	9.589
282.82	9.459
283.19	10.251
283.56	10.019
283.92	9.488
284.29	10.962
284.66	9.690
285.03	10.216
285.40	10.208
285.77	10.369
286.14	9.025
286.51	11.255
286.87	9.689
287.24	9.208
287.61	8.289
287.98	11.930
288.35	10.745
288.72	10.858
289.08	9.896
289.45	10.721
289.82	9.091
290.19	8.191
290.56	8.405
290.93	9.596
291.29	7.550
291.66	9.921
292.03	8.612
292.40	7.903
292.77	8.931
293.13	6.818
293.50	8.042
293.87	9.160
294.24	8.346
294.60	8.197
294.97	9.970
295.34	8.282
295.71	8.197
296.08	9.268
296.44	6.259
296.81	7.778
297.18	7.681
297.55	8.537
297.91	8.493
298.28	8.839
298.65	9.634
299.02	7.412
299.38	5.746
299.75	6.483
300.12	7.592
300.48	5.534
300.85	6.971
301.22	7.013
301.59	5.789
301.95	8.861
302.32	8.560
302.69	6.095
303.05	7.550
303.42	7.223
303.79	7.243
304.15	8.602
304.52	7.134
304.89	6.550
305.25	7.143
305.62	6.768
305.99	6.901
306.35	7.399
306.72	6.749
307.09	7.640
307.45	8.037
307.82	7.060
308.19	6.504
308.55	7.306
308.92	8.715
309.29	7.039
309.65	6.889
310.02	7.701
310.38	6.696
310.75	7.213
311.12	7.858
311.48	8.059
311.85	6.911
312.22	7.173
312.58	7.219
312.95	6.937
313.31	6.211
313.68	7.330
314.05	7.245
314.41	7.010
314.78	7.113
315.14	7.708
315.51	8.489
315.87	8.504
316.24	8.999
316.61	7.776
316.97	7.738
317.34	9.082
317.70	7.075
318.07	9.231
318.43	9.020
318.80	8.807
319.16	9.863
319.53	10.066
319.89	8.465
320.26	9.919
320.62	11.133
320.99	11.169
321.35	10.997
321.72	12.669
322.08	11.883
322.45	12.183
322.81	12.181
323.18	12.561
323.54	12.066
323.91	13.145
324.27	13.867
324.64	13.202
325.00	14.507
325.37	15.243
325.73	14.415
326.10	15.804
326.46	16.143
326.83	16.273
327.19	16.303
327.56	16.768
327.92	17.870
328.29	17.589
328.65	17.736
329.01	17.004
329.38	18.525
329.74	16.619
330.11	18.350
330.47	18.275
330.84	18.365
331.20	20.722
331.56	17.963
331.93	19.726
332.29	21.265
332.66	20.090
333.02	21.375
333.38	20.532
333.75	21.062
334.11	19.785
334.48	21.124
334.84	20.696
335.20	21.775
335.57	19.039
335.93	21.319
336.29	20.166
336.66	20.436
337.02	21.190
337.38	20.278
337.75	21.000
338.11	21.821
338.47	21.624
338.84	21.349
339.20	20.841
339.56	22.294
339.93	21.038
340.29	21.651
340.65	22.939
341.02	21.897
341.38	21.593
341.74	21.908
342.11	20.104
342.47	22.420
342.83	22.664
343.20	21.254
343.56	22.174
343.92	22.764
344.28	23.057
344.65	21.675
345.01	22.731
345.37	22.035
345.73	22.594
346.10	22.433
346.46	22.372
346.82	22.504
347.19	21.945
347.55	22.556
347.91	22.168
348.27	21.665
348.63	24.020
349.00	22.642
349.36	23.608
349.72	23.881
350.08	22.213
350.45	22.107
350.81	22.010
351.17	22.476
351.53	22.776
351.89	22.296
352.26	22.080
352.62	23.387
352.98	21.687
353.34	23.430
353.70	24.353
354.07	22.419
354.43	22.498
354.79	23.369
355.15	22.698
355.51	22.706
355.87	24.434
356.24	21.778
356.60	23.525
356.96	24.206
357.32	22.204
357.68	23.143
358.04	22.859
358.40	24.678
358.77	23.285
359.13	24.339
359.49	22.804
359.85	23.323
360.21	24.083
360.57	23.948
360.93	24.811
361.29	23.338
361.66	23.981
362.02	24.545
362.38	25.133
362.74	23.997
363.10	25.056
363.46	24.314
363.82	24.568
364.18	24.576
364.54	24.632
364.90	24.373
365.26	25.400
365.62	25.547
365.98	25.000
366.35	25.419
366.71	25.795
367.07	24.891
367.43	25.809
367.79	25.018
368.15	24.767
368.51	25.710
368.87	25.915
369.23	24.838
369.59	24.927
369.95	25.660
370.31	26.445
370.67	25.970
371.03	25.616
371.39	25.821
371.75	25.641
372.11	25.892
372.47	26.109
372.83	26.757
373.19	26.248
373.55	25.487
373.91	26.566
374.27	27.073
374.63	26.418
374.99	26.667
375.35	26.880
375.71	27.622
376.07	27.247
376.42	26.667
376.78	26.846
377.14	26.676
377.50	27.424
377.86	27.175
378.22	26.994
378.58	26.923
378.94	26.780
379.30	28.260
379.66	27.900
380.02	28.265
380.38	27.024
380.74	27.289
381.09	28.037
381.45	28.135
381.81	27.946
382.17	27.221
382.53	28.795
382.89	28.186
383.25	28.376
383.61	27.683
383.97	29.079
384.32	29.018
384.68	28.978
385.04	28.615
385.40	27.256
385.76	30.252
386.12	29.625
386.48	29.438
386.83	29.296
387.19	29.304
387.55	29.297
387.91	29.829
388.27	29.182
388.62	30.145
388.98	29.036
389.34	29.544
389.70	30.019
390.06	28.634
390.42	29.922
390.77	29.562
391.13	29.256
391.49	29.366
391.85	30.019
392.20	30.446
392.56	29.625
392.92	30.006
393.28	29.717
393.64	29.369
393.99	31.661
394.35	30.424
394.71	30.460
395.07	29.667
395.42	30.115
395.78	31.075
396.14	30.706
396.50	30.945
396.85	30.393
397.21	30.764
397.57	30.596
397.92	30.437
398.28	30.575
398.64	29.157
399.00	30.813
399.35	29.853
399.71	30.615
400.07	30.472
400.42	30.416
400.78	31.108
401.14	30.611
401.49	30.494
401.85	29.677
402.21	30.783
402.57	30.812
402.92	29.423
403.28	31.203
403.63	31.084
403.99	30.230
404.35	30.543
404.70	30.536
405.06	30.082
405.42	30.454
405.77	29.634
406.13	30.442
406.49	30.610
406.84	29.951
407.20	31.066
407.55	29.813
407.91	31.684
408.27	30.274
408.62	30.215
408.98	29.821
409.34	31.599
409.69	31.202
410.05	31.096
410.40	30.309
410.76	32.087
411.11	30.750
411.47	30.901
411.83	30.697
412.18	30.245
412.54	30.212
412.89	29.741
413.25	30.987
413.60	30.870
413.96	30.675
414.31	30.915
414.67	31.174
415.03	31.092
415.38	30.679
415.74	31.205
416.09	31.091
416.45	31.060
416.80	30.205
417.16	30.870
417.51	31.046
417.87	30.834
418.22	31.865
418.58	31.037
418.93	31.097
419.29	30.282
419.64	30.266
420.00	32.053
420.35	31.284
420.71	31.045
421.06	30.878
421.42	30.829
421.77	31.503
422.12	30.647
422.48	30.319
422.83	30.974
423.19	30.982
423.54	30.511
423.90	30.742
424.25	31.228
424.61	31.640
424.96	31.243
425.31	31.947
425.67	32.218
426.02	31.743
426.38	32.123
426.73	31.719
427.09	31.962
427.44	31.118
427.79	31.998
428.15	31.007
428.50	32.405
428.85	30.528
429.21	30.787
429.56	31.482
429.92	31.330
430.27	31.529
430.62	30.005
430.98	30.732
431.33	30.652
431.68	31.188
432.04	31.414
432.39	30.576
432.74	30.367
433.10	31.264
433.45	30.466
433.80	30.934
434.16	30.970
434.51	30.000
434.86	31.185
435.22	31.127
435.57	31.129
435.92	31.437
436.28	30.590
436.63	30.747
436.98	30.823
437.34	31.458
437.69	32.141
438.04	31.111
438.39	30.055
438.75	31.330
439.10	31.522
439.45	32.197
439.81	31.131
440.16	30.760
440.51	31.881
440.86	33.293
441.22	30.826
441.57	31.512
441.92	31.689
442.27	32.151
442.63	31.585
442.98	31.821
443.33	31.497
443.68	30.981
444.03	32.191
444.39	30.841
444.74	32.163
445.09	31.626
445.44	31.054
445.79	32.336
446.15	30.892
446.50	30.948
446.85	31.456
447.20	30.448
447.55	31.194
447.91	31.246
448.26	31.133
448.61	31.434
448.96	31.153
449.31	30.694
449.66	31.243
450.02	31.888
450.37	30.646
450.72	30.813
451.07	32.089
451.42	30.712
451.77	31.947
452.12	30.084
452.47	30.135
452.83	30.742
453.18	30.424
453.53	30.278
453.88	31.208
454.23	30.731
454.58	31.612
454.93	31.637
455.28	30.095
455.63	30.998
455.98	31.690
456.34	31.992
456.69	31.321
457.04	30.813
457.39	32.139
457.74	30.895
458.09	30.018
458.44	30.544
458.79	29.692
459.14	30.778
459.49	31.224
459.84	31.077
460.19	30.825
460.54	30.868
460.89	30.227
461.24	30.186
461.59	30.879
461.94	29.434
462.29	31.423
462.64	31.229
462.99	30.738
463.34	29.555
463.69	30.180
464.04	30.993
464.39	30.564
464.74	30.552
465.09	30.755
465.44	30.237
465.79	29.875
466.14	29.590
466.49	30.017
466.84	29.982
467.19	29.224
467.54	29.757
467.89	30.006
468.24	29.380
468.59	30.667
468.94	30.857
469.29	29.770
469.64	30.622
469.99	30.133
470.34	29.078
470.68	30.574
471.03	30.078
471.38	29.815
471.73	29.972
472.08	29.037
472.43	28.926
472.78	29.130
473.13	29.660
473.48	29.772
473.83	28.643
474.17	29.598
474.52	29.419
474.87	28.545
475.22	29.164
475.57	28.967
475.92	29.402
476.27	29.045
476.61	29.745
476.96	28.946
477.31	28.772
477.66	28.427
478.01	28.692
478.36	28.649
478.70	29.309
479.05	29.231
479.40	28.882
479.75	28.102
480.10	28.367
480.45	28.900
480.79	28.499
481.14	29.406
481.49	28.424
481.84	28.764
482.19	27.222
482.53	28.969
482.88	28.831
483.23	28.263
483.58	28.255
483.92	27.977
484.27	28.122
484.62	27.970
484.97	28.607
485.31	27.673
485.66	27.082
486.01	27.264
486.36	27.258
486.70	27.495
487.05	27.764
487.40	27.585
487.75	27.042
488.09	27.287
488.44	27.063
488.79	26.896
489.13	27.564
489.48	26.764
489.83	26.996
490.17	27.596
490.52	26.467
490.87	26.654
491.22	27.650
491.56	26.945
491.91	27.055
492.26	27.419
492.60	27.351
492.95	26.808
493.30	26.722
493.64	27.112
493.99	27.053
494.34	26.068
494.68	27.429
495.03	25.937
495.37	26.251
495.72	26.704
496.07	26.878
496.41	26.557
496.76	26.485
497.11	25.943
497.45	26.921
497.80	26.690
498.14	26.826
498.49	26.663
498.84	26.148
499.18	27.510
499.53	26.736
499.87	25.730
500.22	26.063
500.56	26.778
500.91	25.904
501.26	25.902
501.60	25.922
501.95	25.813
502.29	25.763
502.64	25.579
502.98	26.591
503.33	25.744
503.67	25.108
504.02	26.882
504.36	27.066
504.71	26.263
505.06	25.566
505.40	25.787
505.75	25.773
506.09	25.342
506.44	25.359
506.78	26.531
507.13	25.750
507.47	24.543
507.82	25.160
508.16	25.409
508.51	25.603
508.85	26.321
509.19	26.131
509.54	25.684
509.88	25.728
510.23	25.713
510.57	25.815
510.92	25.053
511.26	24.550
511.61	25.358
511.95	25.096
512.30	26.164
512.64	25.264
512.98	24.986
513.33	25.909
513.67	24.787
514.02	25.172
514.36	26.400
514.70	26.107
515.05	26.087
515.39	25.384
515.74	26.407
516.08	25.284
516.42	26.148
516.77	25.102
517.11	25.460
517.46	25.494
517.80	25.805
518.14	24.985
518.49	25.060
518.83	25.942
519.17	24.378
519.52	24.748
519.86	25.570
520.20	25.759
520.55	24.015
520.89	25.910
521.23	24.699
521.58	25.615
521.92	26.154
522.26	25.830
522.61	25.130
522.95	25.232
523.29	25.667
523.64	25.985
523.98	25.664
524.32	25.322
524.66	24.392
525.01	25.260
525.35	24.109
525.69	24.579
526.04	25.000
526.38	25.616
526.72	24.133
527.06	25.162
527.41	25.264
527.75	24.263
528.09	24.784
528.43	25.591
528.78	24.752
529.12	24.774
529.46	24.951
529.80	24.256
530.15	25.875
530.49	24.646
530.83	24.213
531.17	23.774
531.51	24.897
531.86	24.949
532.20	24.635
532.54	24.915
532.88	25.188
533.22	24.059
533.57	23.984
533.91	23.956
534.25	24.544
534.59	23.028
534.93	23.851
535.27	23.541
535.62	23.526
535.96	24.136
536.30	24.340
536.64	24.466
536.98	24.042
537.32	24.680
537.66	24.053
538.01	24.685
538.35	24.202
538.69	23.302
539.03	22.967
539.37	24.024
539.71	24.608
540.05	24.236
540.39	24.446
540.73	24.128
541.07	23.964
541.42	24.261
541.76	24.226
542.10	24.019
542.44	24.809
542.78	22.505
543.12	23.832
543.46	24.548
543.80	23.803
544.14	22.096
544.48	23.051
544.82	23.513
545.16	23.907
545.50	24.967
545.84	23.584
546.18	23.759
546.52	24.369
546.86	23.868
547.20	23.891
547.54	22.968
547.88	23.709
548.22	22.682
548.56	22.691
548.90	22.709
549.24	23.072
549.58	23.413
549.92	21.944
550.26	23.590
550.60	22.379
550.94	23.898
551.28	22.952
551.62	24.462
551.96	22.481
552.30	23.099
552.64	22.638
552.98	22.011
553.32	22.611
553.66	22.279
554.00	22.409
554.34	23.486
554.68	22.345
555.02	23.438
555.36	22.438
555.69	22.344
556.03	21.699
556.37	22.064
556.71	22.455
557.05	23.266
557.39	22.305
557.73	22.864
558.07	22.549
558.41	22.741
558.75	21.902
559.08	21.671
559.42	22.937
559.76	22.978
560.10	23.165
560.44	21.891
560.78	22.308
561.12	21.580
561.45	22.558
561.79	23.249
562.13	22.640
562.47	22.230
562.81	22.262
563.15	22.849
563.48	21.853
563.82	22.581
564.16	22.145
564.50	21.554
564.84	21.954
565.17	21.932
565.51	23.361
565.85	22.222
566.19	21.286
566.52	22.185
566.86	22.108
567.20	21.731
567.54	22.384
567.88	21.734
568.21	22.285
568.55	21.576
568.89	22.485
569.23	21.714
569.56	21.322
569.90	22.452
570.24	21.139
570.57	21.455
570.91	21.227
571.25	20.881
571.59	20.741
571.92	20.563
572.26	20.682
572.60	20.372
572.93	20.678
573.27	20.690
573.61	20.734
573.95	21.382
574.28	20.975
574.62	20.036
574.96	20.942
575.29	20.394
575.63	19.979
575.97	19.816
576.30	19.904
576.64	19.735
576.98	20.901
577.31	20.447
577.65	20.780
577.98	21.027
578.32	20.396
578.66	20.675
578.99	20.730
579.33	20.185
579.67	19.960
580.00	20.253
580.34	20.224
580.67	20.054
581.01	20.629
581.35	20.263
581.68	20.508
582.02	20.114
582.35	20.241
582.69	20.082
583.02	20.188
583.36	20.393
583.70	21.002
584.03	20.350
584.37	21.287
584.70	20.440
585.04	19.793
585.37	20.000
585.71	20.217
586.04	20.247
586.38	19.685
586.72	20.172
587.05	20.855
587.39	20.828
587.72	21.077
588.06	20.232
588.39	20.308
588.73	20.513
589.06	20.776
589.40	20.705
589.73	20.409
590.07	20.695
590.40	20.704
590.73	20.881
591.07	20.865
591.40	20.169
591.74	20.724
592.07	21.614
592.41	19.920
592.74	20.430
593.08	20.119
593.41	20.066
593.75	19.333
594.08	19.670
594.41	19.942
594.75	19.656
595.08	20.621
595.42	20.317
595.75	20.466
596.09	20.172
596.42	19.595
596.75	19.938
597.09	20.364
597.42	20.732
597.75	21.026
598.09	20.054
598.42	19.720
598.76	19.863
599.09	20.593
599.42	20.462
599.76	20.128
600.09	20.098
600.42	20.129
600.76	19.205
601.09	19.847
601.42	19.350
601.76	20.246
602.09	19.554
602.42	20.303
602.76	20.119
603.09	19.892
603.42	20.903
603.76	19.758
604.09	20.089
604.42	19.966
604.76	21.362
605.09	19.653
605.42	20.181
605.75	19.746
606.09	19.406
606.42	19.349
606.75	19.740
607.09	20.308
607.42	19.628
607.75	20.027
608.08	19.362
608.42	19.644
608.75	20.482
609.08	19.731
609.41	20.102
609.75	20.161
610.08	20.369
610.41	19.469
610.74	19.064
611.07	20.620
611.41	19.979
611.74	20.362
612.07	20.075
612.40	20.186
612.73	19.209
613.07	19.854
613.40	19.858
613.73	19.586
614.06	19.866
614.39	21.207
614.72	19.384
615.06	19.218
615.39	19.269
615.72	19.268
616.05	19.385
616.38	19.316
616.71	19.633
617.05	20.445
617.38	19.925
617.71	19.560
618.04	19.937
618.37	20.366
618.70	20.330
619.03	21.042
619.36	20.767
619.69	20.243
620.03	20.745
620.36	18.741
620.69	19.843
621.02	20.948
621.35	20.249
621.68	20.408
622.01	20.667
622.34	20.511
622.67	21.688
623.00	20.597
623.33	19.665
623.66	19.372
623.99	19.062
624.32	19.240
624.65	19.398
624.99	19.488
625.32	20.015
625.65	20.817
625.98	20.548
626.31	18.869
626.64	20.624
626.97	19.895
627.30	21.454
627.63	20.017
627.96	20.036
628.29	20.537
628.62	21.239
628.95	21.242
629.28	20.262
629.61	19.840
629.94	20.821
630.26	20.158
630.59	21.228
630.92	20.308
631.25	19.692
631.58	20.374
631.91	19.846
632.24	21.445
632.57	19.773
632.90	19.217
633.23	20.706
633.56	19.647
633.89	20.592
634.22	20.247
634.55	20.076
634.88	20.690
635.20	20.769
635.53	20.400
635.86	18.596
636.19	21.087
636.52	19.260
636.85	18.983
637.18	19.623
637.51	19.623
637.83	19.842
638.16	20.464
638.49	18.937
638.82	20.526
639.15	20.488
639.48	19.945
639.81	22.176
640.13	19.625
640.46	21.720
640.79	20.029
641.12	21.566
641.45	19.970
641.77	21.333
642.10	19.905
642.43	19.614
642.76	18.647
643.09	20.517
643.41	19.903
643.74	18.287
644.07	20.854
644.40	19.932
644.73	20.140
645.05	21.644
645.38	21.869
645.71	18.794
646.04	20.287
646.36	21.631
646.69	20.324
647.02	20.983
647.35	21.642
647.67	21.938
648.00	21.082
648.33	21.160
648.66	18.983
648.98	19.263
649.31	17.355
649.64	19.623
649.96	19.935
650.29	19.761
650.62	20.684
650.94	17.593
651.27	18.063
651.60	21.802
651.92	19.406
652.25	17.584
652.58	18.833
652.90	19.726
653.23	20.672
653.56	17.936
653.88	19.416
654.21	17.688
654.54	20.034
654.86	21.222
655.19	19.298
655.52	19.892
655.84	17.998
656.17	19.748
656.49	27.012
656.82	27.743
657.15	21.121
657.47	15.484
657.80	11.418
658.13	11.101
658.45	16.948
658.78	16.953
659.10	16.723
659.43	16.600
659.75	16.872
660.08	16.897
660.41	17.467
660.73	18.508
661.06	18.891
661.38	19.961
661.71	17.454
662.03	21.030
662.36	20.659
662.68	20.354
663.01	20.961
663.33	18.097
663.66	15.116
663.98	16.512
664.31	20.256
664.63	19.124
664.96	17.174
665.28	18.322
665.61	19.481
665.93	20.435
666.26	18.872
666.58	19.463
666.91	19.059
667.23	19.104
667.56	20.379
667.88	19.424
668.21	19.570
668.53	20.567
668.86	20.047
669.18	18.868
669.50	18.160
669.83	19.535
670.15	20.979
670.48	19.617
670.80	19.816
671.13	19.463
671.45	17.580
671.77	18.670
672.10	20.594
672.42	19.101
672.75	19.538
673.07	21.646
673.39	21.651
673.72	17.751
674.04	18.333
674.37	19.068
674.69	19.914
675.01	20.222
675.34	19.369
675.66	20.370
675.98	18.182
676.31	22.936
676.63	19.715
676.95	17.955
677.28	20.941
677.60	21.446
677.92	18.807
678.25	18.162
678.57	17.749
678.89	18.697
679.22	21.253
679.54	17.269
679.86	17.893
680.18	20.000
680.51	17.235
680.83	17.495
681.15	21.200
681.48	19.877
681.80	17.769
682.12	19.355
682.44	18.828
682.77	20.971
683.09	18.307
683.41	21.364
683.73	19.355
684.06	18.142
684.38	16.989
684.70	21.133
685.02	17.220
685.34	19.368
685.67	18.199
685.99	19.892
686.31	18.053
686.63	16.698
686.96	17.300
687.28	16.162
687.60	17.490
687.92	18.788
688.24	19.355
688.56	17.904
688.89	19.420
689.21	19.778
689.53	18.329
689.85	18.372
690.17	18.527
690.49	19.149
690.82	17.718
691.14	14.524
691.46	17.056
691.78	17.568
692.10	17.849
692.42	17.749
692.74	16.880
693.06	17.568
693.39	16.742
693.71	16.968
694.03	15.935
694.35	19.860
694.67	18.687
694.99	14.883
695.31	15.927
695.63	20.750
695.95	15.152
696.27	18.394
696.59	19.444
696.91	22.409
697.23	16.710
697.56	16.832
697.88	19.140
698.20	18.223
698.52	15.529
698.84	16.746
699.16	17.250
699.48	18.045
699.80	15.385
700.12	18.059
700.44	19.048
700.76	14.244
701.08	19.394
701.40	18.675
701.72	23.148
702.04	15.842
702.36	17.726
702.68	16.817
703.00	20.909
703.32	17.302
703.64	14.689
703.96	20.000
704.28	19.632
704.60	20.000
704.91	16.404
705.23	13.289
705.55	20.141
705.87	18.412
706.19	17.778
706.51	14.433
706.83	19.614
707.15	13.707
707.47	17.647
707.79	13.542
708.11	16.500
708.43	18.750
708.74	18.088
709.06	19.718
709.38	16.208
709.70	18.639
710.02	19.427
710.34	17.647
710.66	13.141
710.98	18.212
711.29	19.672
711.61	14.237
711.93	19.870
712.25	17.182
712.57	16.850
712.89	16.045
713.20	17.647
713.52	16.376
713.84	14.334
714.16	16.151
714.48	18.065
714.80	20.192
715.11	17.629
715.43	12.539
715.75	13.333
716.07	16.944
716.39	17.450
716.70	19.188
717.02	11.450
717.34	15.385
717.66	15.487
717.97	16.087
718.29	18.828
718.61	19.685
718.93	14.729
719.24	15.970
719.56	13.655
719.88	17.526
720.20	16.288
720.51	11.877
720.83	16.216
721.15	17.647
721.46	19.758
721.78	12.648
722.10	14.498
722.42	12.863
722.73	17.551
723.05	20.000
723.37	16.949
723.68	22.072
724.00	19.658
724.32	10.222
724.63	17.727
724.95	18.777
725.27	11.982
725.58	22.034
725.90	15.476
726.22	20.849
726.53	17.966
726.85	17.603
727.16	17.736
727.48	16.194
727.80	15.789
728.11	16.102
728.43	15.686
728.74	11.694
729.06	19.600
729.38	21.805
729.69	13.944
730.01	10.769
730.32	17.537
730.64	17.314
730.96	17.736
731.27	14.667
731.59	14.576
731.90	14.650
732.22	19.874
732.53	17.608
732.85	18.794
733.16	21.549
733.48	17.986
733.80	15.217
734.11	13.220
734.43	19.931
734.74	16.970
735.06	10.749
735.37	17.825
735.69	16.162
736.00	16.376
736.32	11.074
736.63	15.845
736.95	17.406
737.26	14.591
737.58	14.430
737.89	14.652
738.21	14.662
738.52	15.638
738.83	16.594
739.15	13.537
739.46	13.780
739.78	14.286
740.09	12.418
740.41	17.029
740.72	12.598
741.04	17.814
741.35	15.319
741.66	18.483
741.98	15.816
742.29	13.366
742.61	16.754
742.92	5.213
743.23	6.481
743.55	16.290
743.86	9.569
744.18	17.225
744.49	13.830
744.80	15.217
745.12	18.717
745.43	14.634
745.74	16.667
746.06	13.171
746.37	13.613
746.68	18.483
747.00	10.106
747.31	18.408
747.62	17.476
747.94	13.397
748.25	13.366
748.56	15.301
748.88	9.948
749.19	20.745
749.50	12.808
749.82	13.208
750.13	16.514
750.44	16.165
750.75	18.284
751.07	16.788
751.38	14.176
751.69	16.078
752.01	19.767
752.32	16.335
752.63	14.229
752.94	13.362
753.26	20.502
753.57	15.837
753.88	15.487
754.19	8.750
754.51	10.331
754.82	14.170
755.13	18.750
755.44	18.548
755.75	18.750
756.07	16.342
756.38	15.472
756.69	17.625
757.00	13.333
757.31	15.359
757.63	15.854
757.94	15.556
758.25	15.068
758.56	12.766
758.87	14.731
759.18	15.888
759.50	12.000
759.81	16.388
760.12	16.129
760.43	17.273
760.74	12.654
761.05	13.231
761.36	15.625
761.67	20.000
761.99	16.327
762.30	14.545
762.61	18.577
762.92	13.122
763.23	15.315
763.54	13.084
763.85	18.644
764.16	14.938
764.47	17.339
764.78	13.187
765.10	21.886
765.41	12.934
765.72	14.286
766.03	10.526
766.34	16.423
766.65	21.116
766.96	13.131
767.27	18.617
767.58	8.621
767.89	2.837
768.20	15.341
768.51	18.132
768.82	10.837
769.13	17.051
769.44	10.300
769.75	12.329
770.06	14.655
770.37	10.577
770.68	13.198
770.99	13.122
771.30	13.235
771.61	13.122
771.92	17.672
772.23	17.734
772.54	17.742
772.85	8.025
773.16	16.292
773.47	20.261
773.78	14.379
774.09	15.569
774.39	11.333
774.70	11.465
775.01	15.172
775.32	13.571
775.63	10.744
775.94	15.267
776.25	8.661
776.56	10.000
776.87	16.346
777.18	11.966
777.48	6.897
777.79	6.957
778.10	3.810
778.41	3.604
778.72	17.460
779.03	11.278
779.34	17.730
779.65	13.699
779.95	9.589
780.26	13.103
780.57	7.317
780.88	13.386
781.19	9.483
781.50	20.155
781.80	11.243
782.11	10.063
782.42	10.000
782.73	13.669
783.04	11.852
783.34	7.639
783.65	3.419
783.96	5.738
784.27	16.552
784.57	12.195
784.88	13.281
785.19	22.000
785.50	18.000
785.81	13.793
786.11	12.069
786.42	10.680
786.73	18.182
787.04	11.224
787.34	12.500
787.65	8.571
787.96	12.389
788.26	13.636
788.57	6.838
788.88	13.281
789.19	7.143
789.49	6.957
789.80	14.286
790.11	10.101
790.41	8.182
790.72	9.783
791.03	7.955
791.33	16.250
791.64	2.500
791.95	6.977
792.25	12.766
792.56	13.483
792.87	1.370
793.17	1.449
793.48	2.667
793.79	6.250
794.09	16.250
794.40	11.321
794.70	1.942
795.01	8.130
795.32	9.402
795.62	6.667
795.93	5.882
796.23	18.868
796.54	12.500
796.85	8.824
797.15	1.408
797.46	5.556
797.76	18.182
798.07	9.302
798.37	-5.263
798.68	4.545
798.99	23.457
799.29	10.000
799.60	11.594
799.90	17.333
800.21	16.393
800.51	1.538
800.82	8.475
801.12	11.594
801.43	18.033
801.73	9.524
802.04	0.000
802.34	-2.985
802.65	5.769
802.95	3.571
803.26	-1.923
803.56	21.569
803.87	-8.696
804.17	16.000
804.48	22.222
804.78	-9.259
805.09	-8.696
805.39	4.444
805.70	20.370
806.00	-8.772
806.30	5.634
806.61	21.429
806.91	-9.722
807.22	18.421
807.52	26.667
807.83	12.727
808.13	12.500
808.43	16.176
808.74	13.433
809.04	13.559
809.35	-9.615
809.65	9.375
809.95	-16.216
810.26	-13.636
810.56	5.479
810.86	23.810
811.17	-4.000
811.47	-4.082
811.77	-5.263
812.08	6.818
812.38	7.547
812.69	-2.500
812.99	-15.152
813.29	7.895
813.59	-2.857
813.90	2.273
814.20	-30.769
814.50	-7.692
814.81	15.094
815.11	-29.787
815.41	30.508
815.72	19.048
816.02	13.725
816.32	8.333
816.62	-9.756
816.93	-5.405
817.23	2.857
817.53	-14.583
817.84	6.522
818.14	13.462
818.44	5.263
818.74	34.783
819.04	-42.500
819.35	10.811
819.65	5.882
819.95	-2.778
820.25	19.048
820.56	37.500
820.86	-48.276
821.16	17.500
821.46	4.255
821.76	30.000
822.07	6.977
822.37	-16.216
822.67	-34.375
822.97	42.857
823.27	-35.714
823.57	-4.000
823.88	-7.407
824.18	17.857
824.48	17.647
824.78	-19.355
825.08	43.478
825.38	18.182
825.69	-37.500
825.99	5.263
826.29	13.889
826.59	26.667
826.89	0.000
827.19	10.870
827.49	0.000
827.79	0.000
828.09	-10.714
828.39	-15.152
828.70	24.324
829.00	-14.286
829.30	-23.810
829.60	-10.000
829.90	21.875
830.20	7.895
830.50	-48.148
830.80	-26.087
831.10	-27.273
831.40	12.121
831.70	32.258
832.00	4.762
832.30	-23.810
832.60	-66.667
832.90	27.586
833.20	-40.000
833.50	27.273
833.80	-29.630
834.10	-7.692
834.40	9.375
834.70	-122.222
835.00	42.105
835.30	42.308
835.60	-60.000
835.90	6.452
836.20	36.364
836.50	7.143
836.80	-15.385
837.10	-25.000
837.40	-500.000
837.70	13.636
838.00	-72.727
838.30	4.348
838.60	-15.385
838.90	-31.818
839.19	-3.571
839.49	20.000
839.79	-30.769
840.09	-100.000
840.39	25.000
840.69	0.000
840.99	11.538
841.29	-57.895
841.59	-110.000
841.88	-63.636
842.18	-60.000
842.48	-43.750
842.78	-40.000
843.08	22.222
843.38	-70.000
843.68	8.696
843.97	-13.333
844.27	-33.333
844.57	5.000
844.87	0.000
845.17	-47.619
845.47	20.000
845.76	-14.286
846.06	-5.882
846.36	-80.000
846.66	-92.857
846.96	-26.667
847.25	-125.000
847.55	57.143
847.85	0.000
848.15	-4.545
848.44	-500.000
848.74	-10.000
849.04	11.111
849.34	-45.455
849.63	-100.000
849.93	-240.000
850.23	-83.333
850.53	-10.000
850.82	-69.231
851.12	22.222
851.42	-40.000
851.71	15.385
852.01	-57.143
852.31	-400.000
852.61	-36.364
852.90	-20.000
853.20	-68.421
853.50	-33.333
853.79	0.000
854.09	50.000
854.39	21.053
854.68	-29.167
854.98	29.032
855.28	69.231
855.57	-90.000
855.87	33.333
856.17	-3.704
856.46	14.286
856.76	-6.667
857.05	33.333
857.35	24.000
857.65	0.000
857.94	-69.231
858.24	41.379
858.53	22.222
858.83	-22.222
859.13	18.182
859.42	-8.696
859.72	-275.000
860.01	-566.667
860.31	16.000
860.60	-4.762
860.90	-100.000
861.20	26.667
861.49	-750.000
861.79	-20.000
862.08	-40.000
862.38	20.000
862.67	-260.000
862.97	-50.000
863.26	33.333
863.56	33.333
863.85	-200.000
864.15	-5.556
864.44	-50.000
864.74	28.571
865.03	300.000
865.33	-340.000
865.62	33.333
865.92	8.333
866.21	-333.333
866.51	43.750
866.80	-100.000
867.10	-150.000
867.39	25.000
867.69	0.000
867.98	23.077
868.27	-500.000
868.57	0.000
868.86	0.000
869.16	-30.769
869.45	66.667
869.75	-1200.000
870.04	0.000
870.33	-228.571
870.63	-4.762
870.92	400.000
871.22	-200.000
871.51	-400.000
871.80	133.333
872.10	566.667
>>>>>End Processed Spectral Data<<<<<
