SpectraSuite Data File
++++++++++++++++++++++++++++++++++++
Date: Fri May 15 20:27:49 PDT 2015
User: schluterlab
Dark Spectrum Present: Yes
Reference Spectrum Present: Yes
Number of Sampled Component Spectra: 1
Spectrometers: USB2E3373
Integration Time (usec): 3000 (USB2E3373)
Spectra Averaged: 3 (USB2E3373)
Boxcar Smoothing: 0 (USB2E3373)
Correct for Electrical Dark: No (USB2E3373)
Strobe/Lamp Enabled: No (USB2E3373)
Correct for Detector Non-linearity: No (USB2E3373)
Correct for Stray Light: No (USB2E3373)
Number of Pixels in Processed Spectrum: 2048
>>>>>Begin Processed Spectral Data<<<<<
178.53	0.000
178.91	0.000
179.29	87.500
179.67	-650.000
180.04	-0.000
180.42	-25.000
180.80	-300.000
181.18	-0.000
181.56	650.000
181.94	100.000
182.31	300.000
182.69	20.000
183.07	-300.000
183.45	-40.000
183.83	50.000
184.20	-63.636
184.58	133.333
184.96	-50.000
185.34	-33.333
185.72	-300.000
186.09	123.077
186.47	-200.000
186.85	-0.000
187.23	122.222
187.61	-200.000
187.98	-100.000
188.36	77.778
188.74	-166.667
189.12	64.706
189.49	61.111
189.87	0.000
190.25	57.143
190.63	350.000
191.00	-133.333
191.38	15.789
191.76	-100.000
192.14	125.000
192.51	200.000
192.89	100.000
193.27	-142.857
193.65	66.667
194.02	27.273
194.40	40.000
194.78	-62.500
195.15	-50.000
195.53	-50.000
195.91	250.000
196.29	125.000
196.66	100.000
197.04	128.571
197.42	-100.000
197.79	-400.000
198.17	-53.846
198.55	800.000
198.92	-133.333
199.30	400.000
199.68	-140.000
200.05	-300.000
200.43	0.000
200.81	-433.333
201.18	-266.667
201.56	1700.000
201.94	-200.000
202.31	-66.667
202.69	60.000
203.07	200.000
203.44	-100.000
203.82	0.000
204.19	7.143
204.57	-433.333
204.95	100.000
205.32	100.000
205.70	157.143
206.08	50.000
206.45	155.556
206.83	150.000
207.20	-42.857
207.58	-200.000
207.96	-366.667
208.33	-130.000
208.71	-150.000
209.08	-233.333
209.46	-200.000
209.84	-40.000
210.21	-700.000
210.59	-28.571
210.96	166.667
211.34	50.000
211.71	6.667
212.09	-100.000
212.46	-1000.000
212.84	0.000
213.22	90.000
213.59	200.000
213.97	23.077
214.34	-45.455
214.72	-33.333
215.09	325.000
215.47	30.769
215.84	18.182
216.22	33.333
216.59	-25.000
216.97	50.000
217.34	50.000
217.72	-200.000
218.09	-62.500
218.47	162.500
218.84	-400.000
219.22	-33.333
219.59	100.000
219.97	-0.000
220.34	125.000
220.72	142.857
221.09	0.000
221.47	-150.000
221.84	-400.000
222.22	-600.000
222.59	54.545
222.97	-33.333
223.34	-300.000
223.72	-7.143
224.09	0.000
224.46	10.714
224.84	366.667
225.21	-80.000
225.59	46.667
225.96	0.000
226.34	200.000
226.71	-42.857
227.08	-116.667
227.46	0.000
227.83	-500.000
228.21	22.222
228.58	100.000
228.95	-87.500
229.33	10.000
229.70	18.750
230.08	-75.000
230.45	14.286
230.82	-14.286
231.20	-26.667
231.57	57.143
231.95	57.143
232.32	-110.000
232.69	78.571
233.07	-166.667
233.44	60.000
233.81	10.000
234.19	11.111
234.56	58.824
234.93	-50.000
235.31	200.000
235.68	0.000
236.05	61.538
236.43	-10.000
236.80	41.176
237.17	46.875
237.55	55.000
237.92	44.444
238.29	25.000
238.67	40.000
239.04	44.118
239.41	34.146
239.79	50.000
240.16	73.171
240.53	21.053
240.91	23.913
241.28	42.857
241.65	42.857
242.02	52.055
242.40	58.333
242.77	57.627
243.14	31.818
243.51	50.000
243.89	59.770
244.26	39.080
244.63	52.381
245.00	44.330
245.38	43.299
245.75	46.067
246.12	42.241
246.49	46.281
246.87	62.500
247.24	49.580
247.61	50.877
247.98	51.220
248.36	47.500
248.73	47.368
249.10	48.701
249.47	49.367
249.84	47.059
250.22	43.529
250.59	52.941
250.96	50.235
251.33	50.000
251.70	55.294
252.08	45.685
252.45	49.010
252.82	53.769
253.19	52.535
253.56	47.196
253.94	45.946
254.31	55.217
254.68	51.316
255.05	45.669
255.42	52.838
255.79	53.282
256.16	51.751
256.54	52.612
256.91	50.190
257.28	48.699
257.65	50.187
258.02	51.064
258.39	51.178
258.76	57.875
259.14	54.153
259.51	47.573
259.88	51.890
260.25	48.366
260.62	55.208
260.99	53.559
261.36	50.685
261.73	50.949
262.10	50.456
262.47	51.227
262.85	51.411
263.22	52.615
263.59	53.583
263.96	54.969
264.33	51.515
264.70	49.405
265.07	51.786
265.44	53.541
265.81	53.390
266.18	52.459
266.55	50.129
266.92	51.295
267.29	48.825
267.66	48.849
268.03	52.094
268.40	49.086
268.77	54.813
269.14	51.559
269.51	50.129
269.88	49.626
270.25	46.939
270.62	51.463
270.99	50.384
271.36	50.856
271.73	50.000
272.10	53.285
272.47	51.300
272.84	52.475
273.21	50.348
273.58	48.916
273.95	49.199
274.32	51.039
274.69	46.380
275.06	48.437
275.43	50.340
275.80	49.448
276.17	47.356
276.54	47.966
276.91	50.658
277.28	48.035
277.65	51.033
278.02	48.936
278.39	49.672
278.76	47.170
279.13	45.021
279.50	51.681
279.87	51.188
280.23	45.806
280.60	48.538
280.97	48.687
281.34	49.038
281.71	48.665
282.08	48.262
282.45	47.358
282.82	46.718
283.19	48.356
283.56	46.628
283.92	48.577
284.29	48.077
284.66	45.543
285.03	46.758
285.40	44.612
285.77	44.815
286.14	46.029
286.51	50.000
286.87	47.349
287.24	48.066
287.61	46.032
287.98	45.088
288.35	44.887
288.72	46.585
289.08	46.701
289.45	43.058
289.82	43.182
290.19	43.515
290.56	40.823
290.93	41.919
291.29	40.216
291.66	42.677
292.03	42.105
292.40	41.129
292.77	40.510
293.13	40.747
293.50	38.392
293.87	39.695
294.24	40.031
294.60	40.537
294.97	40.476
295.34	40.491
295.71	40.238
296.08	39.462
296.44	36.415
296.81	37.917
297.18	38.261
297.55	38.482
297.91	38.356
298.28	37.731
298.65	35.957
299.02	36.658
299.38	35.978
299.75	37.241
300.12	36.649
300.48	36.891
300.85	35.995
301.22	36.623
301.59	36.184
301.95	36.582
302.32	38.521
302.69	36.070
303.05	35.644
303.42	35.492
303.79	35.514
304.15	36.918
304.52	34.721
304.89	36.374
305.25	35.109
305.62	33.722
305.99	34.737
306.35	36.185
306.72	34.983
307.09	36.260
307.45	36.051
307.82	36.806
308.19	37.398
308.55	35.442
308.92	36.819
309.29	35.978
309.65	35.091
310.02	36.414
310.38	37.102
310.75	36.612
311.12	37.029
311.48	36.373
311.85	37.277
312.22	37.975
312.58	38.323
312.95	36.820
313.31	37.992
313.68	38.953
314.05	38.265
314.41	39.485
314.78	38.969
315.14	38.849
315.51	39.337
315.87	38.934
316.24	39.130
316.61	40.945
316.97	41.270
317.34	41.113
317.70	39.675
318.07	40.577
318.43	42.843
318.80	41.761
319.16	44.238
319.53	43.495
319.89	42.028
320.26	42.206
320.62	44.333
320.99	42.380
321.35	45.735
321.72	45.275
322.08	43.102
322.45	45.381
322.81	44.695
323.18	44.357
323.54	44.788
323.91	45.278
324.27	46.484
324.64	47.097
325.00	46.168
325.37	46.740
325.73	45.422
326.10	47.866
326.46	47.803
326.83	48.119
327.19	48.649
327.56	48.740
327.92	50.176
328.29	46.696
328.65	49.528
329.01	48.897
329.38	49.954
329.74	49.386
330.11	49.490
330.47	49.258
330.84	49.519
331.20	52.852
331.56	49.259
331.93	50.959
332.29	49.679
332.66	49.774
333.02	49.814
333.38	50.687
333.75	49.725
334.11	47.538
334.48	51.224
334.84	51.099
335.20	50.412
335.57	49.955
335.93	50.858
336.29	51.381
336.66	51.589
337.02	50.186
337.38	49.722
337.75	50.818
338.11	51.127
338.47	50.639
338.84	50.277
339.20	50.274
339.56	49.358
339.93	49.955
340.29	50.459
340.65	49.910
341.02	50.532
341.38	49.558
341.74	49.558
342.11	49.220
342.47	49.288
342.83	50.000
343.20	50.610
343.56	51.739
343.92	50.310
344.28	52.263
344.65	50.000
345.01	49.611
345.37	49.285
345.73	50.460
346.10	51.682
346.46	48.192
346.82	49.100
347.19	48.296
347.55	49.708
347.91	49.919
348.27	48.828
348.63	50.085
349.00	49.303
349.36	49.792
349.72	50.663
350.08	48.852
350.45	48.683
350.81	49.917
351.17	48.697
351.53	50.939
351.89	46.821
352.26	48.160
352.62	47.823
352.98	48.755
353.34	49.034
353.70	50.647
354.07	48.790
354.43	48.759
354.79	48.472
355.15	50.000
355.51	49.209
355.87	48.463
356.24	49.674
356.60	47.615
356.96	48.810
357.32	48.243
357.68	48.163
358.04	48.546
358.40	48.392
358.77	49.522
359.13	49.400
359.49	47.535
359.85	49.844
360.21	49.123
360.57	48.279
360.93	48.941
361.29	48.112
361.66	49.060
362.02	49.470
362.38	49.962
362.74	50.643
363.10	48.984
363.46	49.592
363.82	48.084
364.18	48.782
364.54	49.044
364.90	50.538
365.26	48.472
365.62	50.949
365.98	50.513
366.35	50.692
366.71	50.185
367.07	50.145
367.43	49.964
367.79	49.965
368.15	50.179
368.51	51.056
368.87	49.605
369.23	51.625
369.59	50.000
369.95	51.613
370.31	51.951
370.67	51.194
371.03	50.784
371.39	50.255
371.75	51.941
372.11	51.997
372.47	51.997
372.83	52.094
373.19	52.354
373.55	51.913
373.91	51.692
374.27	52.658
374.63	52.692
374.99	52.340
375.35	52.925
375.71	53.007
376.07	52.949
376.42	53.333
376.78	53.758
377.14	53.081
377.50	53.453
377.86	53.882
378.22	53.797
378.58	54.231
378.94	55.325
379.30	55.147
379.66	54.734
380.02	54.445
380.38	54.474
380.74	55.536
381.09	55.276
381.45	54.373
381.81	56.200
382.17	55.964
382.53	56.402
382.89	58.694
383.25	57.996
383.61	57.134
383.97	56.825
384.32	56.348
384.68	57.585
385.04	57.475
385.40	57.934
385.76	58.931
386.12	59.250
386.48	58.812
386.83	58.782
387.19	58.425
387.55	59.097
387.91	59.230
388.27	58.852
388.62	60.793
388.98	59.362
389.34	58.526
389.70	60.597
390.06	60.289
390.42	60.557
390.77	61.413
391.13	59.899
391.49	61.320
391.85	62.443
392.20	61.268
392.56	60.712
392.92	61.773
393.28	61.557
393.64	60.420
393.99	62.571
394.35	62.998
394.71	62.324
395.07	60.779
395.42	61.324
395.78	62.345
396.14	62.295
396.50	63.348
396.85	62.717
397.21	62.657
397.57	62.884
397.92	62.493
398.28	64.483
398.64	62.048
399.00	64.278
399.35	62.302
399.71	62.378
400.07	64.329
400.42	62.607
400.78	64.544
401.14	63.339
401.49	62.656
401.85	63.803
402.21	62.169
402.57	63.250
402.92	62.986
403.28	64.348
403.63	64.691
403.99	63.010
404.35	63.710
404.70	63.095
405.06	62.750
405.42	63.518
405.77	62.870
406.13	63.679
406.49	62.226
406.84	63.264
407.20	63.998
407.55	64.971
407.91	63.703
408.27	63.671
408.62	62.892
408.98	63.463
409.34	63.445
409.69	63.630
410.05	62.623
410.40	63.086
410.76	64.294
411.11	63.937
411.47	64.694
411.83	62.335
412.18	64.286
412.54	61.985
412.89	62.562
413.25	63.899
413.60	63.975
413.96	62.515
414.31	62.622
414.67	62.219
415.03	63.116
415.38	62.924
415.74	63.583
416.09	64.010
416.45	63.808
416.80	63.384
417.16	64.434
417.51	63.358
417.87	63.820
418.22	63.472
418.58	65.151
418.93	63.887
419.29	63.700
419.64	63.448
420.00	65.932
420.35	62.448
420.71	63.730
421.06	63.106
421.42	64.063
421.77	63.353
422.12	63.621
422.48	62.859
422.83	62.761
423.19	63.205
423.54	63.904
423.90	62.367
424.25	63.605
424.61	63.709
424.96	63.821
425.31	64.471
425.67	65.082
426.02	65.253
426.38	65.122
426.73	64.407
427.09	65.000
427.44	64.706
427.79	64.938
428.15	64.078
428.50	63.477
428.85	64.435
429.21	63.214
429.56	64.528
429.92	64.355
430.27	63.609
430.62	64.767
430.98	65.658
431.33	64.984
431.68	64.417
432.04	63.499
432.39	63.833
432.74	63.139
433.10	65.287
433.45	64.098
433.80	63.958
434.16	65.152
434.51	64.892
434.86	66.086
435.22	66.125
435.57	65.627
435.92	64.850
436.28	65.593
436.63	64.518
436.98	64.890
437.34	64.610
437.69	65.534
438.04	64.046
438.39	64.020
438.75	66.363
439.10	64.912
439.45	66.707
439.81	65.749
440.16	67.280
440.51	65.851
440.86	67.492
441.22	66.063
441.57	66.998
441.92	66.632
442.27	68.902
442.63	67.184
442.98	67.490
443.33	65.888
443.68	65.199
444.03	66.617
444.39	65.962
444.74	68.116
445.09	69.154
445.44	67.464
445.79	68.076
446.15	66.355
446.50	66.889
446.85	66.950
447.20	66.997
447.55	67.188
447.91	67.456
448.26	68.469
448.61	66.379
448.96	67.986
449.31	68.150
449.66	68.409
450.02	67.313
450.37	68.168
450.72	67.812
451.07	67.532
451.42	66.417
451.77	66.546
452.12	66.447
452.47	67.675
452.83	67.079
453.18	66.540
453.53	67.762
453.88	67.638
454.23	66.380
454.58	68.577
454.93	67.719
455.28	68.000
455.63	68.444
455.98	69.333
456.34	68.008
456.69	68.996
457.04	68.431
457.39	68.165
457.74	68.561
458.09	67.805
458.44	67.876
458.79	66.667
459.14	68.135
459.49	69.493
459.84	67.569
460.19	68.629
460.54	68.154
460.89	68.636
461.24	66.894
461.59	67.340
461.94	67.421
462.29	67.612
462.64	67.907
462.99	67.976
463.34	67.385
463.69	68.404
464.04	67.736
464.39	67.253
464.74	66.687
465.09	68.434
465.44	66.590
465.79	66.156
466.14	66.363
466.49	66.417
466.84	67.341
467.19	67.647
467.54	67.114
467.89	68.099
468.24	67.032
468.59	68.317
468.94	66.540
469.29	67.148
469.64	66.712
469.99	68.185
470.34	67.782
470.68	67.562
471.03	67.374
471.38	67.404
471.73	66.527
472.08	66.757
472.43	66.846
472.78	65.456
473.13	66.190
473.48	66.775
473.83	65.878
474.17	66.192
474.52	65.475
474.87	65.333
475.22	67.053
475.57	65.669
475.92	65.771
476.27	66.589
476.61	66.782
476.96	64.361
477.31	66.468
477.66	65.281
478.01	66.086
478.36	65.142
478.70	67.754
479.05	65.934
479.40	65.024
479.75	64.651
480.10	65.079
480.45	66.250
480.79	65.710
481.14	65.881
481.49	64.187
481.84	66.651
482.19	65.622
482.53	66.619
482.88	64.391
483.23	65.307
483.58	64.811
483.92	65.295
484.27	64.448
484.62	64.993
484.97	64.303
485.31	64.812
485.66	64.267
486.01	64.781
486.36	65.916
486.70	66.198
487.05	65.959
487.40	64.762
487.75	64.282
488.09	64.431
488.44	64.305
488.79	63.691
489.13	64.143
489.48	63.189
489.83	63.587
490.17	62.876
490.52	64.480
490.87	63.489
491.22	64.327
491.56	62.713
491.91	62.667
492.26	63.977
492.60	64.683
492.95	63.847
493.30	62.384
493.64	63.802
493.99	63.720
494.34	63.204
494.68	64.429
495.03	61.752
495.37	63.248
495.72	63.200
496.07	64.293
496.41	62.406
496.76	63.565
497.11	61.481
497.45	62.816
497.80	63.522
498.14	61.103
498.49	62.671
498.84	62.275
499.18	63.203
499.53	61.855
499.87	62.208
500.22	62.117
500.56	62.279
500.91	60.743
501.26	61.443
501.60	61.928
501.95	63.416
502.29	62.518
502.64	62.114
502.98	61.963
503.33	60.807
503.67	61.398
504.02	61.241
504.36	61.504
504.71	61.061
505.06	60.292
505.40	61.675
505.75	62.268
506.09	60.618
506.44	62.782
506.78	61.378
507.13	60.703
507.47	59.896
507.82	60.951
508.16	60.592
508.51	59.916
508.85	61.643
509.19	60.458
509.54	61.662
509.88	59.223
510.23	60.194
510.57	60.396
510.92	58.582
511.26	60.775
511.61	58.856
511.95	59.507
512.30	59.812
512.64	59.711
512.98	59.966
513.33	58.870
513.67	59.295
514.02	60.126
514.36	59.829
514.70	60.664
515.05	60.400
515.39	59.622
515.74	60.419
516.08	59.594
516.42	60.188
516.77	59.508
517.11	60.059
517.46	59.665
517.80	59.356
518.14	59.032
518.49	57.752
518.83	57.898
519.17	58.217
519.52	59.147
519.86	57.803
520.20	58.141
520.55	58.099
520.89	58.156
521.23	57.441
521.58	58.738
521.92	58.397
522.26	57.645
522.61	59.091
522.95	59.735
523.29	56.607
523.64	56.226
523.98	59.494
524.32	56.637
524.66	57.426
525.01	58.442
525.35	56.384
525.69	56.027
526.04	56.746
526.38	57.328
526.72	55.657
527.06	56.226
527.41	57.718
527.75	55.362
528.09	54.884
528.43	58.744
528.78	57.030
529.12	56.452
529.46	56.010
529.80	55.035
530.15	56.700
530.49	54.815
530.83	56.019
531.17	54.399
531.51	57.045
531.86	55.880
532.20	55.463
532.54	55.480
532.88	56.263
533.22	54.906
533.57	55.767
533.91	55.287
534.25	55.013
534.59	54.779
534.93	54.122
535.27	53.680
535.62	55.412
535.96	55.316
536.30	54.749
536.64	57.202
536.98	54.216
537.32	54.979
537.66	54.839
538.01	53.217
538.35	53.398
538.69	54.128
539.03	53.657
539.37	53.769
539.71	52.215
540.05	53.700
540.39	55.125
540.73	53.487
541.07	54.558
541.42	54.167
541.76	53.407
542.10	53.682
542.44	54.135
542.78	52.512
543.12	52.335
543.46	53.616
543.80	52.949
544.14	51.335
544.48	51.965
544.82	53.042
545.16	52.869
545.50	51.602
545.84	53.329
546.18	53.050
546.52	52.127
546.86	51.977
547.20	52.289
547.54	51.025
547.88	52.989
548.22	50.756
548.56	51.187
548.90	52.089
549.24	51.240
549.58	51.551
549.92	50.107
550.26	51.282
550.60	51.375
550.94	50.411
551.28	52.550
551.62	50.923
551.96	51.579
552.30	50.804
552.64	49.859
552.98	50.141
553.32	50.499
553.66	51.161
554.00	51.752
554.34	51.625
554.68	50.074
555.02	50.893
555.36	51.159
555.69	48.571
556.03	49.179
556.37	48.897
556.71	49.386
557.05	49.515
557.39	48.253
557.73	50.450
558.07	50.830
558.41	49.387
558.75	48.246
559.08	49.251
559.42	48.492
559.76	49.720
560.10	49.847
560.44	48.697
560.78	48.741
561.12	48.872
561.45	50.387
561.79	49.160
562.13	48.687
562.47	48.273
562.81	48.847
563.15	48.237
563.48	49.151
563.82	49.073
564.16	48.677
564.50	47.905
564.84	48.394
565.17	46.680
565.51	49.454
565.85	48.628
566.19	47.414
566.52	49.598
566.86	49.486
567.20	49.315
567.54	49.513
567.88	48.213
568.21	50.226
568.55	48.315
568.89	49.179
569.23	50.072
569.56	48.862
569.90	49.249
570.24	48.716
570.57	48.800
570.91	49.460
571.25	48.043
571.59	48.458
571.92	47.941
572.26	48.158
572.60	47.194
572.93	47.066
573.27	46.959
573.61	47.076
573.95	47.242
574.28	46.637
574.62	47.165
574.96	46.896
575.29	46.820
575.63	45.634
575.97	46.137
576.30	46.612
576.64	46.411
576.98	46.589
577.31	47.358
577.65	46.743
577.98	47.295
578.32	46.966
578.66	45.648
578.99	46.303
579.33	45.541
579.67	45.748
580.00	46.152
580.34	46.269
580.67	46.142
581.01	46.662
581.35	46.059
581.68	46.467
582.02	45.990
582.35	46.871
582.69	46.202
583.02	46.229
583.36	45.564
583.70	46.288
584.03	46.038
584.37	46.273
584.70	45.467
585.04	45.078
585.37	45.430
585.71	45.766
586.04	45.184
586.38	45.319
586.72	45.136
587.05	45.118
587.39	45.876
587.72	46.063
588.06	45.613
588.39	45.258
588.73	45.635
589.06	45.597
589.40	44.832
589.73	44.834
590.07	44.335
590.40	45.201
590.73	45.305
591.07	44.699
591.40	44.435
591.74	44.661
592.07	44.666
592.41	45.009
592.74	43.568
593.08	43.695
593.41	43.822
593.75	44.194
594.08	43.014
594.41	43.413
594.75	43.740
595.08	43.927
595.42	43.835
595.75	44.048
596.09	44.292
596.42	44.150
596.75	44.494
597.09	43.098
597.42	44.173
597.75	43.839
598.09	43.232
598.42	43.005
598.76	43.115
599.09	42.748
599.42	42.630
599.76	42.551
600.09	42.949
600.42	42.343
600.76	42.348
601.09	42.519
601.42	42.499
601.76	43.430
602.09	42.904
602.42	43.345
602.76	42.487
603.09	43.314
603.42	44.356
603.76	42.500
604.09	42.001
604.42	43.063
604.76	42.946
605.09	42.322
605.42	42.032
605.75	42.426
606.09	41.316
606.42	41.952
606.75	42.078
607.09	42.681
607.42	41.471
607.75	41.075
608.08	41.465
608.42	40.704
608.75	42.120
609.08	42.302
609.41	41.980
609.75	41.532
610.08	42.336
610.41	41.401
610.74	41.882
611.07	41.705
611.41	41.775
611.74	42.697
612.07	40.899
612.40	42.341
612.73	40.960
613.07	40.607
613.40	41.466
613.73	40.627
614.06	40.568
614.39	41.173
614.72	40.168
615.06	40.391
615.39	40.011
615.72	40.043
616.05	40.447
616.38	39.601
616.71	40.367
617.05	38.913
617.38	39.598
617.71	40.881
618.04	41.079
618.37	41.299
618.70	41.386
619.03	40.278
619.36	39.725
619.69	41.243
620.03	41.271
620.36	39.413
620.69	39.829
621.02	40.673
621.35	40.996
621.68	38.776
622.01	40.500
622.34	38.947
622.67	38.091
623.00	39.433
623.33	39.329
623.66	39.267
623.99	38.956
624.32	39.316
624.65	38.120
624.99	38.826
625.32	37.983
625.65	39.592
625.98	40.935
626.31	39.152
626.64	39.601
626.97	38.656
627.30	39.317
627.63	38.995
627.96	39.263
628.29	39.870
628.62	38.840
628.95	38.176
629.28	39.113
629.61	37.687
629.94	37.537
630.26	37.352
630.59	40.062
630.92	39.179
631.25	37.333
631.58	38.546
631.91	37.719
632.24	39.450
632.57	38.523
632.90	36.180
633.23	36.000
633.56	37.657
633.89	38.224
634.22	37.160
634.55	36.849
634.88	37.676
635.20	37.436
635.53	37.200
635.86	36.411
636.19	36.093
636.52	36.352
636.85	35.980
637.18	36.478
637.51	36.478
637.83	35.874
638.16	39.427
638.49	35.422
638.82	38.289
639.15	36.364
639.48	37.689
639.81	38.633
640.13	36.075
640.46	38.776
640.79	35.346
641.12	34.417
641.45	36.486
641.77	37.481
642.10	37.125
642.43	35.691
642.76	34.818
643.09	35.541
643.41	35.922
643.74	34.596
644.07	36.453
644.40	35.642
644.73	35.902
645.05	35.906
645.38	36.332
645.71	37.057
646.04	36.984
646.36	36.879
646.69	38.669
647.02	36.484
647.35	35.448
647.67	36.015
648.00	39.366
648.33	34.983
648.66	34.068
648.98	34.841
649.31	35.537
649.64	36.421
649.96	34.198
650.29	36.286
650.62	34.188
650.94	33.889
651.27	33.147
651.60	36.937
651.92	34.615
652.25	33.748
652.58	37.000
652.90	34.820
653.23	34.790
653.56	34.518
653.88	36.254
654.21	32.925
654.54	33.956
654.86	35.484
655.19	34.649
655.52	38.622
655.84	38.183
656.17	41.999
656.49	57.231
656.82	59.429
657.15	45.190
657.47	33.643
657.80	24.872
658.13	24.472
658.45	37.796
658.78	36.763
659.10	36.476
659.43	35.949
659.75	36.704
660.08	34.690
660.41	36.670
660.73	34.254
661.06	36.049
661.38	32.094
661.71	31.622
662.03	35.408
662.36	33.846
662.68	30.752
663.01	33.624
663.33	31.090
663.66	32.326
663.98	30.000
664.31	33.262
664.63	30.645
664.96	32.609
665.28	31.347
665.61	32.684
665.93	34.783
666.26	34.273
666.58	32.438
666.91	34.824
667.23	32.783
667.56	33.175
667.88	33.573
668.21	32.458
668.53	37.116
668.86	31.132
669.18	32.783
669.50	30.751
669.83	31.395
670.15	30.303
670.48	33.014
670.80	30.876
671.13	27.517
671.45	26.256
671.77	31.760
672.10	34.059
672.42	31.461
672.75	31.616
673.07	34.347
673.39	34.495
673.72	31.558
674.04	32.292
674.37	33.263
674.69	32.762
675.01	32.444
675.34	31.532
675.66	34.259
675.98	34.368
676.31	33.486
676.63	31.591
676.95	33.409
677.28	34.118
677.60	34.458
677.92	34.404
678.25	34.354
678.57	32.684
678.89	32.143
679.22	32.662
679.54	32.129
679.86	31.014
680.18	34.369
680.51	32.955
680.83	27.634
681.15	32.800
681.48	31.352
681.80	31.818
682.12	32.056
682.44	32.008
682.77	32.671
683.09	34.554
683.41	30.682
683.73	31.106
684.06	35.177
684.38	32.903
684.70	33.769
685.02	33.402
685.34	30.632
685.67	31.332
685.99	34.177
686.31	34.159
686.63	31.911
686.96	31.559
687.28	29.899
687.60	28.517
687.92	30.909
688.24	31.048
688.56	33.188
688.89	31.920
689.21	34.444
689.53	31.555
689.85	30.465
690.17	32.366
690.49	30.969
690.82	30.825
691.14	31.429
691.46	32.710
691.78	31.757
692.10	33.978
692.42	29.221
692.74	31.410
693.06	33.333
693.39	30.317
693.71	29.412
694.03	27.945
694.35	31.308
694.67	31.818
694.99	29.243
695.31	30.809
695.63	32.500
695.95	29.545
696.27	26.684
696.59	33.056
696.91	32.213
697.23	30.848
697.56	31.188
697.88	31.398
698.20	33.030
698.52	30.588
698.84	28.708
699.16	31.250
699.48	32.331
699.80	30.769
700.12	30.189
700.44	34.174
700.76	29.070
701.08	29.394
701.40	28.012
701.72	34.259
702.04	27.393
702.36	32.776
702.68	31.231
703.00	29.697
703.32	31.085
703.64	25.424
703.96	28.986
704.28	27.607
704.60	32.063
704.91	27.760
705.23	31.561
705.55	30.389
705.87	33.213
706.19	28.148
706.51	32.990
706.83	31.833
707.15	31.464
707.47	31.373
707.79	26.302
708.11	34.000
708.43	30.500
708.74	28.941
709.06	34.085
709.38	30.887
709.70	31.361
710.02	29.618
710.34	35.913
710.66	30.128
710.98	31.457
711.29	30.164
711.61	29.831
711.93	32.573
712.25	33.333
712.57	28.205
712.89	30.597
713.20	32.180
713.52	29.268
713.84	27.645
714.16	28.522
714.48	28.387
714.80	29.487
715.11	29.483
715.43	31.348
715.75	34.000
716.07	30.565
716.39	26.174
716.70	29.520
717.02	25.573
717.34	31.174
717.66	31.416
717.97	32.609
718.29	26.778
718.61	29.528
718.93	27.132
719.24	31.559
719.56	31.727
719.88	28.866
720.20	30.682
720.51	27.203
720.83	30.502
721.15	32.773
721.46	29.435
721.78	26.482
722.10	26.766
722.42	29.046
722.73	31.837
723.05	31.837
723.37	33.475
723.68	33.784
724.00	29.060
724.32	28.889
724.63	31.364
724.95	27.948
725.27	37.788
725.58	28.814
725.90	27.381
726.22	28.185
726.53	30.847
726.85	34.457
727.16	33.208
727.48	23.887
727.80	30.364
728.11	33.051
728.43	28.235
728.74	26.210
729.06	30.800
729.38	33.459
729.69	30.279
730.01	29.615
730.32	27.612
730.64	32.862
730.96	28.302
731.27	29.333
731.59	30.169
731.90	31.529
732.22	31.546
732.53	32.890
732.85	31.560
733.16	35.690
733.48	28.777
733.80	26.812
734.11	26.441
734.43	31.959
734.74	30.909
735.06	29.642
735.37	31.722
735.69	33.333
736.00	27.526
736.32	27.517
736.63	27.817
736.95	33.447
737.26	28.826
737.58	26.174
737.89	31.868
738.21	27.820
738.52	33.333
738.83	30.131
739.15	24.017
739.46	25.984
739.78	27.106
740.09	31.046
740.41	31.522
740.72	28.346
741.04	30.364
741.35	27.234
741.66	27.488
741.98	35.714
742.29	27.723
742.61	27.749
742.92	22.275
743.23	24.074
743.55	24.434
743.86	31.100
744.18	29.187
744.49	24.468
744.80	27.174
745.12	33.690
745.43	21.951
745.74	30.208
746.06	26.829
746.37	31.937
746.68	29.384
747.00	24.468
747.31	31.841
747.62	28.155
747.94	24.402
748.25	30.693
748.56	28.415
748.88	29.843
749.19	25.000
749.50	27.586
749.82	22.170
750.13	27.523
750.44	28.947
750.75	30.970
751.07	32.847
751.38	29.502
751.69	24.706
752.01	28.295
752.32	33.865
752.63	30.040
752.94	26.724
753.26	36.402
753.57	23.529
753.88	33.186
754.19	24.583
754.51	25.620
754.82	29.555
755.13	32.083
755.44	28.226
755.75	33.203
756.07	32.296
756.38	27.547
756.69	29.885
757.00	28.000
757.31	30.065
757.63	28.354
757.94	29.444
758.25	26.849
758.56	26.330
758.87	24.929
759.18	25.857
759.50	27.273
759.81	30.435
760.12	30.645
760.43	30.000
760.74	27.778
761.05	28.000
761.36	28.977
761.67	31.212
761.99	32.653
762.30	28.000
762.61	32.411
762.92	25.792
763.23	28.378
763.54	29.439
763.85	28.390
764.16	25.311
764.47	23.790
764.78	24.908
765.10	31.650
765.41	30.915
765.72	32.063
766.03	24.812
766.34	29.562
766.65	36.255
766.96	27.778
767.27	31.915
767.58	27.586
767.89	25.532
768.20	19.886
768.51	27.473
768.82	25.616
769.13	27.189
769.44	28.326
769.75	26.941
770.06	26.724
770.37	25.481
770.68	29.442
770.99	23.982
771.30	38.725
771.61	27.602
771.92	29.741
772.23	29.064
772.54	34.946
772.85	29.630
773.16	35.955
773.47	32.680
773.78	33.987
774.09	25.749
774.39	24.000
774.70	29.299
775.01	28.276
775.32	28.571
775.63	20.661
775.94	29.008
776.25	24.409
776.56	22.500
776.87	25.000
777.18	26.496
777.48	31.897
777.79	29.565
778.10	20.000
778.41	24.324
778.72	30.952
779.03	30.075
779.34	32.624
779.65	26.027
779.95	16.438
780.26	28.966
780.57	17.073
780.88	23.622
781.19	24.138
781.50	28.682
781.80	28.994
782.11	25.157
782.42	29.231
782.73	21.583
783.04	27.407
783.34	20.833
783.65	17.949
783.96	22.951
784.27	28.276
784.57	21.138
784.88	25.781
785.19	31.000
785.50	25.000
785.81	34.483
786.11	28.448
786.42	21.359
786.73	31.818
787.04	25.510
787.34	32.143
787.65	28.571
787.96	26.549
788.26	29.091
788.57	28.205
788.88	22.656
789.19	22.222
789.49	26.957
789.80	35.714
790.11	32.323
790.41	28.182
790.72	23.913
791.03	28.409
791.33	37.500
791.64	13.750
791.95	17.442
792.25	21.277
792.56	29.213
792.87	9.589
793.17	24.638
793.48	17.333
793.79	33.750
794.09	35.000
794.40	23.585
794.70	19.417
795.01	24.390
795.32	29.915
795.62	27.619
795.93	23.529
796.23	25.472
796.54	36.458
796.85	25.000
797.15	7.042
797.46	40.278
797.76	40.909
798.07	30.233
798.37	23.684
798.68	16.667
798.99	19.753
799.29	28.571
799.60	24.638
799.90	29.333
800.21	22.951
800.51	35.385
800.82	27.119
801.12	27.536
801.43	4.918
801.73	26.984
802.04	14.000
802.34	23.881
802.65	32.692
802.95	19.643
803.26	15.385
803.56	29.412
803.87	-2.174
804.17	20.000
804.48	25.397
804.78	35.185
805.09	15.217
805.39	22.222
805.70	44.444
806.00	8.772
806.30	21.127
806.61	18.571
806.91	18.056
807.22	35.526
807.52	38.667
807.83	5.455
808.13	30.556
808.43	32.353
808.74	31.343
809.04	13.559
809.35	34.615
809.65	23.437
809.95	-5.405
810.26	38.636
810.56	16.438
810.86	7.143
811.17	38.000
811.47	18.367
811.77	0.000
812.08	20.455
812.38	20.755
812.69	27.500
812.99	33.333
813.29	18.421
813.59	-5.714
813.90	18.182
814.20	-5.128
814.50	23.077
814.81	30.189
815.11	2.128
815.41	18.644
815.72	28.571
816.02	23.529
816.32	18.750
816.62	9.756
816.93	18.919
817.23	37.143
817.53	22.917
817.84	23.913
818.14	40.385
818.44	18.421
818.74	56.522
819.04	-17.500
819.35	16.216
819.65	38.235
819.95	13.889
820.25	35.714
820.56	32.500
820.86	-31.034
821.16	55.000
821.46	14.894
821.76	27.500
822.07	30.233
822.37	18.919
822.67	12.500
822.97	30.952
823.27	3.571
823.57	36.000
823.88	11.111
824.18	60.714
824.48	26.471
824.78	22.581
825.08	0.000
825.38	30.303
825.69	-8.333
825.99	15.789
826.29	16.667
826.59	0.000
826.89	-28.571
827.19	23.913
827.49	45.000
827.79	5.714
828.09	50.000
828.39	36.364
828.70	51.351
829.00	0.000
829.30	-19.048
829.60	6.667
829.90	18.750
830.20	13.158
830.50	-18.519
830.80	34.783
831.10	13.636
831.40	45.455
831.70	32.258
832.00	80.952
832.30	-28.571
832.60	25.000
832.90	3.448
833.20	15.000
833.50	30.303
833.80	11.111
834.10	23.077
834.40	-3.125
834.70	-33.333
835.00	15.789
835.30	53.846
835.60	0.000
835.90	35.484
836.20	27.273
836.50	14.286
836.80	-26.923
837.10	14.286
837.40	-133.333
837.70	22.727
838.00	-45.455
838.30	8.696
838.60	-30.769
838.90	18.182
839.19	25.000
839.49	40.000
839.79	0.000
840.09	-50.000
840.39	32.143
840.69	17.857
840.99	-15.385
841.29	-10.526
841.59	-110.000
841.88	0.000
842.18	-30.000
842.48	75.000
842.78	20.000
843.08	22.222
843.38	-120.000
843.68	-4.348
843.97	40.000
844.27	-46.667
844.57	-15.000
844.87	-11.111
845.17	-47.619
845.47	80.000
845.76	-33.333
846.06	47.059
846.36	-120.000
846.66	-7.143
846.96	-20.000
847.25	-87.500
847.55	0.000
847.85	-62.500
848.15	22.727
848.44	-266.667
848.74	-15.000
849.04	74.074
849.34	-18.182
849.63	-150.000
849.93	-100.000
850.23	16.667
850.53	60.000
850.82	-23.077
851.12	-44.444
851.42	-60.000
851.71	-15.385
852.01	-21.429
852.31	-100.000
852.61	0.000
852.90	-45.000
853.20	31.579
853.50	-33.333
853.79	-8.696
854.09	29.167
854.39	31.579
854.68	33.333
854.98	32.258
855.28	19.231
855.57	5.000
855.87	16.667
856.17	33.333
856.46	42.857
856.76	13.333
857.05	0.000
857.35	12.000
857.65	-5.556
857.94	-53.846
858.24	17.241
858.53	77.778
858.83	44.444
859.13	13.636
859.42	-17.391
859.72	-125.000
860.01	-133.333
860.31	28.000
860.60	-28.571
860.90	-33.333
861.20	-73.333
861.49	-550.000
861.79	6.667
862.08	0.000
862.38	60.000
862.67	-180.000
862.97	66.667
863.26	25.000
863.56	50.000
863.85	-166.667
864.15	27.778
864.44	20.000
864.74	50.000
865.03	250.000
865.33	-220.000
865.62	-66.667
865.92	-25.000
866.21	-200.000
866.51	68.750
866.80	9.091
867.10	-400.000
867.39	91.667
867.69	0.000
867.98	53.846
868.27	-400.000
868.57	46.667
868.86	27.778
869.16	-46.154
869.45	66.667
869.75	-2100.000
870.04	0.000
870.33	-114.286
870.63	80.952
870.92	66.667
871.22	-280.000
871.51	-700.000
871.80	66.667
872.10	500.000
>>>>>End Processed Spectral Data<<<<<
