SpectraSuite Data File
++++++++++++++++++++++++++++++++++++
Date: Fri May 15 20:35:28 PDT 2015
User: schluterlab
Dark Spectrum Present: Yes
Reference Spectrum Present: Yes
Number of Sampled Component Spectra: 1
Spectrometers: USB2E3373
Integration Time (usec): 3000 (USB2E3373)
Spectra Averaged: 3 (USB2E3373)
Boxcar Smoothing: 0 (USB2E3373)
Correct for Electrical Dark: No (USB2E3373)
Strobe/Lamp Enabled: No (USB2E3373)
Correct for Detector Non-linearity: No (USB2E3373)
Correct for Stray Light: No (USB2E3373)
Number of Pixels in Processed Spectrum: 2048
>>>>>Begin Processed Spectral Data<<<<<
178.53	0.000
178.91	0.000
179.29	87.500
179.67	-450.000
180.04	57.143
180.42	-175.000
180.80	-600.000
181.18	33.333
181.56	550.000
181.94	-250.000
182.31	700.000
182.69	-340.000
183.07	-200.000
183.45	-180.000
183.83	66.667
184.20	27.273
184.58	166.667
184.96	125.000
185.34	300.000
185.72	-800.000
186.09	115.385
186.47	-1200.000
186.85	83.333
187.23	111.111
187.61	100.000
187.98	-100.000
188.36	-77.778
188.74	-533.333
189.12	11.765
189.49	5.556
189.87	0.000
190.25	14.286
190.63	-350.000
191.00	-100.000
191.38	-21.053
191.76	-50.000
192.14	-25.000
192.51	0.000
192.89	66.667
193.27	-242.857
193.65	216.667
194.02	81.818
194.40	-70.000
194.78	-100.000
195.15	-58.333
195.53	-75.000
195.91	50.000
196.29	-225.000
196.66	92.308
197.04	128.571
197.42	-55.556
197.79	-466.667
198.17	-92.308
198.55	1800.000
198.92	-533.333
199.30	400.000
199.68	-80.000
200.05	-133.333
200.43	0.000
200.81	-133.333
201.18	200.000
201.56	1100.000
201.94	-550.000
202.31	-100.000
202.69	-20.000
203.07	425.000
203.44	200.000
203.82	0.000
204.19	42.857
204.57	-433.333
204.95	137.500
205.32	40.000
205.70	-71.429
206.08	0.000
206.45	155.556
206.83	64.286
207.20	-142.857
207.58	-200.000
207.96	-133.333
208.33	-90.000
208.71	-75.000
209.08	-116.667
209.46	-700.000
209.84	-140.000
210.21	-1500.000
210.59	-71.429
210.96	33.333
211.34	-225.000
211.71	53.333
212.09	-28.571
212.46	-1900.000
212.84	0.000
213.22	20.000
213.59	800.000
213.97	-15.385
214.34	-27.273
214.72	-233.333
215.09	325.000
215.47	15.385
215.84	-127.273
216.22	-300.000
216.59	-50.000
216.97	-450.000
217.34	-350.000
217.72	-320.000
218.09	75.000
218.47	150.000
218.84	-800.000
219.22	-44.444
219.59	-20.000
219.97	700.000
220.34	-50.000
220.72	-71.429
221.09	-150.000
221.47	50.000
221.84	-1000.000
222.22	-650.000
222.59	-154.545
222.97	41.667
223.34	-66.667
223.72	-57.143
224.09	-19.048
224.46	0.000
224.84	466.667
225.21	-80.000
225.59	26.667
225.96	-300.000
226.34	375.000
226.71	-57.143
227.08	-66.667
227.46	25.000
227.83	-550.000
228.21	0.000
228.58	9.091
228.95	0.000
229.33	110.000
229.70	-43.750
230.08	-112.500
230.45	-185.714
230.82	-100.000
231.20	0.000
231.57	7.143
231.95	-71.429
232.32	-90.000
232.69	14.286
233.07	-33.333
233.44	-280.000
233.81	-90.000
234.19	0.000
234.56	-70.588
234.93	350.000
235.31	75.000
235.68	-160.000
236.05	-69.231
236.43	-30.000
236.80	-11.765
237.17	-9.375
237.55	-35.000
237.92	-18.519
238.29	-19.444
238.67	26.667
239.04	2.941
239.41	-14.634
239.79	6.667
240.16	21.951
240.53	-10.526
240.91	0.000
241.28	12.698
241.65	5.357
242.02	19.178
242.40	0.000
242.77	5.085
243.14	12.121
243.51	15.000
243.89	18.391
244.26	19.540
244.63	13.095
245.00	20.619
245.38	20.619
245.75	12.360
246.12	7.759
246.49	16.529
246.87	10.577
247.24	14.286
247.61	4.386
247.98	8.943
248.36	14.375
248.73	20.395
249.10	14.935
249.47	15.190
249.84	13.072
250.22	14.118
250.59	15.033
250.96	23.005
251.33	8.721
251.70	14.706
252.08	15.736
252.45	16.832
252.82	17.085
253.19	17.972
253.56	13.084
253.94	15.766
254.31	17.826
254.68	17.105
255.05	15.748
255.42	19.214
255.79	20.849
256.16	17.510
256.54	20.149
256.91	18.251
257.28	17.844
257.65	16.105
258.02	13.121
258.39	19.529
258.76	19.780
259.14	19.269
259.51	16.505
259.88	18.557
260.25	19.281
260.62	20.139
260.99	15.254
261.36	13.356
261.73	18.671
262.10	20.973
262.47	18.405
262.85	17.241
263.22	21.231
263.59	21.184
263.96	18.012
264.33	19.394
264.70	17.857
265.07	14.881
265.44	20.680
265.81	20.621
266.18	21.858
266.55	19.280
266.92	17.617
267.29	18.538
267.66	16.113
268.03	18.063
268.40	20.888
268.77	20.856
269.14	21.343
269.51	18.766
269.88	15.461
270.25	16.582
270.62	17.073
270.99	17.647
271.36	16.870
271.73	19.484
272.10	18.491
272.47	18.440
272.84	17.327
273.21	17.865
273.58	17.831
273.95	19.908
274.32	18.014
274.69	15.611
275.06	19.196
275.43	17.914
275.80	17.219
276.17	16.782
276.54	15.418
276.91	16.886
277.28	17.249
277.65	18.595
278.02	18.298
278.39	17.287
278.76	19.497
279.13	15.353
279.50	17.017
279.87	17.495
280.23	16.129
280.60	19.493
280.97	17.576
281.34	16.346
281.71	19.302
282.08	18.200
282.45	17.221
282.82	15.830
283.19	16.634
283.56	16.185
283.92	15.750
284.29	16.731
284.66	16.667
285.03	15.521
285.40	17.391
285.77	15.114
286.14	16.426
286.51	18.266
286.87	15.356
287.24	15.654
287.61	16.226
287.98	15.965
288.35	16.811
288.72	17.863
289.08	17.535
289.45	16.169
289.82	15.559
290.19	14.846
290.56	14.408
290.93	14.478
291.29	16.795
291.66	16.850
292.03	15.789
292.40	15.323
292.77	15.949
293.13	14.773
293.50	14.719
293.87	14.656
294.24	16.074
294.60	14.158
294.97	14.732
295.34	14.571
295.71	14.307
296.08	14.948
296.44	14.083
296.81	15.694
297.18	14.203
297.55	16.531
297.91	13.425
298.28	15.831
298.65	13.976
299.02	13.747
299.38	12.722
299.75	14.621
300.12	14.005
300.48	12.385
300.85	13.181
301.22	14.026
301.59	13.158
301.95	15.316
302.32	15.305
302.69	15.050
303.05	13.243
303.42	13.948
303.79	14.369
304.15	14.337
304.52	13.674
304.89	14.854
305.25	14.407
305.62	12.952
305.99	13.801
306.35	12.832
306.72	12.711
307.09	15.051
307.45	14.925
307.82	12.731
308.19	14.053
308.55	13.086
308.92	15.359
309.29	13.184
309.65	14.532
310.02	14.961
310.38	13.721
310.75	15.082
311.12	13.886
311.48	14.316
311.85	15.602
312.22	13.608
312.58	14.544
312.95	13.981
313.31	15.321
313.68	13.927
314.05	15.102
314.41	16.082
314.78	15.258
315.14	15.725
315.51	15.528
315.87	15.881
316.24	17.695
316.61	14.862
316.97	17.361
317.34	16.699
317.70	15.201
318.07	15.577
318.43	15.980
318.80	17.045
319.16	16.895
319.53	18.044
319.89	17.126
320.26	17.713
320.62	19.258
320.99	16.493
321.35	16.752
321.72	17.445
322.08	18.731
322.45	18.477
322.81	17.878
323.18	17.959
323.54	17.954
323.91	18.598
324.27	18.066
324.64	18.633
325.00	18.887
325.37	19.467
325.73	16.500
326.10	19.255
326.46	19.372
326.83	19.335
327.19	19.180
327.56	18.506
327.92	19.894
328.29	19.018
328.65	21.321
329.01	19.210
329.38	19.816
329.74	18.980
330.11	19.092
330.47	18.275
330.84	18.365
331.20	20.437
331.56	19.630
331.93	20.091
332.29	18.973
332.66	19.367
333.02	19.796
333.38	19.707
333.75	20.788
334.11	18.353
334.48	20.036
334.84	19.505
335.20	19.579
335.57	18.132
335.93	19.693
336.29	19.245
336.66	18.256
337.02	19.517
337.38	17.778
337.75	18.455
338.11	19.387
338.47	19.161
338.84	19.501
339.20	18.921
339.56	19.083
339.93	19.248
340.29	19.174
340.65	19.086
341.02	18.085
341.38	18.850
341.74	17.049
342.11	17.851
342.47	18.950
342.83	18.772
343.20	17.944
343.56	17.826
343.92	18.955
344.28	19.385
344.65	18.394
345.01	19.015
345.37	18.755
345.73	18.243
346.10	19.327
346.46	18.671
346.82	17.676
347.19	16.958
347.55	18.212
347.91	18.285
348.27	18.189
348.63	18.739
349.00	17.719
349.36	17.207
349.72	18.574
350.08	18.443
350.45	18.994
350.81	17.691
351.17	18.322
351.53	19.102
351.89	17.589
352.26	18.320
352.62	18.548
352.98	18.233
353.34	19.002
353.70	18.366
354.07	17.339
354.43	17.374
354.79	18.084
355.15	19.286
355.51	18.671
355.87	18.366
356.24	16.803
356.60	17.785
356.96	18.254
357.32	17.891
357.68	17.826
358.04	17.528
358.40	18.489
358.77	18.341
359.13	17.934
359.49	17.411
359.85	17.161
360.21	17.943
360.57	17.904
360.93	18.381
361.29	17.372
361.66	18.652
362.02	18.182
362.38	17.822
362.74	17.411
363.10	19.037
363.46	17.494
363.82	18.182
364.18	18.229
364.54	16.985
364.90	17.634
365.26	18.195
365.62	20.000
365.98	17.889
366.35	18.135
366.71	17.960
367.07	18.433
367.43	18.116
367.79	17.668
368.15	18.234
368.51	17.553
368.87	18.162
369.23	17.329
369.59	18.149
369.95	18.988
370.31	17.919
370.67	17.985
371.03	17.999
371.39	18.381
371.75	18.168
372.11	18.474
372.47	18.861
372.83	18.595
373.19	18.545
373.55	17.690
373.91	17.855
374.27	18.001
374.63	19.024
374.99	17.730
375.35	18.942
375.71	18.531
376.07	18.329
376.42	18.980
376.78	18.456
377.14	18.483
377.50	18.526
377.86	18.340
378.22	18.571
378.58	17.949
378.94	18.652
379.30	18.590
379.66	19.185
380.02	19.681
380.38	19.355
380.74	18.731
381.09	19.509
381.45	18.226
381.81	19.062
382.17	19.416
382.53	18.926
382.89	18.707
383.25	20.162
383.61	19.817
383.97	19.619
384.32	19.700
384.68	18.390
385.04	18.750
385.40	18.295
385.76	20.126
386.12	19.405
386.48	20.179
386.83	20.228
387.19	19.902
387.55	19.448
387.91	19.804
388.27	20.330
388.62	19.887
388.98	19.460
389.34	19.925
389.70	21.193
390.06	19.069
390.42	19.560
390.77	20.078
391.13	19.105
391.49	20.181
391.85	19.948
392.20	19.586
392.56	20.025
392.92	20.611
393.28	21.108
393.64	20.541
393.99	21.129
394.35	19.798
394.71	20.945
395.07	20.679
395.42	19.794
395.78	21.107
396.14	21.375
396.50	20.799
396.85	21.314
397.21	20.927
397.57	20.815
397.92	21.031
398.28	21.494
398.64	20.723
399.00	21.727
399.35	20.767
399.71	21.539
400.07	21.705
400.42	22.032
400.78	21.555
401.14	22.263
401.49	22.513
401.85	21.816
402.21	21.627
402.57	21.812
402.92	20.891
403.28	21.617
403.63	21.375
403.99	22.449
404.35	22.923
404.70	21.548
405.06	23.149
405.42	22.561
405.77	21.209
406.13	22.759
406.49	22.262
406.84	22.127
407.20	22.517
407.55	21.636
407.91	23.329
408.27	23.263
408.62	23.323
408.98	23.105
409.34	23.544
409.69	23.256
410.05	22.167
410.40	23.086
410.76	23.643
411.11	23.500
411.47	24.984
411.83	23.917
412.18	23.230
412.54	23.346
412.89	23.522
413.25	24.128
413.60	23.354
413.96	23.436
414.31	23.902
414.67	23.348
415.03	23.635
415.38	23.695
415.74	24.300
416.09	24.233
416.45	24.240
416.80	24.389
417.16	24.655
417.51	24.517
417.87	25.098
418.22	25.000
418.58	24.883
418.93	24.765
419.29	24.136
419.64	23.979
420.00	25.441
420.35	24.716
420.71	25.942
421.06	24.739
421.42	25.721
421.77	26.012
422.12	24.801
422.48	25.122
422.83	24.710
423.19	25.564
423.54	25.162
423.90	25.501
424.25	25.775
424.61	25.949
424.96	26.016
425.31	26.979
425.67	26.467
426.02	27.444
426.38	25.924
426.73	25.969
427.09	27.278
427.44	25.647
427.79	26.812
428.15	26.881
428.50	27.196
428.85	26.044
429.21	26.429
429.56	26.846
429.92	25.835
430.27	26.165
430.62	26.555
430.98	26.274
431.33	27.445
431.68	26.897
432.04	26.439
432.39	25.499
432.74	26.158
433.10	27.356
433.45	26.822
433.80	26.291
434.16	26.260
434.51	28.011
434.86	26.713
435.22	27.370
435.57	27.573
435.92	26.886
436.28	27.013
436.63	26.127
436.98	27.404
437.34	26.860
437.69	27.251
438.04	27.749
438.39	27.245
438.75	27.444
439.10	28.014
439.45	27.450
439.81	26.483
440.16	27.613
440.51	28.537
440.86	29.184
441.22	28.054
441.57	27.594
441.92	28.332
442.27	28.437
442.63	27.944
442.98	27.743
443.33	26.600
443.68	27.798
444.03	28.664
444.39	27.693
444.74	27.703
445.09	28.619
445.44	28.034
445.79	29.190
446.15	28.029
446.50	27.732
446.85	27.843
447.20	27.894
447.55	29.576
447.91	28.257
448.26	28.913
448.61	28.325
448.96	28.514
449.31	29.306
449.66	29.152
450.02	28.009
450.37	29.283
450.72	27.721
451.07	29.873
451.42	28.839
451.77	28.993
452.12	27.811
452.47	27.109
452.83	28.916
453.18	27.830
453.53	29.140
453.88	28.233
454.23	28.826
454.58	29.408
454.93	29.124
455.28	27.810
455.63	29.572
455.98	28.984
456.34	28.416
456.69	28.780
457.04	29.301
457.39	29.951
457.74	28.658
458.09	28.016
458.44	28.730
458.79	28.067
459.14	29.748
459.49	28.478
459.84	28.765
460.19	29.066
460.54	30.196
460.89	29.773
461.24	29.068
461.59	29.038
461.94	28.428
462.29	29.252
462.64	29.767
462.99	29.045
463.34	29.346
463.69	28.057
464.04	28.692
464.39	28.987
464.74	28.466
465.09	28.509
465.44	29.660
465.79	28.515
466.14	29.761
466.49	28.810
466.84	29.685
467.19	29.850
467.54	29.055
467.89	29.311
468.24	29.805
468.59	29.460
468.94	28.825
469.29	29.180
469.64	30.280
469.99	29.783
470.34	29.078
470.68	30.052
471.03	30.715
471.38	28.245
471.73	29.342
472.08	29.647
472.43	29.597
472.78	29.267
473.13	29.252
473.48	28.664
473.83	29.577
474.17	29.663
474.52	29.355
474.87	29.697
475.22	29.652
475.57	28.571
475.92	29.402
476.27	29.919
476.61	29.514
476.96	28.277
477.31	29.529
477.66	29.494
478.01	29.366
478.36	29.357
478.70	30.451
479.05	29.560
479.40	30.525
479.75	29.145
480.10	29.852
480.45	29.400
480.79	29.708
481.14	29.918
481.49	28.571
481.84	28.909
482.19	28.906
482.53	30.504
482.88	29.690
483.23	29.607
483.58	29.575
483.92	28.606
484.27	29.717
484.62	29.538
484.97	28.980
485.31	28.793
485.66	27.539
486.01	27.657
486.36	27.692
486.70	28.432
487.05	29.037
487.40	28.749
487.75	28.592
488.09	29.141
488.44	29.298
488.79	29.287
489.13	30.088
489.48	29.286
489.83	29.596
490.17	29.348
490.52	29.192
490.87	29.570
491.22	29.608
491.56	29.317
491.91	29.350
492.26	30.433
492.60	29.894
492.95	29.956
493.30	29.507
493.64	29.617
493.99	30.242
494.34	28.544
494.68	29.333
495.03	29.100
495.37	28.852
495.72	29.833
496.07	29.756
496.41	29.434
496.76	29.203
497.11	28.225
497.45	29.737
497.80	30.272
498.14	29.459
498.49	30.168
498.84	28.493
499.18	29.970
499.53	30.456
499.87	28.988
500.22	29.575
500.56	30.560
500.91	29.418
501.26	29.362
501.60	28.972
501.95	29.549
502.29	28.862
502.64	30.792
502.98	30.291
503.33	29.443
503.67	29.880
504.02	30.254
504.36	30.035
504.71	29.343
505.06	29.492
505.40	29.137
505.75	29.845
506.09	29.904
506.44	30.647
506.78	30.510
507.13	30.662
507.47	29.765
507.82	30.128
508.16	30.269
508.51	30.640
508.85	30.089
509.19	30.122
509.54	30.456
509.88	29.935
510.23	29.693
510.57	30.679
510.92	29.051
511.26	30.660
511.61	30.308
511.95	31.671
512.30	29.933
512.64	30.607
512.98	31.106
513.33	30.554
513.67	30.529
514.02	31.522
514.36	31.029
514.70	31.177
515.05	31.845
515.39	31.818
515.74	32.455
516.08	32.038
516.42	31.920
516.77	31.188
517.11	31.454
517.46	31.598
517.80	31.347
518.14	31.476
518.49	31.430
518.83	31.896
519.17	31.474
519.52	31.439
519.86	31.212
520.20	31.409
520.55	30.582
520.89	31.556
521.23	32.172
521.58	32.240
521.92	31.282
522.26	32.271
522.61	32.792
522.95	33.775
523.29	32.211
523.64	32.465
523.98	32.728
524.32	31.701
524.66	33.483
525.01	32.532
525.35	32.923
525.69	33.064
526.04	31.481
526.38	33.398
526.72	31.982
527.06	31.971
527.41	32.586
527.75	32.507
528.09	32.757
528.43	33.828
528.78	33.003
529.12	33.548
529.46	32.164
529.80	31.729
530.15	33.069
530.49	33.199
530.83	33.311
531.17	31.632
531.51	33.789
531.86	32.087
532.20	33.264
532.54	33.696
532.88	33.128
533.22	32.863
533.57	32.700
533.91	32.768
534.25	33.464
534.59	32.200
534.93	32.159
535.27	31.726
535.62	32.664
535.96	33.464
536.30	32.982
536.64	33.977
536.98	32.822
537.32	34.353
537.66	34.572
538.01	33.217
538.35	33.010
538.69	33.489
539.03	31.989
539.37	32.436
539.71	32.788
540.05	33.062
540.39	33.449
540.73	33.891
541.07	33.218
541.42	33.804
541.76	32.485
542.10	31.865
542.44	33.495
542.78	31.521
543.12	33.585
543.46	33.658
543.80	33.588
544.14	31.175
544.48	31.712
544.82	32.673
545.16	32.923
545.50	32.777
545.84	32.295
546.18	32.979
546.52	32.660
546.86	33.357
547.20	32.976
547.54	31.802
547.88	32.201
548.22	31.032
548.56	31.530
548.90	34.030
549.24	31.887
549.58	33.427
549.92	33.024
550.26	33.773
550.60	32.268
550.94	33.831
551.28	33.153
551.62	32.385
551.96	32.331
552.30	32.529
552.64	32.440
552.98	31.857
553.32	32.240
553.66	32.438
554.00	32.847
554.34	33.826
554.68	32.301
555.02	33.705
555.36	32.536
555.69	32.454
556.03	32.834
556.37	33.025
556.71	33.646
557.05	32.886
557.39	31.896
557.73	32.909
558.07	33.710
558.41	32.695
558.75	33.905
559.08	31.678
559.42	32.937
559.76	34.107
560.10	33.257
560.44	32.762
560.78	32.448
561.12	33.568
561.45	31.834
561.79	32.353
562.13	32.789
562.47	32.158
562.81	32.349
563.15	32.652
563.48	32.885
563.82	32.807
564.16	31.755
564.50	31.824
564.84	32.530
565.17	32.797
565.51	32.855
565.85	32.785
566.19	32.493
566.52	32.574
566.86	31.748
567.20	31.756
567.54	32.117
567.88	32.045
568.21	32.410
568.55	31.033
568.89	30.595
569.23	30.380
569.56	30.254
569.90	30.126
570.24	29.847
570.57	30.509
570.91	29.871
571.25	29.891
571.59	29.243
571.92	28.119
572.26	29.408
572.60	29.240
572.93	29.401
573.27	28.777
573.61	29.773
573.95	29.055
574.28	28.787
574.62	28.452
574.96	28.472
575.29	28.597
575.63	27.520
575.97	28.355
576.30	28.507
576.64	28.185
576.98	28.494
577.31	28.754
577.65	28.349
577.98	28.276
578.32	27.904
578.66	27.789
578.99	27.726
579.33	28.279
579.67	28.615
580.00	27.949
580.34	28.532
580.67	28.165
581.01	28.266
581.35	27.239
581.68	27.475
582.02	27.491
582.35	27.205
582.69	27.776
583.02	28.263
583.36	28.673
583.70	28.764
584.03	29.052
584.37	29.334
584.70	28.297
585.04	28.005
585.37	28.428
585.71	27.993
586.04	28.114
586.38	27.981
586.72	27.805
587.05	28.538
587.39	28.124
587.72	29.005
588.06	28.370
588.39	28.340
588.73	28.571
589.06	28.963
589.40	29.520
589.73	29.390
590.07	29.758
590.40	28.638
590.73	29.901
591.07	29.050
591.40	29.341
591.74	30.498
592.07	29.592
592.41	29.947
592.74	28.753
593.08	28.117
593.41	28.105
593.75	27.870
594.08	28.150
594.41	28.675
594.75	28.053
595.08	27.961
595.42	28.156
595.75	29.253
596.09	29.046
596.42	28.938
596.75	29.574
597.09	29.294
597.42	28.907
597.75	29.272
598.09	28.339
598.42	28.791
598.76	28.743
599.09	27.123
599.42	27.662
599.76	28.029
600.09	27.526
600.42	27.862
600.76	28.009
601.09	27.328
601.42	28.045
601.76	27.709
602.09	28.135
602.42	28.770
602.76	28.693
603.09	29.070
603.42	28.972
603.76	27.540
604.09	28.109
604.42	28.130
604.76	29.417
605.09	29.388
605.42	28.126
605.75	27.933
606.09	28.153
606.42	27.731
606.75	28.788
607.09	28.967
607.42	28.002
607.75	27.265
608.08	27.493
608.42	28.141
608.75	28.675
609.08	28.450
609.41	28.173
609.75	28.579
610.08	28.557
610.41	27.874
610.74	28.620
611.07	28.941
611.41	28.853
611.74	28.571
612.07	28.158
612.40	28.775
612.73	28.362
613.07	29.134
613.40	27.845
613.73	28.651
614.06	28.993
614.39	28.539
614.72	28.852
615.06	28.659
615.39	28.057
615.72	28.041
616.05	28.827
616.38	27.236
616.71	28.073
617.05	29.216
617.38	28.975
617.71	29.434
618.04	29.841
618.37	30.265
618.70	29.175
619.03	30.833
619.36	29.305
619.69	30.781
620.03	31.045
620.36	28.898
620.69	29.979
621.02	31.116
621.35	31.784
621.68	30.697
622.01	30.083
622.34	29.769
622.67	30.126
623.00	28.867
623.33	29.116
623.66	29.619
623.99	28.744
624.32	30.190
624.65	27.068
624.99	28.969
625.32	28.886
625.65	30.008
625.98	30.701
626.31	29.426
626.64	30.936
626.97	31.152
627.30	30.560
627.63	30.763
627.96	30.548
628.29	32.100
628.62	30.580
628.95	29.259
629.28	29.536
629.61	29.910
629.94	30.205
630.26	31.818
630.59	32.050
630.92	32.205
631.25	30.359
631.58	32.599
631.91	31.250
632.24	31.881
632.57	31.932
632.90	32.147
633.23	30.588
633.56	32.242
633.89	31.196
634.22	32.099
634.55	32.783
634.88	32.056
635.20	29.744
635.53	34.133
635.86	31.209
636.19	32.859
636.52	31.760
636.85	31.390
637.18	30.818
637.51	32.201
637.83	29.829
638.16	32.469
638.49	31.063
638.82	32.237
639.15	32.429
639.48	33.700
639.81	32.218
640.13	31.602
640.46	32.945
640.79	31.664
641.12	33.826
641.45	32.282
641.77	32.296
642.10	34.281
642.43	33.762
642.76	31.518
643.09	33.926
643.41	30.583
643.74	31.466
644.07	34.647
644.40	34.459
644.73	34.676
645.05	33.389
645.38	35.626
645.71	33.688
646.04	35.907
646.36	31.915
646.69	35.971
647.02	35.350
647.35	32.649
647.67	33.455
648.00	33.209
648.33	32.423
648.66	30.508
648.98	31.658
649.31	32.066
649.64	32.339
649.96	30.794
650.29	30.494
650.62	31.111
650.94	31.481
651.27	29.981
651.60	29.369
651.92	33.042
652.25	31.439
652.58	32.500
652.90	33.105
653.23	32.269
653.56	28.596
653.88	31.959
654.21	30.998
654.54	30.900
654.86	32.258
655.19	28.216
655.52	27.864
655.84	23.480
656.17	25.436
656.49	34.567
656.82	36.550
657.15	28.781
657.47	21.702
657.80	16.428
658.13	16.624
658.45	25.741
658.78	26.568
659.10	26.740
659.43	26.655
659.75	27.578
660.08	28.207
660.41	30.235
660.73	29.834
661.06	32.409
661.38	32.094
661.71	29.363
662.03	37.124
662.36	32.527
662.68	34.735
663.01	33.406
663.33	31.787
663.66	30.465
663.98	30.930
664.31	32.196
664.63	32.258
664.96	28.478
665.28	30.243
665.61	34.848
665.93	34.130
666.26	33.839
666.58	31.096
666.91	30.588
667.23	33.962
667.56	32.464
667.88	32.854
668.21	32.697
668.53	32.861
668.86	32.311
669.18	31.368
669.50	30.751
669.83	30.000
670.15	33.100
670.48	30.383
670.80	32.719
671.13	27.964
671.45	31.279
671.77	30.687
672.10	31.485
672.42	27.341
672.75	33.393
673.07	30.233
673.39	29.358
673.72	28.994
674.04	28.958
674.37	33.051
674.69	30.193
675.01	32.889
675.34	31.757
675.66	32.407
675.98	31.264
676.31	32.110
676.63	32.542
676.95	30.227
677.28	35.059
677.60	31.566
677.92	29.128
678.25	31.510
678.57	30.087
678.89	31.723
679.22	31.991
679.54	30.120
679.86	28.231
680.18	30.097
680.51	28.977
680.83	29.225
681.15	31.600
681.48	32.787
681.80	30.372
682.12	30.040
682.44	28.870
682.77	29.801
683.09	28.604
683.41	29.091
683.73	26.959
684.06	30.310
684.38	28.602
684.70	32.244
685.02	30.498
685.34	26.285
685.67	27.580
685.99	28.391
686.31	27.080
686.63	27.644
686.96	26.996
687.28	27.071
687.60	28.137
687.92	30.303
688.24	27.823
688.56	31.223
688.89	29.018
689.21	31.556
689.53	28.770
689.85	30.465
690.17	28.348
690.49	30.024
690.82	28.883
691.14	29.524
691.46	29.907
691.78	30.631
692.10	31.398
692.42	27.273
692.74	27.137
693.06	28.153
693.39	24.434
693.71	25.792
694.03	26.790
694.35	27.570
694.67	28.283
694.99	27.154
695.31	30.287
695.63	30.250
695.95	27.020
696.27	29.016
696.59	30.278
696.91	28.011
697.23	26.735
697.56	30.941
697.88	27.742
698.20	26.196
698.52	31.529
698.84	26.077
699.16	28.250
699.48	28.571
699.80	33.251
700.12	29.919
700.44	31.092
700.76	28.779
701.08	28.788
701.40	25.000
701.72	33.951
702.04	29.373
702.36	29.766
702.68	29.429
703.00	27.576
703.32	29.032
703.64	23.164
703.96	28.406
704.28	31.595
704.60	27.619
704.91	24.290
705.23	25.914
705.55	30.389
705.87	28.159
706.19	33.704
706.51	25.773
706.83	33.441
707.15	24.611
707.47	24.090
707.79	24.479
708.11	27.000
708.43	26.500
708.74	28.682
709.06	31.268
709.38	29.664
709.70	30.178
710.02	27.389
710.34	30.650
710.66	24.359
710.98	29.139
711.29	27.541
711.61	30.169
711.93	33.550
712.25	31.615
712.57	23.443
712.89	26.119
713.20	29.066
713.52	29.268
713.84	29.010
714.16	29.897
714.48	26.129
714.80	29.167
715.11	24.620
715.43	22.884
715.75	26.000
716.07	22.591
716.39	26.174
716.70	24.723
717.02	26.718
717.34	29.150
717.66	24.336
717.97	29.130
718.29	25.105
718.61	29.528
718.93	26.744
719.24	24.335
719.56	28.916
719.88	23.711
720.20	27.273
720.51	23.372
720.83	27.413
721.15	29.832
721.46	24.597
721.78	23.715
722.10	24.535
722.42	24.896
722.73	25.714
723.05	30.204
723.37	28.814
723.68	31.532
724.00	31.624
724.32	24.889
724.63	27.273
724.95	30.568
725.27	29.954
725.58	26.695
725.90	24.206
726.22	28.571
726.53	24.068
726.85	24.719
727.16	30.943
727.48	20.648
727.80	29.150
728.11	25.424
728.43	25.490
728.74	21.371
729.06	26.000
729.38	34.586
729.69	25.100
730.01	20.385
730.32	25.373
730.64	26.502
730.96	26.415
731.27	25.000
731.59	24.068
731.90	24.522
732.22	25.237
732.53	26.246
732.85	26.596
733.16	28.283
733.48	22.302
733.80	23.188
734.11	27.119
734.43	23.024
734.74	26.061
735.06	21.173
735.37	27.190
735.69	24.242
736.00	23.345
736.32	27.181
736.63	25.352
736.95	23.208
737.26	20.996
737.58	23.490
737.89	25.275
738.21	22.556
738.52	26.749
738.83	20.524
739.15	14.847
739.46	29.134
739.78	24.908
740.09	24.510
740.41	25.362
740.72	24.016
741.04	21.053
741.35	20.426
741.66	24.645
741.98	21.429
742.29	32.178
742.61	25.131
742.92	22.749
743.23	20.833
743.55	25.792
743.86	26.316
744.18	24.402
744.49	21.277
744.80	22.826
745.12	28.342
745.43	21.463
745.74	28.125
746.06	26.829
746.37	25.131
746.68	24.171
747.00	24.468
747.31	26.866
747.62	26.699
747.94	23.923
748.25	19.802
748.56	24.044
748.88	18.848
749.19	32.447
749.50	26.108
749.82	20.283
750.13	24.771
750.44	28.947
750.75	26.119
751.07	28.102
751.38	26.054
751.69	20.784
752.01	24.806
752.32	27.490
752.63	22.925
752.94	23.707
753.26	28.033
753.57	20.814
753.88	24.779
754.19	20.417
754.51	21.074
754.82	20.648
755.13	26.667
755.44	29.839
755.75	24.219
756.07	24.514
756.38	16.981
756.69	24.138
757.00	22.667
757.31	26.471
757.63	18.293
757.94	22.222
758.25	19.178
758.56	19.681
758.87	17.280
759.18	20.561
759.50	21.091
759.81	27.425
760.12	21.935
760.43	20.606
760.74	23.457
761.05	19.385
761.36	23.011
761.67	24.545
761.99	24.490
762.30	16.364
762.61	25.692
762.92	26.244
763.23	22.072
763.54	14.953
763.85	21.186
764.16	17.427
764.47	21.371
764.78	22.344
765.10	24.242
765.41	22.082
765.72	19.048
766.03	19.173
766.34	21.168
766.65	26.295
766.96	24.242
767.27	27.660
767.58	15.517
767.89	21.277
768.20	22.727
768.51	21.978
768.82	17.241
769.13	21.659
769.44	20.172
769.75	22.374
770.06	24.138
770.37	23.558
770.68	24.365
770.99	22.172
771.30	24.510
771.61	21.719
771.92	19.397
772.23	21.182
772.54	23.118
772.85	19.136
773.16	23.596
773.47	28.105
773.78	28.758
774.09	23.952
774.39	23.333
774.70	21.656
775.01	17.241
775.32	21.429
775.63	9.091
775.94	19.847
776.25	22.047
776.56	13.333
776.87	16.346
777.18	23.077
777.48	13.793
777.79	20.000
778.10	6.667
778.41	16.216
778.72	26.190
779.03	21.053
779.34	19.858
779.65	23.288
779.95	17.808
780.26	15.862
780.57	7.317
780.88	8.661
781.19	11.207
781.50	23.256
781.80	17.160
782.11	16.352
782.42	20.000
782.73	16.547
783.04	22.963
783.34	11.111
783.65	5.128
783.96	21.311
784.27	22.069
784.57	26.016
784.88	25.781
785.19	18.000
785.50	25.000
785.81	20.690
786.11	12.931
786.42	33.010
786.73	14.545
787.04	19.388
787.34	15.179
787.65	13.333
787.96	9.735
788.26	17.273
788.57	20.513
788.88	21.094
789.19	12.698
789.49	20.870
789.80	17.347
790.11	5.051
790.41	11.818
790.72	30.435
791.03	26.136
791.33	23.750
791.64	7.500
791.95	6.977
792.25	13.830
792.56	16.854
792.87	9.589
793.17	14.493
793.48	10.667
793.79	13.750
794.09	18.750
794.40	8.491
794.70	14.563
795.01	17.886
795.32	11.966
795.62	14.286
795.93	21.569
796.23	18.868
796.54	21.875
796.85	20.588
797.15	12.676
797.46	22.222
797.76	13.636
798.07	12.791
798.37	-5.263
798.68	-6.061
798.99	28.395
799.29	17.143
799.60	11.594
799.90	29.333
800.21	21.311
800.51	16.923
800.82	23.729
801.12	27.536
801.43	6.557
801.73	7.937
802.04	12.000
802.34	17.910
802.65	19.231
802.95	12.500
803.26	-5.769
803.56	15.686
803.87	0.000
804.17	22.667
804.48	19.048
804.78	3.704
805.09	6.522
805.39	2.222
805.70	22.222
806.00	0.000
806.30	19.718
806.61	12.857
806.91	0.000
807.22	15.789
807.52	18.667
807.83	-5.455
808.13	15.278
808.43	22.059
808.74	1.493
809.04	6.780
809.35	28.846
809.65	6.250
809.95	-8.108
810.26	9.091
810.56	20.548
810.86	7.143
811.17	2.000
811.47	16.327
811.77	-15.789
812.08	13.636
812.38	11.321
812.69	2.500
812.99	-9.091
813.29	23.684
813.59	11.429
813.90	-6.818
814.20	0.000
814.50	25.000
814.81	22.642
815.11	0.000
815.41	23.729
815.72	-7.143
816.02	17.647
816.32	33.333
816.62	12.195
816.93	5.405
817.23	2.857
817.53	-8.333
817.84	17.391
818.14	21.154
818.44	-10.526
818.74	15.217
819.04	-5.000
819.35	10.811
819.65	17.647
819.95	-8.333
820.25	0.000
820.56	25.000
820.86	-31.034
821.16	35.000
821.46	12.766
821.76	25.000
822.07	-2.326
822.37	-27.027
822.67	9.375
822.97	33.333
823.27	-21.429
823.57	8.000
823.88	0.000
824.18	17.857
824.48	5.882
824.78	0.000
825.08	-21.739
825.38	3.030
825.69	-20.833
825.99	7.895
826.29	-19.444
826.59	-20.000
826.89	-47.619
827.19	15.217
827.49	-7.500
827.79	0.000
828.09	-17.857
828.39	39.394
828.70	27.027
829.00	-14.286
829.30	-28.571
829.60	-26.667
829.90	34.375
830.20	-15.789
830.50	-37.037
830.80	0.000
831.10	-22.727
831.40	54.545
831.70	19.355
832.00	33.333
832.30	-23.810
832.60	-50.000
832.90	-24.138
833.20	-20.000
833.50	6.061
833.80	11.111
834.10	30.769
834.40	18.750
834.70	-22.222
835.00	-5.263
835.30	11.538
835.60	6.667
835.90	-12.903
836.20	-9.091
836.50	10.714
836.80	-69.231
837.10	25.000
837.40	-233.333
837.70	27.273
838.00	-100.000
838.30	-21.739
838.60	30.769
838.90	-4.545
839.19	7.143
839.49	20.000
839.79	-38.462
840.09	-133.333
840.39	21.429
840.69	-28.571
840.99	-38.462
841.29	-42.105
841.59	-100.000
841.88	54.545
842.18	20.000
842.48	18.750
842.78	6.667
843.08	-18.519
843.38	-100.000
843.68	4.348
843.97	-33.333
844.27	-60.000
844.57	-15.000
844.87	-50.000
845.17	14.286
845.47	20.000
845.76	-9.524
846.06	-11.765
846.36	-60.000
846.66	-64.286
846.96	13.333
847.25	-87.500
847.55	28.571
847.85	-62.500
848.15	4.545
848.44	-233.333
848.74	40.000
849.04	25.926
849.34	-18.182
849.63	-366.667
849.93	-340.000
850.23	0.000
850.53	-20.000
850.82	-46.154
851.12	-111.111
851.42	6.667
851.71	-3.846
852.01	-28.571
852.31	-250.000
852.61	36.364
852.90	-10.000
853.20	5.263
853.50	-50.000
853.79	13.043
854.09	0.000
854.39	-21.053
854.68	-12.500
854.98	38.710
855.28	3.846
855.57	-60.000
855.87	-22.222
856.17	-11.111
856.46	7.143
856.76	-6.667
857.05	66.667
857.35	-40.000
857.65	44.444
857.94	-7.692
858.24	27.586
858.53	11.111
858.83	25.926
859.13	-54.545
859.42	-34.783
859.72	25.000
860.01	-266.667
860.31	0.000
860.60	0.000
860.90	-466.667
861.20	-46.667
861.49	-300.000
861.79	-46.667
862.08	-20.000
862.38	60.000
862.67	-180.000
862.97	-166.667
863.26	8.333
863.56	83.333
863.85	-200.000
864.15	-5.556
864.44	-80.000
864.74	42.857
865.03	200.000
865.33	-460.000
865.62	-33.333
865.92	8.333
866.21	-16.667
866.51	-6.250
866.80	-36.364
867.10	-400.000
867.39	50.000
867.69	0.000
867.98	-53.846
868.27	-33.333
868.57	-26.667
868.86	-11.111
869.16	-53.846
869.45	33.333
869.75	-2000.000
870.04	0.000
870.33	-100.000
870.63	23.810
870.92	466.667
871.22	-280.000
871.51	-700.000
871.80	22.222
872.10	566.667
>>>>>End Processed Spectral Data<<<<<
