SpectraSuite Data File
++++++++++++++++++++++++++++++++++++
Date: Fri May 15 20:31:54 PDT 2015
User: schluterlab
Dark Spectrum Present: Yes
Reference Spectrum Present: Yes
Number of Sampled Component Spectra: 1
Spectrometers: USB2E3373
Integration Time (usec): 3000 (USB2E3373)
Spectra Averaged: 3 (USB2E3373)
Boxcar Smoothing: 0 (USB2E3373)
Correct for Electrical Dark: No (USB2E3373)
Strobe/Lamp Enabled: No (USB2E3373)
Correct for Detector Non-linearity: No (USB2E3373)
Correct for Stray Light: No (USB2E3373)
Number of Pixels in Processed Spectrum: 2048
>>>>>Begin Processed Spectral Data<<<<<
178.53	0.000
178.91	0.000
179.29	-25.000
179.67	-450.000
180.04	-42.857
180.42	75.000
180.80	-1100.000
181.18	33.333
181.56	300.000
181.94	0.000
182.31	-200.000
182.69	-40.000
183.07	-100.000
183.45	-180.000
183.83	283.333
184.20	-27.273
184.58	88.889
184.96	-50.000
185.34	33.333
185.72	-700.000
186.09	107.692
186.47	-1300.000
186.85	116.667
187.23	177.778
187.61	-500.000
187.98	-366.667
188.36	-66.667
188.74	-366.667
189.12	17.647
189.49	5.556
189.87	0.000
190.25	14.286
190.63	-150.000
191.00	-133.333
191.38	26.316
191.76	150.000
192.14	175.000
192.51	500.000
192.89	0.000
193.27	42.857
193.65	183.333
194.02	45.455
194.40	40.000
194.78	-12.500
195.15	-16.667
195.53	0.000
195.91	475.000
196.29	-250.000
196.66	-38.462
197.04	-85.714
197.42	-11.111
197.79	-400.000
198.17	-84.615
198.55	1400.000
198.92	-466.667
199.30	-900.000
199.68	-240.000
200.05	33.333
200.43	0.000
200.81	0.000
201.18	-300.000
201.56	1300.000
201.94	100.000
202.31	66.667
202.69	-180.000
203.07	50.000
203.44	500.000
203.82	0.000
204.19	-35.714
204.57	-366.667
204.95	25.000
205.32	-70.000
205.70	-85.714
206.08	-150.000
206.45	111.111
206.83	14.286
207.20	-128.571
207.58	-300.000
207.96	-100.000
208.33	-150.000
208.71	-225.000
209.08	-100.000
209.46	-400.000
209.84	-100.000
210.21	-500.000
210.59	85.714
210.96	-16.667
211.34	-25.000
211.71	20.000
212.09	-228.571
212.46	-800.000
212.84	0.000
213.22	10.000
213.59	900.000
213.97	15.385
214.34	-54.545
214.72	66.667
215.09	425.000
215.47	-53.846
215.84	-136.364
216.22	-266.667
216.59	-25.000
216.97	150.000
217.34	-350.000
217.72	-280.000
218.09	12.500
218.47	125.000
218.84	-900.000
219.22	-22.222
219.59	-200.000
219.97	133.333
220.34	300.000
220.72	57.143
221.09	-75.000
221.47	0.000
221.84	-500.000
222.22	-650.000
222.59	90.909
222.97	50.000
223.34	-366.667
223.72	-21.429
224.09	4.762
224.46	3.571
224.84	666.667
225.21	-90.000
225.59	0.000
225.96	-300.000
226.34	475.000
226.71	-128.571
227.08	-83.333
227.46	-12.500
227.83	-350.000
228.21	-55.556
228.58	54.545
228.95	-62.500
229.33	210.000
229.70	-6.250
230.08	-200.000
230.45	-185.714
230.82	-14.286
231.20	6.667
231.57	114.286
231.95	85.714
232.32	-100.000
232.69	14.286
233.07	33.333
233.44	-40.000
233.81	-20.000
234.19	11.111
234.56	-11.765
234.93	-50.000
235.31	225.000
235.68	-40.000
236.05	-23.077
236.43	10.000
236.80	47.059
237.17	34.375
237.55	35.000
237.92	33.333
238.29	19.444
238.67	40.000
239.04	41.176
239.41	7.317
239.79	76.667
240.16	70.732
240.53	23.684
240.91	19.565
241.28	42.857
241.65	50.000
242.02	42.466
242.40	43.333
242.77	40.678
243.14	43.939
243.51	45.000
243.89	44.828
244.26	27.586
244.63	45.238
245.00	44.330
245.38	51.546
245.75	41.573
246.12	37.069
246.49	42.149
246.87	50.000
247.24	42.017
247.61	48.246
247.98	51.220
248.36	39.375
248.73	50.000
249.10	41.558
249.47	50.633
249.84	50.327
250.22	47.059
250.59	52.941
250.96	46.948
251.33	41.860
251.70	44.706
252.08	45.178
252.45	44.554
252.82	46.734
253.19	49.770
253.56	47.196
253.94	47.748
254.31	46.957
254.68	56.579
255.05	44.094
255.42	51.965
255.79	45.560
256.16	50.584
256.54	48.881
256.91	46.388
257.28	44.610
257.65	45.693
258.02	48.227
258.39	44.108
258.76	51.282
259.14	47.508
259.51	48.544
259.88	52.234
260.25	46.078
260.62	49.306
260.99	51.186
261.36	49.658
261.73	49.684
262.10	51.672
262.47	46.626
262.85	47.962
263.22	48.308
263.59	50.156
263.96	48.447
264.33	50.303
264.70	47.024
265.07	47.024
265.44	52.408
265.81	45.763
266.18	50.273
266.55	47.815
266.92	52.332
267.29	52.480
267.66	48.338
268.03	52.880
268.40	48.042
268.77	53.476
269.14	49.400
269.51	49.357
269.88	49.127
270.25	48.214
270.62	45.610
270.99	49.105
271.36	47.188
271.73	46.244
272.10	46.472
272.47	48.936
272.84	46.040
273.21	46.868
273.58	46.024
273.95	46.682
274.32	46.189
274.69	46.380
275.06	47.545
275.43	45.805
275.80	49.890
276.17	46.437
276.54	45.824
276.91	48.246
277.28	47.162
277.65	46.488
278.02	45.745
278.39	45.514
278.76	49.895
279.13	43.983
279.50	47.689
279.87	47.300
280.23	45.806
280.60	46.589
280.97	46.263
281.34	46.346
281.71	48.871
282.08	46.421
282.45	42.466
282.82	46.911
283.19	47.195
283.56	46.628
283.92	44.592
284.29	44.423
284.66	44.767
285.03	45.383
285.40	43.856
285.77	42.179
286.14	45.668
286.51	46.863
286.87	42.413
287.24	43.094
287.61	43.563
287.98	41.754
288.35	41.421
288.72	44.658
289.08	41.667
289.45	42.355
289.82	43.007
290.19	39.932
290.56	40.823
290.93	43.098
291.29	38.983
291.66	41.732
292.03	40.351
292.40	39.194
292.77	39.394
293.13	36.688
293.50	37.481
293.87	37.710
294.24	38.485
294.60	36.960
294.97	37.202
295.34	36.196
295.71	35.917
296.08	37.220
296.44	35.562
296.81	35.833
297.18	35.942
297.55	37.940
297.91	34.795
298.28	35.356
298.65	34.600
299.02	34.367
299.38	34.063
299.75	32.000
300.12	34.817
300.48	33.992
300.85	34.094
301.22	32.208
301.59	32.763
301.95	32.911
302.32	34.371
302.69	33.333
303.05	33.663
303.42	32.379
303.79	33.995
304.15	33.094
304.52	30.678
304.89	31.228
305.25	30.751
305.62	31.272
305.99	31.813
306.35	30.867
306.72	30.259
307.09	32.611
307.45	29.736
307.82	32.292
308.19	32.056
308.55	30.534
308.92	33.660
309.29	29.721
309.65	31.755
310.02	31.903
310.38	29.528
310.75	31.257
311.12	30.463
311.48	30.859
311.85	30.052
312.22	30.907
312.58	30.573
312.95	31.270
313.31	29.400
313.68	29.634
314.05	30.816
314.41	30.412
314.78	30.309
315.14	30.421
315.51	32.091
315.87	29.611
316.24	31.648
316.61	31.299
316.97	31.349
317.34	30.273
317.70	31.071
318.07	30.192
318.43	30.882
318.80	31.439
319.16	32.812
319.53	32.953
319.89	32.382
320.26	32.692
320.62	33.902
320.99	32.046
321.35	32.477
321.72	34.683
322.08	35.347
322.45	35.635
322.81	36.051
323.18	34.249
323.54	35.907
323.91	34.177
324.27	35.352
324.64	36.704
325.00	36.131
325.37	36.915
325.73	36.809
326.10	37.239
326.46	37.578
326.83	37.708
327.19	39.407
327.56	37.272
327.92	39.701
328.29	38.661
328.65	41.132
329.01	39.246
329.38	40.553
329.74	39.282
330.11	40.871
330.47	39.981
330.84	39.615
331.20	43.156
331.56	41.574
331.93	42.009
332.29	40.605
332.66	42.172
333.02	41.636
333.38	40.972
333.75	42.308
334.11	39.839
334.48	41.432
334.84	41.392
335.20	42.269
335.57	41.160
335.93	42.818
336.29	41.713
336.66	41.871
337.02	42.100
337.38	40.741
337.75	42.182
338.11	41.479
338.47	42.883
338.84	42.421
339.20	42.687
339.56	41.468
339.93	41.719
340.29	42.294
340.65	41.846
341.02	42.465
341.38	41.239
341.74	40.901
342.11	40.641
342.47	41.993
342.83	41.349
343.20	41.812
343.56	42.870
343.92	42.161
344.28	41.588
344.65	42.401
345.01	41.141
345.37	41.968
345.73	41.674
346.10	42.278
346.46	42.052
346.82	41.735
347.19	41.230
347.55	42.439
347.91	41.343
348.27	42.199
348.63	43.015
349.00	42.658
349.36	42.477
349.72	42.786
350.08	42.705
350.45	41.979
350.81	41.196
351.17	41.287
351.53	42.449
351.89	41.618
352.26	42.640
352.62	43.226
352.98	41.847
353.34	42.271
353.70	42.476
354.07	43.387
354.43	41.954
354.79	41.701
355.15	42.778
355.51	43.196
355.87	42.152
356.24	41.354
356.60	42.280
356.96	42.619
357.32	42.812
357.68	43.237
358.04	42.165
358.40	43.569
358.77	42.424
359.13	43.635
359.49	40.909
359.85	43.838
360.21	44.099
360.57	41.622
360.93	43.192
361.29	42.523
361.66	43.574
362.02	43.485
362.38	43.260
362.74	43.149
363.10	44.244
363.46	42.624
363.82	43.952
364.18	44.797
364.54	42.868
364.90	43.441
365.26	44.250
365.62	45.109
365.98	44.428
366.35	45.448
366.71	44.642
367.07	44.122
367.43	43.710
367.79	44.240
368.15	44.867
368.51	45.229
368.87	44.724
369.23	45.199
369.59	45.408
369.95	44.428
370.31	46.026
370.67	46.269
371.03	45.332
371.39	45.295
371.75	45.055
372.11	44.080
372.47	45.710
372.83	45.422
373.19	44.650
373.55	43.321
373.91	47.300
374.27	46.775
374.63	45.083
374.99	45.319
375.35	46.379
375.71	47.273
376.07	46.278
376.42	45.306
376.78	46.779
377.14	46.649
377.50	47.477
377.86	48.059
378.22	46.650
378.58	47.885
378.94	45.369
379.30	47.162
379.66	47.335
380.02	46.658
380.38	47.413
380.74	46.978
381.09	48.957
381.45	47.278
381.81	47.440
382.17	48.477
382.53	47.408
382.89	47.897
383.25	48.600
383.61	48.110
383.97	47.619
384.32	47.842
384.68	48.731
385.04	48.039
385.40	48.662
385.76	49.874
386.12	49.418
386.48	50.830
386.83	49.905
387.19	48.962
387.55	49.875
387.91	49.022
388.27	49.451
388.62	49.906
388.98	48.987
389.34	49.844
389.70	50.839
390.06	49.150
390.42	50.389
390.77	49.052
391.13	50.315
391.49	50.388
391.85	50.747
392.20	49.278
392.56	49.650
392.92	49.794
393.28	49.941
393.64	51.532
393.99	50.408
394.35	51.360
394.71	50.447
395.07	50.094
395.42	50.577
395.78	51.270
396.14	50.694
396.50	50.856
396.85	51.771
397.21	50.627
397.57	50.219
397.92	50.629
398.28	50.632
398.64	50.723
399.00	50.395
399.35	50.847
399.71	49.914
400.07	52.237
400.42	50.734
400.78	51.378
401.14	50.272
401.49	52.055
401.85	51.310
402.21	51.867
402.57	52.125
402.92	50.878
403.28	50.752
403.63	51.450
403.99	51.531
404.35	51.593
404.70	50.238
405.06	50.999
405.42	50.653
405.77	51.075
406.13	51.281
406.49	50.918
406.84	51.895
407.20	52.739
407.55	52.028
407.91	50.936
408.27	51.052
408.62	51.692
408.98	51.756
409.34	52.230
409.69	50.775
410.05	50.985
410.40	51.605
410.76	51.025
411.11	51.188
411.47	51.940
411.83	51.224
412.18	51.866
412.54	51.311
412.89	51.170
413.25	52.828
413.60	50.311
413.96	50.982
414.31	52.500
414.67	50.994
415.03	52.064
415.38	51.371
415.74	51.987
416.09	51.731
416.45	52.194
416.80	49.570
417.16	51.934
417.51	50.766
417.87	50.326
418.22	52.785
418.58	52.776
418.93	51.536
419.29	50.256
419.64	50.486
420.00	52.393
420.35	50.925
420.71	50.851
421.06	51.934
421.42	52.344
421.77	50.462
422.12	51.362
422.48	52.139
422.83	51.334
423.19	50.903
423.54	51.911
423.90	50.471
424.25	51.320
424.61	52.264
424.96	51.336
425.31	52.802
425.67	52.641
426.02	52.002
426.38	52.411
426.73	52.603
427.09	53.291
427.44	52.000
427.79	51.738
428.15	51.942
428.50	52.453
428.85	50.614
429.21	51.669
429.56	51.429
429.92	51.053
430.27	50.877
430.62	51.176
430.98	51.805
431.33	51.104
431.68	51.230
432.04	51.425
432.39	51.284
432.74	50.511
433.10	52.586
433.45	51.434
433.80	51.654
434.16	52.244
434.51	53.172
434.86	53.194
435.22	50.589
435.57	51.965
435.92	51.377
436.28	51.103
436.63	52.710
436.98	51.912
437.34	51.422
437.69	52.177
438.04	50.370
438.39	51.863
438.75	53.855
439.10	51.783
439.45	52.222
439.81	51.927
440.16	53.860
440.51	53.015
440.86	53.353
441.22	51.867
441.57	51.656
441.92	53.095
442.27	53.381
442.63	53.908
442.98	52.671
443.33	52.532
443.68	53.156
444.03	53.304
444.39	52.484
444.74	55.240
445.09	53.396
445.44	53.276
445.79	54.203
446.15	52.753
446.50	52.413
446.85	54.145
447.20	53.076
447.55	54.018
447.91	53.920
448.26	53.785
448.61	53.598
448.96	53.414
449.31	52.775
449.66	53.833
450.02	53.565
450.37	53.883
450.72	52.119
451.07	54.430
451.42	52.871
451.77	52.381
452.12	52.512
452.47	52.093
452.83	51.767
453.18	52.625
453.53	53.224
453.88	53.309
454.23	52.981
454.58	55.668
454.93	53.286
455.28	53.016
455.63	53.379
455.98	54.299
456.34	53.768
456.69	54.003
457.04	54.001
457.39	53.888
457.74	53.446
458.09	52.972
458.44	53.013
458.79	52.997
459.14	54.348
459.49	53.313
459.84	53.638
460.19	54.490
460.54	54.890
460.89	53.636
461.24	52.671
461.59	53.622
461.94	51.824
462.29	52.774
462.64	54.419
462.99	54.028
463.34	52.712
463.69	52.896
464.04	52.724
464.39	53.426
464.74	53.497
465.09	52.963
465.44	53.549
465.79	51.927
466.14	53.763
466.49	51.869
466.84	52.231
467.19	52.503
467.54	51.660
467.89	52.874
468.24	53.285
468.59	52.952
468.94	52.825
469.29	53.049
469.64	52.290
469.99	54.029
470.34	52.833
470.68	53.542
471.03	53.715
471.38	53.495
471.73	53.151
472.08	53.053
472.43	53.154
472.78	51.816
473.13	53.197
473.48	52.117
473.83	51.993
474.17	52.850
474.52	51.308
474.87	52.242
475.22	53.386
475.57	51.722
475.92	52.441
476.27	53.376
476.61	53.588
476.96	51.757
477.31	52.515
477.66	50.899
478.01	52.106
478.36	52.124
478.70	51.278
479.05	50.934
479.40	51.987
479.75	51.564
480.10	51.152
480.45	51.950
480.79	52.920
481.14	52.613
481.49	50.936
481.84	52.510
482.19	50.842
482.53	52.230
482.88	51.599
483.23	51.679
483.58	50.896
483.92	50.968
484.27	50.273
484.62	50.919
484.97	51.410
485.31	50.650
485.66	49.006
486.01	49.165
486.36	49.040
486.70	50.829
487.05	51.083
487.40	50.517
487.75	50.141
488.09	50.402
488.44	50.481
488.79	51.027
489.13	52.043
489.48	50.962
489.83	50.762
490.17	50.517
490.52	51.363
490.87	50.486
491.22	51.624
491.56	50.949
491.91	50.860
492.26	50.948
492.60	50.720
492.95	52.189
493.30	50.024
493.64	51.572
493.99	50.048
494.34	49.417
494.68	50.286
495.03	50.803
495.37	50.785
495.72	50.984
496.07	51.220
496.41	49.623
496.76	51.036
497.11	50.536
497.45	49.976
497.80	50.706
498.14	49.528
498.49	51.498
498.84	49.401
499.18	51.406
499.53	50.546
499.87	50.584
500.22	50.049
500.56	50.580
500.91	49.900
501.26	48.789
501.60	49.533
501.95	49.733
502.29	50.605
502.64	50.000
502.98	49.334
503.33	48.895
503.67	48.578
504.02	49.804
504.36	49.926
504.71	48.990
505.06	48.213
505.40	49.289
505.75	49.691
506.09	48.353
506.44	49.949
506.78	49.541
507.13	48.501
507.47	48.512
507.82	48.611
508.16	49.657
508.51	49.003
508.85	49.451
509.19	48.749
509.54	48.633
509.88	49.461
510.23	49.059
510.57	49.439
510.92	46.642
511.26	49.209
511.61	49.230
511.95	48.548
512.30	48.614
512.64	48.859
512.98	49.074
513.33	48.405
513.67	47.584
514.02	50.114
514.36	48.971
514.70	49.301
515.05	49.236
515.39	49.528
515.74	49.701
516.08	48.954
516.42	50.118
516.77	48.742
517.11	49.911
517.46	48.474
517.80	48.987
518.14	47.765
518.49	48.978
518.83	47.813
519.17	47.362
519.52	47.247
519.86	47.479
520.20	49.332
520.55	47.655
520.89	48.996
521.23	47.245
521.58	48.454
521.92	48.782
522.26	48.016
522.61	48.442
522.95	49.735
523.29	47.776
523.64	48.729
523.98	48.477
524.32	47.294
524.66	47.887
525.01	48.117
525.35	47.829
525.69	47.205
526.04	48.016
526.38	48.444
526.72	47.482
527.06	47.341
527.41	47.625
527.75	47.520
528.09	47.442
528.43	49.223
528.78	46.931
529.12	48.000
529.46	48.213
529.80	47.182
530.15	48.119
530.49	48.148
530.83	48.769
531.17	46.206
531.51	46.854
531.86	47.043
532.20	47.112
532.54	47.447
532.88	48.118
533.22	48.253
533.57	46.527
533.91	47.324
534.25	47.201
534.59	45.799
534.93	45.626
535.27	46.510
535.62	45.496
535.96	46.380
536.30	46.504
536.64	46.382
536.98	46.063
537.32	46.871
537.66	46.143
538.01	46.783
538.35	45.908
538.69	45.872
539.03	45.318
539.37	46.030
539.71	45.671
540.05	45.689
540.39	45.706
540.73	45.955
541.07	45.511
541.42	45.901
541.76	46.180
542.10	45.286
542.44	45.379
542.78	44.529
543.12	44.712
543.46	45.549
543.80	44.830
544.14	43.391
544.48	44.237
544.82	45.523
545.16	45.492
545.50	44.993
545.84	44.618
546.18	44.255
546.52	44.917
546.86	44.213
547.20	46.066
547.54	43.534
547.88	44.022
548.22	43.261
548.56	43.668
548.90	44.811
549.24	43.457
549.58	44.076
549.92	43.460
550.26	43.883
550.60	44.684
550.94	43.913
551.28	43.045
551.62	44.154
551.96	44.211
552.30	43.494
552.64	42.807
552.98	42.264
553.32	43.652
553.66	42.453
554.00	43.577
554.34	44.313
554.68	41.962
555.02	43.750
555.36	43.082
555.69	41.465
556.03	42.470
556.37	42.064
556.71	43.105
557.05	43.177
557.39	42.156
557.73	43.178
558.07	43.363
558.41	43.568
558.75	42.245
559.08	42.396
559.42	42.698
559.76	42.754
560.10	41.667
560.44	41.549
560.78	40.909
561.12	42.595
561.45	43.429
561.79	42.017
562.13	42.441
562.47	41.151
562.81	41.931
563.15	42.666
563.48	41.301
563.82	42.279
564.16	42.967
564.50	40.946
564.84	41.232
565.17	42.052
565.51	42.486
565.85	42.250
566.19	42.109
566.52	41.622
566.86	41.967
567.20	41.345
567.54	41.423
567.88	40.773
568.21	41.855
568.55	41.685
568.89	40.092
569.23	40.684
569.56	40.061
569.90	40.438
570.24	39.635
570.57	40.945
570.91	41.025
571.25	38.671
571.59	38.804
571.92	38.341
572.26	38.829
572.60	39.380
572.93	38.814
573.27	38.276
573.61	38.574
573.95	38.913
574.28	38.665
574.62	38.673
574.96	38.270
575.29	37.986
575.63	36.953
575.97	37.815
576.30	38.150
576.64	37.483
576.98	38.121
577.31	37.970
577.65	38.073
577.98	37.849
578.32	37.414
578.66	37.094
578.99	37.389
579.33	37.397
579.67	37.270
580.00	37.367
580.34	37.786
580.67	37.784
581.01	37.152
581.35	36.822
581.68	37.020
582.02	37.108
582.35	36.973
582.69	37.495
583.02	37.492
583.36	37.166
583.70	38.344
584.03	38.810
584.37	38.876
584.70	37.857
585.04	37.098
585.37	36.904
585.71	37.299
586.04	36.283
586.38	36.410
586.72	37.418
587.05	37.377
587.39	36.958
587.72	37.616
588.06	37.642
588.39	37.454
588.73	37.576
589.06	37.476
589.40	37.401
589.73	37.459
590.07	37.953
590.40	37.926
590.73	37.768
591.07	36.938
591.40	36.687
591.74	37.511
592.07	38.404
592.41	37.942
592.74	36.121
593.08	35.906
593.41	35.914
593.75	36.048
594.08	35.839
594.41	37.300
594.75	35.992
595.08	36.852
595.42	36.584
595.75	37.026
596.09	36.747
596.42	37.371
596.75	36.590
597.09	36.674
597.42	36.043
597.75	36.418
598.09	35.853
598.42	36.011
598.76	36.508
599.09	36.018
599.42	34.900
599.76	35.177
600.09	34.465
600.42	36.012
600.76	35.438
601.09	35.573
601.42	35.488
601.76	35.252
602.09	36.180
602.42	36.689
602.76	36.248
603.09	35.797
603.42	37.082
603.76	35.444
604.09	35.682
604.42	35.279
604.76	36.182
605.09	36.152
605.42	34.853
605.75	35.333
606.09	35.839
606.42	35.405
606.75	35.628
607.09	35.077
607.42	34.205
607.75	34.503
608.08	34.501
608.42	35.039
608.75	36.193
609.08	35.825
609.41	36.345
609.75	34.476
610.08	35.647
610.41	34.783
610.74	35.641
611.07	35.762
611.41	34.665
611.74	35.821
612.07	35.600
612.40	35.777
612.73	35.141
613.07	34.702
613.40	35.066
613.73	33.968
614.06	34.947
614.39	35.589
614.72	34.118
615.06	34.860
615.39	34.771
615.72	34.607
616.05	34.860
616.38	34.017
616.71	33.823
617.05	34.157
617.38	35.324
617.71	34.717
618.04	34.857
618.37	35.120
618.70	35.182
619.03	35.139
619.36	34.081
619.69	35.633
620.03	36.523
620.36	35.479
620.69	35.403
621.02	35.703
621.35	36.183
621.68	34.694
622.01	36.000
622.34	35.674
622.67	34.227
623.00	33.691
623.33	34.070
623.66	34.480
623.99	34.947
624.32	35.817
624.65	33.684
624.99	33.183
625.32	34.193
625.65	35.350
625.98	36.342
626.31	33.749
626.64	35.355
626.97	34.729
627.30	34.501
627.63	34.922
627.96	34.951
628.29	34.968
628.62	34.710
628.95	35.872
629.28	36.290
629.61	35.194
629.94	35.484
630.26	34.585
630.59	35.692
630.92	35.487
631.25	34.051
631.58	34.912
631.91	33.882
632.24	34.633
632.57	35.455
632.90	33.333
633.23	36.235
633.56	34.635
633.89	34.032
634.22	35.802
634.55	35.451
634.88	32.184
635.20	33.077
635.53	34.533
635.86	33.420
636.19	34.411
636.52	34.311
636.85	33.499
637.18	34.465
637.51	34.340
637.83	33.903
638.16	35.198
638.49	33.243
638.82	34.737
639.15	34.600
639.48	33.012
639.81	33.612
640.13	33.766
640.46	35.277
640.79	36.230
641.12	32.939
641.45	35.435
641.77	33.481
642.10	35.387
642.43	33.441
642.76	34.653
643.09	36.672
643.41	32.686
643.74	33.114
644.07	34.811
644.40	35.304
644.73	34.851
645.05	34.732
645.38	33.862
645.71	35.106
646.04	34.291
646.36	32.624
646.69	36.511
647.02	36.484
647.35	35.261
647.67	34.735
648.00	36.007
648.33	33.618
648.66	33.220
648.98	29.983
649.31	33.388
649.64	31.711
649.96	31.442
650.29	32.198
650.62	33.333
650.94	33.519
651.27	32.030
651.60	34.054
651.92	32.867
652.25	31.261
652.58	32.500
652.90	36.535
653.23	31.765
653.56	33.841
653.88	32.302
654.21	29.772
654.54	32.937
654.86	33.956
655.19	32.310
655.52	33.282
655.84	29.638
656.17	33.143
656.49	44.492
656.82	46.405
657.15	36.432
657.47	27.664
657.80	20.586
658.13	20.289
658.45	32.127
658.78	32.559
659.10	32.099
659.43	31.609
659.75	32.560
660.08	32.483
660.41	33.708
660.73	32.044
661.06	32.929
661.38	32.681
661.71	30.390
662.03	33.906
662.36	32.747
662.68	32.743
663.01	32.314
663.33	29.698
663.66	30.233
663.98	29.070
664.31	32.409
664.63	33.180
664.96	30.217
665.28	29.581
665.61	31.169
665.93	29.565
666.26	31.236
666.58	32.662
666.91	32.000
667.23	33.491
667.56	32.938
667.88	33.333
668.21	31.742
668.53	33.333
668.86	30.896
669.18	30.189
669.50	31.719
669.83	30.233
670.15	29.371
670.48	31.818
670.80	32.949
671.13	29.530
671.45	26.941
671.77	30.043
672.10	31.287
672.42	30.337
672.75	33.037
673.07	32.379
673.39	31.009
673.72	29.191
674.04	30.208
674.37	31.992
674.69	30.407
675.01	32.889
675.34	30.631
675.66	32.407
675.98	31.707
676.31	31.651
676.63	30.879
676.95	28.182
677.28	32.706
677.60	31.807
677.92	27.982
678.25	31.510
678.57	29.004
678.89	30.252
679.22	30.201
679.54	30.321
679.86	30.616
680.18	30.485
680.51	29.924
680.83	30.020
681.15	30.600
681.48	29.098
681.80	28.719
682.12	28.629
682.44	30.126
682.77	31.788
683.09	31.808
683.41	28.636
683.73	29.724
684.06	28.097
684.38	28.387
684.70	30.937
685.02	29.668
685.34	29.842
685.67	26.829
685.99	31.646
686.31	29.381
686.63	30.241
686.96	25.856
687.28	26.263
687.60	29.658
687.92	29.091
688.24	31.452
688.56	30.131
688.89	28.348
689.21	30.667
689.53	30.162
689.85	30.698
690.17	30.804
690.49	30.260
690.82	28.641
691.14	29.524
691.46	30.140
691.78	29.955
692.10	30.323
692.42	29.870
692.74	30.128
693.06	27.703
693.39	25.566
693.71	24.887
694.03	28.176
694.35	29.673
694.67	30.556
694.99	29.765
695.31	31.593
695.63	30.500
695.95	25.758
696.27	28.756
696.59	31.667
696.91	27.451
697.23	26.735
697.56	31.931
697.88	28.387
698.20	28.702
698.52	29.882
698.84	27.751
699.16	29.000
699.48	29.574
699.80	29.032
700.12	31.806
700.44	28.291
700.76	28.198
701.08	28.788
701.40	30.422
701.72	30.864
702.04	30.033
702.36	28.763
702.68	30.631
703.00	29.697
703.32	28.446
703.64	26.271
703.96	27.246
704.28	30.061
704.60	27.937
704.91	29.338
705.23	26.910
705.55	32.509
705.87	33.213
706.19	29.630
706.51	26.804
706.83	28.296
707.15	28.660
707.47	27.171
707.79	27.083
708.11	28.750
708.43	29.000
708.74	28.941
709.06	30.141
709.38	29.358
709.70	26.331
710.02	29.936
710.34	29.102
710.66	25.321
710.98	26.490
711.29	27.541
711.61	27.119
711.93	29.316
712.25	30.584
712.57	28.571
712.89	29.851
713.20	28.720
713.52	27.178
713.84	28.328
714.16	28.522
714.48	24.839
714.80	32.051
715.11	26.444
715.43	27.586
715.75	25.333
716.07	25.249
716.39	23.826
716.70	26.937
717.02	24.427
717.34	29.960
717.66	26.549
717.97	26.522
718.29	31.381
718.61	28.740
718.93	27.519
719.24	31.179
719.56	27.309
719.88	22.680
720.20	26.515
720.51	26.054
720.83	29.730
721.15	25.630
721.46	28.226
721.78	26.087
722.10	25.279
722.42	26.141
722.73	27.347
723.05	30.612
723.37	31.356
723.68	27.477
724.00	29.060
724.32	25.333
724.63	26.364
724.95	23.144
725.27	30.876
725.58	27.966
725.90	29.365
726.22	27.413
726.53	30.508
726.85	29.213
727.16	29.057
727.48	21.053
727.80	26.316
728.11	26.271
728.43	25.490
728.74	20.565
729.06	29.600
729.38	33.459
729.69	30.279
730.01	21.923
730.32	23.881
730.64	25.442
730.96	29.434
731.27	26.667
731.59	25.424
731.90	28.662
732.22	28.707
732.53	25.914
732.85	28.014
733.16	31.987
733.48	22.302
733.80	25.362
734.11	24.746
734.43	27.148
734.74	23.939
735.06	26.059
735.37	28.399
735.69	27.273
736.00	26.829
736.32	23.154
736.63	31.690
736.95	28.669
737.26	24.555
737.58	26.174
737.89	27.473
738.21	26.316
738.52	21.811
738.83	30.568
739.15	22.707
739.46	25.591
739.78	24.176
740.09	24.837
740.41	25.362
740.72	23.622
741.04	24.696
741.35	22.979
741.66	24.171
741.98	22.959
742.29	29.208
742.61	23.560
742.92	21.801
743.23	21.759
743.55	28.054
743.86	24.880
744.18	24.402
744.49	26.064
744.80	23.913
745.12	27.807
745.43	22.439
745.74	27.083
746.06	27.317
746.37	20.419
746.68	27.014
747.00	21.809
747.31	31.841
747.62	21.359
747.94	27.273
748.25	26.238
748.56	27.322
748.88	25.654
749.19	28.191
749.50	21.675
749.82	24.057
750.13	25.688
750.44	28.947
750.75	30.597
751.07	32.847
751.38	27.969
751.69	20.392
752.01	27.132
752.32	22.311
752.63	28.063
752.94	24.569
753.26	34.728
753.57	23.982
753.88	25.664
754.19	21.667
754.51	25.620
754.82	19.838
755.13	27.500
755.44	26.613
755.75	28.516
756.07	29.961
756.38	23.019
756.69	20.307
757.00	25.000
757.31	24.837
757.63	21.951
757.94	25.278
758.25	22.740
758.56	25.798
758.87	24.363
759.18	27.414
759.50	20.364
759.81	26.756
760.12	27.419
760.43	22.727
760.74	28.086
761.05	27.077
761.36	25.000
761.67	31.212
761.99	29.252
762.30	19.636
762.61	26.482
762.92	22.624
763.23	22.523
763.54	18.224
763.85	21.186
764.16	24.896
764.47	22.581
764.78	20.513
765.10	26.936
765.41	23.975
765.72	25.397
766.03	20.677
766.34	28.832
766.65	30.279
766.96	27.778
767.27	18.617
767.58	23.563
767.89	9.929
768.20	24.432
768.51	25.824
768.82	22.660
769.13	20.737
769.44	21.888
769.75	23.744
770.06	23.707
770.37	20.192
770.68	23.350
770.99	23.529
771.30	28.922
771.61	28.507
771.92	28.017
772.23	26.108
772.54	23.118
772.85	22.222
773.16	24.157
773.47	28.758
773.78	32.680
774.09	20.359
774.39	22.667
774.70	21.656
775.01	30.345
775.32	20.000
775.63	23.140
775.94	22.137
776.25	23.622
776.56	22.500
776.87	20.192
777.18	17.949
777.48	23.276
777.79	14.783
778.10	13.333
778.41	17.117
778.72	19.841
779.03	20.301
779.34	22.695
779.65	28.082
779.95	23.288
780.26	26.897
780.57	11.382
780.88	18.898
781.19	24.138
781.50	34.109
781.80	31.361
782.11	11.950
782.42	21.538
782.73	24.460
783.04	31.111
783.34	15.972
783.65	14.530
783.96	26.230
784.27	27.586
784.57	22.764
784.88	21.094
785.19	24.000
785.50	28.000
785.81	30.172
786.11	17.241
786.42	23.301
786.73	30.000
787.04	18.367
787.34	14.286
787.65	24.762
787.96	24.779
788.26	20.000
788.57	28.205
788.88	23.438
789.19	23.016
789.49	22.609
789.80	22.449
790.11	26.263
790.41	19.091
790.72	23.913
791.03	26.136
791.33	13.750
791.64	10.000
791.95	29.070
792.25	22.340
792.56	29.213
792.87	9.589
793.17	20.290
793.48	14.667
793.79	17.500
794.09	18.750
794.40	16.981
794.70	23.301
795.01	21.951
795.32	22.222
795.62	24.762
795.93	26.471
796.23	24.528
796.54	17.708
796.85	33.824
797.15	14.085
797.46	26.389
797.76	24.242
798.07	18.605
798.37	15.789
798.68	13.636
798.99	28.395
799.29	34.286
799.60	2.899
799.90	21.333
800.21	19.672
800.51	26.154
800.82	23.729
801.12	33.333
801.43	22.951
801.73	19.048
802.04	4.000
802.34	4.478
802.65	48.077
802.95	16.071
803.26	25.000
803.56	27.451
803.87	8.696
804.17	13.333
804.48	23.810
804.78	18.519
805.09	2.174
805.39	0.000
805.70	18.519
806.00	7.018
806.30	16.901
806.61	31.429
806.91	12.500
807.22	15.789
807.52	32.000
807.83	7.273
808.13	29.167
808.43	35.294
808.74	20.896
809.04	5.085
809.35	-5.769
809.65	25.000
809.95	-16.216
810.26	4.545
810.56	23.288
810.86	19.048
811.17	14.000
811.47	24.490
811.77	-28.947
812.08	0.000
812.38	37.736
812.69	5.000
812.99	21.212
813.29	21.053
813.59	-2.857
813.90	25.000
814.20	5.128
814.50	25.000
814.81	26.415
815.11	10.638
815.41	23.729
815.72	11.905
816.02	35.294
816.32	6.250
816.62	14.634
816.93	10.811
817.23	-2.857
817.53	8.333
817.84	10.870
818.14	21.154
818.44	-10.526
818.74	36.957
819.04	-12.500
819.35	27.027
819.65	29.412
819.95	-5.556
820.25	-2.381
820.56	45.000
820.86	-27.586
821.16	32.500
821.46	-12.766
821.76	25.000
822.07	-2.326
822.37	13.514
822.67	-15.625
822.97	50.000
823.27	-42.857
823.57	36.000
823.88	-29.630
824.18	42.857
824.48	29.412
824.78	9.677
825.08	-8.696
825.38	9.091
825.69	-8.333
825.99	7.895
826.29	19.444
826.59	-40.000
826.89	-9.524
827.19	15.217
827.49	-10.000
827.79	17.143
828.09	-3.571
828.39	12.121
828.70	10.811
829.00	-10.714
829.30	-19.048
829.60	30.000
829.90	9.375
830.20	10.526
830.50	14.815
830.80	21.739
831.10	-9.091
831.40	33.333
831.70	22.581
832.00	28.571
832.30	-28.571
832.60	-75.000
832.90	-20.690
833.20	-25.000
833.50	3.030
833.80	37.037
834.10	11.538
834.40	18.750
834.70	-88.889
835.00	5.263
835.30	61.538
835.60	20.000
835.90	-9.677
836.20	-45.455
836.50	-25.000
836.80	-50.000
837.10	32.143
837.40	-233.333
837.70	-40.909
838.00	-45.455
838.30	13.043
838.60	-23.077
838.90	27.273
839.19	0.000
839.49	16.667
839.79	0.000
840.09	-50.000
840.39	60.714
840.69	21.429
840.99	-38.462
841.29	-57.895
841.59	-120.000
841.88	-36.364
842.18	-60.000
842.48	6.250
842.78	-6.667
843.08	-33.333
843.38	-190.000
843.68	30.435
843.97	20.000
844.27	-46.667
844.57	-15.000
844.87	-11.111
845.17	0.000
845.47	20.000
845.76	-61.905
846.06	70.588
846.36	-90.000
846.66	-7.143
846.96	-33.333
847.25	-262.500
847.55	-14.286
847.85	-125.000
848.15	9.091
848.44	-900.000
848.74	-30.000
849.04	22.222
849.34	-54.545
849.63	-100.000
849.93	-220.000
850.23	5.556
850.53	-70.000
850.82	23.077
851.12	0.000
851.42	6.667
851.71	23.077
852.01	-14.286
852.31	-25.000
852.61	-9.091
852.90	5.000
853.20	5.263
853.50	-75.000
853.79	8.696
854.09	20.833
854.39	10.526
854.68	12.500
854.98	16.129
855.28	34.615
855.57	-20.000
855.87	-11.111
856.17	48.148
856.46	0.000
856.76	-13.333
857.05	22.222
857.35	28.000
857.65	5.556
857.94	-53.846
858.24	17.241
858.53	33.333
858.83	14.815
859.13	-4.545
859.42	0.000
859.72	-100.000
860.01	-300.000
860.31	12.000
860.60	66.667
860.90	-166.667
861.20	-26.667
861.49	-1250.000
861.79	-26.667
862.08	35.000
862.38	86.667
862.67	-140.000
862.97	-66.667
863.26	-91.667
863.56	-33.333
863.85	-466.667
864.15	72.222
864.44	-80.000
864.74	28.571
865.03	400.000
865.33	-320.000
865.62	116.667
865.92	-83.333
866.21	-300.000
866.51	43.750
866.80	0.000
867.10	-300.000
867.39	-33.333
867.69	0.000
867.98	38.462
868.27	-133.333
868.57	-6.667
868.86	11.111
869.16	-30.769
869.45	73.333
869.75	-1800.000
870.04	0.000
870.33	-85.714
870.63	33.333
870.92	233.333
871.22	-180.000
871.51	-700.000
871.80	11.111
872.10	366.667
>>>>>End Processed Spectral Data<<<<<
