SpectraSuite Data File
++++++++++++++++++++++++++++++++++++
Date: Fri May 15 20:56:21 PDT 2015
User: schluterlab
Dark Spectrum Present: Yes
Reference Spectrum Present: Yes
Number of Sampled Component Spectra: 1
Spectrometers: USB2E3373
Integration Time (usec): 3000 (USB2E3373)
Spectra Averaged: 3 (USB2E3373)
Boxcar Smoothing: 0 (USB2E3373)
Correct for Electrical Dark: No (USB2E3373)
Strobe/Lamp Enabled: No (USB2E3373)
Correct for Detector Non-linearity: No (USB2E3373)
Correct for Stray Light: No (USB2E3373)
Number of Pixels in Processed Spectrum: 2048
>>>>>Begin Processed Spectral Data<<<<<
178.53	0.000
178.91	0.000
179.29	12.500
179.67	-450.000
180.04	14.286
180.42	250.000
180.80	200.000
181.18	166.667
181.56	250.000
181.94	-50.000
182.31	200.000
182.69	-160.000
183.07	-233.333
183.45	-200.000
183.83	183.333
184.20	-63.636
184.58	122.222
184.96	25.000
185.34	-233.333
185.72	-400.000
186.09	92.308
186.47	100.000
186.85	216.667
187.23	133.333
187.61	-800.000
187.98	133.333
188.36	66.667
188.74	133.333
189.12	-23.529
189.49	22.222
189.87	0.000
190.25	42.857
190.63	500.000
191.00	0.000
191.38	15.789
191.76	850.000
192.14	-50.000
192.51	150.000
192.89	-66.667
193.27	-57.143
193.65	116.667
194.02	118.182
194.40	-30.000
194.78	-125.000
195.15	25.000
195.53	37.500
195.91	125.000
196.29	-275.000
196.66	38.462
197.04	28.571
197.42	22.222
197.79	-466.667
198.17	-46.154
198.55	600.000
198.92	-333.333
199.30	-1100.000
199.68	-120.000
200.05	-400.000
200.43	0.000
200.81	0.000
201.18	-66.667
201.56	1200.000
201.94	-500.000
202.31	-266.667
202.69	-200.000
203.07	75.000
203.44	700.000
203.82	0.000
204.19	128.571
204.57	-566.667
204.95	62.500
205.32	-50.000
205.70	-71.429
206.08	-150.000
206.45	77.778
206.83	21.429
207.20	-71.429
207.58	600.000
207.96	-300.000
208.33	-70.000
208.71	-50.000
209.08	-216.667
209.46	-1400.000
209.84	-220.000
210.21	-1200.000
210.59	-28.571
210.96	-33.333
211.34	-150.000
211.71	53.333
212.09	-42.857
212.46	-1200.000
212.84	0.000
213.22	-40.000
213.59	800.000
213.97	-30.769
214.34	45.455
214.72	-200.000
215.09	250.000
215.47	-23.077
215.84	-81.818
216.22	-166.667
216.59	12.500
216.97	150.000
217.34	-50.000
217.72	-20.000
218.09	25.000
218.47	37.500
218.84	-800.000
219.22	11.111
219.59	40.000
219.97	266.667
220.34	300.000
220.72	42.857
221.09	-200.000
221.47	200.000
221.84	-250.000
222.22	-150.000
222.59	54.545
222.97	-16.667
223.34	0.000
223.72	-7.143
224.09	-33.333
224.46	0.000
224.84	400.000
225.21	60.000
225.59	46.667
225.96	-250.000
226.34	350.000
226.71	-71.429
227.08	-250.000
227.46	-112.500
227.83	-650.000
228.21	44.444
228.58	-9.091
228.95	100.000
229.33	210.000
229.70	-18.750
230.08	-187.500
230.45	-57.143
230.82	57.143
231.20	-60.000
231.57	14.286
231.95	-14.286
232.32	-40.000
232.69	14.286
233.07	266.667
233.44	-140.000
233.81	-120.000
234.19	55.556
234.56	17.647
234.93	550.000
235.31	175.000
235.68	-220.000
236.05	-23.077
236.43	-5.000
236.80	41.176
237.17	25.000
237.55	10.000
237.92	22.222
238.29	30.556
238.67	73.333
239.04	35.294
239.41	0.000
239.79	63.333
240.16	60.976
240.53	26.316
240.91	26.087
241.28	26.984
241.65	46.429
242.02	36.986
242.40	30.000
242.77	42.373
243.14	39.394
243.51	40.000
243.89	45.977
244.26	37.931
244.63	41.667
245.00	31.959
245.38	36.082
245.75	32.584
246.12	31.034
246.49	37.190
246.87	38.462
247.24	33.613
247.61	42.982
247.98	36.585
248.36	39.375
248.73	35.526
249.10	40.260
249.47	39.873
249.84	37.255
250.22	40.588
250.59	43.137
250.96	40.376
251.33	40.698
251.70	44.706
252.08	34.518
252.45	37.129
252.82	40.201
253.19	38.249
253.56	39.720
253.94	40.541
254.31	44.348
254.68	44.737
255.05	37.008
255.42	39.738
255.79	43.243
256.16	43.580
256.54	41.045
256.91	40.304
257.28	38.290
257.65	38.577
258.02	37.943
258.39	41.414
258.76	45.788
259.14	41.860
259.51	41.748
259.88	40.206
260.25	40.196
260.62	45.486
260.99	40.000
261.36	41.438
261.73	41.772
262.10	39.818
262.47	43.558
262.85	38.871
263.22	41.846
263.59	41.433
263.96	45.342
264.33	46.061
264.70	41.369
265.07	41.964
265.44	43.626
265.81	40.395
266.18	42.623
266.55	42.159
266.92	41.969
267.29	42.559
267.66	40.409
268.03	43.979
268.40	39.687
268.77	46.791
269.14	42.446
269.51	40.360
269.88	41.895
270.25	39.286
270.62	38.049
270.99	38.619
271.36	41.076
271.73	42.488
272.10	41.119
272.47	42.317
272.84	42.079
273.21	43.155
273.58	41.205
273.95	41.419
274.32	42.032
274.69	38.235
275.06	42.188
275.43	39.456
275.80	42.826
276.17	43.908
276.54	39.400
276.91	39.693
277.28	37.555
277.65	40.496
278.02	39.574
278.39	41.575
278.76	42.138
279.13	35.477
279.50	41.807
279.87	39.525
280.23	36.989
280.60	39.571
280.97	41.212
281.34	38.462
281.71	42.094
282.08	38.650
282.45	38.160
282.82	39.189
283.19	39.845
283.56	37.572
283.92	39.089
284.29	38.269
284.66	37.016
285.03	39.686
285.40	39.698
285.77	36.907
286.14	38.267
286.51	39.299
286.87	38.208
287.24	35.912
287.61	36.508
287.98	37.895
288.35	36.049
288.72	39.580
289.08	35.069
289.45	38.840
289.82	36.364
290.19	36.689
290.56	34.477
290.93	34.848
291.29	32.357
291.66	34.961
292.03	32.855
292.40	35.323
292.77	35.088
293.13	30.844
293.50	32.170
293.87	31.450
294.24	33.076
294.60	30.402
294.97	31.696
295.34	29.908
295.71	31.446
296.08	32.138
296.44	30.299
296.81	31.667
297.18	30.145
297.55	30.352
297.91	30.685
298.28	31.530
298.65	28.494
299.02	30.189
299.38	27.633
299.75	29.793
300.12	30.366
300.48	28.986
300.85	29.278
301.22	28.571
301.59	26.974
301.95	27.848
302.32	28.664
302.69	27.612
303.05	26.609
303.42	28.518
303.79	26.402
304.15	28.315
304.52	27.348
304.89	25.731
305.25	27.482
305.62	25.554
305.99	27.018
306.35	27.514
306.72	25.197
307.09	27.594
307.45	27.784
307.82	26.852
308.19	27.642
308.55	26.936
308.92	26.144
309.29	26.145
309.65	25.942
310.02	25.743
310.38	27.003
310.75	28.197
311.12	26.157
311.48	26.193
311.85	25.864
312.22	25.738
312.58	26.008
312.95	26.147
313.31	26.190
313.68	25.759
314.05	24.694
314.41	25.155
314.78	25.052
315.14	24.769
315.51	26.501
315.87	26.127
316.24	26.188
316.61	26.378
316.97	25.794
317.34	25.781
317.70	23.805
318.07	24.808
318.43	24.902
318.80	23.769
319.16	24.707
319.53	25.736
319.89	24.606
320.26	24.899
320.62	25.476
320.99	23.800
321.35	23.741
321.72	24.714
322.08	24.673
322.45	24.569
322.81	24.853
323.18	24.828
323.54	24.228
323.91	24.343
324.27	24.219
324.64	24.719
325.00	25.182
325.37	25.528
325.73	24.207
326.10	24.977
326.46	25.561
326.83	25.022
327.19	24.760
327.56	24.587
327.92	25.968
328.29	23.929
328.65	24.811
329.01	25.000
329.38	25.346
329.74	24.646
330.11	24.004
330.47	25.788
330.84	24.038
331.20	25.000
331.56	24.444
331.93	24.110
332.29	25.390
332.66	24.344
333.02	23.327
333.38	23.556
333.75	24.359
334.11	23.098
334.48	24.932
334.84	23.168
335.20	24.337
335.57	23.572
335.93	23.848
336.29	24.125
336.66	24.432
337.02	23.327
337.38	23.519
337.75	25.000
338.11	23.535
338.47	24.270
338.84	24.030
339.20	24.680
339.56	24.679
339.93	24.530
340.29	23.761
340.65	24.552
341.02	23.670
341.38	22.920
341.74	22.880
342.11	22.704
342.47	23.310
342.83	23.702
343.20	23.955
343.56	22.696
343.92	24.004
344.28	23.911
344.65	22.107
345.01	22.645
345.37	23.213
345.73	23.515
346.10	24.331
346.46	22.624
346.82	22.504
347.19	22.028
347.55	23.475
347.91	23.625
348.27	23.929
348.63	23.509
349.00	21.985
349.36	22.361
349.72	22.803
350.08	22.787
350.45	22.267
350.81	22.924
351.17	21.580
351.53	22.367
351.89	21.800
352.26	22.400
352.62	23.790
352.98	22.570
353.34	22.222
353.70	23.220
354.07	20.968
354.43	22.258
354.79	21.635
355.15	22.540
355.51	22.785
355.87	21.845
356.24	21.941
356.60	21.908
356.96	22.381
357.32	21.965
357.68	21.970
358.04	21.325
358.40	22.428
358.77	22.408
359.13	22.498
359.49	21.109
359.85	22.699
360.21	21.691
360.57	21.347
360.93	21.256
361.29	20.091
361.66	21.630
362.02	22.424
362.38	21.630
362.74	21.347
363.10	22.197
363.46	22.239
363.82	22.464
364.18	20.738
364.54	21.471
364.90	21.362
365.26	20.306
365.62	22.482
365.98	21.994
366.35	21.340
366.71	21.212
367.07	20.972
367.43	20.417
367.79	20.848
368.15	21.249
368.51	21.340
368.87	20.531
369.23	21.083
369.59	21.647
369.95	21.188
370.31	21.387
370.67	21.045
371.03	20.911
371.39	21.225
371.75	21.099
372.11	21.541
372.47	21.893
372.83	22.214
373.19	20.827
373.55	20.433
373.91	21.382
374.27	21.262
374.63	21.321
374.99	19.645
375.35	21.100
375.71	21.119
376.07	20.787
376.42	20.476
376.78	20.872
377.14	20.041
377.50	20.053
377.86	21.419
378.22	20.166
378.58	20.962
378.94	20.731
379.30	20.524
379.66	20.251
380.02	19.988
380.38	19.720
380.74	19.988
381.09	21.166
381.45	20.245
381.81	20.173
382.17	20.876
382.53	20.112
382.89	20.653
383.25	20.037
383.61	20.122
383.97	19.175
384.32	19.637
384.68	20.186
385.04	19.179
385.40	20.784
385.76	21.509
386.12	20.440
386.48	20.307
386.83	20.609
387.19	20.208
387.55	20.013
387.91	19.560
388.27	19.597
388.62	20.831
388.98	19.091
389.34	20.862
389.70	20.696
390.06	20.013
390.42	19.236
390.77	20.405
391.13	19.672
391.49	19.664
391.85	20.403
392.20	19.523
392.56	20.153
392.92	20.141
393.28	19.634
393.64	19.640
393.99	20.752
394.35	19.987
394.71	19.987
395.07	19.045
395.42	20.097
395.78	19.153
396.14	20.429
396.50	19.658
396.85	19.768
397.21	20.238
397.57	20.690
397.92	19.652
398.28	20.115
398.64	19.940
399.00	20.485
399.35	18.454
399.71	19.414
400.07	20.375
400.42	19.767
400.78	20.392
401.14	20.085
401.49	20.191
401.85	19.744
402.21	19.940
402.57	19.375
402.92	18.758
403.28	20.551
403.63	19.924
403.99	19.324
404.35	19.113
404.70	19.405
405.06	19.683
405.42	19.702
405.77	19.349
406.13	19.790
406.49	18.650
406.84	19.743
407.20	19.807
407.55	18.931
407.91	19.318
408.27	18.547
408.62	19.508
408.98	19.470
409.34	19.517
409.69	19.186
410.05	18.842
410.40	19.630
410.76	19.361
411.11	18.812
411.47	19.329
411.83	19.335
412.18	19.434
412.54	19.600
412.89	19.828
413.25	19.434
413.60	19.193
413.96	19.325
414.31	19.268
414.67	19.051
415.03	19.108
415.38	18.995
415.74	19.153
416.09	19.138
416.45	19.784
416.80	19.432
417.16	20.166
417.51	19.587
417.87	19.492
418.22	19.883
418.58	18.997
418.93	20.000
419.29	18.054
419.64	18.989
420.00	19.647
420.35	19.164
420.71	20.231
421.06	20.074
421.42	20.192
421.77	19.769
422.12	18.899
422.48	19.383
422.83	19.490
423.19	19.639
423.54	19.694
423.90	18.963
424.25	19.747
424.61	20.012
424.96	19.048
425.31	20.913
425.67	19.542
426.02	19.140
426.38	20.163
426.73	19.552
427.09	20.506
427.44	19.471
427.79	18.916
428.15	19.478
428.50	19.927
428.85	19.410
429.21	19.864
429.56	19.838
429.92	19.979
430.27	19.098
430.62	19.080
430.98	18.737
431.33	19.926
431.68	18.786
432.04	19.732
432.39	18.711
432.74	19.002
433.10	20.172
433.45	19.534
433.80	20.081
434.16	18.726
434.51	20.269
434.86	20.093
435.22	19.181
435.57	19.464
435.92	18.922
436.28	18.962
436.63	19.110
436.98	19.293
437.34	18.754
437.69	19.022
438.04	18.234
438.39	18.937
438.75	19.429
439.10	19.185
439.45	19.781
439.81	19.266
440.16	19.952
440.51	20.478
440.86	20.785
441.22	19.853
441.57	19.426
441.92	20.409
442.27	19.734
442.63	19.861
442.98	19.529
443.33	19.421
443.68	19.523
444.03	20.119
444.39	19.528
444.74	20.624
445.09	20.100
445.44	20.627
445.79	20.423
446.15	19.769
446.50	19.301
446.85	19.713
447.20	19.969
447.55	20.368
447.91	20.135
448.26	19.294
448.61	20.265
448.96	19.220
449.31	19.653
449.66	19.861
450.02	19.909
450.37	18.909
450.72	19.530
451.07	21.076
451.42	19.351
451.77	19.831
452.12	19.199
452.47	18.802
452.83	19.317
453.18	18.975
453.53	20.544
453.88	20.097
454.23	19.668
454.58	20.844
454.93	19.652
455.28	17.968
455.63	19.529
455.98	20.746
456.34	18.838
456.69	19.250
457.04	19.219
457.39	19.016
457.74	19.528
458.09	19.011
458.44	19.075
458.79	19.328
459.14	20.538
459.49	19.881
459.84	19.402
460.19	19.478
460.54	19.988
460.89	19.489
461.24	19.814
461.59	19.834
461.94	19.182
462.29	19.421
462.64	19.003
462.99	19.567
463.34	18.915
463.69	19.691
464.04	19.310
464.39	20.012
464.74	18.712
465.09	19.963
465.44	19.908
465.79	19.728
466.14	20.125
466.49	18.976
466.84	20.107
467.19	19.337
467.54	19.476
467.89	17.941
468.24	18.856
468.59	19.619
468.94	19.175
469.29	19.082
469.64	20.027
469.99	19.411
470.34	18.089
470.68	18.568
471.03	19.250
471.38	18.117
471.73	19.188
472.08	18.521
472.43	18.188
472.78	17.958
473.13	18.435
473.48	19.283
473.83	19.676
474.17	18.977
474.52	18.826
474.87	19.333
475.22	18.243
475.57	18.916
475.92	18.596
476.27	19.092
476.61	18.981
476.96	18.684
477.31	19.578
477.66	18.652
478.01	18.754
478.36	18.519
478.70	19.195
479.05	19.505
479.40	19.343
479.75	18.561
480.10	18.740
480.45	18.250
480.79	19.738
481.14	19.672
481.49	18.916
481.84	19.112
482.19	18.756
482.53	18.705
482.88	18.807
483.23	18.378
483.58	18.632
483.92	17.957
484.27	18.733
484.62	18.781
484.97	18.242
485.31	18.497
485.66	19.452
486.01	20.860
486.36	20.598
486.70	20.667
487.05	20.952
487.40	20.346
487.75	19.549
488.09	19.005
488.44	19.464
488.79	19.387
489.13	18.790
489.48	18.598
489.83	18.341
490.17	17.933
490.52	17.875
490.87	18.047
491.22	18.672
491.56	17.505
491.91	18.164
492.26	19.300
492.60	18.906
492.95	18.888
493.30	18.319
493.64	18.566
493.99	18.454
494.34	17.864
494.68	18.381
495.03	18.005
495.37	17.910
495.72	18.072
496.07	18.976
496.41	18.679
496.76	18.148
497.11	17.792
497.45	18.091
497.80	18.870
498.14	17.586
498.49	18.182
498.84	18.114
499.18	18.675
499.53	18.304
499.87	17.656
500.22	18.200
500.56	18.810
500.91	17.620
501.26	17.746
501.60	18.052
501.95	17.807
502.29	18.354
502.64	18.822
502.98	18.056
503.33	18.060
503.67	18.265
504.02	18.524
504.36	18.654
504.71	18.434
505.06	18.118
505.40	18.020
505.75	17.990
506.09	17.942
506.44	18.480
506.78	18.265
507.13	17.580
507.47	17.076
507.82	17.361
508.16	17.221
508.51	18.101
508.85	17.530
509.19	16.871
509.54	17.641
509.88	18.393
510.23	18.182
510.57	17.905
510.92	16.791
511.26	17.130
511.61	17.877
511.95	17.973
512.30	17.572
512.64	17.919
512.98	17.518
513.33	17.627
513.67	16.600
514.02	17.735
514.36	18.286
514.70	18.007
515.05	17.156
515.39	17.769
515.74	18.084
516.08	16.975
516.42	17.786
516.77	17.847
517.11	17.982
517.46	17.594
517.80	17.282
518.14	17.759
518.49	16.647
518.83	17.497
519.17	16.737
519.52	17.348
519.86	16.747
520.20	17.375
520.55	16.198
520.89	16.876
521.23	17.036
521.58	17.287
521.92	16.859
522.26	17.176
522.61	16.299
522.95	17.417
523.29	17.090
523.64	17.344
523.98	17.434
524.32	17.010
524.66	17.862
525.01	16.753
525.35	16.915
525.69	16.431
526.04	16.468
526.38	18.677
526.72	16.808
527.06	16.991
527.41	16.821
527.75	16.890
528.09	17.342
528.43	17.826
528.78	17.426
529.12	17.032
529.46	16.764
529.80	17.669
530.15	17.492
530.49	17.306
530.83	17.579
531.17	17.126
531.51	16.895
531.86	15.704
532.20	16.006
532.54	17.223
532.88	15.948
533.22	17.339
533.57	17.104
533.91	17.232
534.25	18.099
534.59	17.191
534.93	16.929
535.27	16.561
535.62	17.693
535.96	18.134
536.30	17.282
536.64	18.263
536.98	16.655
537.32	16.714
537.66	17.461
538.01	16.923
538.35	16.921
538.69	18.176
539.03	17.840
539.37	18.170
539.71	17.246
540.05	16.090
540.39	17.659
540.73	16.876
541.07	18.508
541.42	17.675
541.76	17.688
542.10	16.999
542.44	17.234
542.78	16.586
543.12	16.896
543.46	17.455
543.80	17.974
544.14	17.290
544.48	17.189
544.82	18.182
545.16	18.511
545.50	16.956
545.84	16.218
546.18	16.809
546.52	17.304
546.86	17.901
547.20	16.738
547.54	16.466
547.88	17.935
548.22	17.160
548.56	17.414
548.90	17.992
549.24	17.149
549.58	17.560
549.92	16.726
550.26	16.557
550.60	17.621
550.94	16.654
551.28	16.924
551.62	17.615
551.96	16.842
552.30	17.617
552.64	16.784
552.98	17.370
553.32	17.261
553.66	15.457
554.00	17.153
554.34	18.095
554.68	16.445
555.02	17.857
555.36	17.352
555.69	16.557
556.03	16.560
556.37	16.940
556.71	16.390
557.05	16.555
557.39	15.762
557.73	16.792
558.07	18.100
558.41	17.534
558.75	16.758
559.08	16.076
559.42	17.937
559.76	16.173
560.10	16.055
560.44	17.498
560.78	17.622
561.12	16.432
561.45	17.709
561.79	18.137
562.13	17.530
562.47	16.547
562.81	17.867
563.15	17.983
563.48	18.034
563.82	17.227
564.16	17.688
564.50	16.959
564.84	17.671
565.17	15.828
565.51	18.169
565.85	18.107
566.19	17.706
566.52	18.029
566.86	17.545
567.20	17.995
567.54	17.762
567.88	18.864
568.21	18.891
568.55	18.696
568.89	18.686
569.23	18.729
569.56	18.214
569.90	20.097
570.24	19.948
570.57	19.745
570.91	20.251
571.25	20.289
571.59	19.994
571.92	19.615
572.26	19.988
572.60	19.721
572.93	19.925
573.27	19.906
573.61	20.197
573.95	20.563
574.28	20.816
574.62	19.832
574.96	19.796
575.29	20.268
575.63	19.409
575.97	19.707
576.30	20.523
576.64	20.159
576.98	21.133
577.31	20.521
577.65	20.550
577.98	20.795
578.32	20.730
578.66	20.417
578.99	20.870
579.33	19.960
579.67	20.490
580.00	20.177
580.34	19.900
580.67	20.203
581.01	20.605
581.35	20.715
581.68	20.409
582.02	20.885
582.35	20.761
582.69	20.958
583.02	20.679
583.36	20.440
583.70	21.106
584.03	20.767
584.37	20.779
584.70	20.192
585.04	19.637
585.37	20.344
585.71	20.193
586.04	20.600
586.38	19.845
586.72	20.143
587.05	20.653
587.39	20.408
587.72	21.104
588.06	20.565
588.39	20.336
588.73	20.543
589.06	20.189
589.40	20.256
589.73	20.920
590.07	20.091
590.40	20.163
590.73	19.687
591.07	19.932
591.40	19.724
591.74	20.000
592.07	19.388
592.41	19.567
592.74	19.793
593.08	19.280
593.41	20.066
593.75	20.249
594.08	19.430
594.41	19.978
594.75	19.466
595.08	19.561
595.42	20.280
595.75	19.827
596.09	20.367
596.42	19.512
596.75	19.849
597.09	19.636
597.42	19.377
597.75	19.789
598.09	19.239
598.42	19.314
598.76	19.091
599.09	19.431
599.42	19.439
599.76	19.488
600.09	19.419
600.42	19.712
600.76	19.019
601.09	19.733
601.42	19.271
601.76	19.929
602.09	19.637
602.42	19.924
602.76	19.610
603.09	19.061
603.42	20.527
603.76	19.194
604.09	19.198
604.42	19.670
604.76	20.294
605.09	19.287
605.42	19.503
605.75	19.483
606.09	19.788
606.42	19.141
606.75	19.134
607.09	19.077
607.42	18.476
607.75	19.050
608.08	19.452
608.42	19.278
608.75	19.566
609.08	19.033
609.41	19.898
609.75	18.901
610.08	19.321
610.41	18.116
610.74	19.015
611.07	19.225
611.41	19.357
611.74	19.883
612.07	19.272
612.40	18.490
612.73	19.661
613.07	18.223
613.40	18.818
613.73	17.963
614.06	19.143
614.39	19.007
614.72	18.599
615.06	19.274
615.39	17.959
615.72	18.407
616.05	18.994
616.38	18.234
616.71	18.104
617.05	17.480
617.38	17.976
617.71	18.239
618.04	18.603
618.37	19.672
618.70	18.878
619.03	18.542
619.36	17.728
619.69	18.423
620.03	19.065
620.36	18.312
620.69	18.059
621.02	16.896
621.35	17.344
621.68	16.837
622.01	17.500
622.34	17.957
622.67	18.139
623.00	17.994
623.33	18.674
623.66	17.876
623.99	17.927
624.32	18.479
624.65	18.045
624.99	17.532
625.32	16.224
625.65	18.382
625.98	17.647
626.31	16.791
626.64	17.591
626.97	17.539
627.30	17.426
627.63	16.724
627.96	16.352
628.29	16.374
628.62	16.716
628.95	17.735
629.28	16.230
629.61	16.550
629.94	18.573
630.26	16.798
630.59	16.753
630.92	16.923
631.25	15.385
631.58	15.969
631.91	15.132
632.24	16.284
632.57	16.818
632.90	14.828
633.23	16.353
633.56	14.861
633.89	16.276
634.22	16.173
634.55	15.502
634.88	16.347
635.20	16.282
635.53	16.800
635.86	14.304
636.19	15.524
636.52	14.796
636.85	14.640
637.18	14.717
637.51	16.352
637.83	14.586
638.16	16.780
638.49	15.123
638.82	15.921
639.15	14.383
639.48	15.131
639.81	16.457
640.13	15.584
640.46	14.577
640.79	14.875
641.12	15.214
641.45	15.616
641.77	14.370
642.10	14.376
642.43	14.309
642.76	14.191
643.09	15.994
643.41	12.136
643.74	13.674
644.07	14.778
644.40	15.878
644.73	15.236
645.05	13.591
645.38	14.815
645.71	11.525
646.04	14.183
646.36	15.248
646.69	13.849
647.02	14.178
647.35	13.433
647.67	13.528
648.00	15.858
648.33	15.188
648.66	14.746
648.98	13.735
649.31	13.554
649.64	15.385
649.96	13.128
650.29	15.162
650.62	14.017
650.94	13.704
651.27	12.849
651.60	13.514
651.92	15.559
652.25	14.032
652.58	15.167
652.90	14.923
653.23	16.975
653.56	13.198
653.88	14.605
654.21	9.982
654.54	16.808
654.86	16.808
655.19	15.936
655.52	20.356
655.84	21.232
656.17	24.287
656.49	32.947
656.82	34.591
657.15	26.583
657.47	19.360
657.80	14.536
658.13	14.428
658.45	21.444
658.78	21.784
659.10	21.072
659.43	20.253
659.75	19.586
660.08	17.724
660.41	17.671
660.73	16.160
661.06	16.291
661.38	11.937
661.71	12.526
662.03	15.665
662.36	12.527
662.68	13.717
663.01	15.284
663.33	9.977
663.66	13.256
663.98	12.326
664.31	14.072
664.63	12.903
664.96	10.217
665.28	11.700
665.61	14.502
665.93	14.348
666.26	16.052
666.58	12.081
666.91	11.059
667.23	16.274
667.56	10.900
667.88	11.031
668.21	13.126
668.53	13.948
668.86	15.094
669.18	11.557
669.50	13.075
669.83	12.791
670.15	14.685
670.48	13.158
670.80	15.207
671.13	12.975
671.45	10.731
671.77	15.021
672.10	15.446
672.42	15.730
672.75	15.631
673.07	17.889
673.39	18.349
673.72	12.032
674.04	13.542
674.37	15.466
674.69	13.919
675.01	15.778
675.34	13.964
675.66	15.046
675.98	14.856
676.31	14.220
676.63	14.964
676.95	14.545
677.28	17.647
677.60	15.663
677.92	13.761
678.25	16.630
678.57	14.935
678.89	13.025
679.22	13.199
679.54	15.863
679.86	12.922
680.18	16.505
680.51	16.477
680.83	14.314
681.15	15.400
681.48	15.779
681.80	15.496
682.12	15.121
682.44	12.971
682.77	15.232
683.09	10.984
683.41	13.636
683.73	12.673
684.06	14.602
684.38	13.333
684.70	14.379
685.02	13.278
685.34	15.020
685.67	14.447
685.99	14.828
686.31	13.274
686.63	16.512
686.96	12.167
687.28	13.333
687.60	15.209
687.92	16.768
688.24	14.113
688.56	14.192
688.89	13.393
689.21	16.000
689.53	12.761
689.85	15.116
690.17	14.955
690.49	14.184
690.82	14.078
691.14	15.238
691.46	14.252
691.78	15.541
692.10	15.054
692.42	12.771
692.74	13.889
693.06	14.189
693.39	14.253
693.71	13.348
694.03	14.319
694.35	16.589
694.67	14.141
694.99	14.099
695.31	15.666
695.63	15.000
695.95	12.626
696.27	12.435
696.59	14.167
696.91	13.725
697.23	12.339
697.56	13.366
697.88	16.129
698.20	16.401
698.52	17.412
698.84	11.722
699.16	13.750
699.48	17.043
699.80	17.122
700.12	15.094
700.44	12.885
700.76	10.756
701.08	13.333
701.40	11.145
701.72	18.827
702.04	13.201
702.36	13.712
702.68	13.814
703.00	12.727
703.32	14.076
703.64	11.582
703.96	10.435
704.28	15.031
704.60	14.921
704.91	12.618
705.23	13.621
705.55	12.014
705.87	18.773
706.19	14.074
706.51	14.777
706.83	13.183
707.15	12.461
707.47	13.445
707.79	15.885
708.11	17.250
708.43	16.000
708.74	17.054
709.06	20.845
709.38	11.927
709.70	12.722
710.02	11.783
710.34	17.337
710.66	9.615
710.98	12.252
711.29	18.689
711.61	12.881
711.93	17.264
712.25	19.244
712.57	11.722
712.89	13.060
713.20	15.571
713.52	12.195
713.84	10.922
714.16	18.900
714.48	11.290
714.80	15.385
715.11	19.149
715.43	12.539
715.75	13.667
716.07	13.621
716.39	17.114
716.70	12.546
717.02	9.160
717.34	13.765
717.66	11.062
717.97	9.130
718.29	10.460
718.61	15.354
718.93	15.116
719.24	15.589
719.56	15.261
719.88	16.838
720.20	13.636
720.51	13.410
720.83	13.514
721.15	14.706
721.46	11.694
721.78	13.043
722.10	11.524
722.42	9.959
722.73	17.551
723.05	17.551
723.37	14.831
723.68	17.568
724.00	16.239
724.32	10.667
724.63	10.000
724.95	18.777
725.27	9.677
725.58	13.983
725.90	13.492
726.22	15.444
726.53	20.678
726.85	16.479
727.16	15.472
727.48	17.004
727.80	15.385
728.11	13.559
728.43	15.686
728.74	10.484
729.06	11.600
729.38	19.173
729.69	14.741
730.01	11.538
730.32	16.418
730.64	18.375
730.96	21.887
731.27	15.333
731.59	17.627
731.90	16.879
732.22	16.719
732.53	17.940
732.85	18.085
733.16	18.182
733.48	11.511
733.80	17.754
734.11	14.576
734.43	20.275
734.74	17.879
735.06	11.401
735.37	17.221
735.69	16.835
736.00	13.589
736.32	15.101
736.63	8.803
736.95	18.771
737.26	17.082
737.58	18.456
737.89	15.385
738.21	16.165
738.52	13.992
738.83	19.651
739.15	13.974
739.46	18.504
739.78	14.286
740.09	17.974
740.41	17.391
740.72	14.173
741.04	17.409
741.35	13.191
741.66	13.744
741.98	13.776
742.29	13.366
742.61	10.471
742.92	11.848
743.23	7.407
743.55	19.457
743.86	15.789
744.18	12.440
744.49	14.362
744.80	7.609
745.12	16.578
745.43	10.244
745.74	18.229
746.06	12.683
746.37	18.325
746.68	13.744
747.00	11.702
747.31	13.930
747.62	12.136
747.94	14.354
748.25	14.851
748.56	13.115
748.88	14.660
749.19	16.489
749.50	14.778
749.82	15.566
750.13	17.431
750.44	18.797
750.75	18.657
751.07	18.613
751.38	14.559
751.69	13.725
752.01	17.054
752.32	10.757
752.63	15.020
752.94	13.793
753.26	17.992
753.57	15.837
753.88	13.274
754.19	7.917
754.51	10.744
754.82	12.146
755.13	21.250
755.44	16.129
755.75	15.625
756.07	12.062
756.38	7.925
756.69	15.709
757.00	19.333
757.31	15.686
757.63	14.024
757.94	15.000
758.25	15.068
758.56	13.032
758.87	16.714
759.18	17.134
759.50	18.182
759.81	19.398
760.12	17.742
760.43	17.273
760.74	15.432
761.05	16.923
761.36	20.739
761.67	16.667
761.99	21.769
762.30	12.727
762.61	13.439
762.92	15.385
763.23	9.459
763.54	11.215
763.85	14.831
764.16	20.747
764.47	15.323
764.78	13.919
765.10	22.896
765.41	17.666
765.72	20.635
766.03	14.286
766.34	17.153
766.65	19.920
766.96	11.111
767.27	12.766
767.58	9.195
767.89	7.092
768.20	15.341
768.51	16.484
768.82	14.286
769.13	13.364
769.44	13.734
769.75	14.612
770.06	19.828
770.37	15.865
770.68	14.213
770.99	14.932
771.30	16.667
771.61	16.742
771.92	18.534
772.23	16.749
772.54	18.817
772.85	15.432
773.16	13.483
773.47	21.569
773.78	15.033
774.09	19.760
774.39	12.667
774.70	10.828
775.01	12.414
775.32	20.714
775.63	11.570
775.94	7.634
776.25	17.323
776.56	19.167
776.87	11.538
777.18	12.821
777.48	9.483
777.79	2.609
778.10	-2.857
778.41	3.604
778.72	19.841
779.03	10.526
779.34	12.766
779.65	22.603
779.95	10.959
780.26	11.724
780.57	17.073
780.88	21.260
781.19	18.103
781.50	21.705
781.80	25.444
782.11	9.434
782.42	19.231
782.73	7.914
783.04	14.815
783.34	13.194
783.65	12.821
783.96	11.475
784.27	17.931
784.57	17.886
784.88	16.406
785.19	21.000
785.50	30.000
785.81	11.207
786.11	12.931
786.42	6.796
786.73	9.091
787.04	15.306
787.34	15.179
787.65	2.857
787.96	10.619
788.26	18.182
788.57	8.547
788.88	19.531
789.19	9.524
789.49	12.174
789.80	12.245
790.11	-2.020
790.41	12.727
790.72	19.565
791.03	7.955
791.33	10.000
791.64	2.500
791.95	3.488
792.25	12.766
792.56	16.854
792.87	8.219
793.17	8.696
793.48	16.000
793.79	3.750
794.09	22.500
794.40	10.377
794.70	22.330
795.01	7.317
795.32	21.368
795.62	6.667
795.93	12.745
796.23	13.208
796.54	8.333
796.85	8.824
797.15	5.634
797.46	8.333
797.76	13.636
798.07	4.651
798.37	0.000
798.68	-6.061
798.99	11.111
799.29	27.143
799.60	15.942
799.90	14.667
800.21	3.279
800.51	10.769
800.82	10.169
801.12	8.696
801.43	14.754
801.73	15.873
802.04	16.000
802.34	2.985
802.65	17.308
802.95	-10.714
803.26	-3.846
803.56	11.765
803.87	-13.043
804.17	8.000
804.48	33.333
804.78	5.556
805.09	21.739
805.39	13.333
805.70	18.519
806.00	-14.035
806.30	9.859
806.61	8.571
806.91	12.500
807.22	19.737
807.52	30.667
807.83	1.818
808.13	6.944
808.43	26.471
808.74	-2.985
809.04	8.475
809.35	5.769
809.65	12.500
809.95	-35.135
810.26	-9.091
810.56	15.068
810.86	-9.524
811.17	22.000
811.47	10.204
811.77	10.526
812.08	-11.364
812.38	15.094
812.69	0.000
812.99	-9.091
813.29	-13.158
813.59	-45.714
813.90	13.636
814.20	12.821
814.50	25.000
814.81	3.774
815.11	-6.383
815.41	22.034
815.72	11.905
816.02	9.804
816.32	25.000
816.62	4.878
816.93	-2.703
817.23	-14.286
817.53	12.500
817.84	2.174
818.14	5.769
818.44	18.421
818.74	23.913
819.04	-30.000
819.35	2.703
819.65	-38.235
819.95	-27.778
820.25	4.762
820.56	25.000
820.86	-44.828
821.16	17.500
821.46	23.404
821.76	0.000
822.07	-11.628
822.37	0.000
822.67	-43.750
822.97	23.810
823.27	-3.571
823.57	-36.000
823.88	-33.333
824.18	14.286
824.48	14.706
824.78	16.129
825.08	-17.391
825.38	15.152
825.69	-41.667
825.99	18.421
826.29	-8.333
826.59	0.000
826.89	-19.048
827.19	19.565
827.49	17.500
827.79	8.571
828.09	25.000
828.39	15.152
828.70	43.243
829.00	-3.571
829.30	-9.524
829.60	23.333
829.90	34.375
830.20	7.895
830.50	-14.815
830.80	-17.391
831.10	-18.182
831.40	51.515
831.70	16.129
832.00	23.810
832.30	-38.095
832.60	-150.000
832.90	-6.897
833.20	-10.000
833.50	-3.030
833.80	18.519
834.10	-30.769
834.40	18.750
834.70	55.556
835.00	0.000
835.30	50.000
835.60	-20.000
835.90	9.677
836.20	4.545
836.50	14.286
836.80	-7.692
837.10	17.857
837.40	-433.333
837.70	4.545
838.00	-72.727
838.30	21.739
838.60	23.077
838.90	22.727
839.19	21.429
839.49	50.000
839.79	-38.462
840.09	-50.000
840.39	35.714
840.69	7.143
840.99	-34.615
841.29	-52.632
841.59	-120.000
841.88	0.000
842.18	0.000
842.48	25.000
842.78	-13.333
843.08	14.815
843.38	-120.000
843.68	0.000
843.97	-33.333
844.27	-33.333
844.57	30.000
844.87	22.222
845.17	-57.143
845.47	-6.667
845.76	4.762
846.06	0.000
846.36	-150.000
846.66	0.000
846.96	-53.333
847.25	-187.500
847.55	50.000
847.85	62.500
848.15	-31.818
848.44	-633.333
848.74	5.000
849.04	-3.704
849.34	-72.727
849.63	-183.333
849.93	-120.000
850.23	-22.222
850.53	70.000
850.82	-30.769
851.12	-33.333
851.42	33.333
851.71	-23.077
852.01	-7.143
852.31	-425.000
852.61	-63.636
852.90	25.000
853.20	15.789
853.50	-91.667
853.79	17.391
854.09	25.000
854.39	-10.526
854.68	4.167
854.98	12.903
855.28	-30.769
855.57	10.000
855.87	-27.778
856.17	3.704
856.46	14.286
856.76	6.667
857.05	0.000
857.35	4.000
857.65	-11.111
857.94	-15.385
858.24	-3.448
858.53	-5.556
858.83	62.963
859.13	-13.636
859.42	-13.043
859.72	-250.000
860.01	-366.667
860.31	24.000
860.60	0.000
860.90	-500.000
861.20	13.333
861.49	-400.000
861.79	-46.667
862.08	-20.000
862.38	6.667
862.67	-440.000
862.97	16.667
863.26	-58.333
863.56	44.444
863.85	-266.667
864.15	44.444
864.44	10.000
864.74	100.000
865.03	400.000
865.33	-320.000
865.62	33.333
865.92	16.667
866.21	-283.333
866.51	43.750
866.80	-72.727
867.10	0.000
867.39	-33.333
867.69	0.000
867.98	61.538
868.27	-266.667
868.57	-33.333
868.86	44.444
869.16	46.154
869.45	53.333
869.75	-700.000
870.04	0.000
870.33	-85.714
870.63	42.857
870.92	333.333
871.22	-220.000
871.51	-600.000
871.80	11.111
872.10	633.333
>>>>>End Processed Spectral Data<<<<<
