SpectraSuite Data File
++++++++++++++++++++++++++++++++++++
Date: Fri May 15 20:34:02 PDT 2015
User: schluterlab
Dark Spectrum Present: Yes
Reference Spectrum Present: Yes
Number of Sampled Component Spectra: 1
Spectrometers: USB2E3373
Integration Time (usec): 3000 (USB2E3373)
Spectra Averaged: 3 (USB2E3373)
Boxcar Smoothing: 0 (USB2E3373)
Correct for Electrical Dark: No (USB2E3373)
Strobe/Lamp Enabled: No (USB2E3373)
Correct for Detector Non-linearity: No (USB2E3373)
Correct for Stray Light: No (USB2E3373)
Number of Pixels in Processed Spectrum: 2048
>>>>>Begin Processed Spectral Data<<<<<
178.53	0.000
178.91	0.000
179.29	25.000
179.67	-750.000
180.04	-28.571
180.42	-100.000
180.80	-300.000
181.18	133.333
181.56	400.000
181.94	-150.000
182.31	600.000
182.69	-140.000
183.07	-266.667
183.45	-120.000
183.83	16.667
184.20	-9.091
184.58	33.333
184.96	325.000
185.34	33.333
185.72	-300.000
186.09	130.769
186.47	-1000.000
186.85	116.667
187.23	66.667
187.61	100.000
187.98	-33.333
188.36	-33.333
188.74	-266.667
189.12	-41.176
189.49	38.889
189.87	0.000
190.25	42.857
190.63	-250.000
191.00	-233.333
191.38	15.789
191.76	450.000
192.14	-200.000
192.51	-100.000
192.89	-111.111
193.27	0.000
193.65	83.333
194.02	190.909
194.40	-70.000
194.78	-137.500
195.15	-41.667
195.53	-125.000
195.91	325.000
196.29	-175.000
196.66	130.769
197.04	14.286
197.42	-55.556
197.79	-666.667
198.17	-192.308
198.55	1800.000
198.92	-533.333
199.30	800.000
199.68	-40.000
200.05	-66.667
200.43	0.000
200.81	-400.000
201.18	-300.000
201.56	1300.000
201.94	-700.000
202.31	166.667
202.69	-400.000
203.07	250.000
203.44	-100.000
203.82	0.000
204.19	21.429
204.57	-433.333
204.95	112.500
205.32	-50.000
205.70	71.429
206.08	-75.000
206.45	177.778
206.83	14.286
207.20	-28.571
207.58	-500.000
207.96	-166.667
208.33	-110.000
208.71	-300.000
209.08	-183.333
209.46	-700.000
209.84	0.000
210.21	-600.000
210.59	-42.857
210.96	-50.000
211.34	-175.000
211.71	33.333
212.09	-257.143
212.46	-1200.000
212.84	0.000
213.22	-60.000
213.59	600.000
213.97	-61.538
214.34	-81.818
214.72	-166.667
215.09	500.000
215.47	-30.769
215.84	-81.818
216.22	-100.000
216.59	-12.500
216.97	-50.000
217.34	-275.000
217.72	-80.000
218.09	-50.000
218.47	225.000
218.84	-400.000
219.22	66.667
219.59	-60.000
219.97	433.333
220.34	-100.000
220.72	-28.571
221.09	-125.000
221.47	50.000
221.84	-600.000
222.22	-750.000
222.59	72.727
222.97	-33.333
223.34	-233.333
223.72	-42.857
224.09	9.524
224.46	32.143
224.84	533.333
225.21	-20.000
225.59	33.333
225.96	-300.000
226.34	375.000
226.71	-142.857
227.08	-83.333
227.46	0.000
227.83	-350.000
228.21	-11.111
228.58	27.273
228.95	-87.500
229.33	100.000
229.70	18.750
230.08	-187.500
230.45	-142.857
230.82	-71.429
231.20	-53.333
231.57	7.143
231.95	-14.286
232.32	-80.000
232.69	0.000
233.07	33.333
233.44	-180.000
233.81	-120.000
234.19	33.333
234.56	-47.059
234.93	600.000
235.31	-200.000
235.68	-220.000
236.05	-61.538
236.43	-40.000
236.80	-70.588
237.17	50.000
237.55	-5.000
237.92	-14.815
238.29	33.333
238.67	20.000
239.04	5.882
239.41	9.756
239.79	-23.333
240.16	65.854
240.53	-5.263
240.91	8.696
241.28	36.508
241.65	32.143
242.02	43.836
242.40	20.000
242.77	10.169
243.14	24.242
243.51	11.250
243.89	41.379
244.26	26.437
244.63	33.333
245.00	19.588
245.38	24.742
245.75	29.213
246.12	25.862
246.49	23.967
246.87	40.385
247.24	19.328
247.61	32.456
247.98	26.016
248.36	21.250
248.73	31.579
249.10	33.117
249.47	28.481
249.84	31.373
250.22	30.588
250.59	32.680
250.96	29.108
251.33	33.140
251.70	28.824
252.08	30.964
252.45	30.693
252.82	30.151
253.19	29.032
253.56	29.439
253.94	34.234
254.31	28.261
254.68	31.579
255.05	29.921
255.42	33.624
255.79	31.274
256.16	31.128
256.54	30.597
256.91	30.038
257.28	27.138
257.65	27.341
258.02	32.270
258.39	36.700
258.76	27.473
259.14	32.558
259.51	32.686
259.88	31.615
260.25	31.373
260.62	31.944
260.99	29.492
261.36	33.562
261.73	30.380
262.10	30.091
262.47	28.834
262.85	29.467
263.22	28.308
263.59	30.530
263.96	30.745
264.33	29.091
264.70	27.381
265.07	30.952
265.44	28.045
265.81	33.051
266.18	27.869
266.55	32.391
266.92	30.052
267.29	30.026
267.66	28.389
268.03	30.628
268.40	30.548
268.77	35.294
269.14	30.935
269.51	32.134
269.88	27.431
270.25	26.020
270.62	30.244
270.99	28.900
271.36	28.606
271.73	32.394
272.10	27.494
272.47	29.314
272.84	29.208
273.21	27.842
273.58	32.289
273.95	26.773
274.32	31.640
274.69	28.281
275.06	30.134
275.43	26.984
275.80	26.711
276.17	29.195
276.54	28.908
276.91	30.263
277.28	29.258
277.65	28.719
278.02	30.213
278.39	29.540
278.76	27.254
279.13	24.481
279.50	31.933
279.87	31.965
280.23	30.108
280.60	29.630
280.97	30.303
281.34	24.808
281.71	30.185
282.08	25.562
282.45	24.853
282.82	28.185
283.19	29.400
283.56	30.829
283.92	25.806
284.29	27.500
284.66	25.775
285.03	27.505
285.40	28.355
285.77	27.417
286.14	28.159
286.51	28.782
286.87	26.143
287.24	27.808
287.61	26.102
287.98	28.421
288.35	26.516
288.72	26.095
289.08	24.306
289.45	26.362
289.82	24.476
290.19	25.427
290.56	25.043
290.93	26.263
291.29	23.729
291.66	24.724
292.03	23.764
292.40	26.452
292.77	24.721
293.13	21.429
293.50	21.396
293.87	25.344
294.24	24.575
294.60	23.845
294.97	21.726
295.34	21.779
295.71	22.355
296.08	22.272
296.44	19.915
296.81	22.222
297.18	21.449
297.55	21.951
297.91	22.192
298.28	21.900
298.65	21.981
299.02	19.677
299.38	20.657
299.75	22.897
300.12	20.157
300.48	20.290
300.85	21.420
301.22	18.442
301.59	19.342
301.95	21.266
302.32	22.179
302.69	20.522
303.05	20.173
303.42	20.050
303.79	21.495
304.15	21.027
304.52	19.144
304.89	19.883
305.25	18.644
305.62	18.903
305.99	17.661
306.35	18.613
306.72	17.323
307.09	18.814
307.45	19.288
307.82	18.519
308.19	20.906
308.55	18.212
308.92	21.133
309.29	18.212
309.65	20.129
310.02	19.032
310.38	18.222
310.75	19.126
311.12	20.022
311.48	18.982
311.85	18.743
312.22	18.565
312.58	18.790
312.95	17.396
313.31	17.909
313.68	19.581
314.05	18.980
314.41	19.072
314.78	19.897
315.14	19.938
315.51	19.565
315.87	18.955
316.24	21.436
316.61	20.079
316.97	20.635
317.34	20.801
317.70	19.598
318.07	19.808
318.43	20.294
318.80	19.602
319.16	19.727
319.53	21.178
319.89	21.752
320.26	20.648
320.62	22.367
320.99	21.294
321.35	20.966
321.72	21.703
322.08	21.551
322.45	22.944
322.81	23.281
323.18	23.160
323.54	22.876
323.91	21.616
324.27	23.926
324.64	23.596
325.00	23.996
325.37	25.253
325.73	23.572
326.10	24.796
326.46	24.395
326.83	24.497
327.19	25.458
327.56	26.412
327.92	26.056
328.29	25.804
328.65	26.132
329.01	26.562
329.38	26.359
329.74	25.307
330.11	26.321
330.47	25.788
330.84	26.154
331.20	27.947
331.56	26.296
331.93	27.306
332.29	28.323
332.66	28.326
333.02	26.394
333.38	26.856
333.75	27.930
334.11	26.231
334.48	27.289
334.84	27.015
335.20	28.545
335.57	26.836
335.93	27.733
336.29	27.624
336.66	26.975
337.02	27.138
337.38	26.944
337.75	27.818
338.11	27.863
338.47	27.099
338.84	28.743
339.20	26.782
339.56	28.532
339.93	27.305
340.29	27.982
340.65	28.047
341.02	27.571
341.38	28.761
341.74	26.855
342.11	25.997
342.47	28.559
342.83	28.287
343.20	26.481
343.56	28.261
343.92	27.812
344.28	28.266
344.65	25.907
345.01	26.448
345.37	27.418
345.73	27.531
346.10	28.300
346.46	28.091
346.82	26.596
347.19	26.185
347.55	27.151
347.91	28.236
348.27	27.486
348.63	27.683
349.00	27.317
349.36	26.933
349.72	27.529
350.08	27.131
350.45	28.172
350.81	26.412
351.17	27.117
351.53	27.592
351.89	26.672
352.26	26.080
352.62	27.903
352.98	26.667
353.34	25.604
353.70	27.427
354.07	26.452
354.43	26.821
354.79	26.920
355.15	26.349
355.51	26.741
355.87	27.508
356.24	26.183
356.60	26.435
356.96	28.175
357.32	27.556
357.68	26.818
358.04	27.706
358.40	27.170
358.77	26.794
359.13	27.942
359.49	25.193
359.85	27.145
360.21	27.113
360.57	26.932
360.93	26.853
361.29	26.511
361.66	26.803
362.02	28.409
362.38	25.971
362.74	27.252
363.10	27.540
363.46	28.021
363.82	29.076
364.18	26.863
364.54	26.471
364.90	25.735
365.26	27.511
365.62	28.102
365.98	28.226
366.35	28.186
366.71	27.568
367.07	27.213
367.43	26.096
367.79	27.138
368.15	27.279
368.51	28.259
368.87	26.920
369.23	26.354
369.59	26.968
369.95	26.540
370.31	26.951
370.67	27.239
371.03	27.334
371.39	27.061
371.75	27.326
372.11	26.748
372.47	27.959
372.83	27.324
373.19	27.318
373.55	27.509
373.91	27.502
374.27	28.278
374.63	27.351
374.99	28.369
375.35	26.741
375.71	27.413
376.07	27.107
376.42	27.551
376.78	28.591
377.14	28.030
377.50	27.357
377.86	27.175
378.22	27.186
378.58	28.910
378.94	27.851
379.30	27.698
379.66	29.154
380.02	28.142
380.38	27.024
380.74	28.067
381.09	28.773
381.45	27.890
381.81	28.501
382.17	28.363
382.53	28.732
382.89	29.127
383.25	28.189
383.61	29.146
383.97	29.016
384.32	28.330
384.68	28.916
385.04	28.676
385.40	28.314
385.76	29.748
386.12	28.655
386.48	30.332
386.83	28.725
387.19	29.243
387.55	29.297
387.91	28.851
388.27	29.060
388.62	29.515
388.98	29.834
389.34	29.731
389.70	30.454
390.06	29.578
390.42	29.728
390.77	29.627
391.13	29.508
391.49	29.560
391.85	30.604
392.20	29.692
392.56	29.561
392.92	29.712
393.28	30.601
393.64	29.790
393.99	29.969
394.35	29.538
394.71	31.226
395.07	30.295
395.42	29.630
395.78	31.075
396.14	30.895
396.50	31.072
396.85	30.328
397.21	30.764
397.57	30.784
397.92	30.737
398.28	31.149
398.64	30.723
399.00	30.530
399.35	30.530
399.71	29.408
400.07	31.016
400.42	29.988
400.78	30.802
401.14	30.853
401.49	31.566
401.85	30.713
402.21	31.446
402.57	31.625
402.92	31.054
403.28	32.080
403.63	31.841
403.99	32.207
404.35	32.667
404.70	30.238
405.06	32.021
405.42	30.764
405.77	30.738
406.13	31.665
406.49	31.439
406.84	32.152
407.20	32.691
407.55	32.968
407.91	32.955
408.27	31.804
408.62	31.815
408.98	31.423
409.34	33.953
409.69	32.106
410.05	31.342
410.40	31.543
410.76	32.087
411.11	32.562
411.47	32.807
411.83	31.262
412.18	32.690
412.54	32.147
412.89	31.835
413.25	32.551
413.60	32.050
413.96	32.147
414.31	32.256
414.67	32.264
415.03	33.089
415.38	32.180
415.74	33.225
416.09	33.703
416.45	32.208
416.80	33.311
417.16	34.185
417.51	33.378
417.87	33.768
418.22	33.355
418.58	33.712
418.93	34.984
419.29	32.202
419.64	34.089
420.00	35.264
420.35	32.239
420.71	33.657
421.06	33.947
421.42	34.736
421.77	34.624
422.12	34.563
422.48	34.272
422.83	34.861
423.19	34.594
423.54	34.039
423.90	34.393
424.25	34.673
424.61	34.945
424.96	35.017
425.31	35.413
425.67	35.094
426.02	35.689
426.38	36.318
426.73	35.835
427.09	36.519
427.44	34.824
427.79	36.535
428.15	35.801
428.50	35.130
428.85	36.671
429.21	36.955
429.56	36.334
429.92	36.055
430.27	34.987
430.62	36.330
430.98	35.297
431.33	36.593
431.68	36.159
432.04	36.221
432.39	36.680
432.74	35.899
433.10	36.897
433.45	37.336
433.80	36.216
434.16	36.343
434.51	37.204
434.86	37.631
435.22	37.577
435.57	36.806
435.92	36.467
436.28	36.911
436.63	37.307
436.98	36.443
437.34	37.629
437.69	37.507
438.04	37.322
438.39	38.057
438.75	38.009
439.10	38.823
439.45	38.223
439.81	38.654
440.16	39.786
440.51	40.119
440.86	39.758
441.22	39.084
441.57	38.300
441.92	39.664
442.27	40.188
442.63	39.615
442.98	40.034
443.33	38.564
443.68	39.523
444.03	40.040
444.39	39.498
444.74	41.026
445.09	40.479
445.44	40.912
445.79	41.207
446.15	40.584
446.50	39.379
446.85	41.286
447.20	40.772
447.55	41.016
447.91	40.948
448.26	42.060
448.61	42.545
448.96	42.685
449.31	41.792
449.66	40.708
450.02	42.670
450.37	41.612
450.72	42.153
451.07	43.734
451.42	43.196
451.77	41.832
452.12	41.746
452.47	42.176
452.83	42.815
453.18	42.821
453.53	42.288
453.88	42.866
454.23	42.778
454.58	42.632
454.93	42.784
455.28	41.524
455.63	43.955
455.98	42.634
456.34	42.465
456.69	42.948
457.04	43.226
457.39	41.798
457.74	42.866
458.09	42.260
458.44	42.539
458.79	43.305
459.14	43.822
459.49	42.925
459.84	43.091
460.19	43.629
460.54	44.010
460.89	43.636
461.24	44.224
461.59	43.705
461.94	43.962
462.29	43.366
462.64	43.588
462.99	43.534
463.34	43.185
463.69	42.986
464.04	43.281
464.39	43.905
464.74	43.497
465.09	44.541
465.44	43.278
465.79	43.934
466.14	43.444
466.49	43.703
466.84	44.497
467.19	43.367
467.54	43.934
467.89	44.599
468.24	43.370
468.59	44.317
468.94	44.952
469.29	44.590
469.64	44.429
469.99	46.461
470.34	44.505
470.68	44.817
471.03	45.577
471.38	44.936
471.73	45.168
472.08	45.115
472.43	46.040
472.78	44.825
473.13	45.306
473.48	45.212
473.83	44.956
474.17	45.402
474.52	45.756
474.87	45.879
475.22	44.966
475.57	44.495
475.92	44.926
476.27	46.217
476.61	45.312
476.96	44.785
477.31	46.025
477.66	44.719
478.01	46.659
478.36	45.534
478.70	46.765
479.05	46.044
479.40	45.681
479.75	45.620
480.10	45.673
480.45	45.250
480.79	47.633
481.14	46.414
481.49	45.961
481.84	46.139
482.19	44.855
482.53	45.707
482.88	45.823
483.23	45.729
483.58	45.755
483.92	45.063
484.27	45.761
484.62	45.271
484.97	46.103
485.31	44.292
485.66	43.283
486.01	43.410
486.36	43.532
486.70	44.775
487.05	44.740
487.40	44.855
487.75	44.901
488.09	45.426
488.44	45.839
488.79	46.470
489.13	47.115
489.48	46.687
489.83	45.202
490.17	46.427
490.52	46.097
490.87	45.905
491.22	45.893
491.56	46.774
491.91	46.654
492.26	46.864
492.60	45.873
492.95	47.713
493.30	44.748
493.64	46.807
493.99	47.198
494.34	46.019
494.68	46.476
495.03	46.472
495.37	47.154
495.72	46.037
496.07	46.878
496.41	46.226
496.76	46.200
497.11	45.459
497.45	46.253
497.80	48.083
498.14	46.846
498.49	46.623
498.84	47.056
499.18	47.540
499.53	47.669
499.87	46.741
500.22	47.033
500.56	48.058
500.91	47.339
501.26	46.169
501.60	47.959
501.95	46.385
502.29	46.973
502.64	47.394
502.98	47.706
503.33	45.677
503.67	46.361
504.02	47.752
504.36	47.996
504.71	47.071
505.06	47.257
505.40	47.614
505.75	47.010
506.09	47.238
506.44	48.563
506.78	48.571
507.13	48.501
507.47	47.990
507.82	47.917
508.16	49.023
508.51	48.688
508.85	49.084
509.19	48.590
509.54	48.794
509.88	48.490
510.23	48.951
510.57	49.920
510.92	47.015
511.26	48.663
511.61	49.395
511.95	48.164
512.30	49.667
512.64	49.193
512.98	48.568
513.33	50.476
513.67	48.607
514.02	50.915
514.36	51.200
514.70	50.583
515.05	51.116
515.39	50.413
515.74	52.395
516.08	50.926
516.42	53.239
516.77	50.790
517.11	50.564
517.46	50.928
517.80	51.788
518.14	51.562
518.49	50.120
518.83	51.458
519.17	51.122
519.52	50.030
519.86	51.200
520.20	52.248
520.55	51.782
520.89	51.631
521.23	52.755
521.58	51.735
521.92	52.821
522.26	51.919
522.61	52.468
522.95	54.238
523.29	52.033
523.64	51.525
523.98	53.273
524.32	51.869
524.66	53.137
525.01	54.221
525.35	53.273
525.69	53.199
526.04	52.116
526.38	54.799
526.72	51.929
527.06	52.853
527.41	53.232
527.75	54.155
528.09	53.422
528.43	53.545
528.78	52.079
529.12	53.226
529.46	53.086
529.80	51.995
530.15	54.323
530.49	54.276
530.83	54.378
531.17	52.787
531.51	54.788
531.86	54.113
532.20	52.958
532.54	54.118
532.88	52.225
533.22	52.554
533.57	52.556
533.91	53.590
534.25	54.167
534.59	52.854
534.93	52.486
535.27	52.919
535.62	52.106
535.96	53.555
536.30	53.166
536.64	54.307
536.98	52.962
537.32	54.908
537.66	54.558
538.01	54.406
538.35	53.051
538.69	52.530
539.03	52.973
539.37	52.153
539.71	52.897
540.05	53.225
540.39	53.878
540.73	53.626
541.07	53.798
541.42	54.167
541.76	54.095
542.10	52.925
542.44	53.370
542.78	51.342
543.12	52.266
543.46	53.477
543.80	52.741
544.14	51.669
544.48	52.698
544.82	52.495
545.16	53.689
545.50	52.804
545.84	54.320
546.18	54.610
546.52	54.074
546.86	52.193
547.20	53.863
547.54	52.438
547.88	53.193
548.22	51.151
548.56	52.573
548.90	51.752
549.24	51.860
549.58	50.564
549.92	51.465
550.26	53.260
550.60	53.086
550.94	54.220
551.28	52.782
551.62	54.692
551.96	53.835
552.30	51.681
552.64	51.904
552.98	52.321
553.32	52.354
553.66	52.177
554.00	52.044
554.34	52.142
554.68	51.475
555.02	53.125
555.36	53.702
555.69	50.916
556.03	50.892
556.37	51.103
556.71	52.852
557.05	51.380
557.39	50.558
557.73	52.474
558.07	52.489
558.41	52.910
558.75	53.546
559.08	51.537
559.42	52.222
559.76	53.082
560.10	51.223
560.44	51.378
560.78	51.748
561.12	50.917
561.45	52.003
561.79	50.910
562.13	52.307
562.47	50.576
562.81	51.369
563.15	50.776
563.48	50.849
563.82	51.064
564.16	50.696
564.50	49.595
564.84	51.941
565.17	50.168
565.51	52.049
565.85	50.754
566.19	50.464
566.52	52.681
566.86	52.249
567.20	50.311
567.54	51.946
567.88	51.435
568.21	49.887
568.55	49.293
568.89	50.411
569.23	48.869
569.56	48.468
569.90	49.289
570.24	47.079
570.57	49.055
570.91	49.041
571.25	46.761
571.59	46.932
571.92	46.400
572.26	46.558
572.60	46.977
572.93	46.784
573.27	45.611
573.61	45.913
573.95	46.368
574.28	46.001
574.62	45.487
574.96	45.500
575.29	45.558
575.63	44.727
575.97	45.378
576.30	45.741
576.64	45.272
576.98	45.869
577.31	45.908
577.65	45.940
577.98	46.386
578.32	44.484
578.66	44.960
578.99	45.321
579.33	45.041
579.67	44.259
580.00	45.646
580.34	45.721
580.67	44.881
581.01	45.077
581.35	44.875
581.68	43.909
582.02	44.687
582.35	44.401
582.69	45.189
583.02	44.819
583.36	44.996
583.70	46.132
584.03	46.483
584.37	46.019
584.70	46.209
585.04	44.067
585.37	44.447
585.71	44.211
586.04	44.655
586.38	44.599
586.72	45.079
587.05	45.061
587.39	44.283
587.72	45.462
588.06	44.921
588.39	44.774
588.73	45.085
589.06	45.075
589.40	45.178
589.73	45.929
590.07	46.337
590.40	46.285
590.73	46.540
591.07	45.929
591.40	46.037
591.74	46.063
592.07	46.939
592.41	46.599
592.74	44.763
593.08	43.486
593.41	44.185
593.75	44.063
594.08	43.598
594.41	44.178
594.75	44.237
595.08	44.344
595.42	44.902
595.75	44.236
596.09	44.957
596.42	44.481
596.75	44.938
597.09	44.601
597.42	44.896
597.75	45.213
598.09	44.002
598.42	43.773
598.76	44.015
599.09	43.510
599.42	42.516
599.76	42.701
600.09	42.873
600.42	42.267
600.76	42.459
601.09	43.244
601.42	43.400
601.76	43.033
602.09	43.894
602.42	43.766
602.76	44.737
603.09	43.646
603.42	43.980
603.76	43.347
604.09	43.742
604.42	43.190
604.76	43.213
605.09	44.973
605.42	42.664
605.75	42.382
606.09	42.378
606.42	41.952
606.75	42.987
607.09	42.857
607.42	43.110
607.75	43.073
608.08	41.779
608.42	42.439
608.75	43.325
609.08	42.900
609.41	43.604
609.75	42.339
610.08	43.585
610.41	42.657
610.74	42.565
611.07	43.824
611.41	42.968
611.74	43.337
612.07	43.576
612.40	43.053
612.73	43.333
613.07	43.082
613.40	42.724
613.73	42.194
614.06	43.239
614.39	43.260
614.72	41.289
615.06	42.123
615.39	41.430
615.72	41.658
616.05	42.346
616.38	41.197
616.71	41.896
617.05	43.607
617.38	42.426
617.71	42.579
618.04	43.175
618.37	43.001
618.70	42.838
619.03	43.819
619.36	42.836
619.69	44.579
620.03	43.389
620.36	42.346
620.69	42.398
621.02	40.979
621.35	43.817
621.68	43.452
622.01	42.583
622.34	43.256
622.67	42.350
623.00	43.721
623.33	43.216
623.66	43.231
623.99	41.679
624.32	42.738
624.65	41.429
624.99	42.965
625.32	41.926
625.65	43.284
625.98	44.158
626.31	41.646
626.64	43.414
626.97	43.194
627.30	43.170
627.63	42.808
627.96	42.767
628.29	42.646
628.62	44.936
628.95	43.387
629.28	43.246
629.61	43.370
629.94	44.477
630.26	42.095
630.59	43.080
630.92	43.077
631.25	40.718
631.58	41.850
631.91	44.298
632.24	43.234
632.57	44.659
632.90	42.705
633.23	44.235
633.56	45.088
633.89	43.773
634.22	44.444
634.55	42.694
634.88	44.189
635.20	41.538
635.53	45.067
635.86	42.393
636.19	45.666
636.52	41.837
636.85	42.060
637.18	41.509
637.51	43.899
637.83	44.415
638.16	43.929
638.49	43.052
638.82	44.474
639.15	43.555
639.48	42.779
639.81	45.188
640.13	42.713
640.46	44.169
640.79	44.035
641.12	40.325
641.45	44.444
641.77	43.852
642.10	43.444
642.43	42.122
642.76	45.050
643.09	44.750
643.41	44.660
643.74	42.834
644.07	45.484
644.40	44.257
644.73	43.958
645.05	43.456
645.38	44.621
645.71	42.376
646.04	43.268
646.36	42.908
646.69	42.446
647.02	43.478
647.35	44.403
647.67	44.059
648.00	43.470
648.33	43.515
648.66	42.034
648.98	40.369
649.31	41.653
649.64	42.229
649.96	40.519
650.29	43.101
650.62	42.051
650.94	45.000
651.27	42.086
651.60	41.261
651.92	42.483
652.25	42.806
652.58	41.500
652.90	43.739
653.23	41.513
653.56	39.594
653.88	42.096
654.21	38.354
654.54	40.238
654.86	41.256
655.19	38.450
655.52	38.932
655.84	34.965
656.17	38.210
656.49	51.364
656.82	53.969
657.15	41.680
657.47	31.573
657.80	23.620
658.13	23.373
658.45	36.403
658.78	37.065
659.10	36.532
659.43	37.324
659.75	37.987
660.08	37.655
660.41	40.143
660.73	40.193
661.06	41.421
661.38	38.552
661.71	40.657
662.03	42.489
662.36	41.758
662.68	40.929
663.01	42.576
663.33	41.299
663.66	37.442
663.98	43.256
664.31	41.578
664.63	43.318
664.96	39.565
665.28	37.528
665.61	39.827
665.93	42.391
666.26	42.299
666.58	37.360
666.91	40.000
667.23	41.981
667.56	42.417
667.88	41.727
668.21	40.811
668.53	43.499
668.86	41.509
669.18	37.972
669.50	39.709
669.83	41.395
670.15	38.928
670.48	40.909
670.80	39.862
671.13	40.492
671.45	38.813
671.77	40.558
672.10	39.208
672.42	37.453
672.75	39.254
673.07	40.787
673.39	39.633
673.72	37.278
674.04	38.333
674.37	39.407
674.69	37.045
675.01	41.333
675.34	40.315
675.66	39.815
675.98	39.468
676.31	41.514
676.63	40.143
676.95	35.455
677.28	41.647
677.60	40.000
677.92	39.908
678.25	40.919
678.57	37.229
678.89	36.345
679.22	40.716
679.54	36.747
679.86	34.394
680.18	38.447
680.51	36.364
680.83	36.382
681.15	37.800
681.48	43.033
681.80	38.223
682.12	36.694
682.44	34.519
682.77	36.645
683.09	37.300
683.41	36.364
683.73	37.097
684.06	35.398
684.38	35.484
684.70	36.383
685.02	31.950
685.34	33.399
685.67	37.711
685.99	34.720
686.31	34.690
686.63	36.364
686.96	35.361
687.28	33.131
687.60	33.840
687.92	38.182
688.24	36.492
688.56	38.428
688.89	34.152
689.21	35.778
689.53	35.035
689.85	34.186
690.17	38.393
690.49	36.643
690.82	34.709
691.14	34.524
691.46	39.252
691.78	36.712
692.10	35.484
692.42	34.848
692.74	35.684
693.06	34.459
693.39	32.805
693.71	33.258
694.03	33.487
694.35	35.514
694.67	34.091
694.99	36.554
695.31	36.292
695.63	37.000
695.95	32.576
696.27	30.052
696.59	36.944
696.91	33.333
697.23	35.219
697.56	34.653
697.88	33.333
698.20	35.535
698.52	33.882
698.84	34.450
699.16	35.250
699.48	35.338
699.80	33.499
700.12	34.771
700.44	36.134
700.76	34.884
701.08	35.455
701.40	34.940
701.72	39.506
702.04	34.323
702.36	40.134
702.68	37.237
703.00	35.455
703.32	32.845
703.64	31.356
703.96	37.101
704.28	38.957
704.60	37.143
704.91	33.754
705.23	34.884
705.55	36.042
705.87	34.657
706.19	33.333
706.51	38.144
706.83	36.013
707.15	33.956
707.47	35.574
707.79	30.729
708.11	32.750
708.43	31.500
708.74	34.625
709.06	39.437
709.38	35.780
709.70	32.840
710.02	31.847
710.34	35.294
710.66	30.769
710.98	28.808
711.29	33.443
711.61	31.864
711.93	34.202
712.25	37.457
712.57	33.333
712.89	32.463
713.20	37.370
713.52	28.571
713.84	34.471
714.16	32.990
714.48	32.903
714.80	33.333
715.11	33.435
715.43	32.288
715.75	33.000
716.07	29.900
716.39	31.544
716.70	32.841
717.02	25.573
717.34	33.603
717.66	36.283
717.97	33.043
718.29	34.728
718.61	37.008
718.93	34.109
719.24	35.741
719.56	37.349
719.88	31.959
720.20	30.303
720.51	29.502
720.83	32.819
721.15	34.454
721.46	31.048
721.78	27.668
722.10	27.509
722.42	31.120
722.73	33.878
723.05	31.429
723.37	40.678
723.68	37.838
724.00	35.470
724.32	32.889
724.63	28.636
724.95	28.384
725.27	32.258
725.58	34.322
725.90	29.365
726.22	29.730
726.53	36.610
726.85	34.082
727.16	29.434
727.48	30.364
727.80	30.769
728.11	31.356
728.43	30.588
728.74	29.839
729.06	28.800
729.38	35.338
729.69	24.303
730.01	26.923
730.32	35.448
730.64	33.569
730.96	33.585
731.27	29.333
731.59	26.780
731.90	31.529
732.22	31.546
732.53	30.565
732.85	31.206
733.16	32.997
733.48	30.216
733.80	26.449
734.11	24.746
734.43	32.302
734.74	33.939
735.06	27.036
735.37	30.211
735.69	31.987
736.00	30.314
736.32	28.859
736.63	30.634
736.95	34.471
737.26	30.605
737.58	29.195
737.89	28.571
738.21	30.075
738.52	30.453
738.83	33.624
739.15	29.694
739.46	27.559
739.78	30.403
740.09	26.471
740.41	31.522
740.72	26.378
741.04	32.389
741.35	28.936
741.66	31.754
741.98	30.102
742.29	24.752
742.61	30.890
742.92	20.379
743.23	22.222
743.55	31.674
743.86	27.273
744.18	33.493
744.49	27.128
744.80	32.065
745.12	34.759
745.43	27.805
745.74	32.812
746.06	32.195
746.37	34.031
746.68	32.227
747.00	23.936
747.31	35.323
747.62	30.097
747.94	32.536
748.25	29.703
748.56	31.694
748.88	30.890
749.19	31.915
749.50	25.123
749.82	26.415
750.13	31.193
750.44	29.323
750.75	32.836
751.07	33.212
751.38	29.502
751.69	27.451
752.01	33.333
752.32	28.287
752.63	30.040
752.94	27.586
753.26	33.891
753.57	32.127
753.88	27.876
754.19	29.583
754.51	25.620
754.82	31.174
755.13	31.667
755.44	29.435
755.75	32.031
756.07	27.626
756.38	24.906
756.69	25.670
757.00	27.667
757.31	26.144
757.63	28.049
757.94	28.056
758.25	27.123
758.56	24.468
758.87	24.363
759.18	26.480
759.50	27.273
759.81	27.425
760.12	29.677
760.43	27.576
760.74	27.160
761.05	27.385
761.36	30.682
761.67	29.697
761.99	27.551
762.30	20.727
762.61	32.806
762.92	26.244
763.23	25.676
763.54	30.841
763.85	25.424
764.16	27.801
764.47	27.823
764.78	27.839
765.10	30.303
765.41	28.076
765.72	26.349
766.03	24.436
766.34	29.197
766.65	32.669
766.96	28.788
767.27	29.255
767.58	25.862
767.89	24.823
768.20	27.841
768.51	26.374
768.82	29.064
769.13	22.120
769.44	22.318
769.75	23.744
770.06	28.448
770.37	28.365
770.68	26.904
770.99	27.602
771.30	30.882
771.61	21.267
771.92	33.190
772.23	27.586
772.54	27.419
772.85	28.395
773.16	21.348
773.47	33.333
773.78	32.026
774.09	26.946
774.39	24.000
774.70	27.389
775.01	28.966
775.32	30.714
775.63	28.099
775.94	31.298
776.25	25.197
776.56	23.333
776.87	18.269
777.18	29.060
777.48	21.552
777.79	27.826
778.10	21.905
778.41	14.414
778.72	26.190
779.03	21.053
779.34	30.496
779.65	28.767
779.95	19.178
780.26	26.207
780.57	15.447
780.88	20.472
781.19	20.690
781.50	29.457
781.80	27.219
782.11	25.157
782.42	25.385
782.73	28.777
783.04	17.037
783.34	24.306
783.65	10.256
783.96	29.508
784.27	31.724
784.57	27.642
784.88	30.469
785.19	20.000
785.50	29.000
785.81	15.517
786.11	17.241
786.42	20.388
786.73	31.818
787.04	18.367
787.34	16.964
787.65	36.190
787.96	14.159
788.26	28.182
788.57	16.239
788.88	26.563
789.19	22.222
789.49	28.696
789.80	20.408
790.11	29.293
790.41	25.455
790.72	25.000
791.03	25.000
791.33	31.250
791.64	22.500
791.95	20.930
792.25	27.660
792.56	28.090
792.87	26.027
793.17	10.145
793.48	12.000
793.79	20.000
794.09	25.000
794.40	21.698
794.70	21.359
795.01	21.951
795.32	23.932
795.62	14.286
795.93	18.627
796.23	22.642
796.54	27.083
796.85	2.941
797.15	21.127
797.46	18.056
797.76	4.545
798.07	20.930
798.37	25.000
798.68	21.212
798.99	7.407
799.29	22.857
799.60	21.739
799.90	22.667
800.21	29.508
800.51	21.538
800.82	33.898
801.12	15.942
801.43	9.836
801.73	26.984
802.04	18.000
802.34	19.403
802.65	30.769
802.95	17.857
803.26	21.154
803.56	21.569
803.87	2.174
804.17	16.000
804.48	25.397
804.78	16.667
805.09	15.217
805.39	15.556
805.70	33.333
806.00	0.000
806.30	25.352
806.61	20.000
806.91	11.111
807.22	18.421
807.52	21.333
807.83	20.000
808.13	22.222
808.43	27.941
808.74	17.910
809.04	22.034
809.35	21.154
809.65	25.000
809.95	-21.622
810.26	4.545
810.56	19.178
810.86	-2.381
811.17	32.000
811.47	14.286
811.77	-7.895
812.08	6.818
812.38	20.755
812.69	7.500
812.99	-24.242
813.29	23.684
813.59	-14.286
813.90	20.455
814.20	10.256
814.50	7.692
814.81	30.189
815.11	-31.915
815.41	22.034
815.72	19.048
816.02	23.529
816.32	-10.417
816.62	-4.878
816.93	8.108
817.23	28.571
817.53	29.167
817.84	6.522
818.14	30.769
818.44	15.789
818.74	41.304
819.04	-12.500
819.35	21.622
819.65	8.824
819.95	-2.778
820.25	38.095
820.56	22.500
820.86	-27.586
821.16	30.000
821.46	17.021
821.76	0.000
822.07	4.651
822.37	-2.703
822.67	12.500
822.97	11.905
823.27	-10.714
823.57	-8.000
823.88	-11.111
824.18	-10.714
824.48	11.765
824.78	-12.903
825.08	17.391
825.38	18.182
825.69	-4.167
825.99	18.421
826.29	19.444
826.59	13.333
826.89	-71.429
827.19	28.261
827.49	-10.000
827.79	37.143
828.09	14.286
828.39	21.212
828.70	43.243
829.00	28.571
829.30	-23.810
829.60	13.333
829.90	15.625
830.20	0.000
830.50	-18.519
830.80	17.391
831.10	-36.364
831.40	33.333
831.70	51.613
832.00	52.381
832.30	14.286
832.60	-108.333
832.90	13.793
833.20	-35.000
833.50	18.182
833.80	11.111
834.10	-23.077
834.40	21.875
834.70	55.556
835.00	-36.842
835.30	73.077
835.60	46.667
835.90	25.806
836.20	-31.818
836.50	21.429
836.80	-7.692
837.10	10.714
837.40	-33.333
837.70	-9.091
838.00	-36.364
838.30	0.000
838.60	46.154
838.90	27.273
839.19	14.286
839.49	3.333
839.79	0.000
840.09	-141.667
840.39	42.857
840.69	-14.286
840.99	-34.615
841.29	-21.053
841.59	-190.000
841.88	36.364
842.18	30.000
842.48	0.000
842.78	6.667
843.08	11.111
843.38	-90.000
843.68	39.130
843.97	-13.333
844.27	-26.667
844.57	-10.000
844.87	11.111
845.17	-14.286
845.47	6.667
845.76	14.286
846.06	0.000
846.36	-80.000
846.66	0.000
846.96	-20.000
847.25	-137.500
847.55	-35.714
847.85	0.000
848.15	-27.273
848.44	-466.667
848.74	10.000
849.04	0.000
849.34	-9.091
849.63	-66.667
849.93	-360.000
850.23	-33.333
850.53	-10.000
850.82	-7.692
851.12	-44.444
851.42	26.667
851.71	0.000
852.01	-35.714
852.31	-200.000
852.61	-72.727
852.90	-15.000
853.20	-52.632
853.50	-16.667
853.79	17.391
854.09	41.667
854.39	-10.526
854.68	0.000
854.98	16.129
855.28	19.231
855.57	-25.000
855.87	0.000
856.17	29.630
856.46	7.143
856.76	-26.667
857.05	77.778
857.35	-4.000
857.65	61.111
857.94	-46.154
858.24	37.931
858.53	5.556
858.83	22.222
859.13	50.000
859.42	4.348
859.72	-125.000
860.01	-200.000
860.31	-8.000
860.60	-14.286
860.90	-166.667
861.20	-6.667
861.49	-800.000
861.79	-40.000
862.08	-5.000
862.38	26.667
862.67	-180.000
862.97	16.667
863.26	-8.333
863.56	55.556
863.85	-666.667
864.15	50.000
864.44	-130.000
864.74	7.143
865.03	375.000
865.33	-200.000
865.62	33.333
865.92	-50.000
866.21	-233.333
866.51	12.500
866.80	-72.727
867.10	-550.000
867.39	41.667
867.69	0.000
867.98	-61.538
868.27	-500.000
868.57	-86.667
868.86	-11.111
869.16	-30.769
869.45	53.333
869.75	-300.000
870.04	0.000
870.33	57.143
870.63	-4.762
870.92	300.000
871.22	-140.000
871.51	-200.000
871.80	77.778
872.10	533.333
>>>>>End Processed Spectral Data<<<<<
