SpectraSuite Data File
++++++++++++++++++++++++++++++++++++
Date: Fri May 15 21:08:39 PDT 2015
User: schluterlab
Dark Spectrum Present: Yes
Reference Spectrum Present: Yes
Number of Sampled Component Spectra: 1
Spectrometers: USB2E3373
Integration Time (usec): 3000 (USB2E3373)
Spectra Averaged: 3 (USB2E3373)
Boxcar Smoothing: 0 (USB2E3373)
Correct for Electrical Dark: No (USB2E3373)
Strobe/Lamp Enabled: No (USB2E3373)
Correct for Detector Non-linearity: No (USB2E3373)
Correct for Stray Light: No (USB2E3373)
Number of Pixels in Processed Spectrum: 2048
>>>>>Begin Processed Spectral Data<<<<<
178.53	0.000
178.91	0.000
179.29	100.000
179.67	-650.000
180.04	14.286
180.42	-25.000
180.80	-300.000
181.18	-0.000
181.56	500.000
181.94	350.000
182.31	-500.000
182.69	-140.000
183.07	-100.000
183.45	-220.000
183.83	33.333
184.20	-63.636
184.58	144.444
184.96	150.000
185.34	-233.333
185.72	-400.000
186.09	76.923
186.47	-700.000
186.85	166.667
187.23	166.667
187.61	400.000
187.98	-200.000
188.36	11.111
188.74	-400.000
189.12	23.529
189.49	66.667
189.87	0.000
190.25	-21.429
190.63	-200.000
191.00	-233.333
191.38	-21.053
191.76	250.000
192.14	125.000
192.51	-150.000
192.89	-111.111
193.27	-42.857
193.65	166.667
194.02	100.000
194.40	90.000
194.78	-187.500
195.15	-100.000
195.53	-37.500
195.91	425.000
196.29	-300.000
196.66	92.308
197.04	228.571
197.42	-55.556
197.79	-500.000
198.17	-107.692
198.55	700.000
198.92	-366.667
199.30	-400.000
199.68	-60.000
200.05	-233.333
200.43	0.000
200.81	166.667
201.18	-233.333
201.56	2000.000
201.94	-350.000
202.31	100.000
202.69	-260.000
203.07	200.000
203.44	-200.000
203.82	0.000
204.19	50.000
204.57	-266.667
204.95	62.500
205.32	-90.000
205.70	-57.143
206.08	-125.000
206.45	177.778
206.83	28.571
207.20	-157.143
207.58	300.000
207.96	-266.667
208.33	-170.000
208.71	-75.000
209.08	-183.333
209.46	-1000.000
209.84	-140.000
210.21	-300.000
210.59	-200.000
210.96	-83.333
211.34	0.000
211.71	-13.333
212.09	-200.000
212.46	-1600.000
212.84	0.000
213.22	50.000
213.59	650.000
213.97	76.923
214.34	-18.182
214.72	0.000
215.09	475.000
215.47	-23.077
215.84	9.091
216.22	-300.000
216.59	-62.500
216.97	-50.000
217.34	-50.000
217.72	-160.000
218.09	-87.500
218.47	37.500
218.84	-900.000
219.22	-55.556
219.59	-180.000
219.97	566.667
220.34	400.000
220.72	-14.286
221.09	-275.000
221.47	-100.000
221.84	-700.000
222.22	-450.000
222.59	72.727
222.97	41.667
223.34	-366.667
223.72	-14.286
224.09	-14.286
224.46	28.571
224.84	600.000
225.21	-90.000
225.59	-26.667
225.96	-200.000
226.34	200.000
226.71	-100.000
227.08	16.667
227.46	-75.000
227.83	-550.000
228.21	11.111
228.58	36.364
228.95	-87.500
229.33	170.000
229.70	25.000
230.08	-87.500
230.45	-85.714
230.82	28.571
231.20	-13.333
231.57	-14.286
231.95	-42.857
232.32	-100.000
232.69	28.571
233.07	-200.000
233.44	-220.000
233.81	-140.000
234.19	11.111
234.56	-52.941
234.93	850.000
235.31	150.000
235.68	-240.000
236.05	-38.462
236.43	-45.000
236.80	0.000
237.17	-12.500
237.55	15.000
237.92	-22.222
238.29	30.556
238.67	3.333
239.04	2.941
239.41	-26.829
239.79	-16.667
240.16	17.073
240.53	7.895
240.91	4.348
241.28	3.175
241.65	21.429
242.02	20.548
242.40	10.000
242.77	8.475
243.14	4.545
243.51	11.250
243.89	14.943
244.26	8.046
244.63	1.190
245.00	9.278
245.38	18.557
245.75	11.236
246.12	9.483
246.49	12.397
246.87	14.423
247.24	8.403
247.61	-5.263
247.98	8.943
248.36	12.500
248.73	11.184
249.10	0.649
249.47	8.228
249.84	11.111
250.22	9.412
250.59	9.804
250.96	15.023
251.33	6.977
251.70	16.471
252.08	8.629
252.45	13.366
252.82	15.578
253.19	7.834
253.56	11.215
253.94	10.360
254.31	13.043
254.68	14.912
255.05	10.630
255.42	7.860
255.79	15.830
256.16	10.506
256.54	14.552
256.91	13.308
257.28	15.613
257.65	14.981
258.02	14.894
258.39	13.805
258.76	17.949
259.14	14.286
259.51	15.210
259.88	14.089
260.25	15.033
260.62	15.972
260.99	12.881
261.36	9.932
261.73	13.291
262.10	15.198
262.47	10.123
262.85	12.853
263.22	10.769
263.59	13.707
263.96	16.149
264.33	13.636
264.70	12.798
265.07	11.012
265.44	14.164
265.81	13.842
266.18	11.202
266.55	10.797
266.92	11.917
267.29	15.927
267.66	15.345
268.03	12.565
268.40	10.444
268.77	18.717
269.14	13.429
269.51	13.111
269.88	10.973
270.25	11.480
270.62	12.683
270.99	14.834
271.36	13.447
271.73	12.911
272.10	12.652
272.47	13.712
272.84	11.881
273.21	14.617
273.58	14.217
273.95	13.730
274.32	10.624
274.69	11.538
275.06	12.723
275.43	11.565
275.80	13.245
276.17	12.874
276.54	10.493
276.91	13.596
277.28	11.572
277.65	11.570
278.02	13.191
278.39	11.379
278.76	13.627
279.13	9.544
279.50	14.286
279.87	12.959
280.23	13.333
280.60	12.281
280.97	13.737
281.34	11.731
281.71	12.731
282.08	12.065
282.45	11.155
282.82	12.162
283.19	13.733
283.56	12.139
283.92	7.780
284.29	13.077
284.66	10.078
285.03	9.823
285.40	13.800
285.77	10.193
286.14	12.635
286.51	13.469
286.87	10.969
287.24	11.971
287.61	13.404
287.98	11.754
288.35	12.998
288.72	13.485
289.08	11.806
289.45	11.072
289.82	11.888
290.19	12.287
290.56	10.806
290.93	10.943
291.29	8.320
291.66	11.024
292.03	11.802
292.40	11.290
292.77	10.845
293.13	9.091
293.50	9.408
293.87	11.908
294.24	10.046
294.60	12.221
294.97	11.756
295.34	10.123
295.71	10.879
296.08	9.865
296.44	8.819
296.81	12.639
297.18	10.435
297.55	12.060
297.91	10.411
298.28	11.214
298.65	10.312
299.02	10.782
299.38	8.345
299.75	9.655
300.12	9.424
300.48	8.696
300.85	10.266
301.22	11.558
301.59	9.605
301.95	12.785
302.32	11.414
302.69	10.572
303.05	11.510
303.42	11.457
303.79	10.748
304.15	11.947
304.52	9.037
304.89	11.111
305.25	10.291
305.62	10.385
305.99	9.942
306.35	9.711
306.72	10.236
307.09	10.262
307.45	9.989
307.82	10.764
308.19	11.614
308.55	11.559
308.92	11.220
309.29	11.844
309.65	11.948
310.02	10.561
310.38	12.294
310.75	11.148
311.12	11.625
311.48	11.665
311.85	12.147
312.22	11.287
312.58	12.208
312.95	12.273
313.31	11.284
313.68	12.147
314.05	12.143
314.41	12.577
314.78	14.124
315.14	14.286
315.51	13.975
315.87	14.344
316.24	15.571
316.61	14.075
316.97	15.575
317.34	14.746
317.70	14.818
318.07	15.096
318.43	15.980
318.80	15.530
319.16	16.504
319.53	16.809
319.89	16.634
320.26	16.498
320.62	17.252
320.99	17.850
321.35	16.547
321.72	17.445
322.08	18.228
322.45	17.766
322.81	17.387
323.18	18.155
323.54	18.533
323.91	18.111
324.27	18.652
324.64	19.476
325.00	20.164
325.37	20.661
325.73	20.218
326.10	20.618
326.46	20.359
326.83	19.685
327.19	22.058
327.56	21.981
327.92	21.919
328.29	20.804
328.65	22.075
329.01	22.151
329.38	21.475
329.74	22.380
330.11	22.335
330.47	20.594
330.84	21.058
331.20	22.909
331.56	20.833
331.93	23.105
332.29	22.365
332.66	22.262
333.02	21.654
333.38	22.640
333.75	22.619
334.11	21.307
334.48	22.937
334.84	22.985
335.20	23.330
335.57	22.484
335.93	23.487
336.29	23.941
336.66	22.434
337.02	21.840
337.38	21.759
337.75	23.909
338.11	24.527
338.47	23.084
338.84	23.383
339.20	22.395
339.56	22.844
339.93	24.261
340.29	23.028
340.65	24.552
341.02	23.138
341.38	23.540
341.74	22.350
342.11	22.617
342.47	22.954
342.83	22.491
343.20	21.951
343.56	23.043
343.92	24.004
344.28	22.972
344.65	24.093
345.01	21.953
345.37	23.549
345.73	23.180
346.10	24.676
346.46	23.802
346.82	22.422
347.19	22.278
347.55	23.475
347.91	24.272
348.27	22.555
348.63	24.361
349.00	23.380
349.36	23.358
349.72	24.461
350.08	24.590
350.45	23.703
350.81	22.924
351.17	23.290
351.53	24.082
351.89	23.039
352.26	24.560
352.62	23.306
352.98	23.775
353.34	23.752
353.70	24.434
354.07	23.548
354.43	23.139
354.79	24.443
355.15	25.238
355.51	23.022
355.87	24.515
356.24	23.409
356.60	23.201
356.96	24.683
357.32	24.840
357.68	23.925
358.04	24.637
358.40	24.598
358.77	24.801
359.13	24.820
359.49	25.039
359.85	24.883
360.21	24.322
360.57	24.024
360.93	23.828
361.29	23.943
361.66	25.235
362.02	25.606
362.38	26.123
362.74	24.300
363.10	25.207
363.46	24.685
363.82	26.822
364.18	25.092
364.54	24.044
364.90	26.165
365.26	25.691
365.62	26.569
365.98	25.367
366.35	26.366
366.71	26.016
367.07	26.488
367.43	25.521
367.79	25.583
368.15	25.772
368.51	26.511
368.87	25.556
369.23	25.848
369.59	25.948
369.95	26.833
370.31	26.156
370.67	26.493
371.03	25.691
371.39	26.988
371.75	27.106
372.11	26.961
372.47	27.515
372.83	26.969
373.19	26.819
373.55	27.220
373.91	27.070
374.27	27.286
374.63	27.495
374.99	27.021
375.35	27.089
375.71	28.252
376.07	26.685
376.42	27.551
376.78	27.852
377.14	27.217
377.50	28.154
377.86	28.179
378.22	27.824
378.58	27.436
378.94	28.418
379.30	27.698
379.66	28.966
380.02	28.817
380.38	28.424
380.74	28.007
381.09	29.571
381.45	28.807
381.81	27.946
382.17	28.807
382.53	28.919
382.89	29.002
383.25	30.056
383.61	30.305
383.97	28.698
384.32	28.893
384.68	29.598
385.04	29.534
385.40	29.869
385.76	31.195
386.12	30.918
386.48	31.673
386.83	30.311
387.19	30.830
387.55	30.866
387.91	31.174
388.27	29.792
388.62	31.026
388.98	30.878
389.34	30.981
389.70	31.262
390.06	29.390
390.42	31.088
390.77	30.477
391.13	30.643
391.49	31.501
391.85	31.384
392.20	30.697
392.56	30.642
392.92	30.945
393.28	31.368
393.64	30.811
393.99	32.915
394.35	30.424
394.71	30.587
395.07	31.301
395.42	30.419
395.78	31.401
396.14	31.589
396.50	31.325
396.85	31.938
397.21	32.393
397.57	31.975
397.92	30.677
398.28	31.724
398.64	31.084
399.00	31.772
399.35	31.095
399.71	30.615
400.07	31.016
400.42	31.028
400.78	32.149
401.14	31.639
401.49	31.447
401.85	31.383
402.21	31.446
402.57	32.000
402.92	30.991
403.28	31.767
403.63	32.409
403.99	32.462
404.35	31.855
404.70	31.190
405.06	31.492
405.42	31.386
405.77	31.203
406.13	31.956
406.49	31.676
406.84	31.785
407.20	32.029
407.55	31.165
407.91	31.350
408.27	31.867
408.62	31.877
408.98	30.437
409.34	31.722
409.69	30.879
410.05	30.665
410.40	31.481
410.76	31.604
411.11	31.687
411.47	30.966
411.83	30.634
412.18	31.145
412.54	31.086
412.89	30.049
413.25	32.130
413.60	30.932
413.96	30.798
414.31	31.890
414.67	31.430
415.03	30.626
415.38	30.940
415.74	31.857
416.09	32.332
416.45	32.140
416.80	31.130
417.16	32.044
417.51	31.579
417.87	30.900
418.22	31.541
418.58	31.037
418.93	31.473
419.29	30.666
419.64	31.627
420.00	31.612
420.35	31.761
420.71	32.503
421.06	31.492
421.42	31.490
421.77	30.578
422.12	30.420
422.48	31.456
422.83	30.800
423.19	31.264
423.54	30.041
423.90	30.624
424.25	30.195
424.61	31.212
424.96	30.662
425.31	32.582
425.67	30.986
426.02	31.331
426.38	31.810
426.73	30.811
427.09	32.405
427.44	30.824
427.79	31.408
428.15	31.129
428.50	30.285
428.85	30.467
429.21	30.787
429.56	31.752
429.92	31.125
430.27	30.576
430.62	30.371
430.98	29.989
431.33	30.599
431.68	31.031
432.04	31.079
432.39	30.234
432.74	30.367
433.10	31.494
433.45	30.406
433.80	31.283
434.16	30.637
434.51	30.753
434.86	30.662
435.22	30.959
435.57	31.192
435.92	30.898
436.28	29.756
436.63	30.234
436.98	30.417
437.34	29.885
437.69	31.306
438.04	29.801
438.39	30.544
438.75	30.176
439.10	30.277
439.45	30.493
439.81	29.969
440.16	30.226
440.51	30.090
440.86	31.178
441.22	29.695
441.57	30.795
441.92	30.063
442.27	30.710
442.63	30.086
442.98	29.696
443.33	29.382
443.68	30.080
444.03	29.309
444.39	29.316
444.74	30.045
445.09	29.566
445.44	29.573
445.79	30.480
446.15	29.681
446.50	29.395
446.85	29.756
447.20	29.406
447.55	29.576
447.91	30.288
448.26	29.254
448.61	30.570
448.96	29.891
449.31	29.075
449.66	29.733
450.02	29.036
450.37	29.935
450.72	28.465
451.07	29.557
451.42	29.338
451.77	29.958
452.12	28.589
452.47	28.590
452.83	28.740
453.18	28.906
453.53	29.520
453.88	29.326
454.23	29.256
454.58	29.408
454.93	29.510
455.28	28.063
455.63	28.146
455.98	29.224
456.34	28.544
456.69	29.034
457.04	29.427
457.39	27.400
457.74	28.416
458.09	27.546
458.44	28.496
458.79	28.067
459.14	28.204
459.49	28.896
459.84	27.693
460.19	27.609
460.54	28.545
460.89	27.898
461.24	27.702
461.59	28.682
461.94	27.673
462.29	28.046
462.64	28.837
462.99	27.556
463.34	28.164
463.69	27.799
464.04	27.906
464.39	26.986
464.74	27.914
465.09	27.449
465.44	27.640
465.79	26.701
466.14	28.449
466.49	27.200
466.84	27.722
467.19	28.285
467.54	28.289
467.89	27.416
468.24	26.399
468.59	27.429
468.94	27.302
469.29	26.951
469.64	27.204
469.99	28.171
470.34	26.143
470.68	27.740
471.03	27.459
471.38	27.461
471.73	28.081
472.08	27.001
472.43	25.973
472.78	26.594
473.13	27.211
473.48	27.231
473.83	26.650
474.17	27.915
474.52	27.569
474.87	26.727
475.22	26.541
475.57	26.595
475.92	26.769
476.27	26.834
476.61	25.752
476.96	25.488
477.31	26.555
477.66	25.730
478.01	26.390
478.36	26.253
478.70	26.645
479.05	25.879
479.40	26.497
479.75	25.756
480.10	26.728
480.45	26.200
480.79	26.485
481.14	26.691
481.49	24.975
481.84	26.255
482.19	25.631
482.53	25.516
482.88	26.014
483.23	24.760
483.58	25.613
483.92	24.492
484.27	24.886
484.62	25.011
484.97	24.420
485.31	24.783
485.66	23.831
486.01	24.180
486.36	23.869
486.70	23.730
487.05	24.257
487.40	24.354
487.75	24.423
488.09	23.455
488.44	23.968
488.79	24.206
489.13	24.319
489.48	24.027
489.83	24.709
490.17	24.494
490.52	24.434
490.87	24.479
491.22	24.737
491.56	23.482
491.91	23.757
492.26	25.377
492.60	23.800
492.95	25.135
493.30	24.377
493.64	25.147
493.99	24.638
494.34	23.932
494.68	24.190
495.03	24.136
495.37	24.190
495.72	24.028
496.07	24.537
496.41	24.198
496.76	23.906
497.11	24.080
497.45	24.296
497.80	24.218
498.14	23.249
498.49	23.768
498.84	24.102
499.18	24.398
499.53	24.157
499.87	22.860
500.22	23.442
500.56	23.248
500.91	23.092
501.26	22.788
501.60	24.053
501.95	24.454
502.29	23.390
502.64	23.697
502.98	23.976
503.33	22.911
503.67	23.711
504.02	23.705
504.36	23.701
504.71	23.081
505.06	22.949
505.40	22.792
505.75	23.402
506.09	23.771
506.44	24.589
506.78	24.286
507.13	23.164
507.47	23.394
507.82	23.237
508.16	23.032
508.51	24.134
508.85	23.705
509.19	23.257
509.54	23.753
509.88	24.056
510.23	23.453
510.57	23.731
510.92	22.281
511.26	22.313
511.61	23.817
511.95	24.274
512.30	23.060
512.64	24.040
512.98	23.189
513.33	23.447
513.67	23.707
514.02	24.199
514.36	24.514
514.70	24.301
515.05	23.149
515.39	23.081
515.74	24.551
516.08	24.029
516.42	23.969
516.77	24.108
517.11	23.917
517.46	24.117
517.80	24.493
518.14	23.515
518.49	23.317
518.83	23.208
519.17	23.408
519.52	23.150
519.86	23.289
520.20	23.876
520.55	23.202
520.89	23.212
521.23	23.813
521.58	24.669
521.92	23.846
522.26	23.487
522.61	23.766
522.95	23.974
523.29	23.316
523.64	24.651
523.98	23.396
524.32	23.003
524.66	23.496
525.01	24.026
525.35	23.526
525.69	23.030
526.04	23.413
526.38	24.514
526.72	23.022
527.06	22.957
527.41	23.087
527.75	22.721
528.09	23.123
528.43	23.093
528.78	22.508
529.12	22.710
529.46	23.002
529.80	22.736
530.15	24.026
530.49	23.771
530.83	22.709
531.17	22.968
531.51	22.093
531.86	23.249
532.20	22.756
532.54	23.417
532.88	23.409
533.22	23.790
533.57	21.691
533.91	22.063
534.25	22.982
534.59	22.130
534.93	22.970
535.27	21.827
535.62	22.229
535.96	22.114
536.30	23.285
536.64	22.192
536.98	21.951
537.32	23.257
537.66	22.581
538.01	23.077
538.35	21.706
538.69	21.305
539.03	21.599
539.37	22.342
539.71	22.359
540.05	21.317
540.39	22.922
540.73	22.594
541.07	22.928
541.42	22.782
541.76	23.262
542.10	20.853
542.44	21.890
542.78	20.234
543.12	21.291
543.46	21.558
543.80	21.374
544.14	21.028
544.48	22.585
544.82	22.556
545.16	22.404
545.50	22.029
545.84	22.025
546.18	20.922
546.52	21.557
546.86	21.711
547.20	21.102
547.54	20.424
547.88	21.807
548.22	21.368
548.56	21.768
548.90	21.226
549.24	20.799
549.58	21.650
549.92	20.872
550.26	20.879
550.60	21.561
550.94	21.807
551.28	20.247
551.62	21.154
551.96	21.729
552.30	21.637
552.64	20.099
552.98	21.167
553.32	21.113
553.66	20.682
554.00	21.606
554.34	20.901
554.68	21.903
555.02	21.205
555.36	20.942
555.69	19.927
556.03	21.056
556.37	20.569
556.71	20.505
557.05	21.253
557.39	19.926
557.73	20.090
558.07	20.739
558.41	20.214
558.75	20.031
559.08	20.331
559.42	20.873
559.76	20.977
560.10	19.801
560.44	20.625
560.78	21.748
561.12	20.451
561.45	19.958
561.79	20.728
562.13	20.866
562.47	19.496
562.81	20.101
563.15	20.592
563.48	21.075
563.82	20.178
564.16	19.986
564.50	19.662
564.84	20.214
565.17	20.322
565.51	20.628
565.85	20.027
566.19	20.159
566.52	20.241
566.86	20.244
567.20	18.680
567.54	19.647
567.88	20.269
568.21	20.475
568.55	19.457
568.89	20.072
569.23	19.210
569.56	19.046
569.90	19.610
570.24	19.129
570.57	18.982
570.91	19.972
571.25	18.448
571.59	18.530
571.92	18.015
572.26	18.478
572.60	18.202
572.93	18.168
573.27	18.088
573.61	18.496
573.95	18.050
574.28	18.061
574.62	18.002
574.96	18.225
575.29	17.617
575.63	17.232
575.97	17.701
576.30	17.318
576.64	17.351
576.98	17.838
577.31	17.818
577.65	17.936
577.98	18.238
578.32	17.935
578.66	17.430
578.99	17.688
579.33	17.587
579.67	17.361
580.00	17.468
580.34	17.537
580.67	17.557
581.01	17.747
581.35	17.636
581.68	17.142
582.02	17.838
582.35	17.233
582.69	17.394
583.02	17.240
583.36	17.483
583.70	17.809
584.03	17.626
584.37	18.154
584.70	17.335
585.04	16.943
585.37	17.371
585.71	17.428
586.04	17.373
586.38	16.991
586.72	17.504
587.05	17.475
587.39	18.088
587.72	17.961
588.06	17.437
588.39	17.431
588.73	17.338
589.06	18.493
589.40	17.871
589.73	17.707
590.07	18.165
590.40	17.724
590.73	18.122
591.07	17.557
591.40	17.765
591.74	17.873
592.07	18.553
592.41	17.933
592.74	17.005
593.08	16.940
593.41	17.068
593.75	17.337
594.08	17.061
594.41	17.540
594.75	17.328
595.08	17.329
595.42	17.225
595.75	17.349
596.09	17.357
596.42	17.280
596.75	16.918
597.09	17.631
597.42	17.751
597.75	17.774
598.09	17.338
598.42	16.742
598.76	17.203
599.09	17.668
599.42	16.559
599.76	16.930
600.09	17.345
600.42	17.020
600.76	16.828
601.09	17.099
601.42	16.334
601.76	16.634
602.09	17.533
602.42	17.228
602.76	17.148
603.09	17.400
603.42	17.308
603.76	16.694
604.09	16.768
604.42	17.174
604.76	17.089
605.09	17.367
605.42	16.614
605.75	17.163
606.09	17.155
606.42	16.847
606.75	17.013
607.09	17.319
607.42	16.438
607.75	17.007
608.08	16.667
608.42	16.948
608.75	17.542
609.08	17.190
609.41	17.360
609.75	16.431
610.08	16.625
610.41	16.908
610.74	16.821
611.07	16.848
611.41	17.281
611.74	17.751
612.07	16.221
612.40	16.466
612.73	16.836
613.07	17.154
613.40	17.888
613.73	16.452
614.06	16.694
614.39	16.864
614.72	16.527
615.06	17.207
615.39	17.576
615.72	16.738
616.05	17.374
616.38	15.499
616.71	17.920
617.05	17.912
617.38	18.039
617.71	16.667
618.04	16.952
618.37	17.528
618.70	17.096
619.03	17.778
619.36	16.425
619.69	17.817
620.03	17.750
620.36	17.954
620.69	18.415
621.02	16.972
621.35	17.510
621.68	18.367
622.01	17.833
622.34	17.079
622.67	16.640
623.00	17.917
623.33	18.674
623.66	17.128
623.99	17.625
624.32	17.110
624.65	17.293
624.99	17.607
625.32	16.452
625.65	17.675
625.98	15.633
626.31	17.456
626.64	18.718
626.97	19.895
627.30	18.389
627.63	18.458
627.96	17.430
628.29	17.854
628.62	17.896
628.95	16.633
629.28	17.944
629.61	16.152
629.94	18.573
630.26	18.478
630.59	16.753
630.92	17.846
631.25	16.923
631.58	17.291
631.91	17.544
632.24	17.317
632.57	19.773
632.90	16.607
633.23	17.765
633.56	17.758
633.89	17.509
634.22	18.025
634.55	18.424
634.88	18.263
635.20	17.308
635.53	16.933
635.86	18.075
636.19	18.629
636.52	16.199
636.85	18.114
637.18	16.855
637.51	17.233
637.83	18.791
638.16	18.281
638.49	16.757
638.82	18.026
639.15	17.910
639.48	17.331
639.81	17.573
640.13	16.739
640.46	16.764
640.79	17.084
641.12	17.578
641.45	18.619
641.77	17.926
642.10	19.115
642.43	15.916
642.76	19.472
643.09	18.417
643.41	18.447
643.74	17.957
644.07	17.734
644.40	17.568
644.73	18.564
645.05	16.275
645.38	19.577
645.71	17.021
646.04	18.671
646.36	18.440
646.69	20.144
647.02	19.282
647.35	19.030
647.67	18.647
648.00	20.149
648.33	18.942
648.66	18.983
648.98	16.248
649.31	16.364
649.64	17.582
649.96	16.045
650.29	18.910
650.62	18.120
650.94	18.889
651.27	16.015
651.60	17.297
651.92	18.007
652.25	18.295
652.58	17.333
652.90	17.496
653.23	16.303
653.56	17.090
653.88	18.729
654.21	16.112
654.54	15.450
654.86	18.676
655.19	15.789
655.52	17.337
655.84	15.581
656.17	16.614
656.49	22.570
656.82	22.487
657.15	16.878
657.47	12.682
657.80	9.373
658.13	9.284
658.45	13.805
658.78	14.050
659.10	13.608
659.43	14.213
659.75	14.751
660.08	15.034
660.41	16.241
660.73	16.989
661.06	16.811
661.38	16.830
661.71	17.864
662.03	20.386
662.36	15.385
662.68	17.257
663.01	17.249
663.33	16.473
663.66	18.372
663.98	16.744
664.31	17.484
664.63	14.977
664.96	15.652
665.28	15.011
665.61	17.100
665.93	18.696
666.26	15.618
666.58	15.213
666.91	17.176
667.23	18.160
667.56	15.877
667.88	16.307
668.21	16.468
668.53	19.149
668.86	17.217
669.18	13.915
669.50	20.339
669.83	18.372
670.15	18.182
670.48	16.986
670.80	20.276
671.13	16.779
671.45	13.242
671.77	18.670
672.10	16.238
672.42	18.165
672.75	17.407
673.07	16.458
673.39	16.330
673.72	12.821
674.04	14.792
674.37	19.492
674.69	16.916
675.01	16.667
675.34	17.793
675.66	19.676
675.98	18.404
676.31	17.431
676.63	15.439
676.95	17.955
677.28	18.588
677.60	17.349
677.92	14.908
678.25	17.505
678.57	16.667
678.89	18.487
679.22	17.450
679.54	16.867
679.86	13.718
680.18	18.447
680.51	18.561
680.83	17.296
681.15	17.600
681.48	17.213
681.80	17.355
682.12	16.532
682.44	17.573
682.77	16.336
683.09	15.103
683.41	16.136
683.73	16.359
684.06	15.708
684.38	12.688
684.70	16.993
685.02	14.730
685.34	11.660
685.67	16.886
685.99	16.998
686.31	15.575
686.63	17.625
686.96	14.449
687.28	14.343
687.60	14.639
687.92	15.960
688.24	15.323
688.56	15.066
688.89	15.402
689.21	17.111
689.53	16.241
689.85	13.023
690.17	16.518
690.49	16.785
690.82	14.078
691.14	13.810
691.46	16.121
691.78	16.667
692.10	16.344
692.42	17.316
692.74	15.812
693.06	15.991
693.39	15.385
693.71	14.027
694.03	14.781
694.35	16.822
694.67	17.929
694.99	15.666
695.31	18.016
695.63	15.000
695.95	16.162
696.27	15.026
696.59	15.278
696.91	13.165
697.23	14.653
697.56	15.099
697.88	17.634
698.20	15.945
698.52	16.235
698.84	15.072
699.16	12.500
699.48	17.794
699.80	16.625
700.12	14.825
700.44	18.768
700.76	7.558
701.08	14.242
701.40	15.361
701.72	21.296
702.04	15.182
702.36	16.388
702.68	13.514
703.00	16.970
703.32	15.543
703.64	12.994
703.96	16.522
704.28	9.509
704.60	17.460
704.91	15.773
705.23	15.282
705.55	23.322
705.87	18.051
706.19	15.185
706.51	15.464
706.83	16.720
707.15	14.953
707.47	15.126
707.79	15.365
708.11	17.500
708.43	13.500
708.74	16.021
709.06	19.718
709.38	15.596
709.70	15.976
710.02	16.242
710.34	15.170
710.66	15.064
710.98	14.238
711.29	16.393
711.61	14.576
711.93	16.287
712.25	21.649
712.57	16.117
712.89	11.567
713.20	17.301
713.52	14.286
713.84	16.382
714.16	12.715
714.48	15.484
714.80	16.346
715.11	17.629
715.43	13.480
715.75	13.667
716.07	15.282
716.39	14.430
716.70	16.236
717.02	16.794
717.34	18.623
717.66	11.947
717.97	14.348
718.29	14.226
718.61	18.504
718.93	16.667
719.24	16.350
719.56	15.663
719.88	16.495
720.20	12.500
720.51	11.877
720.83	15.830
721.15	13.445
721.46	13.710
721.78	11.067
722.10	14.126
722.42	12.448
722.73	12.653
723.05	19.592
723.37	22.458
723.68	18.018
724.00	13.248
724.32	13.333
724.63	15.000
724.95	14.847
725.27	12.442
725.58	10.593
725.90	15.079
726.22	17.761
726.53	16.949
726.85	19.850
727.16	17.358
727.48	14.980
727.80	15.789
728.11	14.831
728.43	13.725
728.74	10.887
729.06	21.200
729.38	17.669
729.69	15.139
730.01	13.077
730.32	13.060
730.64	14.841
730.96	15.094
731.27	18.333
731.59	13.898
731.90	13.694
732.22	16.088
732.53	16.944
732.85	16.667
733.16	17.508
733.48	11.871
733.80	14.855
734.11	12.881
734.43	12.371
734.74	16.667
735.06	12.378
735.37	18.127
735.69	16.162
736.00	12.544
736.32	15.436
736.63	17.958
736.95	13.993
737.26	11.388
737.58	12.752
737.89	12.821
738.21	13.158
738.52	16.461
738.83	12.227
739.15	13.537
739.46	18.110
739.78	12.454
740.09	13.725
740.41	14.493
740.72	8.661
741.04	17.409
741.35	14.894
741.66	11.374
741.98	14.286
742.29	13.861
742.61	11.518
742.92	9.479
743.23	5.556
743.55	13.122
743.86	12.440
744.18	15.789
744.49	12.234
744.80	10.326
745.12	18.717
745.43	8.293
745.74	16.146
746.06	16.098
746.37	17.277
746.68	16.588
747.00	7.447
747.31	15.920
747.62	7.767
747.94	11.483
748.25	9.406
748.56	15.847
748.88	13.089
749.19	20.213
749.50	15.271
749.82	12.736
750.13	11.009
750.44	16.917
750.75	16.791
751.07	18.613
751.38	14.943
751.69	9.020
752.01	14.729
752.32	10.757
752.63	12.648
752.94	9.483
753.26	20.921
753.57	14.027
753.88	10.177
754.19	15.000
754.51	16.529
754.82	13.765
755.13	18.333
755.44	15.726
755.75	13.281
756.07	13.230
756.38	15.094
756.69	10.345
757.00	14.000
757.31	14.379
757.63	8.841
757.94	14.444
758.25	12.329
758.56	7.181
758.87	11.331
759.18	12.461
759.50	11.273
759.81	16.722
760.12	9.677
760.43	15.455
760.74	14.198
761.05	12.308
761.36	15.909
761.67	16.061
761.99	16.667
762.30	16.000
762.61	14.625
762.92	12.670
763.23	13.964
763.54	9.813
763.85	14.831
764.16	12.448
764.47	14.919
764.78	11.355
765.10	16.162
765.41	11.987
765.72	16.190
766.03	6.015
766.34	12.044
766.65	17.530
766.96	14.141
767.27	9.574
767.58	9.770
767.89	12.057
768.20	14.773
768.51	8.791
768.82	14.286
769.13	9.677
769.44	12.017
769.75	10.502
770.06	12.931
770.37	12.981
770.68	19.797
770.99	13.122
771.30	12.745
771.61	9.955
771.92	17.672
772.23	17.734
772.54	13.978
772.85	7.407
773.16	15.730
773.47	14.379
773.78	15.033
774.09	12.575
774.39	13.333
774.70	13.376
775.01	17.241
775.32	17.143
775.63	6.612
775.94	6.870
776.25	13.386
776.56	12.500
776.87	17.308
777.18	5.128
777.48	6.897
777.79	8.696
778.10	3.810
778.41	5.405
778.72	13.492
779.03	20.301
779.34	13.475
779.65	13.699
779.95	13.699
780.26	17.931
780.57	14.634
780.88	13.386
781.19	12.069
781.50	15.504
781.80	10.651
782.11	8.805
782.42	13.846
782.73	12.230
783.04	7.407
783.34	4.167
783.65	-4.274
783.96	13.934
784.27	24.138
784.57	8.130
784.88	11.719
785.19	13.000
785.50	17.000
785.81	20.690
786.11	6.034
786.42	3.883
786.73	21.818
787.04	9.184
787.34	8.929
787.65	17.143
787.96	8.850
788.26	11.818
788.57	13.675
788.88	12.500
789.19	15.873
789.49	7.826
789.80	4.082
790.11	2.020
790.41	9.091
790.72	9.783
791.03	6.818
791.33	11.250
791.64	6.250
791.95	16.279
792.25	12.766
792.56	20.225
792.87	2.740
793.17	13.043
793.48	2.667
793.79	10.000
794.09	20.000
794.40	10.377
794.70	12.621
795.01	2.439
795.32	14.530
795.62	0.952
795.93	3.922
796.23	12.264
796.54	11.458
796.85	14.706
797.15	15.493
797.46	15.278
797.76	6.061
798.07	5.814
798.37	2.632
798.68	-3.030
798.99	16.049
799.29	11.429
799.60	1.449
799.90	16.000
800.21	19.672
800.51	16.923
800.82	22.034
801.12	2.899
801.43	13.115
801.73	20.635
802.04	4.000
802.34	0.000
802.65	5.769
802.95	7.143
803.26	17.308
803.56	3.922
803.87	-10.870
804.17	21.333
804.48	12.698
804.78	-5.556
805.09	13.043
805.39	-6.667
805.70	20.370
806.00	-3.509
806.30	7.042
806.61	10.000
806.91	-6.944
807.22	25.000
807.52	22.667
807.83	-9.091
808.13	6.944
808.43	8.824
808.74	1.493
809.04	-10.169
809.35	-5.769
809.65	1.563
809.95	-24.324
810.26	-6.818
810.56	12.329
810.86	-9.524
811.17	14.000
811.47	8.163
811.77	-10.526
812.08	-20.455
812.38	7.547
812.69	-7.500
812.99	-6.061
813.29	0.000
813.59	-11.429
813.90	-2.273
814.20	0.000
814.50	11.538
814.81	0.000
815.11	-10.638
815.41	18.644
815.72	2.381
816.02	7.843
816.32	8.333
816.62	-4.878
816.93	-18.919
817.23	-5.714
817.53	6.250
817.84	4.348
818.14	7.692
818.44	-10.526
818.74	6.522
819.04	-15.000
819.35	-10.811
819.65	29.412
819.95	-25.000
820.25	0.000
820.56	17.500
820.86	-34.483
821.16	12.500
821.46	-8.511
821.76	5.000
822.07	-2.326
822.37	-18.919
822.67	-18.750
822.97	21.429
823.27	-32.143
823.57	-20.000
823.88	-48.148
824.18	14.286
824.48	20.588
824.78	0.000
825.08	0.000
825.38	3.030
825.69	-58.333
825.99	10.526
826.29	-8.333
826.59	-40.000
826.89	-47.619
827.19	-10.870
827.49	22.500
827.79	34.286
828.09	-7.143
828.39	9.091
828.70	16.216
829.00	-10.714
829.30	-4.762
829.60	0.000
829.90	21.875
830.20	7.895
830.50	-3.704
830.80	-8.696
831.10	-18.182
831.40	39.394
831.70	-12.903
832.00	38.095
832.30	-4.762
832.60	-33.333
832.90	-3.448
833.20	-50.000
833.50	18.182
833.80	25.926
834.10	-30.769
834.40	25.000
834.70	-88.889
835.00	15.789
835.30	-3.846
835.60	13.333
835.90	25.806
836.20	-4.545
836.50	32.143
836.80	-7.692
837.10	-3.571
837.40	-433.333
837.70	13.636
838.00	-127.273
838.30	-4.348
838.60	-69.231
838.90	18.182
839.19	7.143
839.49	33.333
839.79	7.692
840.09	-125.000
840.39	42.857
840.69	17.857
840.99	-26.923
841.29	-68.421
841.59	-70.000
841.88	0.000
842.18	-70.000
842.48	12.500
842.78	-20.000
843.08	-44.444
843.38	-150.000
843.68	0.000
843.97	60.000
844.27	-86.667
844.57	-5.000
844.87	5.556
845.17	0.000
845.47	6.667
845.76	-33.333
846.06	17.647
846.36	-140.000
846.66	-71.429
846.96	60.000
847.25	-112.500
847.55	14.286
847.85	-62.500
848.15	-40.909
848.44	-366.667
848.74	15.000
849.04	22.222
849.34	-27.273
849.63	-150.000
849.93	-320.000
850.23	-5.556
850.53	-30.000
850.82	-7.692
851.12	-144.444
851.42	13.333
851.71	-15.385
852.01	-100.000
852.31	-375.000
852.61	-154.545
852.90	-20.000
853.20	-47.368
853.50	-25.000
853.79	17.391
854.09	20.833
854.39	36.842
854.68	-37.500
854.98	-9.677
855.28	23.077
855.57	-55.000
855.87	-77.778
856.17	7.407
856.46	35.714
856.76	-26.667
857.05	88.889
857.35	28.000
857.65	16.667
857.94	-46.154
858.24	41.379
858.53	5.556
858.83	37.037
859.13	-13.636
859.42	17.391
859.72	-250.000
860.01	-500.000
860.31	8.000
860.60	4.762
860.90	-66.667
861.20	-26.667
861.49	-350.000
861.79	-100.000
862.08	20.000
862.38	53.333
862.67	-260.000
862.97	0.000
863.26	-83.333
863.56	5.556
863.85	-300.000
864.15	16.667
864.44	60.000
864.74	28.571
865.03	225.000
865.33	-320.000
865.62	50.000
865.92	-83.333
866.21	-283.333
866.51	43.750
866.80	-72.727
867.10	-200.000
867.39	75.000
867.69	0.000
867.98	0.000
868.27	-500.000
868.57	-40.000
868.86	66.667
869.16	-23.077
869.45	-26.667
869.75	-1200.000
870.04	0.000
870.33	-85.714
870.63	-9.524
870.92	400.000
871.22	-220.000
871.51	-200.000
871.80	77.778
872.10	666.667
>>>>>End Processed Spectral Data<<<<<
