SpectraSuite Data File
++++++++++++++++++++++++++++++++++++
Date: Fri May 15 20:00:14 PDT 2015
User: schluterlab
Dark Spectrum Present: Yes
Reference Spectrum Present: Yes
Number of Sampled Component Spectra: 1
Spectrometers: USB2E3373
Integration Time (usec): 3000 (USB2E3373)
Spectra Averaged: 3 (USB2E3373)
Boxcar Smoothing: 0 (USB2E3373)
Correct for Electrical Dark: No (USB2E3373)
Strobe/Lamp Enabled: No (USB2E3373)
Correct for Detector Non-linearity: No (USB2E3373)
Correct for Stray Light: No (USB2E3373)
Number of Pixels in Processed Spectrum: 2048
>>>>>Begin Processed Spectral Data<<<<<
178.53	0.000
178.91	0.000
179.29	75.000
179.67	0.000
180.04	-157.143
180.42	125.000
180.80	500.000
181.18	-66.667
181.56	-0.000
181.94	250.000
182.31	-700.000
182.69	-60.000
183.07	0.000
183.45	20.000
183.83	66.667
184.20	54.545
184.58	44.444
184.96	-0.000
185.34	-400.000
185.72	-150.000
186.09	23.077
186.47	-600.000
186.85	33.333
187.23	-0.000
187.61	100.000
187.98	-133.333
188.36	33.333
188.74	-33.333
189.12	47.059
189.49	83.333
189.87	0.000
190.25	142.857
190.63	400.000
191.00	-66.667
191.38	36.842
191.76	300.000
192.14	-150.000
192.51	400.000
192.89	-44.444
193.27	14.286
193.65	83.333
194.02	127.273
194.40	60.000
194.78	0.000
195.15	75.000
195.53	-50.000
195.91	400.000
196.29	225.000
196.66	123.077
197.04	71.429
197.42	66.667
197.79	233.333
198.17	-53.846
198.55	-200.000
198.92	-200.000
199.30	500.000
199.68	60.000
200.05	-333.333
200.43	0.000
200.81	200.000
201.18	333.333
201.56	800.000
201.94	-250.000
202.31	33.333
202.69	60.000
203.07	50.000
203.44	-100.000
203.82	0.000
204.19	85.714
204.57	-100.000
204.95	37.500
205.32	0.000
205.70	57.143
206.08	175.000
206.45	277.778
206.83	128.571
207.20	42.857
207.58	200.000
207.96	166.667
208.33	-50.000
208.71	-250.000
209.08	0.000
209.46	-200.000
209.84	40.000
210.21	-800.000
210.59	114.286
210.96	33.333
211.34	0.000
211.71	20.000
212.09	14.286
212.46	-700.000
212.84	0.000
213.22	40.000
213.59	500.000
213.97	23.077
214.34	36.364
214.72	33.333
215.09	175.000
215.47	-15.385
215.84	18.182
216.22	200.000
216.59	87.500
216.97	250.000
217.34	75.000
217.72	-20.000
218.09	150.000
218.47	75.000
218.84	200.000
219.22	-77.778
219.59	60.000
219.97	33.333
220.34	150.000
220.72	-28.571
221.09	125.000
221.47	-150.000
221.84	-50.000
222.22	-800.000
222.59	-18.182
222.97	25.000
223.34	-33.333
223.72	-21.429
224.09	80.952
224.46	39.286
224.84	-66.667
225.21	90.000
225.59	13.333
225.96	-50.000
226.34	375.000
226.71	-42.857
227.08	100.000
227.46	12.500
227.83	-250.000
228.21	166.667
228.58	109.091
228.95	-25.000
229.33	80.000
229.70	81.250
230.08	-25.000
230.45	-28.571
230.82	128.571
231.20	-6.667
231.57	50.000
231.95	171.429
232.32	-50.000
232.69	85.714
233.07	66.667
233.44	-20.000
233.81	-20.000
234.19	-22.222
234.56	-11.765
234.93	100.000
235.31	-250.000
235.68	-20.000
236.05	-23.077
236.43	-15.000
236.80	35.294
237.17	31.250
237.55	15.000
237.92	7.407
238.29	47.222
238.67	36.667
239.04	38.235
239.41	-12.195
239.79	3.333
240.16	51.220
240.53	23.684
240.91	6.522
241.28	39.683
241.65	35.714
242.02	35.616
242.40	33.333
242.77	35.593
243.14	21.212
243.51	28.750
243.89	42.529
244.26	31.034
244.63	16.667
245.00	28.866
245.38	32.990
245.75	31.461
246.12	12.069
246.49	18.182
246.87	27.885
247.24	21.008
247.61	15.789
247.98	19.512
248.36	21.250
248.73	26.974
249.10	22.078
249.47	27.215
249.84	18.954
250.22	21.176
250.59	30.065
250.96	20.657
251.33	27.907
251.70	24.118
252.08	23.350
252.45	19.307
252.82	31.658
253.19	23.502
253.56	18.692
253.94	24.775
254.31	23.043
254.68	28.509
255.05	21.260
255.42	24.891
255.79	22.008
256.16	26.070
256.54	24.254
256.91	22.053
257.28	26.394
257.65	21.348
258.02	22.340
258.39	25.926
258.76	28.938
259.14	23.256
259.51	21.683
259.88	19.244
260.25	19.281
260.62	23.611
260.99	24.068
261.36	21.575
261.73	18.038
262.10	27.660
262.47	22.699
262.85	20.690
263.22	20.923
263.59	23.053
263.96	26.087
264.33	23.939
264.70	20.536
265.07	21.131
265.44	25.212
265.81	23.729
266.18	23.224
266.55	22.622
266.92	25.389
267.29	24.543
267.66	21.483
268.03	22.251
268.40	23.499
268.77	29.412
269.14	22.542
269.51	22.622
269.88	19.950
270.25	20.663
270.62	21.707
270.99	21.739
271.36	21.027
271.73	20.892
272.10	24.574
272.47	22.695
272.84	22.772
273.21	24.130
273.58	24.337
273.95	21.968
274.32	20.092
274.69	22.172
275.06	23.661
275.43	23.810
275.80	21.634
276.17	20.690
276.54	20.771
276.91	21.053
277.28	19.214
277.65	24.587
278.02	21.277
278.39	19.912
278.76	21.174
279.13	19.710
279.50	22.899
279.87	20.302
280.23	21.075
280.60	23.392
280.97	22.626
281.34	19.423
281.71	23.614
282.08	19.836
282.45	18.982
282.82	19.112
283.19	20.696
283.56	21.773
283.92	21.442
284.29	20.000
284.66	18.605
285.03	19.253
285.40	20.227
285.77	19.332
286.14	18.773
286.51	21.033
286.87	17.550
287.24	18.785
287.61	18.519
287.98	21.930
288.35	19.064
288.72	20.841
289.08	20.312
289.45	19.684
289.82	18.706
290.19	17.918
290.56	17.667
290.93	18.687
291.29	16.641
291.66	18.898
292.03	19.617
292.40	17.419
292.77	17.863
293.13	16.558
293.50	15.781
293.87	15.878
294.24	17.002
294.60	16.990
294.97	16.964
295.34	15.798
295.71	17.586
296.08	16.143
296.44	14.794
296.81	14.722
297.18	15.652
297.55	17.344
297.91	17.260
298.28	15.831
298.65	14.518
299.02	14.825
299.38	14.227
299.75	15.586
300.12	15.052
300.48	13.043
300.85	15.336
301.22	14.805
301.59	13.816
301.95	13.924
302.32	15.305
302.69	15.299
303.05	14.233
303.42	15.068
303.79	15.070
304.15	14.337
304.52	12.723
304.89	14.035
305.25	13.801
305.62	13.769
305.99	12.398
306.35	12.370
306.72	14.286
307.09	12.771
307.45	14.811
307.82	14.236
308.19	14.286
308.55	13.195
308.92	14.270
309.29	13.408
309.65	14.209
310.02	14.741
310.38	14.050
310.75	14.208
311.12	13.132
311.48	14.740
311.85	13.194
312.22	11.814
312.58	13.057
312.95	11.846
313.31	13.043
313.68	12.984
314.05	12.755
314.41	12.680
314.78	13.918
315.14	13.566
315.51	13.458
315.87	13.115
316.24	14.459
316.61	14.665
316.97	13.492
317.34	13.672
317.70	12.715
318.07	14.038
318.43	14.118
318.80	13.636
319.16	14.258
319.53	14.530
319.89	13.287
320.26	14.271
320.62	14.845
320.99	13.152
321.35	14.594
321.72	15.265
322.08	15.911
322.45	14.416
322.81	14.440
323.18	14.033
323.54	15.444
323.91	14.800
324.27	15.137
324.64	16.667
325.00	15.237
325.37	16.896
325.73	15.050
326.10	15.895
326.46	16.771
326.83	16.273
327.19	16.303
327.56	17.289
327.92	16.901
328.29	17.054
328.65	17.075
329.01	17.463
329.38	17.143
329.74	16.903
330.11	16.219
330.47	16.512
330.84	16.923
331.20	17.776
331.56	16.481
331.93	17.260
332.29	19.432
332.66	17.828
333.02	17.286
333.38	17.324
333.75	18.315
334.11	17.368
334.48	17.498
334.84	17.766
335.20	18.024
335.57	17.135
335.93	18.157
336.29	17.772
336.66	17.984
337.02	18.680
337.38	17.407
337.75	19.091
338.11	18.936
338.47	17.427
338.84	19.224
339.20	17.733
339.56	18.440
339.93	17.368
340.29	18.257
340.65	18.280
341.02	18.085
341.38	17.876
341.74	17.756
342.11	17.071
342.47	17.438
342.83	17.820
343.20	17.160
343.56	19.565
343.92	18.778
344.28	19.044
344.65	18.653
345.01	17.459
345.37	18.755
345.73	19.498
346.10	19.154
346.46	17.914
346.82	18.331
347.19	16.293
347.55	18.546
347.91	18.770
348.27	18.027
348.63	18.910
349.00	18.458
349.36	18.786
349.72	19.818
350.08	18.852
350.45	18.276
350.81	17.110
351.17	17.997
351.53	18.531
351.89	18.084
352.26	19.280
352.62	18.871
352.98	18.153
353.34	18.841
353.70	19.094
354.07	18.226
354.43	17.774
354.79	17.919
355.15	18.413
355.51	19.146
355.87	19.094
356.24	17.210
356.60	18.755
356.96	18.810
357.32	18.690
357.68	18.530
358.04	17.771
358.40	18.167
358.77	19.378
359.13	18.735
359.49	18.567
359.85	18.643
360.21	19.219
360.57	19.281
360.93	19.592
361.29	17.976
361.66	18.339
362.02	19.545
362.38	17.974
362.74	17.941
363.10	19.639
363.46	18.903
363.82	19.985
364.18	18.967
364.54	19.412
364.90	19.785
365.26	18.850
365.62	19.708
365.98	18.842
366.35	17.990
366.71	19.217
367.07	19.811
367.43	19.554
367.79	19.788
368.15	18.665
368.51	19.155
368.87	18.665
369.23	19.639
369.59	20.044
369.95	20.528
370.31	20.087
370.67	18.881
371.03	18.372
371.39	18.673
371.75	19.121
372.11	19.116
372.47	20.710
372.83	19.943
373.19	20.471
373.55	20.433
373.91	20.446
374.27	19.844
374.63	20.101
374.99	19.716
375.35	20.474
375.71	21.049
376.07	20.997
376.42	19.456
376.78	20.336
377.14	19.973
377.50	21.248
377.86	20.683
378.22	20.230
378.58	21.346
378.94	20.164
379.30	20.524
379.66	21.129
380.02	20.294
380.38	20.146
380.74	20.527
381.09	22.025
381.45	21.101
381.81	20.666
382.17	21.701
382.53	21.112
382.89	21.406
383.25	21.717
383.61	21.463
383.97	20.952
384.32	20.575
384.68	21.115
385.04	21.569
385.40	21.157
385.76	22.579
386.12	21.734
386.48	22.286
386.83	21.560
387.19	21.734
387.55	21.832
387.91	21.760
388.27	22.466
388.62	22.656
388.98	22.038
389.34	22.486
389.70	23.866
390.06	21.712
390.42	22.733
390.77	22.629
391.13	22.257
391.49	22.122
391.85	23.262
392.20	22.850
392.56	23.140
392.92	23.899
393.28	22.524
393.64	23.423
393.99	23.950
394.35	23.466
394.71	23.436
395.07	22.250
395.42	22.647
395.78	23.127
396.14	22.888
396.50	23.843
396.85	22.859
397.21	23.058
397.57	22.696
397.92	23.188
398.28	24.253
398.64	22.651
399.00	24.549
399.35	23.363
399.71	24.526
400.07	23.700
400.42	23.133
400.78	24.066
401.14	23.896
401.49	23.407
401.85	24.071
402.21	23.253
402.57	24.312
402.92	22.020
403.28	23.371
403.63	23.770
403.99	23.469
404.35	23.798
404.70	22.738
405.06	23.384
405.42	22.933
405.77	22.777
406.13	23.050
406.49	23.446
406.84	23.655
407.20	23.480
407.55	22.795
407.91	22.995
408.27	23.901
408.62	23.569
408.98	22.736
409.34	23.234
409.69	22.416
410.05	22.352
410.40	22.963
410.76	24.125
411.11	23.437
411.47	23.997
411.83	23.415
412.18	23.810
412.54	22.846
412.89	22.291
413.25	22.924
413.60	24.161
413.96	23.252
414.31	23.659
414.67	23.669
415.03	22.503
415.38	23.499
415.74	23.844
416.09	23.579
416.45	24.038
416.80	23.662
417.16	24.517
417.51	24.317
417.87	23.468
418.22	24.352
418.58	23.344
418.93	24.577
419.29	23.111
419.64	23.720
420.00	24.244
420.35	23.343
420.71	24.605
421.06	24.494
421.42	24.639
421.77	24.509
422.12	24.291
422.48	23.714
422.83	24.072
423.19	23.871
423.54	23.810
423.90	23.675
424.25	23.938
424.61	24.541
424.96	23.635
425.31	24.552
425.67	24.354
426.02	24.441
426.38	23.982
426.73	24.879
427.09	24.367
427.44	24.529
427.79	24.691
428.15	24.818
428.50	25.257
428.85	24.201
429.21	24.335
429.56	24.097
429.92	24.088
430.27	24.361
430.62	24.307
430.98	25.584
431.33	24.921
431.68	24.542
432.04	24.595
432.39	24.073
432.74	23.572
433.10	25.402
433.45	24.492
433.80	25.189
434.16	23.546
434.51	24.677
434.86	24.623
435.22	25.126
435.57	24.641
435.92	25.090
436.28	24.985
436.63	24.815
436.98	24.739
437.34	24.138
437.69	25.701
438.04	24.843
438.39	24.924
438.75	24.954
439.10	24.901
439.45	24.589
439.81	24.832
440.16	25.534
440.51	24.896
440.86	26.465
441.22	24.717
441.57	25.221
441.92	25.866
442.27	25.554
442.63	26.017
442.98	26.020
443.33	24.930
443.68	24.775
444.03	26.230
444.39	25.332
444.74	26.756
445.09	25.891
445.44	25.299
445.79	26.612
446.15	25.771
446.50	24.737
446.85	25.186
447.20	25.547
447.55	25.279
447.91	24.535
448.26	25.384
448.61	24.986
448.96	25.244
449.31	25.838
449.66	25.494
450.02	25.499
450.37	25.726
450.72	24.800
451.07	25.823
451.42	24.532
451.77	25.618
452.12	24.641
452.47	24.984
452.83	25.501
453.18	24.921
453.53	25.727
453.88	25.562
454.23	25.569
454.58	26.259
454.93	24.678
455.28	24.635
455.63	25.170
455.98	25.376
456.34	25.415
456.69	25.540
457.04	26.150
457.39	24.544
457.74	24.909
458.09	24.603
458.44	25.102
458.79	25.378
459.14	25.572
459.49	25.791
459.84	25.212
460.19	25.121
460.54	25.061
460.89	26.307
461.24	24.596
461.59	25.238
461.94	25.346
462.29	24.668
462.64	25.847
462.99	25.728
463.34	25.522
463.69	25.547
464.04	24.939
464.39	24.560
464.74	24.969
465.09	25.702
465.44	25.274
465.79	25.283
466.14	25.485
466.49	24.669
466.84	26.056
467.19	25.782
467.54	25.096
467.89	25.079
468.24	24.696
468.59	25.524
468.94	25.016
469.29	24.787
469.64	25.496
469.99	25.018
470.34	23.686
470.68	25.130
471.03	24.487
471.38	24.750
471.73	24.860
472.08	25.102
472.43	23.758
472.78	23.783
473.13	24.966
473.48	25.016
473.83	24.595
474.17	25.259
474.52	25.016
474.87	24.970
475.22	24.832
475.57	24.732
475.92	24.575
476.27	25.844
476.61	24.884
476.96	24.763
477.31	25.581
477.66	24.382
478.01	24.818
478.36	24.673
478.70	25.122
479.05	25.549
479.40	25.172
479.75	24.453
480.10	24.373
480.45	25.000
480.79	25.378
481.14	24.898
481.49	25.567
481.84	24.710
482.19	24.369
482.53	24.892
482.88	24.248
483.23	24.568
483.58	24.104
483.92	24.298
484.27	24.795
484.62	24.742
484.97	24.461
485.31	25.542
485.66	25.040
486.01	25.850
486.36	26.373
486.70	26.450
487.05	26.223
487.40	26.370
487.75	26.113
488.09	25.464
488.44	25.344
488.79	24.131
489.13	25.361
489.48	23.899
489.83	24.081
490.17	24.270
490.52	24.018
490.87	23.554
491.22	24.117
491.56	24.668
491.91	23.709
492.26	23.967
492.60	24.040
492.95	24.791
493.30	23.254
493.64	24.460
493.99	24.155
494.34	23.738
494.68	23.524
495.03	23.844
495.37	23.847
495.72	24.634
496.07	24.732
496.41	23.962
496.76	23.998
497.11	24.220
497.45	24.535
497.80	24.773
498.14	23.994
498.49	24.276
498.84	23.603
499.18	24.699
499.53	24.206
499.87	23.395
500.22	23.294
500.56	24.357
500.91	23.494
501.26	23.875
501.60	23.955
501.95	24.551
502.29	23.874
502.64	23.842
502.98	23.730
503.33	23.775
503.67	24.096
504.02	24.829
504.36	24.245
504.71	22.929
505.06	23.352
505.40	23.299
505.75	23.608
506.09	24.734
506.44	24.692
506.78	24.490
507.13	23.268
507.47	22.611
507.82	23.237
508.16	23.296
508.51	24.134
508.85	23.757
509.19	22.991
509.54	24.290
509.88	22.977
510.23	23.830
510.57	23.410
510.92	22.388
511.26	22.640
511.61	23.377
511.95	23.233
512.30	23.226
512.64	23.261
512.98	22.908
513.33	23.055
513.67	22.854
514.02	23.513
514.36	23.543
514.70	23.660
515.05	24.618
515.39	23.200
515.74	23.533
516.08	23.311
516.42	23.439
516.77	23.581
517.11	23.501
517.46	24.057
517.80	23.302
518.14	22.719
518.49	22.296
518.83	23.208
519.17	22.317
519.52	23.150
519.86	22.989
520.20	22.600
520.55	22.014
520.89	23.588
521.23	22.799
521.58	22.461
521.92	23.590
522.26	22.707
522.61	23.247
522.95	23.245
523.29	23.126
523.64	22.745
523.98	23.461
524.32	22.165
524.66	23.047
525.01	23.506
525.35	23.720
525.69	22.761
526.04	21.561
526.38	23.281
526.72	23.087
527.06	22.244
527.41	23.021
527.75	21.783
528.09	22.193
528.43	23.430
528.78	22.046
529.12	22.839
529.46	22.417
529.80	22.483
530.15	24.092
530.49	21.616
530.83	22.709
531.17	21.827
531.51	22.572
531.86	22.366
532.20	22.965
532.54	23.077
532.88	23.135
533.22	21.976
533.57	22.870
533.91	22.911
534.25	24.023
534.59	23.477
534.93	22.656
535.27	22.081
535.62	22.489
535.96	24.070
536.30	24.208
536.64	23.225
536.98	22.300
537.32	22.475
537.66	23.072
538.01	23.846
538.35	22.538
538.69	23.502
539.03	23.650
539.37	23.149
539.71	23.040
540.05	22.878
540.39	23.338
540.73	23.780
541.07	23.066
541.42	24.126
541.76	24.432
542.10	22.849
542.44	23.697
542.78	22.712
543.12	23.214
543.46	22.879
543.80	23.040
544.14	23.097
544.48	23.051
544.82	23.582
545.16	23.770
545.50	23.298
545.84	23.159
546.18	24.752
546.52	23.648
546.86	23.077
547.20	22.604
547.54	23.392
547.88	23.302
548.22	23.208
548.56	23.087
548.90	23.518
549.24	23.967
549.58	23.907
549.92	22.230
550.26	23.077
550.60	23.346
550.94	23.600
551.28	22.179
551.62	23.769
551.96	22.481
552.30	23.392
552.64	22.496
552.98	23.136
553.32	23.680
553.66	21.916
554.00	24.380
554.34	23.338
554.68	23.304
555.02	23.735
555.36	23.560
555.69	22.271
556.03	21.913
556.37	22.633
556.71	23.105
557.05	22.073
557.39	21.859
557.73	22.864
558.07	24.585
558.41	22.818
558.75	23.149
559.08	21.907
559.42	22.857
559.76	23.058
560.10	23.165
560.44	22.859
560.78	23.706
561.12	23.977
561.45	23.120
561.79	22.829
562.13	23.847
562.47	22.590
562.81	22.839
563.15	23.202
563.48	23.267
563.82	23.473
564.16	23.259
564.50	23.378
564.84	23.159
565.17	23.810
565.51	24.727
565.85	22.634
566.19	24.271
566.52	23.861
566.86	24.293
567.20	23.724
567.54	24.209
567.88	24.077
568.21	25.170
568.55	24.239
568.89	25.924
569.23	25.855
569.56	25.788
569.90	26.228
570.24	26.126
570.57	26.473
570.91	26.629
571.25	25.715
571.59	26.409
571.92	26.163
572.26	26.721
572.60	26.822
572.93	26.106
573.27	26.144
573.61	27.715
573.95	27.307
574.28	27.383
574.62	27.358
574.96	27.026
575.29	27.410
575.63	27.028
575.97	26.809
576.30	27.411
576.64	26.437
576.98	27.336
577.31	27.648
577.65	27.706
577.98	28.043
578.32	27.716
578.66	27.509
578.99	27.609
579.33	27.205
579.67	26.747
580.00	27.570
580.34	27.214
580.67	26.904
581.01	26.729
581.35	27.735
581.68	27.750
582.02	27.895
582.35	27.855
582.69	28.029
583.02	27.836
583.36	27.348
583.70	27.908
584.03	27.551
584.37	27.866
584.70	27.335
585.04	27.565
585.37	27.322
585.71	27.993
586.04	27.610
586.38	26.994
586.72	28.321
587.05	28.163
587.39	27.873
587.72	28.212
588.06	27.678
588.39	27.627
588.73	27.686
589.06	27.821
589.40	27.618
589.73	27.054
590.07	27.568
590.40	26.471
590.73	27.100
591.07	25.700
591.40	27.026
591.74	26.561
592.07	26.577
592.41	27.120
592.74	26.961
593.08	26.476
593.41	27.743
593.75	27.020
594.08	27.188
594.41	26.929
594.75	26.603
595.08	26.447
595.42	26.905
595.75	27.150
596.09	26.779
596.42	26.912
596.75	26.421
597.09	26.606
597.42	26.287
597.75	26.752
598.09	26.845
598.42	26.309
598.76	26.641
599.09	27.204
599.42	26.828
599.76	26.787
600.09	26.810
600.42	27.445
600.76	27.043
601.09	26.718
601.42	26.714
601.76	26.955
602.09	26.980
602.42	27.970
602.76	27.759
603.09	26.453
603.42	27.926
603.76	26.089
604.09	26.610
604.42	26.988
604.76	27.281
605.09	26.005
605.42	26.817
605.75	26.357
606.09	27.473
606.42	27.148
606.75	26.840
607.09	26.813
607.42	26.274
607.75	26.954
608.08	26.730
608.42	26.770
608.75	27.325
609.08	27.454
609.41	26.548
609.75	26.512
610.08	26.810
610.41	25.797
610.74	26.719
611.07	26.822
611.41	26.985
611.74	26.439
612.07	26.392
612.40	25.985
612.73	26.102
613.07	25.591
613.40	25.985
613.73	26.021
614.06	26.043
614.39	25.324
614.72	25.546
615.06	26.480
615.39	25.437
615.72	26.265
616.05	26.313
616.38	25.185
616.71	25.505
617.05	26.189
617.38	25.519
617.71	25.723
618.04	26.603
618.37	26.482
618.70	26.205
619.03	26.319
619.36	25.036
619.69	24.867
620.03	25.566
620.36	25.751
620.69	25.054
621.02	24.771
621.35	24.481
621.68	23.980
622.01	24.917
622.34	25.060
622.67	25.552
623.00	24.119
623.33	24.771
623.66	25.280
623.99	24.660
624.32	24.563
624.65	24.436
624.99	25.207
625.32	24.337
625.65	26.394
625.98	24.738
626.31	23.608
626.64	24.437
626.97	23.909
627.30	24.869
627.63	25.303
627.96	24.259
628.29	23.959
628.62	23.795
628.95	24.248
629.28	23.790
629.61	22.034
629.94	23.754
630.26	23.221
630.59	24.558
630.92	25.846
631.25	22.359
631.58	23.238
631.91	21.601
632.24	22.018
632.57	22.159
632.90	22.420
633.23	21.765
633.56	21.285
633.89	21.332
634.22	23.827
634.55	22.490
634.88	22.095
635.20	20.513
635.53	22.800
635.86	20.936
636.19	23.545
636.52	22.321
636.85	20.720
637.18	20.503
637.51	21.258
637.83	23.259
638.16	23.192
638.49	21.253
638.82	22.500
639.15	20.624
639.48	23.109
639.81	20.502
640.13	21.356
640.46	21.429
640.79	21.944
641.12	21.418
641.45	21.321
641.77	22.815
642.10	22.907
642.43	20.096
642.76	20.957
643.09	22.294
643.41	19.903
643.74	20.593
644.07	20.361
644.40	21.622
644.73	22.067
645.05	21.812
645.38	21.164
645.71	20.567
646.04	22.262
646.36	19.858
646.69	25.360
647.02	20.605
647.35	19.590
647.67	20.841
648.00	21.828
648.33	20.648
648.66	20.847
648.98	19.598
649.31	21.488
649.64	22.135
649.96	22.204
650.29	22.487
650.62	19.487
650.94	20.741
651.27	18.063
651.60	22.342
651.92	20.629
652.25	20.604
652.58	21.500
652.90	22.298
653.23	20.840
653.56	19.966
653.88	21.134
654.21	18.914
654.54	20.204
654.86	24.278
655.19	23.099
655.52	27.554
655.84	29.515
656.17	33.756
656.49	46.419
656.82	48.407
657.15	36.824
657.47	27.093
657.80	19.879
658.13	19.719
658.45	30.475
658.78	30.167
659.10	28.872
659.43	29.042
659.75	28.860
660.08	27.172
660.41	26.558
660.73	22.652
661.06	21.317
661.38	20.744
661.71	19.302
662.03	21.030
662.36	21.319
662.68	19.469
663.01	21.834
663.33	17.865
663.66	17.209
663.98	20.000
664.31	23.028
664.63	19.816
664.96	17.391
665.28	17.219
665.61	21.645
665.93	21.739
666.26	21.692
666.58	16.331
666.91	20.706
667.23	21.462
667.56	17.773
667.88	20.144
668.21	21.002
668.53	21.277
668.86	22.170
669.18	18.632
669.50	20.581
669.83	17.674
670.15	23.310
670.48	20.096
670.80	21.659
671.13	19.687
671.45	18.950
671.77	20.815
672.10	22.772
672.42	20.974
672.75	23.979
673.07	24.508
673.39	23.853
673.72	21.105
674.04	17.500
674.37	21.398
674.69	21.627
675.01	24.000
675.34	21.396
675.66	19.676
675.98	22.395
676.31	19.954
676.63	19.477
676.95	20.455
677.28	21.412
677.60	21.205
677.92	23.853
678.25	21.225
678.57	20.130
678.89	22.269
679.22	24.161
679.54	23.092
679.86	21.074
680.18	22.136
680.51	22.727
680.83	22.266
681.15	21.800
681.48	23.975
681.80	22.934
682.12	21.976
682.44	21.967
682.77	22.958
683.09	23.570
683.41	22.500
683.73	21.198
684.06	22.124
684.38	20.860
684.70	23.747
685.02	21.577
685.34	21.146
685.67	23.640
685.99	25.678
686.31	25.487
686.63	25.974
686.96	22.814
687.28	20.000
687.60	21.863
687.92	23.434
688.24	24.194
688.56	24.454
688.89	23.884
689.21	25.111
689.53	22.506
689.85	21.860
690.17	22.098
690.49	23.404
690.82	18.204
691.14	20.952
691.46	21.729
691.78	20.946
692.10	23.656
692.42	20.779
692.74	22.863
693.06	22.523
693.39	20.136
693.71	20.588
694.03	21.247
694.35	20.327
694.67	23.485
694.99	22.193
695.31	22.977
695.63	20.500
695.95	19.697
696.27	24.093
696.59	21.944
696.91	18.768
697.23	22.108
697.56	22.772
697.88	26.237
698.20	23.007
698.52	24.706
698.84	22.727
699.16	21.250
699.48	24.311
699.80	22.084
700.12	23.450
700.44	21.289
700.76	18.314
701.08	21.212
701.40	21.386
701.72	23.148
702.04	25.413
702.36	20.736
702.68	21.622
703.00	18.788
703.32	23.754
703.64	18.644
703.96	24.348
704.28	22.086
704.60	21.905
704.91	22.397
705.23	18.937
705.55	25.442
705.87	17.329
706.19	22.222
706.51	18.213
706.83	20.900
707.15	21.807
707.47	26.050
707.79	25.000
708.11	23.500
708.43	25.250
708.74	25.581
709.06	28.451
709.38	22.630
709.70	23.669
710.02	22.293
710.34	21.362
710.66	16.987
710.98	20.199
711.29	20.984
711.61	18.983
711.93	23.779
712.25	26.460
712.57	21.978
712.89	22.388
713.20	20.069
713.52	20.906
713.84	25.256
714.16	20.619
714.48	24.194
714.80	23.718
715.11	23.404
715.43	21.317
715.75	20.667
716.07	19.934
716.39	20.470
716.70	19.557
717.02	21.756
717.34	21.053
717.66	19.912
717.97	17.826
718.29	20.502
718.61	23.622
718.93	18.992
719.24	22.814
719.56	20.080
719.88	22.680
720.20	21.591
720.51	20.690
720.83	22.008
721.15	20.168
721.46	25.000
721.78	17.787
722.10	18.587
722.42	16.598
722.73	26.531
723.05	29.388
723.37	25.424
723.68	29.730
724.00	23.932
724.32	20.444
724.63	17.273
724.95	21.834
725.27	23.502
725.58	26.271
725.90	21.429
726.22	22.394
726.53	25.085
726.85	24.719
727.16	26.415
727.48	19.838
727.80	22.672
728.11	22.881
728.43	23.529
728.74	15.726
729.06	28.000
729.38	30.451
729.69	25.100
730.01	22.308
730.32	30.224
730.64	28.975
730.96	26.038
731.27	22.000
731.59	22.034
731.90	25.478
732.22	28.391
732.53	27.575
732.85	25.887
733.16	21.549
733.48	18.345
733.80	25.725
734.11	22.373
734.43	24.055
734.74	28.182
735.06	20.847
735.37	27.492
735.69	24.579
736.00	22.648
736.32	26.174
736.63	22.887
736.95	25.939
737.26	22.064
737.58	23.826
737.89	23.443
738.21	26.316
738.52	27.160
738.83	25.764
739.15	20.524
739.46	27.559
739.78	21.978
740.09	21.569
740.41	29.348
740.72	24.016
741.04	30.364
741.35	22.979
741.66	22.275
741.98	20.918
742.29	23.267
742.61	24.084
742.92	16.588
743.23	14.815
743.55	23.077
743.86	27.751
744.18	22.010
744.49	17.553
744.80	22.283
745.12	31.551
745.43	17.561
745.74	30.729
746.06	21.463
746.37	20.419
746.68	22.749
747.00	19.681
747.31	28.358
747.62	19.903
747.94	27.751
748.25	22.277
748.56	22.951
748.88	25.131
749.19	26.596
749.50	25.123
749.82	14.623
750.13	20.183
750.44	26.316
750.75	23.881
751.07	28.102
751.38	23.755
751.69	19.608
752.01	22.481
752.32	24.701
752.63	22.925
752.94	23.707
753.26	25.523
753.57	22.172
753.88	20.796
754.19	22.500
754.51	26.860
754.82	22.267
755.13	30.833
755.44	23.387
755.75	30.469
756.07	26.848
756.38	20.755
756.69	26.820
757.00	25.667
757.31	26.144
757.63	21.951
757.94	25.556
758.25	28.767
758.56	23.670
758.87	22.380
759.18	28.972
759.50	24.364
759.81	24.080
760.12	25.484
760.43	26.667
760.74	29.012
761.05	24.308
761.36	24.716
761.67	28.485
761.99	26.531
762.30	25.818
762.61	22.134
762.92	21.719
763.23	22.523
763.54	22.430
763.85	24.576
764.16	24.896
764.47	25.806
764.78	28.938
765.10	28.283
765.41	28.391
765.72	24.762
766.03	26.316
766.34	22.993
766.65	26.693
766.96	22.727
767.27	26.064
767.58	25.287
767.89	18.440
768.20	30.114
768.51	20.330
768.82	29.557
769.13	23.963
769.44	24.464
769.75	19.178
770.06	31.466
770.37	26.442
770.68	26.904
770.99	23.529
771.30	27.941
771.61	28.054
771.92	27.586
772.23	28.079
772.54	30.108
772.85	23.457
773.16	26.404
773.47	26.144
773.78	24.183
774.09	22.754
774.39	24.000
774.70	29.936
775.01	30.345
775.32	27.857
775.63	17.355
775.94	30.534
776.25	25.197
776.56	23.333
776.87	25.000
777.18	17.094
777.48	31.897
777.79	22.609
778.10	6.667
778.41	22.523
778.72	24.603
779.03	19.549
779.34	24.113
779.65	27.397
779.95	25.342
780.26	28.966
780.57	14.634
780.88	25.984
781.19	18.103
781.50	28.682
781.80	27.811
782.11	21.384
782.42	22.308
782.73	28.058
783.04	31.852
783.34	22.917
783.65	20.513
783.96	20.492
784.27	31.724
784.57	30.894
784.88	33.594
785.19	23.000
785.50	34.000
785.81	33.621
786.11	18.103
786.42	19.417
786.73	29.091
787.04	22.449
787.34	22.321
787.65	29.524
787.96	19.469
788.26	30.000
788.57	17.094
788.88	29.687
789.19	15.873
789.49	25.217
789.80	17.347
790.11	21.212
790.41	19.091
790.72	20.652
791.03	34.091
791.33	30.000
791.64	20.000
791.95	18.605
792.25	26.596
792.56	17.978
792.87	19.178
793.17	14.493
793.48	13.333
793.79	20.000
794.09	30.000
794.40	30.189
794.70	18.447
795.01	27.642
795.32	21.368
795.62	11.429
795.93	25.490
796.23	28.302
796.54	30.208
796.85	36.765
797.15	18.310
797.46	38.889
797.76	22.727
798.07	11.628
798.37	25.000
798.68	21.212
798.99	17.284
799.29	28.571
799.60	36.232
799.90	32.000
800.21	34.426
800.51	35.385
800.82	27.119
801.12	23.188
801.43	22.951
801.73	14.286
802.04	32.000
802.34	16.418
802.65	42.308
802.95	3.571
803.26	13.462
803.56	5.882
803.87	-2.174
804.17	21.333
804.48	34.921
804.78	25.926
805.09	28.261
805.39	-4.444
805.70	33.333
806.00	10.526
806.30	12.676
806.61	15.714
806.91	20.833
807.22	25.000
807.52	33.333
807.83	30.909
808.13	20.833
808.43	23.529
808.74	28.358
809.04	16.949
809.35	17.308
809.65	34.375
809.95	-2.703
810.26	-4.545
810.56	21.918
810.86	16.667
811.17	34.000
811.47	26.531
811.77	21.053
812.08	22.727
812.38	26.415
812.69	-10.000
812.99	-9.091
813.29	15.789
813.59	-8.571
813.90	20.455
814.20	5.128
814.50	44.231
814.81	24.528
815.11	12.766
815.41	40.678
815.72	35.714
816.02	27.451
816.32	41.667
816.62	14.634
816.93	16.216
817.23	11.429
817.53	37.500
817.84	4.348
818.14	36.538
818.44	18.421
818.74	36.957
819.04	5.000
819.35	21.622
819.65	26.471
819.95	11.111
820.25	45.238
820.56	42.500
820.86	20.690
821.16	45.000
821.46	34.043
821.76	15.000
822.07	25.581
822.37	0.000
822.67	-3.125
822.97	30.952
823.27	14.286
823.57	-20.000
823.88	-44.444
824.18	35.714
824.48	14.706
824.78	38.710
825.08	26.087
825.38	42.424
825.69	37.500
825.99	23.684
826.29	19.444
826.59	-20.000
826.89	0.000
827.19	34.783
827.49	35.000
827.79	31.429
828.09	28.571
828.39	27.273
828.70	45.946
829.00	17.857
829.30	28.571
829.60	26.667
829.90	21.875
830.20	42.105
830.50	18.519
830.80	-4.348
831.10	4.545
831.40	84.848
831.70	25.806
832.00	28.571
832.30	-4.762
832.60	-25.000
832.90	55.172
833.20	25.000
833.50	39.394
833.80	18.519
834.10	3.846
834.40	53.125
834.70	-55.556
835.00	52.632
835.30	73.077
835.60	6.667
835.90	16.129
836.20	27.273
836.50	67.857
836.80	-26.923
837.10	32.143
837.40	-166.667
837.70	18.182
838.00	63.636
838.30	4.348
838.60	30.769
838.90	54.545
839.19	7.143
839.49	0.000
839.79	23.077
840.09	-50.000
840.39	57.143
840.69	-7.143
840.99	0.000
841.29	78.947
841.59	10.000
841.88	81.818
842.18	50.000
842.48	0.000
842.78	40.000
843.08	11.111
843.38	-90.000
843.68	43.478
843.97	-6.667
844.27	-60.000
844.57	35.000
844.87	44.444
845.17	0.000
845.47	-13.333
845.76	-19.048
846.06	41.176
846.36	20.000
846.66	64.286
846.96	80.000
847.25	-62.500
847.55	64.286
847.85	-50.000
848.15	-31.818
848.44	-200.000
848.74	45.000
849.04	33.333
849.34	27.273
849.63	-200.000
849.93	120.000
850.23	0.000
850.53	90.000
850.82	15.385
851.12	-11.111
851.42	-20.000
851.71	-15.385
852.01	0.000
852.31	-200.000
852.61	0.000
852.90	5.000
853.20	73.684
853.50	25.000
853.79	34.783
854.09	50.000
854.39	21.053
854.68	25.000
854.98	29.032
855.28	42.308
855.57	40.000
855.87	61.111
856.17	48.148
856.46	64.286
856.76	0.000
857.05	100.000
857.35	40.000
857.65	50.000
857.94	-53.846
858.24	48.276
858.53	33.333
858.83	48.148
859.13	22.727
859.42	26.087
859.72	-50.000
860.01	-133.333
860.31	28.000
860.60	33.333
860.90	33.333
861.20	20.000
861.49	-450.000
861.79	-33.333
862.08	40.000
862.38	80.000
862.67	20.000
862.97	100.000
863.26	25.000
863.56	61.111
863.85	-500.000
864.15	-22.222
864.44	0.000
864.74	35.714
865.03	200.000
865.33	0.000
865.62	183.333
865.92	-66.667
866.21	-83.333
866.51	37.500
866.80	18.182
867.10	-50.000
867.39	116.667
867.69	0.000
867.98	-23.077
868.27	-33.333
868.57	6.667
868.86	-27.778
869.16	-84.615
869.45	26.667
869.75	-600.000
870.04	0.000
870.33	-142.857
870.63	28.571
870.92	433.333
871.22	-100.000
871.51	-400.000
871.80	88.889
872.10	333.333
>>>>>End Processed Spectral Data<<<<<
