SpectraSuite Data File
++++++++++++++++++++++++++++++++++++
Date: Fri May 15 17:03:49 PDT 2015
User: schluterlab
Dark Spectrum Present: Yes
Reference Spectrum Present: Yes
Number of Sampled Component Spectra: 1
Spectrometers: USB2E3373
Integration Time (usec): 3000 (USB2E3373)
Spectra Averaged: 3 (USB2E3373)
Boxcar Smoothing: 0 (USB2E3373)
Correct for Electrical Dark: No (USB2E3373)
Strobe/Lamp Enabled: No (USB2E3373)
Correct for Detector Non-linearity: No (USB2E3373)
Correct for Stray Light: No (USB2E3373)
Number of Pixels in Processed Spectrum: 2048
>>>>>Begin Processed Spectral Data<<<<<
178.53	0.000
178.91	0.000
179.29	200.000
179.67	-150.000
180.04	-142.857
180.42	350.000
180.80	300.000
181.18	266.667
181.56	250.000
181.94	300.000
182.31	-300.000
182.69	60.000
183.07	-233.333
183.45	120.000
183.83	-33.333
184.20	9.091
184.58	111.111
184.96	-275.000
185.34	-166.667
185.72	400.000
186.09	92.308
186.47	300.000
186.85	-150.000
187.23	22.222
187.61	-900.000
187.98	233.333
188.36	133.333
188.74	166.667
189.12	94.118
189.49	66.667
189.87	0.000
190.25	121.429
190.63	400.000
191.00	-166.667
191.38	47.368
191.76	450.000
192.14	-350.000
192.51	800.000
192.89	-33.333
193.27	-42.857
193.65	166.667
194.02	109.091
194.40	70.000
194.78	25.000
195.15	-41.667
195.53	-37.500
195.91	-0.000
196.29	200.000
196.66	15.385
197.04	-14.286
197.42	144.444
197.79	-433.333
198.17	-7.692
198.55	200.000
198.92	400.000
199.30	800.000
199.68	-80.000
200.05	233.333
200.43	0.000
200.81	-66.667
201.18	-166.667
201.56	1000.000
201.94	-200.000
202.31	-233.333
202.69	-80.000
203.07	-175.000
203.44	1000.000
203.82	0.000
204.19	71.429
204.57	-233.333
204.95	12.500
205.32	160.000
205.70	142.857
206.08	25.000
206.45	266.667
206.83	128.571
207.20	57.143
207.58	-500.000
207.96	-133.333
208.33	60.000
208.71	200.000
209.08	50.000
209.46	-500.000
209.84	20.000
210.21	500.000
210.59	57.143
210.96	183.333
211.34	-25.000
211.71	86.667
212.09	42.857
212.46	-200.000
212.84	0.000
213.22	180.000
213.59	100.000
213.97	123.077
214.34	81.818
214.72	-50.000
215.09	150.000
215.47	30.769
215.84	154.545
216.22	0.000
216.59	100.000
216.97	750.000
217.34	75.000
217.72	-20.000
218.09	100.000
218.47	75.000
218.84	600.000
219.22	0.000
219.59	80.000
219.97	233.333
220.34	-175.000
220.72	157.143
221.09	250.000
221.47	450.000
221.84	-200.000
222.22	-150.000
222.59	100.000
222.97	116.667
223.34	233.333
223.72	50.000
224.09	57.143
224.46	3.571
224.84	66.667
225.21	20.000
225.59	106.667
225.96	200.000
226.34	150.000
226.71	128.571
227.08	16.667
227.46	12.500
227.83	-150.000
228.21	144.444
228.58	36.364
228.95	87.500
229.33	-10.000
229.70	50.000
230.08	-50.000
230.45	14.286
230.82	300.000
231.20	13.333
231.57	107.143
231.95	157.143
232.32	60.000
232.69	157.143
233.07	366.667
233.44	60.000
233.81	80.000
234.19	155.556
234.56	47.059
234.93	50.000
235.31	75.000
235.68	-40.000
236.05	0.000
236.43	45.000
236.80	52.941
237.17	65.625
237.55	75.000
237.92	14.815
238.29	22.222
238.67	56.667
239.04	38.235
239.41	14.634
239.79	73.333
240.16	56.098
240.53	44.737
240.91	39.130
241.28	31.746
241.65	28.571
242.02	45.205
242.40	38.333
242.77	38.983
243.14	18.182
243.51	33.750
243.89	36.782
244.26	11.494
244.63	35.714
245.00	26.804
245.38	38.144
245.75	20.225
246.12	31.897
246.49	19.008
246.87	27.885
247.24	19.328
247.61	28.070
247.98	27.642
248.36	24.375
248.73	34.211
249.10	20.130
249.47	24.684
249.84	21.569
250.22	30.000
250.59	25.490
250.96	30.516
251.33	23.837
251.70	30.588
252.08	26.904
252.45	30.198
252.82	31.156
253.19	28.111
253.56	21.963
253.94	21.622
254.31	26.957
254.68	24.123
255.05	27.165
255.42	30.568
255.79	24.710
256.16	24.125
256.54	28.731
256.91	26.236
257.28	28.625
257.65	27.715
258.02	21.631
258.39	22.896
258.76	30.037
259.14	27.907
259.51	23.625
259.88	24.055
260.25	25.163
260.62	26.736
260.99	25.763
261.36	24.658
261.73	26.266
262.10	25.532
262.47	25.767
262.85	21.630
263.22	22.154
263.59	24.922
263.96	27.329
264.33	26.061
264.70	26.786
265.07	25.298
265.44	27.195
265.81	24.859
266.18	25.410
266.55	25.193
266.92	26.425
267.29	25.065
267.66	23.274
268.03	26.178
268.40	25.326
268.77	26.738
269.14	27.098
269.51	27.763
269.88	22.693
270.25	26.786
270.62	25.122
270.99	26.598
271.36	24.939
271.73	25.117
272.10	23.601
272.47	26.478
272.84	24.010
273.21	25.754
273.58	26.506
273.95	22.426
274.32	25.173
274.69	21.267
275.06	26.786
275.43	23.583
275.80	22.958
276.17	23.908
276.54	24.411
276.91	25.439
277.28	23.799
277.65	26.033
278.02	22.766
278.39	25.821
278.76	23.061
279.13	23.444
279.50	23.529
279.87	21.166
280.23	23.226
280.60	25.341
280.97	21.818
281.34	21.923
281.71	24.641
282.08	19.632
282.45	22.309
282.82	22.780
283.19	24.758
283.56	22.929
283.92	22.391
284.29	22.308
284.66	21.512
285.03	22.397
285.40	24.008
285.77	23.726
286.14	22.924
286.51	24.908
286.87	21.389
287.24	22.284
287.61	22.399
287.98	24.561
288.35	21.490
288.72	23.818
289.08	20.486
289.45	23.199
289.82	20.280
290.19	19.283
290.56	20.926
290.93	20.875
291.29	17.874
291.66	20.630
292.03	21.691
292.40	21.290
292.77	18.820
293.13	17.857
293.50	18.058
293.87	18.473
294.24	19.784
294.60	18.033
294.97	20.536
295.34	19.172
295.71	17.884
296.08	17.190
296.44	15.363
296.81	17.778
297.18	16.667
297.55	18.699
297.91	18.767
298.28	18.470
298.65	16.554
299.02	18.733
299.38	16.279
299.75	17.793
300.12	15.707
300.48	16.469
300.85	17.110
301.22	16.234
301.59	16.974
301.95	17.595
302.32	16.602
302.69	15.299
303.05	17.327
303.42	16.563
303.79	17.407
304.15	17.085
304.52	15.577
304.89	16.023
305.25	15.496
305.62	14.469
305.99	14.971
306.35	15.376
306.72	14.848
307.09	15.849
307.45	16.877
307.82	14.815
308.19	16.957
308.55	15.703
308.92	16.122
309.29	15.754
309.65	15.285
310.02	15.842
310.38	14.709
310.75	16.940
311.12	16.362
311.48	15.907
311.85	15.602
312.22	15.928
312.58	16.667
312.95	15.902
313.31	15.839
313.68	16.021
314.05	17.143
314.41	17.320
314.78	16.701
315.14	17.780
315.51	16.770
315.87	17.316
316.24	19.110
316.61	18.701
316.97	18.750
317.34	19.727
317.70	17.878
318.07	19.135
318.43	20.392
318.80	20.170
319.16	21.289
319.53	22.602
319.89	21.654
320.26	21.862
320.62	22.267
320.99	21.608
321.35	23.124
321.72	24.507
322.08	24.975
322.45	25.381
322.81	26.228
323.18	26.104
323.54	26.062
323.91	26.777
324.27	28.027
324.64	29.307
325.00	30.109
325.37	31.680
325.73	30.372
326.10	30.609
326.46	33.722
326.83	32.983
327.19	33.391
327.56	34.752
327.92	35.211
328.29	35.268
328.65	36.509
329.01	37.132
329.38	37.419
329.74	37.205
330.11	37.905
330.47	38.404
330.84	38.462
331.20	41.445
331.56	40.463
331.93	41.096
332.29	41.063
332.66	41.900
333.02	40.799
333.38	40.972
333.75	43.590
334.11	42.167
334.48	44.696
334.84	42.491
335.20	44.831
335.57	41.976
335.93	45.167
336.29	45.120
336.66	44.233
337.02	45.446
337.38	45.278
337.75	45.818
338.11	45.446
338.47	45.529
338.84	46.396
339.20	45.978
339.56	47.431
339.93	46.464
340.29	47.156
340.65	46.326
341.02	44.770
341.38	46.991
341.74	44.788
342.11	44.801
342.47	47.776
342.83	46.367
343.20	45.122
343.56	45.478
343.92	46.944
344.28	45.004
344.65	47.064
345.01	47.277
345.37	46.426
345.73	47.531
346.10	46.506
346.46	46.510
346.82	46.890
347.19	46.633
347.55	44.779
347.91	46.521
348.27	45.594
348.63	45.741
349.00	44.709
349.36	47.465
349.72	46.932
350.08	47.377
350.45	47.007
350.81	47.508
351.17	46.173
351.53	47.347
351.89	46.243
352.26	45.760
352.62	46.129
352.98	47.068
353.34	46.216
353.70	47.006
354.07	47.258
354.43	46.998
354.79	47.234
355.15	48.095
355.51	47.864
355.87	47.330
356.24	47.553
356.60	48.019
356.96	48.333
357.32	47.284
357.68	47.772
358.04	48.223
358.40	46.624
358.77	48.246
359.13	47.158
359.49	46.764
359.85	47.582
360.21	48.086
360.57	48.279
360.93	49.017
361.29	47.583
361.66	50.313
362.02	48.561
362.38	48.896
362.74	49.508
363.10	49.135
363.46	49.666
363.82	50.413
364.18	48.413
364.54	48.382
364.90	49.606
365.26	50.291
365.62	51.241
365.98	50.147
366.35	50.255
366.71	51.146
367.07	51.379
367.43	51.546
367.79	51.025
368.15	51.615
368.51	50.838
368.87	51.759
369.23	50.686
369.59	52.551
369.95	52.713
370.31	51.590
370.67	53.284
371.03	50.635
371.39	53.975
371.75	53.846
372.11	52.924
372.47	53.698
372.83	53.868
373.19	53.067
373.55	54.296
373.91	53.636
374.27	54.784
374.63	53.553
374.99	53.191
375.35	54.387
375.71	55.315
376.07	55.126
376.42	56.054
376.78	56.309
377.14	56.737
377.50	55.777
377.86	55.823
378.22	57.052
378.58	58.974
378.94	57.404
379.30	57.080
379.66	58.245
380.02	57.940
380.38	57.760
380.74	58.169
381.09	58.037
381.45	57.798
381.81	58.606
382.17	58.756
382.53	59.588
382.89	59.448
383.25	60.548
383.61	59.756
383.97	60.381
384.32	60.538
384.68	60.991
385.04	60.539
385.40	60.299
385.76	62.767
386.12	62.678
386.48	63.346
386.83	62.016
387.19	61.416
387.55	63.112
387.91	62.531
388.27	62.454
388.62	63.688
388.98	63.168
389.34	62.024
389.70	63.828
390.06	62.429
390.42	64.054
390.77	64.487
391.13	64.691
391.49	64.554
391.85	65.172
392.20	64.093
392.56	65.607
392.92	65.590
393.28	66.097
393.64	65.706
393.99	67.085
394.35	65.591
394.71	66.858
395.07	64.676
395.42	65.027
395.78	66.515
396.14	66.772
396.50	66.138
396.85	67.547
397.21	66.917
397.57	66.144
397.92	66.447
398.28	66.494
398.64	66.386
399.00	67.494
399.35	66.535
399.71	64.503
400.07	67.654
400.42	67.075
400.78	67.667
401.14	66.606
401.49	68.076
401.85	67.520
402.21	67.349
402.57	67.625
402.92	66.939
403.28	68.421
403.63	69.231
403.99	69.707
404.35	68.582
404.70	66.726
405.06	68.625
405.42	69.236
405.77	67.926
406.13	68.743
406.49	68.028
406.84	68.521
407.20	69.115
407.55	68.641
407.91	69.118
408.27	68.897
408.62	69.846
408.98	68.823
409.34	69.827
409.69	69.057
410.05	69.458
410.40	68.580
410.76	70.386
411.11	70.250
411.47	70.611
411.83	69.492
412.18	70.399
412.54	68.602
412.89	69.273
413.25	70.277
413.60	69.689
413.96	69.387
414.31	68.780
414.67	70.109
415.03	69.574
415.38	68.668
415.74	70.293
416.09	71.522
416.45	71.438
416.80	69.597
417.16	72.721
417.51	71.486
417.87	70.665
418.22	71.632
418.58	72.709
418.93	72.978
419.29	68.118
419.64	71.355
420.00	72.985
420.35	71.463
420.71	71.628
421.06	71.271
421.42	71.575
421.77	72.312
422.12	71.169
422.48	70.547
422.83	70.418
423.19	72.178
423.54	72.075
423.90	72.438
424.25	72.388
424.61	73.072
424.96	71.022
425.31	74.003
425.67	73.063
426.02	73.852
426.38	73.513
426.73	73.910
427.09	73.481
427.44	73.765
427.79	74.308
428.15	73.362
428.50	74.803
428.85	72.912
429.21	73.741
429.56	75.202
429.92	73.549
430.27	72.682
430.62	73.497
430.98	73.992
431.33	74.921
431.68	72.841
432.04	75.070
432.39	73.246
432.74	73.722
433.10	75.000
433.45	74.253
433.80	75.508
434.16	74.958
434.51	75.108
434.86	76.481
435.22	75.771
435.57	76.606
435.92	74.790
436.28	75.671
436.63	75.756
436.98	75.203
437.34	75.076
437.69	75.432
438.04	74.929
438.39	76.176
438.75	78.081
439.10	76.174
439.45	76.932
439.81	76.453
440.16	78.860
440.51	76.358
440.86	78.248
441.22	75.735
441.57	77.097
441.92	77.177
442.27	77.494
442.63	77.248
442.98	76.967
443.33	76.294
443.68	76.127
444.03	76.652
444.39	76.488
444.74	77.369
445.09	77.283
445.44	77.379
445.79	78.804
446.15	76.046
446.50	76.761
446.85	76.780
447.20	76.799
447.55	78.069
447.91	77.947
448.26	77.234
448.61	78.066
448.96	78.715
449.31	78.035
449.66	77.875
450.02	78.665
450.37	78.660
450.72	77.721
451.07	78.544
451.42	76.217
451.77	77.577
452.12	76.675
452.47	77.399
452.83	76.090
453.18	77.862
453.53	76.802
453.88	79.114
454.23	77.812
454.58	78.401
454.93	78.093
455.28	75.302
455.63	78.053
455.98	76.729
456.34	76.501
456.69	77.573
457.04	78.702
457.39	76.792
457.74	77.267
458.09	76.104
458.44	77.004
458.79	76.863
459.14	77.918
459.49	77.970
459.84	76.255
460.19	77.973
460.54	78.545
460.89	78.466
461.24	77.329
461.59	77.316
461.94	76.415
462.29	78.046
462.64	77.608
462.99	77.657
463.34	77.399
463.69	77.091
464.04	77.361
464.39	77.805
464.74	77.239
465.09	79.726
465.44	78.130
465.79	75.964
466.14	76.739
466.49	77.171
466.84	77.573
467.19	77.472
467.54	76.373
467.89	78.964
468.24	76.764
468.59	78.730
468.94	77.524
469.29	77.902
469.64	77.102
469.99	79.467
470.34	78.703
470.68	80.239
471.03	79.759
471.38	78.531
471.73	77.171
472.08	76.866
472.43	77.919
472.78	77.656
473.13	78.639
473.48	78.306
473.83	77.460
474.17	78.368
474.52	79.834
474.87	79.455
475.22	78.768
475.57	77.019
475.92	78.113
476.27	76.484
476.61	77.141
476.96	77.022
477.31	77.934
477.66	75.618
478.01	77.934
478.36	76.906
478.70	80.370
479.05	77.473
479.40	77.848
479.75	76.173
480.10	77.471
480.45	78.200
480.79	77.694
481.14	78.586
481.49	76.502
481.84	78.089
482.19	77.268
482.53	77.602
482.88	76.372
483.23	76.823
483.58	77.170
483.92	76.041
484.27	75.798
484.62	76.244
484.97	76.119
485.31	76.264
485.66	75.685
486.01	73.993
486.36	73.243
486.70	73.009
487.05	74.291
487.40	75.078
487.75	75.296
488.09	74.845
488.44	75.172
488.79	75.943
489.13	77.324
489.48	77.212
489.83	76.996
490.17	76.360
490.52	76.859
490.87	76.492
491.22	78.032
491.56	77.372
491.91	77.342
492.26	78.853
492.60	76.248
492.95	78.259
493.30	77.479
493.64	78.389
493.99	76.715
494.34	76.942
494.68	77.619
495.03	76.642
495.37	78.312
495.72	78.243
496.07	77.756
496.41	76.651
496.76	77.199
497.11	76.106
497.45	77.279
497.80	78.052
498.14	77.546
498.49	78.365
498.84	76.747
499.18	77.460
499.53	78.472
499.87	76.605
500.22	77.003
500.56	78.770
500.91	77.259
501.26	76.471
501.60	77.865
501.95	77.487
502.29	76.949
502.64	78.137
502.98	77.553
503.33	76.657
503.67	78.169
504.02	77.713
504.36	77.783
504.71	77.071
505.06	76.799
505.40	77.817
505.75	80.979
506.09	76.787
506.44	79.466
506.78	77.857
507.13	77.353
507.47	76.501
507.82	77.991
508.16	78.711
508.51	78.122
508.85	79.226
509.19	79.191
509.54	79.517
509.88	78.964
510.23	78.967
510.57	78.354
510.92	77.026
511.26	80.142
511.61	79.208
511.95	79.397
512.30	80.044
512.64	78.631
512.98	80.685
513.33	78.511
513.67	79.022
514.02	80.492
514.36	80.629
514.70	80.594
515.05	82.550
515.39	80.579
515.74	81.198
516.08	81.112
516.42	81.567
516.77	80.573
517.11	82.315
517.46	80.371
517.80	80.393
518.14	80.527
518.49	79.868
518.83	81.652
519.17	79.381
519.52	81.054
519.86	80.792
520.20	80.923
520.55	79.800
520.89	81.995
521.23	81.001
521.58	80.442
521.92	81.538
522.26	81.913
522.61	81.753
522.95	82.980
523.29	81.194
523.64	81.703
523.98	83.603
524.32	80.992
524.66	81.818
525.01	81.494
525.35	81.400
525.69	82.896
526.04	82.474
526.38	83.009
526.72	81.818
527.06	82.231
527.41	82.586
527.75	81.971
528.09	81.927
528.43	82.512
528.78	82.640
529.12	81.742
529.46	82.911
529.80	81.064
530.15	82.376
530.49	83.973
530.83	83.447
531.17	82.001
531.51	84.405
531.86	81.849
532.20	83.090
532.54	82.437
532.88	82.136
533.22	81.922
533.57	81.717
533.91	82.637
534.25	84.180
534.59	81.783
534.93	79.736
535.27	81.155
535.62	81.529
535.96	81.931
536.30	82.322
536.64	82.771
536.98	82.927
537.32	83.855
537.66	81.627
538.01	84.476
538.35	82.524
538.69	81.292
539.03	82.365
539.37	82.167
539.71	82.958
540.05	82.621
540.39	82.064
540.73	82.775
541.07	82.942
541.42	82.594
541.76	84.928
542.10	83.138
542.44	84.573
542.78	81.074
543.12	82.212
543.46	82.267
543.80	83.276
544.14	81.242
544.48	81.546
544.82	83.527
545.16	84.836
545.50	81.976
545.84	82.932
546.18	83.830
546.52	82.624
546.86	82.962
547.20	83.333
547.54	82.049
547.88	83.492
548.22	80.999
548.56	81.860
548.90	81.739
549.24	82.713
549.58	80.395
549.92	81.916
550.26	82.271
550.60	82.900
550.94	84.018
551.28	82.380
551.62	85.846
551.96	83.383
552.30	83.918
552.64	82.934
552.98	82.630
553.32	82.525
553.66	83.019
554.00	85.182
554.34	84.786
554.68	82.965
555.02	83.408
555.36	83.396
555.69	83.223
556.03	83.583
556.37	83.416
556.71	84.116
557.05	83.967
557.39	82.454
557.73	83.283
558.07	84.766
558.41	84.839
558.75	84.178
559.08	84.949
559.42	86.032
559.76	86.869
560.10	85.321
560.44	84.363
560.78	82.797
561.12	83.498
561.45	84.961
561.79	84.244
562.13	84.599
562.47	83.309
562.81	83.501
563.15	83.568
563.48	84.229
563.82	83.802
564.16	85.655
564.50	83.108
564.84	84.337
565.17	82.830
565.51	85.997
565.85	84.842
566.19	85.411
566.52	84.383
566.86	83.290
567.20	83.437
567.54	84.976
567.88	84.534
568.21	84.163
568.55	83.315
568.89	83.316
569.23	82.186
569.56	81.042
569.90	82.420
570.24	79.382
570.57	81.564
570.91	81.771
571.25	79.349
571.59	79.601
571.92	77.659
572.26	79.650
572.60	78.450
572.93	78.789
573.27	79.812
573.61	80.728
573.95	78.782
574.28	78.867
574.62	77.905
574.96	78.509
575.29	78.092
575.63	77.378
575.97	78.233
576.30	78.606
576.64	77.325
576.98	79.459
577.31	78.594
577.65	78.509
577.98	78.593
578.32	78.081
578.66	77.176
578.99	78.053
579.33	77.042
579.67	77.416
580.00	78.709
580.34	78.507
580.67	77.794
581.01	79.227
581.35	78.488
581.68	78.311
582.02	77.941
582.35	78.180
582.69	77.834
583.02	77.548
583.36	79.016
583.70	79.361
584.03	80.206
584.37	79.475
584.70	79.863
585.04	78.057
585.37	78.280
585.71	79.635
586.04	78.770
586.38	79.381
586.72	79.340
587.05	81.051
587.39	80.431
587.72	81.356
588.06	80.487
588.39	80.291
588.73	80.708
589.06	80.952
589.40	80.470
589.73	81.709
590.07	82.628
590.40	82.237
590.73	83.155
591.07	82.952
591.40	82.458
591.74	82.308
592.07	82.885
592.41	83.922
592.74	81.641
593.08	80.161
593.41	81.285
593.75	80.406
594.08	80.295
594.41	81.223
594.75	81.794
595.08	81.612
595.42	81.561
595.75	82.764
596.09	82.017
596.42	81.645
596.75	81.883
597.09	82.005
597.42	82.791
597.75	83.967
598.09	82.119
598.42	83.258
598.76	81.510
599.09	80.929
599.42	80.409
599.76	81.226
600.09	81.410
600.42	81.160
600.76	81.872
601.09	81.794
601.42	80.807
601.76	82.295
602.09	81.972
602.42	83.698
602.76	84.211
603.09	83.638
603.42	84.741
603.76	82.339
604.09	82.301
604.42	84.052
604.76	83.623
605.09	82.952
605.42	81.535
605.75	82.925
606.09	82.378
606.42	82.235
606.75	82.165
607.09	83.033
607.42	82.100
607.75	81.883
608.08	82.704
608.42	81.864
608.75	85.012
609.08	84.903
609.41	84.873
609.75	84.728
610.08	85.472
610.41	82.947
610.74	83.325
611.07	85.323
611.41	86.196
611.74	86.301
612.07	84.690
612.40	86.269
612.73	85.932
613.07	85.208
613.40	85.284
613.73	85.562
614.06	84.418
614.39	85.392
614.72	84.874
615.06	86.313
615.39	83.679
615.72	84.284
616.05	85.140
616.38	85.071
616.71	86.667
617.05	85.855
617.38	86.172
617.71	87.296
618.04	88.762
618.37	89.218
618.70	88.383
619.03	89.722
619.36	88.061
619.69	90.296
620.03	88.459
620.36	89.270
620.69	87.509
621.02	87.615
621.35	89.710
621.68	92.177
622.01	90.750
622.34	89.944
622.67	89.196
623.00	87.672
623.33	89.329
623.66	88.781
623.99	88.805
624.32	88.593
624.65	88.195
624.99	89.391
625.32	88.476
625.65	89.866
625.98	90.975
626.31	90.441
626.64	92.288
626.97	93.805
627.30	90.806
627.63	90.988
627.96	92.992
628.29	93.154
628.62	91.249
628.95	93.287
629.28	96.169
629.61	94.317
629.94	93.939
630.26	92.292
630.59	96.254
630.92	93.744
631.25	91.487
631.58	94.604
631.91	95.724
632.24	97.133
632.57	97.045
632.90	96.085
633.23	93.412
633.56	100.378
633.89	97.411
634.22	96.667
634.55	98.475
634.88	97.701
635.20	98.205
635.53	99.867
635.86	96.619
636.19	96.378
636.52	99.617
636.85	95.533
637.18	98.616
637.51	96.855
637.83	95.795
638.16	100.273
638.49	97.956
638.82	97.500
639.15	98.915
639.48	97.799
639.81	97.490
640.13	101.299
640.46	99.125
640.79	99.116
641.12	97.784
641.45	101.201
641.77	99.111
642.10	102.686
642.43	101.286
642.76	103.960
643.09	100.323
643.41	98.867
643.74	99.671
644.07	101.642
644.40	101.689
644.73	105.954
645.05	99.497
645.38	102.998
645.71	102.305
646.04	107.002
646.36	104.433
646.69	104.137
647.02	107.940
647.35	103.358
647.67	100.914
648.00	104.291
648.33	100.341
648.66	104.068
648.98	104.858
649.31	101.653
649.64	101.099
649.96	101.297
650.29	103.578
650.62	101.709
650.94	103.704
651.27	105.587
651.60	101.802
651.92	102.797
652.25	105.861
652.58	102.500
652.90	104.631
653.23	102.017
653.56	100.338
653.88	102.749
654.21	102.102
654.54	101.358
654.86	100.509
655.19	97.368
655.52	91.873
655.84	83.249
656.17	92.114
656.49	100.000
656.82	100.000
657.15	100.000
657.47	100.000
657.80	72.580
658.13	55.239
658.45	86.195
658.78	86.484
659.10	86.672
659.43	88.571
659.75	91.613
660.08	93.034
660.41	97.957
660.73	98.619
661.06	101.560
661.38	104.305
661.71	105.339
662.03	107.082
662.36	103.956
662.68	105.973
663.01	106.550
663.33	111.137
663.66	112.326
663.98	107.907
664.31	105.544
664.63	108.295
664.96	104.348
665.28	103.974
665.61	105.628
665.93	109.348
666.26	106.941
666.58	104.698
666.91	110.118
667.23	115.330
667.56	106.161
667.88	108.393
668.21	109.069
668.53	110.165
668.86	108.491
669.18	108.726
669.50	107.506
669.83	109.302
670.15	110.956
670.48	109.569
670.80	111.060
671.13	104.922
671.45	103.196
671.77	106.223
672.10	103.168
672.42	101.124
672.75	100.710
673.07	102.683
673.39	102.202
673.72	103.945
674.04	103.333
674.37	103.814
674.69	102.784
675.01	106.667
675.34	109.009
675.66	110.185
675.98	107.982
676.31	106.651
676.63	112.827
676.95	107.500
677.28	111.294
677.60	108.434
677.92	107.110
678.25	106.565
678.57	111.472
678.89	103.151
679.22	109.843
679.54	102.811
679.86	104.175
680.18	106.602
680.51	103.409
680.83	106.561
681.15	105.000
681.48	107.377
681.80	104.339
682.12	106.855
682.44	105.439
682.77	110.817
683.09	108.924
683.41	106.818
683.73	105.760
684.06	106.195
684.38	106.667
684.70	107.190
685.02	106.639
685.34	105.731
685.67	101.876
685.99	100.904
686.31	101.593
686.63	103.525
686.96	104.753
687.28	103.636
687.60	101.711
687.92	110.101
688.24	105.645
688.56	110.262
688.89	107.812
689.21	106.000
689.53	107.425
689.85	106.512
690.17	104.241
690.49	108.511
690.82	105.340
691.14	108.333
691.46	109.112
691.78	104.955
692.10	107.742
692.42	105.844
692.74	104.274
693.06	106.757
693.39	105.430
693.71	105.204
694.03	105.774
694.35	106.075
694.67	110.859
694.99	107.311
695.31	111.488
695.63	107.250
695.95	108.838
696.27	107.254
696.59	115.833
696.91	108.123
697.23	105.656
697.56	108.168
697.88	107.742
698.20	110.478
698.52	109.412
698.84	104.067
699.16	105.250
699.48	110.276
699.80	103.226
700.12	109.164
700.44	107.003
700.76	104.942
701.08	112.424
701.40	114.458
701.72	117.593
702.04	117.492
702.36	123.411
702.68	110.210
703.00	116.970
703.32	107.918
703.64	102.260
703.96	111.304
704.28	112.270
704.60	112.063
704.91	108.202
705.23	109.967
705.55	120.141
705.87	118.051
706.19	117.407
706.51	110.653
706.83	108.039
707.15	113.084
707.47	113.725
707.79	107.552
708.11	109.250
708.43	106.250
708.74	108.786
709.06	112.958
709.38	121.713
709.70	112.426
710.02	113.376
710.34	109.288
710.66	105.128
710.98	112.914
711.29	116.066
711.61	114.237
711.93	112.052
712.25	117.869
712.57	117.949
712.89	115.299
713.20	107.612
713.52	108.711
713.84	113.993
714.16	114.777
714.48	114.516
714.80	118.269
715.11	110.638
715.43	105.016
715.75	117.667
716.07	110.299
716.39	112.416
716.70	114.760
717.02	115.267
717.34	114.575
717.66	119.912
717.97	121.304
718.29	119.247
718.61	116.142
718.93	112.016
719.24	115.209
719.56	122.490
719.88	107.904
720.20	116.667
720.51	110.345
720.83	111.969
721.15	119.748
721.46	113.306
721.78	109.486
722.10	104.461
722.42	117.012
722.73	109.388
723.05	117.143
723.37	113.136
723.68	122.973
724.00	114.530
724.32	114.222
724.63	119.091
724.95	117.467
725.27	124.885
725.58	116.102
725.90	117.460
726.22	111.197
726.53	107.797
726.85	109.363
727.16	117.358
727.48	109.717
727.80	117.814
728.11	121.186
728.43	110.196
728.74	114.516
729.06	117.200
729.38	113.158
729.69	115.936
730.01	110.000
730.32	108.209
730.64	107.067
730.96	118.868
731.27	109.000
731.59	111.864
731.90	113.376
732.22	107.256
732.53	114.618
732.85	111.348
733.16	107.071
733.48	106.475
733.80	114.855
734.11	108.475
734.43	114.089
734.74	110.000
735.06	112.052
735.37	109.063
735.69	114.815
736.00	108.711
736.32	110.067
736.63	112.676
736.95	106.485
737.26	112.811
737.58	108.054
737.89	114.652
738.21	109.398
738.52	114.403
738.83	116.157
739.15	110.917
739.46	109.843
739.78	113.187
740.09	103.595
740.41	116.667
740.72	114.173
741.04	115.385
741.35	109.362
741.66	111.848
741.98	114.286
742.29	111.386
742.61	126.178
742.92	108.531
743.23	107.870
743.55	116.290
743.86	117.703
744.18	115.789
744.49	119.149
744.80	121.196
745.12	124.599
745.43	109.268
745.74	129.688
746.06	119.024
746.37	126.178
746.68	117.536
747.00	126.064
747.31	118.905
747.62	119.417
747.94	122.488
748.25	122.772
748.56	125.137
748.88	118.848
749.19	126.064
749.50	116.749
749.82	112.264
750.13	112.844
750.44	114.662
750.75	115.672
751.07	115.328
751.38	107.663
751.69	110.980
752.01	117.829
752.32	113.147
752.63	110.277
752.94	113.793
753.26	112.134
753.57	116.742
753.88	117.699
754.19	117.500
754.51	114.463
754.82	111.741
755.13	118.750
755.44	116.129
755.75	109.375
756.07	111.284
756.38	111.321
756.69	110.728
757.00	109.333
757.31	104.575
757.63	108.537
757.94	101.111
758.25	103.562
758.56	105.851
758.87	101.700
759.18	101.869
759.50	111.636
759.81	108.696
760.12	106.774
760.43	104.242
760.74	115.432
761.05	111.692
761.36	105.114
761.67	109.697
761.99	111.905
762.30	110.545
762.61	108.300
762.92	116.742
763.23	111.712
763.54	114.953
763.85	113.559
764.16	117.427
764.47	113.710
764.78	105.128
765.10	105.051
765.41	105.363
765.72	106.349
766.03	110.902
766.34	108.029
766.65	108.765
766.96	116.667
767.27	119.681
767.58	111.494
767.89	128.369
768.20	107.386
768.51	114.835
768.82	107.882
769.13	110.599
769.44	107.725
769.75	110.046
770.06	109.052
770.37	118.269
770.68	109.645
770.99	107.692
771.30	117.647
771.61	106.335
771.92	114.224
772.23	117.241
772.54	114.516
772.85	124.074
773.16	107.865
773.47	139.216
773.78	125.490
774.09	110.180
774.39	103.333
774.70	102.548
775.01	117.241
775.32	116.429
775.63	119.835
775.94	112.977
776.25	122.835
776.56	112.500
776.87	128.846
777.18	114.530
777.48	121.552
777.79	119.130
778.10	120.000
778.41	116.216
778.72	119.841
779.03	115.038
779.34	112.766
779.65	117.123
779.95	110.959
780.26	110.345
780.57	108.130
780.88	112.598
781.19	112.931
781.50	123.256
781.80	104.734
782.11	113.836
782.42	126.154
782.73	121.583
783.04	113.333
783.34	104.167
783.65	118.803
783.96	114.754
784.27	113.793
784.57	114.634
784.88	103.906
785.19	125.000
785.50	125.000
785.81	117.241
786.11	118.103
786.42	118.447
786.73	126.364
787.04	124.490
787.34	110.714
787.65	114.286
787.96	110.619
788.26	120.000
788.57	111.966
788.88	109.375
789.19	102.381
789.49	105.217
789.80	141.837
790.11	117.172
790.41	95.455
790.72	122.826
791.03	132.955
791.33	132.500
791.64	123.750
791.95	108.140
792.25	101.064
792.56	116.854
792.87	120.548
793.17	121.739
793.48	109.333
793.79	106.250
794.09	133.750
794.40	116.038
794.70	122.330
795.01	87.805
795.32	111.111
795.62	112.381
795.93	118.627
796.23	103.774
796.54	87.500
796.85	125.000
797.15	130.986
797.46	125.000
797.76	116.667
798.07	93.023
798.37	103.947
798.68	140.909
798.99	100.000
799.29	112.857
799.60	113.043
799.90	114.667
800.21	127.869
800.51	116.923
800.82	122.034
801.12	100.000
801.43	124.590
801.73	123.810
802.04	140.000
802.34	113.433
802.65	136.538
802.95	108.929
803.26	126.923
803.56	141.176
803.87	123.913
804.17	94.667
804.48	141.270
804.78	109.259
805.09	117.391
805.39	115.556
805.70	111.111
806.00	114.035
806.30	104.225
806.61	125.714
806.91	116.667
807.22	121.053
807.52	116.000
807.83	120.000
808.13	111.111
808.43	102.941
808.74	108.955
809.04	105.085
809.35	123.077
809.65	103.125
809.95	156.757
810.26	131.818
810.56	90.411
810.86	119.048
811.17	130.000
811.47	128.571
811.77	105.263
812.08	122.727
812.38	100.000
812.69	127.500
812.99	145.455
813.29	123.684
813.59	114.286
813.90	102.273
814.20	115.385
814.50	123.077
814.81	139.623
815.11	106.383
815.41	116.949
815.72	111.905
816.02	129.412
816.32	93.750
816.62	100.000
816.93	127.027
817.23	111.429
817.53	106.250
817.84	110.870
818.14	92.308
818.44	92.105
818.74	97.826
819.04	85.000
819.35	105.405
819.65	126.471
819.95	113.889
820.25	85.714
820.56	120.000
820.86	120.690
821.16	137.500
821.46	114.894
821.76	150.000
822.07	116.279
822.37	78.378
822.67	121.875
822.97	111.905
823.27	107.143
823.57	132.000
823.88	111.111
824.18	139.286
824.48	102.941
824.78	100.000
825.08	143.478
825.38	139.394
825.69	158.333
825.99	102.632
826.29	122.222
826.59	186.667
826.89	176.190
827.19	91.304
827.49	90.000
827.79	140.000
828.09	150.000
828.39	121.212
828.70	140.541
829.00	128.571
829.30	152.381
829.60	116.667
829.90	150.000
830.20	94.737
830.50	107.407
830.80	147.826
831.10	109.091
831.40	106.061
831.70	138.710
832.00	100.000
832.30	123.810
832.60	225.000
832.90	117.241
833.20	115.000
833.50	109.091
833.80	144.444
834.10	126.923
834.40	121.875
834.70	233.333
835.00	110.526
835.30	180.769
835.60	226.667
835.90	106.452
836.20	109.091
836.50	125.000
836.80	61.538
837.10	114.286
837.40	766.667
837.70	109.091
838.00	190.909
838.30	100.000
838.60	169.231
838.90	109.091
839.19	89.286
839.49	110.000
839.79	200.000
840.09	83.333
840.39	125.000
840.69	96.429
840.99	61.538
841.29	94.737
841.59	80.000
841.88	209.091
842.18	100.000
842.48	143.750
842.78	140.000
843.08	70.370
843.38	160.000
843.68	56.522
843.97	120.000
844.27	100.000
844.57	100.000
844.87	83.333
845.17	95.238
845.47	106.667
845.76	100.000
846.06	147.059
846.36	130.000
846.66	150.000
846.96	100.000
847.25	150.000
847.55	135.714
847.85	125.000
848.15	68.182
848.44	333.333
848.74	115.000
849.04	107.407
849.34	145.455
849.63	166.667
849.93	60.000
850.23	88.889
850.53	220.000
850.82	161.538
851.12	211.111
851.42	200.000
851.71	50.000
852.01	164.286
852.31	325.000
852.61	209.091
852.90	125.000
853.20	121.053
853.50	158.333
853.79	130.435
854.09	162.500
854.39	126.316
854.68	83.333
854.98	74.194
855.28	188.462
855.57	145.000
855.87	111.111
856.17	114.815
856.46	135.714
856.76	73.333
857.05	333.333
857.35	52.000
857.65	50.000
857.94	138.462
858.24	86.207
858.53	166.667
858.83	85.185
859.13	118.182
859.42	56.522
859.72	325.000
860.01	166.667
860.31	68.000
860.60	80.952
860.90	300.000
861.20	60.000
861.49	250.000
861.79	106.667
862.08	80.000
862.38	213.333
862.67	40.000
862.97	150.000
863.26	150.000
863.56	133.333
863.85	133.333
864.15	83.333
864.44	90.000
864.74	128.571
865.03	-400.000
865.33	20.000
865.62	300.000
865.92	91.667
866.21	83.333
866.51	93.750
866.80	90.909
867.10	750.000
867.39	291.667
867.69	0.000
867.98	115.385
868.27	266.667
868.57	66.667
868.86	100.000
869.16	61.538
869.45	146.667
869.75	700.000
870.04	0.000
870.33	157.143
870.63	100.000
870.92	233.333
871.22	-120.000
871.51	1300.000
871.80	155.556
872.10	-533.333
>>>>>End Processed Spectral Data<<<<<
