SpectraSuite Data File
++++++++++++++++++++++++++++++++++++
Date: Fri May 15 20:14:31 PDT 2015
User: schluterlab
Dark Spectrum Present: Yes
Reference Spectrum Present: Yes
Number of Sampled Component Spectra: 1
Spectrometers: USB2E3373
Integration Time (usec): 3000 (USB2E3373)
Spectra Averaged: 3 (USB2E3373)
Boxcar Smoothing: 0 (USB2E3373)
Correct for Electrical Dark: No (USB2E3373)
Strobe/Lamp Enabled: No (USB2E3373)
Correct for Detector Non-linearity: No (USB2E3373)
Correct for Stray Light: No (USB2E3373)
Number of Pixels in Processed Spectrum: 2048
>>>>>Begin Processed Spectral Data<<<<<
178.53	0.000
178.91	0.000
179.29	75.000
179.67	-600.000
180.04	-57.143
180.42	150.000
180.80	100.000
181.18	133.333
181.56	300.000
181.94	50.000
182.31	100.000
182.69	60.000
183.07	66.667
183.45	-20.000
183.83	-16.667
184.20	36.364
184.58	100.000
184.96	-100.000
185.34	66.667
185.72	-250.000
186.09	15.385
186.47	-400.000
186.85	50.000
187.23	177.778
187.61	-1600.000
187.98	-33.333
188.36	66.667
188.74	-200.000
189.12	47.059
189.49	50.000
189.87	0.000
190.25	28.571
190.63	-50.000
191.00	-200.000
191.38	-5.263
191.76	100.000
192.14	75.000
192.51	450.000
192.89	-11.111
193.27	-28.571
193.65	66.667
194.02	127.273
194.40	-40.000
194.78	75.000
195.15	-33.333
195.53	-62.500
195.91	225.000
196.29	100.000
196.66	30.769
197.04	-42.857
197.42	11.111
197.79	-366.667
198.17	-61.538
198.55	1100.000
198.92	-166.667
199.30	1000.000
199.68	-120.000
200.05	-133.333
200.43	0.000
200.81	-33.333
201.18	-100.000
201.56	700.000
201.94	-200.000
202.31	-33.333
202.69	-180.000
203.07	225.000
203.44	-300.000
203.82	0.000
204.19	64.286
204.57	-366.667
204.95	125.000
205.32	100.000
205.70	28.571
206.08	-50.000
206.45	55.556
206.83	57.143
207.20	-157.143
207.58	-400.000
207.96	-33.333
208.33	-50.000
208.71	50.000
209.08	-116.667
209.46	-1000.000
209.84	-20.000
210.21	-500.000
210.59	-14.286
210.96	16.667
211.34	-75.000
211.71	40.000
212.09	-71.429
212.46	-1300.000
212.84	0.000
213.22	80.000
213.59	100.000
213.97	53.846
214.34	81.818
214.72	-166.667
215.09	200.000
215.47	53.846
215.84	18.182
216.22	-166.667
216.59	0.000
216.97	550.000
217.34	-75.000
217.72	-180.000
218.09	175.000
218.47	37.500
218.84	-100.000
219.22	-55.556
219.59	20.000
219.97	366.667
220.34	-75.000
220.72	-14.286
221.09	0.000
221.47	-150.000
221.84	-550.000
222.22	-300.000
222.59	63.636
222.97	50.000
223.34	133.333
223.72	-14.286
224.09	9.524
224.46	35.714
224.84	300.000
225.21	-30.000
225.59	20.000
225.96	-200.000
226.34	300.000
226.71	-14.286
227.08	33.333
227.46	37.500
227.83	0.000
228.21	66.667
228.58	0.000
228.95	25.000
229.33	70.000
229.70	75.000
230.08	-125.000
230.45	14.286
230.82	100.000
231.20	6.667
231.57	100.000
231.95	-71.429
232.32	-50.000
232.69	50.000
233.07	-533.333
233.44	-100.000
233.81	0.000
234.19	100.000
234.56	-23.529
234.93	650.000
235.31	50.000
235.68	-180.000
236.05	-69.231
236.43	25.000
236.80	23.529
237.17	31.250
237.55	5.000
237.92	-7.407
238.29	27.778
238.67	16.667
239.04	0.000
239.41	9.756
239.79	-6.667
240.16	7.317
240.53	2.632
240.91	0.000
241.28	17.460
241.65	25.000
242.02	24.658
242.40	11.667
242.77	23.729
243.14	-6.061
243.51	2.500
243.89	13.793
244.26	0.000
244.63	15.476
245.00	8.247
245.38	12.371
245.75	1.124
246.12	5.172
246.49	14.876
246.87	9.615
247.24	7.563
247.61	9.649
247.98	8.130
248.36	7.500
248.73	9.211
249.10	3.247
249.47	6.962
249.84	5.229
250.22	6.471
250.59	15.686
250.96	11.737
251.33	6.977
251.70	10.588
252.08	14.721
252.45	2.970
252.82	6.533
253.19	6.912
253.56	7.944
253.94	12.162
254.31	13.043
254.68	12.281
255.05	8.661
255.42	13.537
255.79	10.811
256.16	7.393
256.54	13.060
256.91	16.350
257.28	9.294
257.65	10.487
258.02	10.284
258.39	12.121
258.76	10.623
259.14	13.953
259.51	9.709
259.88	6.873
260.25	11.765
260.62	13.542
260.99	7.797
261.36	6.507
261.73	5.063
262.10	9.119
262.47	9.509
262.85	9.091
263.22	6.462
263.59	10.903
263.96	10.559
264.33	11.515
264.70	8.036
265.07	9.821
265.44	10.482
265.81	12.994
266.18	7.650
266.55	11.054
266.92	10.104
267.29	10.705
267.66	11.253
268.03	11.518
268.40	7.050
268.77	13.904
269.14	11.031
269.51	9.254
269.88	8.229
270.25	9.694
270.62	8.049
270.99	7.673
271.36	10.758
271.73	7.981
272.10	9.732
272.47	8.038
272.84	10.149
273.21	9.281
273.58	10.120
273.95	9.611
274.32	6.236
274.69	7.014
275.06	10.045
275.43	6.576
275.80	7.947
276.17	7.356
276.54	11.135
276.91	10.965
277.28	7.205
277.65	7.645
278.02	8.936
278.39	8.315
278.76	8.176
279.13	7.261
279.50	9.244
279.87	11.015
280.23	6.882
280.60	9.162
280.97	10.303
281.34	8.654
281.71	8.830
282.08	8.793
282.45	8.415
282.82	9.073
283.19	7.737
283.56	7.900
283.92	6.452
284.29	9.615
284.66	6.783
285.03	10.020
285.40	8.696
285.77	9.666
286.14	8.845
286.51	11.624
286.87	7.678
287.24	7.735
287.61	8.995
287.98	9.825
288.35	9.359
288.72	11.208
289.08	8.160
289.45	10.896
289.82	7.692
290.19	8.020
290.56	7.890
290.93	9.596
291.29	6.934
291.66	9.291
292.03	7.018
292.40	8.871
292.77	8.931
293.13	6.818
293.50	6.222
293.87	7.634
294.24	7.573
294.60	6.855
294.97	7.738
295.34	6.748
295.71	6.706
296.08	7.474
296.44	7.112
296.81	7.500
297.18	7.101
297.55	7.588
297.91	7.534
298.28	8.047
298.65	8.005
299.02	7.412
299.38	4.514
299.75	8.000
300.12	7.461
300.48	5.665
300.85	7.224
301.22	7.662
301.59	6.316
301.95	8.101
302.32	7.912
302.69	7.214
303.05	6.312
303.42	7.721
303.79	7.944
304.15	7.527
304.52	4.637
304.89	7.602
305.25	7.869
305.62	6.651
305.99	5.497
306.35	7.514
306.72	6.187
307.09	7.412
307.45	6.889
307.82	7.060
308.19	8.711
308.55	7.197
308.92	8.170
309.29	7.374
309.65	6.136
310.02	8.031
310.38	8.342
310.75	8.306
311.12	7.320
311.48	7.423
311.85	7.225
312.22	6.751
312.58	7.856
312.95	8.431
313.31	7.143
313.68	9.005
314.05	7.347
314.41	8.454
314.78	9.072
315.14	8.325
315.51	8.799
315.87	9.631
316.24	11.325
316.61	10.827
316.97	10.714
317.34	10.254
317.70	9.656
318.07	9.231
318.43	10.000
318.80	8.996
319.16	11.133
319.53	10.446
319.89	10.925
320.26	10.830
320.62	12.036
320.99	10.960
321.35	11.100
321.72	12.773
322.08	12.991
322.45	12.183
322.81	13.163
323.18	12.758
323.54	12.741
323.91	13.924
324.27	13.867
324.64	14.139
325.00	15.146
325.37	15.060
325.73	14.143
326.10	15.713
326.46	14.709
326.83	16.098
327.19	15.344
327.56	16.073
327.92	16.549
328.29	16.161
328.65	17.075
329.01	16.820
329.38	17.235
329.74	17.847
330.11	18.258
330.47	17.347
330.84	17.981
331.20	20.152
331.56	18.241
331.93	20.000
332.29	20.165
332.66	19.186
333.02	19.052
333.38	18.790
333.75	21.154
334.11	19.696
334.48	20.943
334.84	20.513
335.20	20.128
335.57	19.492
335.93	19.332
336.29	20.902
336.66	20.345
337.02	19.888
337.38	20.370
337.75	21.455
338.11	19.567
338.47	21.715
338.84	21.072
339.20	21.024
339.56	20.092
339.93	21.307
340.29	21.284
340.65	20.789
341.02	20.213
341.38	20.000
341.74	20.318
342.11	20.624
342.47	20.196
342.83	21.799
343.20	20.819
343.56	21.739
343.92	20.903
344.28	21.093
344.65	20.380
345.01	21.175
345.37	21.026
345.73	22.678
346.10	22.951
346.46	21.699
346.82	20.376
347.19	20.366
347.55	20.969
347.91	22.168
348.27	21.019
348.63	21.550
349.00	21.083
349.36	20.948
349.72	21.310
350.08	20.984
350.45	20.670
350.81	20.349
351.17	21.336
351.53	20.898
351.89	20.644
352.26	20.400
352.62	21.048
352.98	21.044
353.34	21.337
353.70	21.764
354.07	20.565
354.43	20.657
354.79	21.305
355.15	21.429
355.51	21.598
355.87	21.602
356.24	20.310
356.60	20.776
356.96	21.429
357.32	22.284
357.68	20.328
358.04	21.567
358.40	21.383
358.77	22.169
359.13	21.537
359.49	21.572
359.85	20.905
360.21	22.010
360.57	21.194
360.93	21.785
361.29	20.921
361.66	22.100
362.02	22.652
362.38	22.011
362.74	22.029
363.10	23.100
363.46	22.239
363.82	22.765
364.18	23.173
364.54	21.618
364.90	22.867
365.26	23.217
365.62	23.577
365.98	22.507
366.35	24.181
366.71	23.356
367.07	23.367
367.43	23.221
367.79	23.251
368.15	23.475
368.51	24.108
368.87	21.608
369.23	22.671
369.59	23.761
369.95	23.754
370.31	24.133
370.67	23.433
371.03	23.898
371.39	23.997
371.75	24.249
372.11	22.967
372.47	25.370
372.83	24.131
373.19	25.321
373.55	23.177
373.91	25.270
374.27	24.947
374.63	25.413
374.99	24.965
375.35	24.582
375.71	25.804
376.07	25.281
376.42	25.442
376.78	24.698
377.14	25.931
377.50	26.029
377.86	26.372
378.22	25.463
378.58	24.872
378.94	26.591
379.30	27.074
379.66	27.147
380.02	26.487
380.38	26.659
380.74	25.972
381.09	26.810
381.45	26.850
381.81	27.822
382.17	27.348
382.53	28.045
382.89	28.876
383.25	28.438
383.61	27.927
383.97	28.698
384.32	28.330
384.68	28.854
385.04	26.961
385.40	28.500
385.76	30.314
386.12	28.913
386.48	30.332
386.83	29.296
387.19	28.938
387.55	30.928
387.91	30.379
388.27	29.060
388.62	30.396
388.98	29.343
389.34	30.356
389.70	30.578
390.06	29.012
390.42	30.440
390.77	29.235
391.13	29.760
391.49	31.824
391.85	31.579
392.20	30.257
392.56	30.324
392.92	31.533
393.28	30.896
393.64	30.270
393.99	30.972
394.35	30.424
394.71	31.865
395.07	30.547
395.42	30.419
395.78	30.814
396.14	31.841
396.50	32.340
396.85	31.874
397.21	31.454
397.57	31.724
397.92	31.396
398.28	31.322
398.64	29.819
399.00	31.885
399.35	31.264
399.71	31.534
400.07	31.741
400.42	31.334
400.78	32.027
401.14	31.579
401.49	31.924
401.85	31.383
402.21	31.265
402.57	31.625
402.92	31.179
403.28	32.957
403.63	31.274
403.99	30.867
404.35	30.668
404.70	31.488
405.06	31.316
405.42	31.821
405.77	31.203
406.13	31.257
406.49	31.202
406.84	32.885
407.20	32.631
407.55	31.230
407.91	31.350
408.27	31.867
408.62	33.046
408.98	31.916
409.34	31.599
409.69	32.106
410.05	31.281
410.40	31.914
410.76	33.052
411.11	32.375
411.47	32.018
411.83	31.073
412.18	32.432
412.54	31.710
412.89	31.404
413.25	32.371
413.60	30.994
413.96	31.534
414.31	32.317
414.67	32.842
415.03	33.156
415.38	31.332
415.74	32.248
416.09	33.899
416.45	32.883
416.80	32.056
417.16	33.011
417.51	32.578
417.87	32.399
418.22	32.189
418.58	32.977
418.93	33.166
419.29	31.754
419.64	32.988
420.00	33.690
420.35	32.716
420.71	32.321
421.06	33.333
421.42	32.993
421.77	32.543
422.12	32.009
422.48	32.702
422.83	32.251
423.19	32.844
423.54	32.804
423.90	32.803
424.25	34.099
424.61	33.599
424.96	33.566
425.31	33.738
425.67	33.920
426.02	33.863
426.38	34.314
426.73	34.322
427.09	34.367
427.44	35.176
427.79	34.119
428.15	33.313
428.50	35.130
428.85	33.108
429.21	33.843
429.56	34.879
429.92	33.077
430.27	34.135
430.62	33.455
430.98	33.493
431.33	34.437
431.68	33.543
432.04	34.097
432.39	34.227
432.74	33.554
433.10	35.057
433.45	34.229
433.80	33.546
434.16	33.075
434.51	34.516
434.86	35.134
435.22	34.324
435.57	34.997
435.92	35.090
436.28	33.870
436.63	34.512
436.98	34.415
437.34	33.878
437.69	35.420
438.04	34.986
438.39	34.270
438.75	35.216
439.10	34.522
439.45	35.362
439.81	34.434
440.16	34.798
440.51	36.119
440.86	35.891
441.22	34.955
441.57	36.645
441.92	35.782
442.27	36.142
442.63	35.867
442.98	35.497
443.33	34.446
443.68	35.066
444.03	35.122
444.39	35.760
444.74	36.343
445.09	36.247
445.44	36.239
445.79	37.339
446.15	34.912
446.50	34.886
446.85	35.866
447.20	35.819
447.55	35.268
447.91	35.533
448.26	35.401
448.61	35.694
448.96	35.628
449.31	35.376
449.66	37.108
450.02	35.311
450.37	36.040
450.72	34.422
451.07	35.949
451.42	34.707
451.77	35.684
452.12	34.809
452.47	35.158
452.83	36.278
453.18	35.041
453.53	35.777
453.88	35.641
454.23	35.403
454.58	37.091
454.93	36.662
455.28	35.238
455.63	35.710
455.98	34.997
456.34	35.057
456.69	35.769
457.04	37.114
457.39	36.148
457.74	36.155
458.09	35.021
458.44	36.279
458.79	35.126
459.14	36.041
459.49	36.239
459.84	35.815
460.19	37.136
460.54	36.247
460.89	35.909
461.24	36.273
461.59	36.639
461.94	35.786
462.29	37.033
462.64	36.877
462.99	35.680
463.34	36.857
463.69	35.457
464.04	36.562
464.39	34.991
464.74	36.319
465.09	35.870
465.44	35.776
465.79	35.601
466.14	36.488
466.49	35.653
466.84	36.823
467.19	37.297
467.54	37.101
467.89	36.829
468.24	36.983
468.59	37.968
468.94	35.937
469.29	37.246
469.64	36.569
469.99	37.631
470.34	35.904
470.68	38.628
471.03	38.358
471.38	38.160
471.73	37.675
472.08	37.653
472.43	37.315
472.78	37.149
473.13	37.211
473.48	36.482
473.83	36.737
474.17	38.148
474.52	37.141
474.87	37.939
475.22	37.035
475.57	37.324
475.92	38.014
476.27	37.311
476.61	38.600
476.96	36.587
477.31	38.183
477.66	37.079
478.01	38.574
478.36	37.527
478.70	38.608
479.05	38.297
479.40	38.739
479.75	36.757
480.10	37.430
480.45	38.250
480.79	39.023
481.14	38.115
481.49	37.734
481.84	37.886
482.19	37.605
482.53	37.746
482.88	37.279
483.23	37.572
483.58	37.358
483.92	37.996
484.27	36.964
484.62	37.069
484.97	36.899
485.31	36.416
485.66	35.599
486.01	34.865
486.36	35.136
486.70	35.604
487.05	36.944
487.40	36.892
487.75	37.155
488.09	37.145
488.44	37.827
488.79	37.691
489.13	38.181
489.48	38.179
489.83	38.251
490.17	38.022
490.52	37.644
490.87	38.269
491.22	38.348
491.56	38.235
491.91	38.098
492.26	37.628
492.60	37.764
492.95	38.367
493.30	37.763
493.64	38.605
493.99	38.986
494.34	37.767
494.68	37.238
495.03	38.345
495.37	39.647
495.72	38.163
496.07	39.122
496.41	38.066
496.76	38.600
497.11	38.705
497.45	38.854
497.80	39.203
498.14	39.195
498.49	37.989
498.84	38.373
499.18	38.153
499.53	39.087
499.87	39.202
500.22	38.081
500.56	39.385
500.91	39.207
501.26	39.150
501.60	38.760
501.95	39.398
502.29	39.080
502.64	39.093
502.98	39.319
503.33	38.761
503.67	39.277
504.02	39.834
504.36	39.782
504.71	39.192
505.06	39.255
505.40	39.848
505.75	39.794
506.09	38.875
506.44	40.400
506.78	39.847
507.13	40.434
507.47	39.478
507.82	40.278
508.16	40.359
508.51	40.189
508.85	40.764
509.19	40.873
509.54	41.233
509.88	40.885
510.23	42.012
510.57	42.063
510.92	39.659
511.26	42.280
511.61	42.629
511.95	41.973
512.30	42.239
512.64	42.515
512.98	42.448
513.33	42.585
513.67	42.183
514.02	43.650
514.36	43.371
514.70	43.531
515.05	44.242
515.39	43.211
515.74	44.491
516.08	44.411
516.42	44.464
516.77	44.822
517.11	44.273
517.46	45.123
517.80	45.352
518.14	44.213
518.49	45.433
518.83	44.654
519.17	44.451
519.52	44.760
519.86	44.538
520.20	44.957
520.55	44.403
520.89	45.546
521.23	45.218
521.58	47.192
521.92	46.090
522.26	46.845
522.61	46.883
522.95	47.616
523.29	47.078
523.64	47.776
523.98	47.570
524.32	46.070
524.66	48.207
525.01	47.597
525.35	47.570
525.69	47.205
526.04	46.892
526.38	49.870
526.72	45.520
527.06	47.082
527.41	48.747
527.75	48.324
528.09	47.176
528.43	49.629
528.78	48.515
529.12	48.129
529.46	48.343
529.80	47.752
530.15	49.373
530.49	50.438
530.83	50.342
531.17	48.287
531.51	49.521
531.86	48.878
532.20	48.573
532.54	48.673
532.88	49.692
533.22	49.866
533.57	48.231
533.91	48.564
534.25	50.846
534.59	48.364
534.93	48.269
535.27	48.731
535.62	49.579
535.96	50.033
536.30	48.747
536.64	49.621
536.98	49.129
537.32	51.565
537.66	50.281
538.01	49.720
538.35	49.723
538.69	49.933
539.03	48.325
539.37	49.260
539.71	49.216
540.05	50.441
540.39	50.831
540.73	50.628
541.07	50.552
541.42	49.597
541.76	51.067
542.10	50.585
542.44	50.660
542.78	49.484
543.12	48.283
543.46	49.652
543.80	49.896
544.14	48.932
544.48	50.500
544.82	50.786
545.16	50.751
545.50	49.733
545.84	51.346
546.18	50.922
546.52	50.757
546.86	50.467
547.20	51.717
547.54	48.693
547.88	50.272
548.22	48.455
548.56	49.802
548.90	51.078
549.24	49.862
549.58	51.763
549.92	49.321
550.26	49.670
550.60	51.301
550.94	50.784
551.28	51.314
551.62	53.231
551.96	51.805
552.30	51.535
552.64	50.776
552.98	50.492
553.32	50.571
553.66	51.089
554.00	51.387
554.34	52.511
554.68	51.844
555.02	51.935
555.36	52.206
555.69	49.890
556.03	50.749
556.37	50.107
556.71	52.347
557.05	52.498
557.39	50.483
557.73	52.174
558.07	52.112
558.41	51.455
558.75	53.546
559.08	51.537
559.42	52.460
559.76	53.723
560.10	51.223
560.44	52.048
560.78	50.629
561.12	52.680
561.45	52.776
561.79	52.521
562.13	51.455
562.47	51.079
562.81	51.585
563.15	52.045
563.48	51.909
563.82	51.750
564.16	52.716
564.50	50.000
564.84	50.870
565.17	51.174
565.51	52.869
565.85	52.469
566.19	51.459
566.52	51.475
566.86	52.378
567.20	50.623
567.54	51.582
567.88	52.373
568.21	52.149
568.55	49.239
568.89	49.743
569.23	49.061
569.56	50.131
569.90	49.249
570.24	46.855
570.57	48.291
570.91	48.449
571.25	46.892
571.59	46.808
571.92	46.756
572.26	46.316
572.60	47.039
572.93	47.066
573.27	46.897
573.61	47.047
573.95	46.942
574.28	46.160
574.62	45.665
574.96	45.226
575.29	46.265
575.63	45.219
575.97	45.785
576.30	46.416
576.64	45.881
576.98	46.486
577.31	46.547
577.65	46.743
577.98	45.964
578.32	45.485
578.66	45.261
578.99	45.648
579.33	45.441
579.67	45.647
580.00	46.658
580.34	46.070
580.67	45.623
581.01	46.734
581.35	45.844
581.68	45.601
582.02	45.733
582.35	45.237
582.69	45.773
583.02	45.354
583.36	46.392
583.70	47.015
584.03	47.762
584.37	48.419
584.70	47.225
585.04	45.777
585.37	45.774
585.71	45.692
586.04	46.319
586.38	46.439
586.72	46.944
587.05	47.083
587.39	46.575
587.72	48.250
588.06	46.692
588.39	46.568
588.73	47.772
589.06	48.271
589.40	48.635
589.73	48.740
590.07	48.527
590.40	48.762
590.73	49.794
591.07	49.321
591.40	48.442
591.74	48.778
592.07	50.093
592.41	50.221
592.74	47.551
593.08	47.293
593.41	47.743
593.75	46.909
594.08	47.442
594.41	47.344
594.75	48.702
595.08	48.316
595.42	48.252
595.75	49.193
596.09	48.905
596.42	49.483
596.75	50.089
597.09	49.613
597.42	48.780
597.75	49.565
598.09	47.940
598.42	49.278
598.76	49.206
599.09	47.877
599.42	47.291
599.76	47.103
600.09	47.775
600.42	47.536
600.76	47.771
601.09	48.244
601.42	48.218
601.76	48.233
602.09	48.515
602.42	50.758
602.76	49.958
603.09	49.045
603.42	50.753
603.76	49.597
604.09	48.967
604.42	49.408
604.76	50.823
605.09	49.360
605.42	48.849
605.75	49.212
606.09	48.832
606.42	48.457
606.75	49.091
607.09	49.538
607.42	48.826
607.75	49.201
608.08	49.057
608.42	48.789
608.75	50.169
609.08	50.125
609.41	51.371
609.75	51.008
610.08	50.075
610.41	49.855
610.74	50.122
611.07	51.214
611.41	50.337
611.74	51.493
612.07	49.893
612.40	51.094
612.73	51.299
613.07	51.125
613.40	51.422
613.73	51.651
614.06	51.363
614.39	51.720
614.72	50.084
615.06	50.615
615.39	50.328
615.72	49.408
616.05	50.838
616.38	50.997
616.71	51.743
617.05	51.760
617.38	51.917
617.71	52.201
618.04	53.016
618.37	52.585
618.70	53.399
619.03	53.125
619.36	52.605
619.69	53.829
620.03	54.785
620.36	52.074
620.69	52.605
621.02	53.899
621.35	54.938
621.68	54.592
622.01	54.917
622.34	54.749
622.67	55.047
623.00	53.599
623.33	54.649
623.66	54.076
623.99	53.782
624.32	53.308
624.65	54.135
624.99	53.574
625.32	52.161
625.65	55.695
625.98	55.923
626.31	54.946
626.64	55.893
626.97	55.061
627.30	54.991
627.63	55.199
627.96	57.682
628.29	56.059
628.62	57.227
628.95	57.615
629.28	57.560
629.61	56.830
629.94	57.283
630.26	57.411
630.59	56.400
630.92	59.282
631.25	55.179
631.58	58.590
631.91	58.662
632.24	59.174
632.57	59.886
632.90	58.363
633.23	58.000
633.56	60.705
633.89	59.309
634.22	60.988
634.55	61.499
634.88	59.642
635.20	58.718
635.53	62.267
635.86	61.248
636.19	61.320
636.52	58.801
636.85	56.079
637.18	57.610
637.51	59.371
637.83	59.133
638.16	61.664
638.49	58.856
638.82	61.053
639.15	59.973
639.48	62.448
639.81	61.367
640.13	63.636
640.46	61.953
640.79	59.499
641.12	61.595
641.45	62.613
641.77	60.593
642.10	64.297
642.43	62.058
642.76	62.376
643.09	61.389
643.41	62.460
643.74	61.120
644.07	62.726
644.40	65.709
644.73	66.900
645.05	60.906
645.38	66.667
645.71	64.716
646.04	65.889
646.36	64.362
646.69	63.669
647.02	65.974
647.35	63.806
647.67	63.985
648.00	65.858
648.33	61.092
648.66	62.034
648.98	62.479
649.31	60.496
649.64	59.498
649.96	61.588
650.29	62.351
650.62	62.051
650.94	64.815
651.27	62.942
651.60	65.405
651.92	65.035
652.25	59.147
652.58	61.167
652.90	61.921
653.23	61.849
653.56	60.575
653.88	62.371
654.21	61.646
654.54	61.969
654.86	62.649
655.19	57.749
655.52	57.043
655.84	46.189
656.17	50.064
656.49	67.548
656.82	70.792
657.15	55.287
657.47	41.734
657.80	31.501
658.13	31.432
658.45	49.731
658.78	50.372
659.10	50.926
659.43	51.031
659.75	52.837
660.08	53.586
660.41	55.567
660.73	59.116
661.06	65.511
661.38	63.209
661.71	61.191
662.03	64.592
662.36	67.473
662.68	65.929
663.01	64.847
663.33	65.429
663.66	63.488
663.98	65.349
664.31	64.819
664.63	67.972
664.96	61.522
665.28	62.031
665.61	65.584
665.93	66.957
666.26	66.594
666.58	64.877
666.91	64.941
667.23	69.104
667.56	71.090
667.88	67.386
668.21	67.542
668.53	67.612
668.86	67.925
669.18	62.972
669.50	64.649
669.83	66.512
670.15	64.802
670.48	63.158
670.80	62.442
671.13	62.416
671.45	64.840
671.77	62.446
672.10	61.386
672.42	59.551
672.75	59.858
673.07	62.254
673.39	61.651
673.72	60.158
674.04	62.500
674.37	65.890
674.69	62.313
675.01	66.222
675.34	64.865
675.66	65.046
675.98	64.523
676.31	65.138
676.63	65.558
676.95	62.727
677.28	66.118
677.60	65.542
677.92	67.431
678.25	64.333
678.57	64.069
678.89	62.605
679.22	66.890
679.54	60.643
679.86	58.847
680.18	61.359
680.51	59.848
680.83	60.040
681.15	62.400
681.48	63.934
681.80	64.050
682.12	59.073
682.44	59.623
682.77	66.225
683.09	64.760
683.41	60.682
683.73	63.364
684.06	62.832
684.38	61.505
684.70	66.013
685.02	59.129
685.34	56.522
685.67	59.662
685.99	60.759
686.31	58.761
686.63	59.926
686.96	59.696
687.28	60.808
687.60	54.943
687.92	61.818
688.24	60.484
688.56	65.502
688.89	60.937
689.21	61.778
689.53	62.877
689.85	61.860
690.17	60.491
690.49	59.811
690.82	64.078
691.14	60.476
691.46	63.551
691.78	62.838
692.10	63.656
692.42	60.173
692.74	58.974
693.06	60.360
693.39	62.443
693.71	61.312
694.03	57.968
694.35	61.682
694.67	61.616
694.99	60.313
695.31	65.796
695.63	61.250
695.95	60.101
696.27	61.917
696.59	63.889
696.91	61.905
697.23	62.468
697.56	61.634
697.88	59.570
698.20	58.542
698.52	62.118
698.84	58.852
699.16	60.750
699.48	60.150
699.80	60.298
700.12	65.768
700.44	65.546
700.76	63.081
701.08	66.667
701.40	63.855
701.72	67.593
702.04	70.297
702.36	70.234
702.68	66.667
703.00	65.152
703.32	59.824
703.64	60.452
703.96	60.580
704.28	59.202
704.60	66.349
704.91	64.669
705.23	62.458
705.55	72.438
705.87	71.119
706.19	67.778
706.51	65.636
706.83	63.023
707.15	67.601
707.47	64.146
707.79	58.073
708.11	62.250
708.43	60.250
708.74	57.623
709.06	64.789
709.38	62.691
709.70	64.201
710.02	60.191
710.34	63.467
710.66	57.372
710.98	64.901
711.29	61.311
711.61	64.068
711.93	63.844
712.25	67.010
712.57	71.062
712.89	69.776
713.20	68.512
713.52	63.415
713.84	62.799
714.16	65.636
714.48	64.516
714.80	61.859
715.11	61.398
715.43	58.934
715.75	59.667
716.07	63.455
716.39	61.409
716.70	62.731
717.02	60.687
717.34	65.992
717.66	74.336
717.97	66.522
718.29	66.527
718.61	65.748
718.93	63.953
719.24	60.837
719.56	68.273
719.88	64.605
720.20	65.909
720.51	62.835
720.83	64.865
721.15	68.487
721.46	65.323
721.78	59.289
722.10	60.223
722.42	65.145
722.73	63.265
723.05	66.939
723.37	70.763
723.68	73.874
724.00	64.103
724.32	63.111
724.63	64.091
724.95	63.319
725.27	70.968
725.58	63.983
725.90	59.127
726.22	64.479
726.53	61.356
726.85	65.918
727.16	61.887
727.48	61.134
727.80	66.802
728.11	65.254
728.43	61.176
728.74	57.661
729.06	67.200
729.38	65.789
729.69	67.331
730.01	60.000
730.32	63.060
730.64	59.364
730.96	61.132
731.27	53.667
731.59	60.339
731.90	62.739
732.22	60.568
732.53	65.116
732.85	63.830
733.16	61.616
733.48	55.036
733.80	63.043
734.11	58.305
734.43	60.825
734.74	56.970
735.06	55.049
735.37	61.027
735.69	63.973
736.00	60.279
736.32	61.074
736.63	55.986
736.95	62.799
737.26	59.075
737.58	53.020
737.89	56.410
738.21	62.782
738.52	69.136
738.83	67.686
739.15	60.262
739.46	65.748
739.78	57.143
740.09	52.614
740.41	62.681
740.72	61.811
741.04	60.324
741.35	60.426
741.66	66.825
741.98	67.857
742.29	62.376
742.61	65.445
742.92	58.768
743.23	66.667
743.55	61.538
743.86	66.507
744.18	58.373
744.49	71.277
744.80	67.935
745.12	71.123
745.43	60.000
745.74	69.271
746.06	67.805
746.37	64.398
746.68	62.085
747.00	67.021
747.31	66.667
747.62	62.136
747.94	66.029
748.25	63.861
748.56	66.667
748.88	68.586
749.19	72.872
749.50	66.010
749.82	60.849
750.13	62.385
750.44	63.910
750.75	63.433
751.07	63.869
751.38	62.452
751.69	58.824
752.01	62.016
752.32	62.948
752.63	64.427
752.94	66.379
753.26	69.038
753.57	59.276
753.88	62.389
754.19	62.917
754.51	67.769
754.82	61.134
755.13	65.000
755.44	60.081
755.75	59.375
756.07	59.144
756.38	60.377
756.69	58.621
757.00	57.000
757.31	53.922
757.63	56.098
757.94	54.444
758.25	55.342
758.56	53.723
758.87	53.541
759.18	54.829
759.50	56.000
759.81	58.194
760.12	55.806
760.43	56.061
760.74	61.728
761.05	59.077
761.36	56.250
761.67	58.485
761.99	61.905
762.30	53.818
762.61	60.079
762.92	62.896
763.23	62.162
763.54	62.617
763.85	58.051
764.16	54.772
764.47	59.677
764.78	56.777
765.10	57.239
765.41	53.943
765.72	53.016
766.03	59.774
766.34	55.474
766.65	59.761
766.96	64.646
767.27	59.574
767.58	59.770
767.89	71.631
768.20	59.659
768.51	62.637
768.82	53.695
769.13	54.378
769.44	60.515
769.75	56.621
770.06	56.466
770.37	54.808
770.68	63.452
770.99	53.394
771.30	61.765
771.61	61.991
771.92	59.052
772.23	62.562
772.54	62.366
772.85	62.963
773.16	62.921
773.47	66.013
773.78	70.588
774.09	56.287
774.39	60.000
774.70	60.510
775.01	68.276
775.32	65.714
775.63	59.504
775.94	61.069
776.25	67.717
776.56	59.167
776.87	77.885
777.18	59.829
777.48	62.931
777.79	55.652
778.10	64.762
778.41	52.252
778.72	63.492
779.03	59.398
779.34	63.830
779.65	58.904
779.95	53.425
780.26	66.897
780.57	65.041
780.88	56.693
781.19	65.517
781.50	67.442
781.80	55.621
782.11	61.635
782.42	68.462
782.73	56.835
783.04	62.963
783.34	52.778
783.65	59.829
783.96	62.295
784.27	60.690
784.57	58.537
784.88	57.031
785.19	80.000
785.50	79.000
785.81	62.069
786.11	54.310
786.42	52.427
786.73	73.636
787.04	57.143
787.34	57.143
787.65	60.952
787.96	64.602
788.26	69.091
788.57	70.940
788.88	66.406
789.19	65.873
789.49	55.652
789.80	61.224
790.11	62.626
790.41	55.455
790.72	67.391
791.03	69.318
791.33	76.250
791.64	51.250
791.95	41.860
792.25	65.957
792.56	61.798
792.87	61.644
793.17	73.913
793.48	60.000
793.79	53.750
794.09	68.750
794.40	45.283
794.70	61.165
795.01	52.846
795.32	47.863
795.62	61.905
795.93	61.765
796.23	53.774
796.54	55.208
796.85	70.588
797.15	69.014
797.46	84.722
797.76	74.242
798.07	48.837
798.37	61.842
798.68	59.091
798.99	58.025
799.29	72.857
799.60	60.870
799.90	70.667
800.21	77.049
800.51	76.923
800.82	61.017
801.12	55.072
801.43	80.328
801.73	74.603
802.04	52.000
802.34	76.119
802.65	71.154
802.95	51.786
803.26	44.231
803.56	94.118
803.87	67.391
804.17	58.667
804.48	58.730
804.78	61.111
805.09	67.391
805.39	77.778
805.70	61.111
806.00	50.877
806.30	54.930
806.61	50.000
806.91	50.000
807.22	75.000
807.52	70.667
807.83	49.091
808.13	58.333
808.43	66.176
808.74	65.672
809.04	79.661
809.35	59.615
809.65	53.125
809.95	43.243
810.26	70.455
810.56	38.356
810.86	85.714
811.17	40.000
811.47	48.980
811.77	50.000
812.08	68.182
812.38	64.151
812.69	57.500
812.99	63.636
813.29	57.895
813.59	34.286
813.90	75.000
814.20	79.487
814.50	51.923
814.81	73.585
815.11	40.426
815.41	62.712
815.72	69.048
816.02	54.902
816.32	66.667
816.62	73.171
816.93	59.459
817.23	65.714
817.53	58.333
817.84	71.739
818.14	63.462
818.44	39.474
818.74	58.696
819.04	30.000
819.35	59.459
819.65	55.882
819.95	61.111
820.25	42.857
820.56	72.500
820.86	34.483
821.16	82.500
821.46	80.851
821.76	75.000
822.07	41.860
822.37	24.324
822.67	81.250
822.97	83.333
823.27	71.429
823.57	76.000
823.88	55.556
824.18	67.857
824.48	50.000
824.78	74.194
825.08	39.130
825.38	51.515
825.69	41.667
825.99	42.105
826.29	41.667
826.59	146.667
826.89	47.619
827.19	52.174
827.49	25.000
827.79	71.429
828.09	82.143
828.39	106.061
828.70	102.703
829.00	46.429
829.30	71.429
829.60	63.333
829.90	53.125
830.20	57.895
830.50	77.778
830.80	60.870
831.10	90.909
831.40	63.636
831.70	70.968
832.00	95.238
832.30	47.619
832.60	125.000
832.90	51.724
833.20	130.000
833.50	78.788
833.80	44.444
834.10	80.769
834.40	37.500
834.70	233.333
835.00	78.947
835.30	115.385
835.60	106.667
835.90	67.742
836.20	77.273
836.50	71.429
836.80	-38.462
837.10	25.000
837.40	200.000
837.70	104.545
838.00	100.000
838.30	60.870
838.60	100.000
838.90	63.636
839.19	64.286
839.49	36.667
839.79	92.308
840.09	50.000
840.39	78.571
840.69	39.286
840.99	0.000
841.29	63.158
841.59	30.000
841.88	109.091
842.18	90.000
842.48	112.500
842.78	46.667
843.08	25.926
843.38	30.000
843.68	65.217
843.97	80.000
844.27	-13.333
844.57	30.000
844.87	38.889
845.17	28.571
845.47	120.000
845.76	61.905
846.06	47.059
846.36	70.000
846.66	28.571
846.96	66.667
847.25	62.500
847.55	107.143
847.85	-50.000
848.15	50.000
848.44	-33.333
848.74	70.000
849.04	62.963
849.34	81.818
849.63	83.333
849.93	0.000
850.23	61.111
850.53	10.000
850.82	53.846
851.12	88.889
851.42	66.667
851.71	23.077
852.01	107.143
852.31	200.000
852.61	0.000
852.90	70.000
853.20	73.684
853.50	66.667
853.79	13.043
854.09	104.167
854.39	84.211
854.68	20.833
854.98	64.516
855.28	76.923
855.57	35.000
855.87	83.333
856.17	55.556
856.46	107.143
856.76	66.667
857.05	211.111
857.35	16.000
857.65	50.000
857.94	38.462
858.24	65.517
858.53	38.889
858.83	55.556
859.13	100.000
859.42	-4.348
859.72	275.000
860.01	-33.333
860.31	52.000
860.60	42.857
860.90	-66.667
861.20	-53.333
861.49	0.000
861.79	80.000
862.08	20.000
862.38	66.667
862.67	-80.000
862.97	-133.333
863.26	25.000
863.56	83.333
863.85	-166.667
864.15	55.556
864.44	50.000
864.74	85.714
865.03	125.000
865.33	-140.000
865.62	16.667
865.92	8.333
866.21	-116.667
866.51	50.000
866.80	136.364
867.10	250.000
867.39	116.667
867.69	0.000
867.98	130.769
868.27	266.667
868.57	73.333
868.86	66.667
869.16	-15.385
869.45	86.667
869.75	-1200.000
870.04	0.000
870.33	-71.429
870.63	23.810
870.92	133.333
871.22	-200.000
871.51	-200.000
871.80	188.889
872.10	166.667
>>>>>End Processed Spectral Data<<<<<
