SpectraSuite Data File
++++++++++++++++++++++++++++++++++++
Date: Fri May 15 17:32:03 PDT 2015
User: schluterlab
Dark Spectrum Present: Yes
Reference Spectrum Present: Yes
Number of Sampled Component Spectra: 1
Spectrometers: USB2E3373
Integration Time (usec): 3000 (USB2E3373)
Spectra Averaged: 3 (USB2E3373)
Boxcar Smoothing: 0 (USB2E3373)
Correct for Electrical Dark: No (USB2E3373)
Strobe/Lamp Enabled: No (USB2E3373)
Correct for Detector Non-linearity: No (USB2E3373)
Correct for Stray Light: No (USB2E3373)
Number of Pixels in Processed Spectrum: 2048
>>>>>Begin Processed Spectral Data<<<<<
178.53	0.000
178.91	0.000
179.29	237.500
179.67	-50.000
180.04	-71.429
180.42	225.000
180.80	200.000
181.18	-100.000
181.56	-200.000
181.94	100.000
182.31	-400.000
182.69	120.000
183.07	-66.667
183.45	200.000
183.83	116.667
184.20	27.273
184.58	122.222
184.96	-100.000
185.34	-233.333
185.72	300.000
186.09	15.385
186.47	-800.000
186.85	-0.000
187.23	100.000
187.61	-600.000
187.98	33.333
188.36	122.222
188.74	-33.333
189.12	47.059
189.49	77.778
189.87	0.000
190.25	78.571
190.63	500.000
191.00	-33.333
191.38	-15.789
191.76	850.000
192.14	-50.000
192.51	50.000
192.89	33.333
193.27	-57.143
193.65	183.333
194.02	81.818
194.40	30.000
194.78	-12.500
195.15	16.667
195.53	-12.500
195.91	75.000
196.29	75.000
196.66	53.846
197.04	71.429
197.42	66.667
197.79	-500.000
198.17	-30.769
198.55	600.000
198.92	166.667
199.30	500.000
199.68	0.000
200.05	-166.667
200.43	0.000
200.81	-33.333
201.18	333.333
201.56	-400.000
201.94	-250.000
202.31	133.333
202.69	-120.000
203.07	-150.000
203.44	300.000
203.82	0.000
204.19	28.571
204.57	-33.333
204.95	-87.500
205.32	10.000
205.70	71.429
206.08	150.000
206.45	155.556
206.83	85.714
207.20	71.429
207.58	100.000
207.96	-266.667
208.33	-150.000
208.71	125.000
209.08	-33.333
209.46	400.000
209.84	20.000
210.21	-600.000
210.59	0.000
210.96	216.667
211.34	25.000
211.71	40.000
212.09	-28.571
212.46	-1600.000
212.84	0.000
213.22	90.000
213.59	150.000
213.97	123.077
214.34	36.364
214.72	16.667
215.09	375.000
215.47	38.462
215.84	-36.364
216.22	-200.000
216.59	50.000
216.97	350.000
217.34	200.000
217.72	-220.000
218.09	125.000
218.47	50.000
218.84	-600.000
219.22	33.333
219.59	60.000
219.97	66.667
220.34	150.000
220.72	28.571
221.09	-100.000
221.47	-150.000
221.84	-200.000
222.22	-50.000
222.59	109.091
222.97	83.333
223.34	33.333
223.72	28.571
224.09	71.429
224.46	7.143
224.84	200.000
225.21	-30.000
225.59	53.333
225.96	300.000
226.34	-50.000
226.71	-57.143
227.08	166.667
227.46	-37.500
227.83	150.000
228.21	-22.222
228.58	36.364
228.95	-12.500
229.33	60.000
229.70	18.750
230.08	62.500
230.45	85.714
230.82	-42.857
231.20	80.000
231.57	100.000
231.95	-57.143
232.32	-80.000
232.69	71.429
233.07	300.000
233.44	60.000
233.81	-20.000
234.19	111.111
234.56	-5.882
234.93	-50.000
235.31	-100.000
235.68	-120.000
236.05	-15.385
236.43	-55.000
236.80	5.882
237.17	18.750
237.55	35.000
237.92	59.259
238.29	47.222
238.67	36.667
239.04	26.471
239.41	19.512
239.79	26.667
240.16	48.780
240.53	13.158
240.91	6.522
241.28	20.635
241.65	37.500
242.02	26.027
242.40	33.333
242.77	32.203
243.14	18.182
243.51	28.750
243.89	32.184
244.26	22.989
244.63	15.476
245.00	24.742
245.38	18.557
245.75	17.978
246.12	19.828
246.49	20.661
246.87	27.885
247.24	25.210
247.61	16.667
247.98	25.203
248.36	21.250
248.73	20.395
249.10	17.532
249.47	20.886
249.84	19.608
250.22	23.529
250.59	24.183
250.96	27.230
251.33	19.186
251.70	24.706
252.08	25.888
252.45	18.812
252.82	20.101
253.19	23.502
253.56	19.626
253.94	26.126
254.31	24.348
254.68	25.877
255.05	24.016
255.42	25.764
255.79	24.324
256.16	22.179
256.54	25.373
256.91	22.053
257.28	23.420
257.65	20.225
258.02	23.404
258.39	23.906
258.76	20.513
259.14	21.595
259.51	23.625
259.88	25.086
260.25	25.163
260.62	23.958
260.99	21.017
261.36	16.781
261.73	24.051
262.10	20.973
262.47	23.313
262.85	21.944
263.22	20.000
263.59	18.069
263.96	25.466
264.33	22.121
264.70	20.238
265.07	20.833
265.44	23.513
265.81	24.011
266.18	21.858
266.55	20.566
266.92	20.984
267.29	23.238
267.66	19.949
268.03	20.157
268.40	19.843
268.77	25.668
269.14	21.343
269.51	22.108
269.88	20.948
270.25	20.918
270.62	20.000
270.99	20.716
271.36	21.027
271.73	21.596
272.10	23.844
272.47	21.513
272.84	20.545
273.21	22.970
273.58	23.133
273.95	20.366
274.32	19.861
274.69	16.742
275.06	20.089
275.43	19.955
275.80	23.179
276.17	20.230
276.54	20.128
276.91	18.640
277.28	18.777
277.65	22.107
278.02	19.787
278.39	20.569
278.76	20.545
279.13	18.672
279.50	21.218
279.87	18.790
280.23	20.645
280.60	20.858
280.97	20.808
281.34	18.269
281.71	18.891
282.08	20.450
282.45	18.591
282.82	19.112
283.19	20.696
283.56	20.617
283.92	18.027
284.29	17.500
284.66	17.636
285.03	18.271
285.40	20.038
285.77	18.453
286.14	19.314
286.51	19.373
286.87	19.013
287.24	18.232
287.61	18.519
287.98	19.298
288.35	18.544
288.72	18.039
289.08	17.882
289.45	18.102
289.82	19.580
290.19	17.065
290.56	19.383
290.93	15.488
291.29	15.562
291.66	16.693
292.03	17.384
292.40	18.065
292.77	15.949
293.13	14.123
293.50	15.326
293.87	16.031
294.24	15.920
294.60	14.605
294.97	15.179
295.34	15.337
295.71	16.244
296.08	13.901
296.44	15.220
296.81	13.611
297.18	15.942
297.55	16.260
297.91	14.247
298.28	14.116
298.65	13.569
299.02	14.420
299.38	12.038
299.75	12.966
300.12	12.435
300.48	11.989
300.85	14.702
301.22	12.987
301.59	13.816
301.95	13.924
302.32	14.397
302.69	14.055
303.05	13.119
303.42	13.699
303.79	12.383
304.15	13.978
304.52	13.555
304.89	11.345
305.25	12.228
305.62	12.019
305.99	12.281
306.35	13.873
306.72	12.261
307.09	12.771
307.45	12.514
307.82	11.806
308.19	12.660
308.55	12.432
308.92	13.181
309.29	11.955
309.65	12.379
310.02	11.551
310.38	12.953
310.75	13.005
311.12	12.702
311.48	12.195
311.85	12.565
312.22	12.764
312.58	11.677
312.95	11.206
313.31	13.043
313.68	11.414
314.05	11.122
314.41	11.340
314.78	11.753
315.14	13.875
315.51	12.112
315.87	12.602
316.24	13.448
316.61	14.173
316.97	13.095
317.34	12.695
317.70	12.428
318.07	13.750
318.43	12.157
318.80	11.837
319.16	13.477
319.53	14.340
319.89	13.878
320.26	13.158
320.62	13.741
320.99	13.048
321.35	13.361
321.72	15.472
322.08	13.595
322.45	12.792
322.81	13.752
323.18	14.230
323.54	14.093
323.91	15.093
324.27	15.527
324.64	16.760
325.00	15.785
325.37	16.988
325.73	16.863
326.10	17.620
326.46	17.040
326.83	17.673
327.19	19.093
327.56	19.374
327.92	19.454
328.29	18.571
328.65	19.717
329.01	20.129
329.38	20.737
329.74	19.830
330.11	21.316
330.47	21.243
330.84	21.827
331.20	23.764
331.56	21.204
331.93	23.562
332.29	24.381
332.66	23.982
333.02	23.327
333.38	23.556
333.75	25.092
334.11	23.008
334.48	25.113
334.84	25.733
335.20	26.167
335.57	24.479
335.93	26.016
336.29	26.703
336.66	24.886
337.02	25.093
337.38	25.833
337.75	26.455
338.11	26.330
338.47	27.555
338.84	26.802
339.20	26.600
339.56	27.339
339.93	27.037
340.29	27.615
340.65	27.688
341.02	26.241
341.38	26.814
341.74	26.678
342.11	26.256
342.47	27.313
342.83	26.730
343.20	27.700
343.56	28.087
343.92	28.787
344.28	28.010
344.65	26.770
345.01	26.621
345.37	27.502
345.73	28.368
346.10	27.955
346.46	27.923
346.82	26.596
347.19	25.769
347.55	27.151
347.91	28.074
348.27	27.082
348.63	27.002
349.00	26.415
349.36	28.096
349.72	28.027
350.08	27.213
350.45	27.614
350.81	26.495
351.17	26.629
351.53	27.837
351.89	26.672
352.26	26.640
352.62	26.129
352.98	27.390
353.34	26.973
353.70	28.236
354.07	26.855
354.43	27.222
354.79	26.424
355.15	28.095
355.51	27.690
355.87	27.670
356.24	25.775
356.60	27.001
356.96	27.143
357.32	27.636
357.68	26.740
358.04	26.090
358.40	26.286
358.77	27.751
359.13	26.902
359.49	26.348
359.85	27.223
360.21	27.592
360.57	26.090
360.93	27.005
361.29	25.982
361.66	28.056
362.02	27.879
362.38	28.180
362.74	26.646
363.10	27.690
363.46	26.686
363.82	29.151
364.18	27.159
364.54	26.838
364.90	26.237
365.26	27.293
365.62	28.029
365.98	27.933
366.35	27.604
366.71	28.307
367.07	27.286
367.43	26.671
367.79	27.562
368.15	27.782
368.51	27.312
368.87	26.920
369.23	26.643
369.59	28.207
369.95	26.833
370.31	27.746
370.67	27.239
371.03	26.064
371.39	27.279
371.75	27.839
372.11	28.031
372.47	26.627
372.83	27.608
373.19	27.033
373.55	27.365
373.91	28.366
374.27	27.498
374.63	27.495
374.99	28.014
375.35	28.134
375.71	29.301
376.07	28.160
376.42	28.367
376.78	28.322
377.14	28.571
377.50	28.818
377.86	28.983
378.22	28.143
378.58	28.462
378.94	27.914
379.30	28.696
379.66	29.154
380.02	28.020
380.38	28.058
380.74	28.187
381.09	30.552
381.45	28.379
381.81	28.809
382.17	29.442
382.53	29.044
382.89	29.567
383.25	29.932
383.61	29.268
383.97	29.079
384.32	29.081
384.68	30.093
385.04	28.676
385.40	29.185
385.76	30.377
386.12	29.754
386.48	30.971
386.83	29.042
387.19	30.586
387.55	30.176
387.91	29.095
388.27	29.548
388.62	29.515
388.98	29.589
389.34	30.044
389.70	30.019
390.06	28.949
390.42	29.663
390.77	30.477
391.13	29.319
391.49	29.301
391.85	29.890
392.20	29.944
392.56	30.197
392.92	29.947
393.28	30.601
393.64	29.069
393.99	30.408
394.35	29.665
394.71	30.268
395.07	29.541
395.42	29.872
395.78	29.251
396.14	30.202
396.50	30.691
396.85	30.393
397.21	30.451
397.57	30.596
397.92	30.977
398.28	31.724
398.64	30.000
399.00	30.474
399.35	29.684
399.71	29.006
400.07	31.076
400.42	30.049
400.78	30.925
401.14	30.732
401.49	29.720
401.85	30.104
402.21	28.675
402.57	30.188
402.92	29.046
403.28	30.576
403.63	30.706
403.99	29.337
404.35	30.481
404.70	29.821
405.06	29.965
405.42	30.951
405.77	29.634
406.13	28.929
406.49	29.248
406.84	29.829
407.20	30.584
407.55	29.491
407.91	29.345
408.27	30.019
408.62	30.092
408.98	29.821
409.34	29.244
409.69	29.070
410.05	29.249
410.40	29.444
410.76	30.097
411.11	30.688
411.47	29.980
411.83	28.814
412.18	30.502
412.54	29.775
412.89	28.202
413.25	30.626
413.60	28.447
413.96	29.755
414.31	30.366
414.67	29.570
415.03	30.293
415.38	29.243
415.74	29.251
416.09	30.438
416.45	29.912
416.80	30.337
417.16	30.525
417.51	30.380
417.87	29.791
418.22	29.728
418.58	30.033
418.93	30.470
419.29	29.321
419.64	30.979
420.00	30.919
420.35	29.791
420.71	31.409
421.06	29.405
421.42	31.130
421.77	30.694
422.12	30.760
422.48	30.698
422.83	30.220
423.19	30.023
423.54	29.865
423.90	29.859
424.25	31.343
424.61	30.722
424.96	29.965
425.31	31.427
425.67	30.634
426.02	31.390
426.38	31.497
426.73	31.538
427.09	32.152
427.44	31.765
427.79	31.703
428.15	32.282
428.50	30.890
428.85	30.835
429.21	31.692
429.56	32.237
429.92	32.409
430.27	31.479
430.62	32.096
430.98	31.529
431.33	31.546
431.68	31.240
432.04	31.470
432.39	30.177
432.74	29.645
433.10	32.471
433.45	32.139
433.80	32.501
434.16	32.133
434.51	33.280
434.86	32.230
435.22	31.800
435.57	33.188
435.92	32.036
436.28	32.320
436.63	32.858
436.98	31.924
437.34	33.333
437.69	32.737
438.04	31.852
438.39	33.170
438.75	34.366
439.10	33.050
439.45	33.962
439.81	32.783
440.16	34.798
440.51	33.254
440.86	34.622
441.22	33.654
441.57	34.658
441.92	34.627
442.27	35.532
442.63	34.797
442.98	35.037
443.33	34.613
443.68	33.210
444.03	34.824
444.39	34.875
444.74	35.284
445.09	35.245
445.44	35.214
445.79	35.431
446.15	33.700
446.50	34.332
446.85	35.228
447.20	33.837
447.55	34.431
447.91	35.477
448.26	35.003
448.61	35.291
448.96	36.030
449.31	34.913
449.66	35.424
450.02	35.539
450.37	35.388
450.72	34.479
451.07	35.316
451.42	34.707
451.77	35.081
452.12	33.313
452.47	34.836
452.83	35.041
453.18	35.041
453.53	35.461
453.88	36.005
454.23	34.235
454.58	35.642
454.93	35.889
455.28	33.587
455.63	37.136
455.98	36.200
456.34	35.568
456.69	36.531
457.04	36.673
457.39	35.480
457.74	35.732
458.09	35.491
458.44	35.693
458.79	36.807
459.14	36.613
459.49	36.478
459.84	35.984
460.19	36.954
460.54	36.675
460.89	36.364
461.24	36.398
461.59	36.758
461.94	36.667
462.29	37.093
462.64	36.279
462.99	35.545
463.34	36.857
463.69	35.650
464.04	36.138
464.39	36.992
464.74	38.160
465.09	36.993
465.44	36.988
465.79	35.714
466.14	37.799
466.49	36.630
466.84	37.240
467.19	37.046
467.54	35.377
467.89	36.008
468.24	35.827
468.59	36.381
468.94	36.889
469.29	36.197
469.64	37.662
469.99	38.262
470.34	35.700
470.68	37.584
471.03	36.023
471.38	35.164
471.73	35.784
472.08	36.296
472.43	36.577
472.78	35.778
473.13	37.347
473.48	36.026
473.83	35.616
474.17	37.565
474.52	37.141
474.87	36.909
475.22	36.730
475.57	36.420
475.92	37.905
476.27	37.078
476.61	36.979
476.96	36.141
477.31	36.723
477.66	36.461
478.01	37.226
478.36	36.819
478.70	37.792
479.05	38.132
479.40	37.520
479.75	37.539
480.10	37.071
480.45	38.000
480.79	38.620
481.14	37.654
481.49	36.946
481.84	37.886
482.19	37.091
482.53	36.930
482.88	37.661
483.23	37.092
483.58	36.840
483.92	37.076
484.27	36.964
484.62	37.562
484.97	37.065
485.31	38.837
485.66	40.113
486.01	41.524
486.36	41.095
486.70	40.613
487.05	39.357
487.40	39.116
487.75	37.606
488.09	36.774
488.44	36.829
488.79	37.131
489.13	36.699
489.48	36.853
489.83	36.278
490.17	36.315
490.52	36.166
490.87	36.603
491.22	36.772
491.56	37.476
491.91	36.616
492.26	37.239
492.60	36.900
492.95	37.678
493.30	36.981
493.64	36.493
493.99	37.536
494.34	36.602
494.68	37.762
495.03	37.129
495.37	36.899
495.72	36.093
496.07	38.195
496.41	37.406
496.76	37.402
497.11	36.283
497.45	37.232
497.80	38.345
498.14	37.407
498.49	35.856
498.84	36.976
499.18	37.048
499.53	37.252
499.87	36.187
500.22	36.597
500.56	37.821
500.91	36.847
501.26	36.975
501.60	36.744
501.95	37.991
502.29	37.579
502.64	37.452
502.98	37.247
503.33	36.695
503.67	37.108
504.02	37.781
504.36	37.902
504.71	36.768
505.06	36.437
505.40	36.244
505.75	37.938
506.09	36.543
506.44	36.756
506.78	37.908
507.13	38.314
507.47	35.614
507.82	36.485
508.16	36.027
508.51	37.198
508.85	36.421
509.19	36.296
509.54	36.568
509.88	36.354
510.23	37.117
510.57	36.665
510.92	35.075
511.26	36.061
511.61	36.469
511.95	36.329
512.30	36.142
512.64	35.949
512.98	36.103
513.33	36.374
513.67	35.702
514.02	36.442
514.36	35.829
514.70	36.538
515.05	36.898
515.39	35.773
515.74	36.826
516.08	36.282
516.42	36.690
516.77	36.044
517.11	36.083
517.46	36.625
517.80	35.518
518.14	35.211
518.49	34.615
518.83	35.723
519.17	35.294
519.52	35.761
519.86	35.354
520.20	36.330
520.55	35.084
520.89	35.006
521.23	35.022
521.58	34.826
521.92	35.449
522.26	35.394
522.61	35.000
522.95	36.358
523.29	35.388
523.64	35.006
523.98	36.487
524.32	36.340
524.66	35.723
525.01	35.519
525.35	35.580
525.69	34.613
526.04	34.061
526.38	36.057
526.72	34.859
527.06	34.695
527.41	34.235
527.75	34.786
528.09	35.282
528.43	35.719
528.78	35.050
529.12	34.839
529.46	35.737
529.80	35.022
530.15	34.785
530.49	35.556
530.83	35.978
531.17	34.721
531.51	34.952
531.86	34.942
532.20	34.795
532.54	34.037
532.88	35.318
533.22	35.753
533.57	35.649
533.91	34.465
534.25	35.612
534.59	35.600
534.93	35.053
535.27	35.723
535.62	35.386
535.96	36.008
536.30	35.620
536.64	36.251
536.98	35.331
537.32	35.775
537.66	35.764
538.01	35.105
538.35	35.922
538.69	35.087
539.03	35.065
539.37	36.003
539.71	35.515
540.05	36.049
540.39	35.665
540.73	35.495
541.07	35.359
541.42	36.492
541.76	37.096
542.10	35.513
542.44	34.885
542.78	33.655
543.12	35.852
543.46	35.327
543.80	36.502
544.14	35.381
544.48	35.643
544.82	36.022
545.16	37.295
545.50	35.981
545.84	37.040
546.18	36.525
546.52	34.679
546.86	35.945
547.20	35.479
547.54	34.558
547.88	36.685
548.22	34.451
548.56	34.960
548.90	36.119
549.24	34.229
549.58	34.838
549.92	34.310
550.26	35.018
550.60	35.242
550.94	33.831
551.28	35.317
551.62	35.308
551.96	35.564
552.30	36.038
552.64	35.684
552.98	36.006
553.32	35.521
553.66	36.139
554.00	35.328
554.34	36.854
554.68	35.472
555.02	35.491
555.36	35.228
555.69	35.018
556.03	35.261
556.37	34.164
556.71	35.235
557.05	34.750
557.39	33.978
557.73	34.933
558.07	35.219
558.41	35.835
558.75	34.840
559.08	34.043
559.42	35.635
559.76	35.148
560.10	33.792
560.44	35.443
560.78	34.895
561.12	35.331
561.45	36.613
561.79	35.294
562.13	35.415
562.47	34.532
562.81	35.519
563.15	35.261
563.48	35.219
563.82	35.964
564.16	35.864
564.50	35.878
564.84	35.341
565.17	35.547
565.51	37.158
565.85	36.557
566.19	36.273
566.52	37.131
566.86	37.468
567.20	37.360
567.54	38.078
567.88	37.376
568.21	39.197
568.55	37.935
568.89	39.374
569.23	39.432
569.56	39.098
569.90	41.129
570.24	40.789
570.57	40.473
570.91	40.711
571.25	40.118
571.59	39.832
571.92	38.874
572.26	40.036
572.60	39.876
572.93	39.755
573.27	39.060
573.61	40.453
573.95	40.552
574.28	40.307
574.62	39.512
574.96	40.165
575.29	40.182
575.63	38.456
575.97	39.902
576.30	39.303
576.64	40.000
576.98	40.592
577.31	40.378
577.65	40.711
577.98	41.103
578.32	40.772
578.66	39.738
578.99	39.939
579.33	39.420
579.67	39.793
580.00	39.899
580.34	40.025
580.67	39.837
581.01	40.322
581.35	40.439
581.68	41.449
582.02	41.512
582.35	41.170
582.69	40.943
583.02	39.991
583.36	39.768
583.70	40.472
584.03	40.311
584.37	40.006
584.70	40.082
585.04	39.767
585.37	40.467
585.71	40.015
586.04	40.343
586.38	39.771
586.72	39.914
587.05	40.324
587.39	40.453
587.72	41.252
588.06	40.465
588.39	39.960
588.73	39.683
589.06	39.759
589.40	38.956
589.73	39.576
590.07	39.766
590.40	40.209
590.73	39.703
591.07	38.338
591.40	37.979
591.74	39.729
592.07	39.239
592.41	39.134
592.74	39.347
593.08	39.609
593.41	40.198
593.75	39.778
594.08	39.684
594.41	39.592
594.75	39.542
595.08	39.614
595.42	39.787
595.75	39.542
596.09	39.640
596.42	39.148
596.75	39.210
597.09	39.317
597.42	39.702
597.75	39.029
598.09	38.796
598.42	39.034
598.76	38.782
599.09	39.663
599.42	39.257
599.76	39.654
600.09	39.517
600.42	38.855
600.76	39.525
601.09	39.733
601.42	38.935
601.76	39.103
602.09	39.026
602.42	38.416
602.76	39.261
603.09	39.535
603.42	39.883
603.76	39.274
604.09	39.328
604.42	39.129
604.76	39.297
605.09	39.260
605.42	38.646
605.75	39.098
606.09	40.552
606.42	39.116
606.75	39.524
607.09	38.198
607.42	38.547
607.75	39.254
608.08	38.589
608.42	37.414
608.75	39.711
609.08	38.764
609.41	38.680
609.75	38.810
610.08	39.241
610.41	38.937
610.74	38.323
611.07	39.121
611.41	38.298
611.74	39.019
612.07	38.169
612.40	38.676
612.73	39.266
613.07	38.245
613.40	38.074
613.73	38.724
614.06	38.453
614.39	38.297
614.72	37.983
615.06	37.709
615.39	38.319
615.72	37.191
616.05	38.268
616.38	36.923
616.71	37.431
617.05	37.616
617.38	37.461
617.71	37.358
618.04	38.540
618.37	38.398
618.70	37.756
619.03	37.986
619.36	35.239
619.69	38.211
620.03	37.911
620.36	36.767
620.69	37.116
621.02	37.920
621.35	36.515
621.68	36.224
622.01	36.917
622.34	37.031
622.67	35.804
623.00	37.366
623.33	37.957
623.66	37.173
623.99	35.930
624.32	35.741
624.65	35.940
624.99	36.945
625.32	35.861
625.65	37.313
625.98	37.067
626.31	37.988
626.64	37.088
626.97	36.911
627.30	35.289
627.63	36.308
627.96	36.208
628.29	34.875
628.62	34.808
628.95	33.667
629.28	34.980
629.61	35.494
629.94	35.973
630.26	34.387
630.59	34.860
630.92	34.256
631.25	33.333
631.58	35.242
631.91	32.018
632.24	34.289
632.57	35.114
632.90	33.096
633.23	33.647
633.56	32.872
633.89	33.416
634.22	36.296
634.55	33.672
634.88	33.716
635.20	31.923
635.53	34.667
635.86	33.810
636.19	34.023
636.52	34.056
636.85	32.630
637.18	33.585
637.51	33.836
637.83	33.377
638.16	34.106
638.49	30.926
638.82	35.132
639.15	31.750
639.48	33.012
639.81	34.031
640.13	31.746
640.46	31.633
640.79	32.106
641.12	31.905
641.45	31.231
641.77	30.815
642.10	33.017
642.43	31.350
642.76	33.333
643.09	31.502
643.41	30.421
643.74	33.278
644.07	33.662
644.40	31.081
644.73	32.224
645.05	28.523
645.38	32.804
645.71	31.738
646.04	32.675
646.36	33.333
646.69	33.453
647.02	34.783
647.35	33.396
647.67	30.713
648.00	33.209
648.33	32.935
648.66	30.678
648.98	30.318
649.31	33.554
649.64	33.438
649.96	30.956
650.29	32.709
650.62	33.846
650.94	32.593
651.27	32.030
651.60	33.514
651.92	31.469
652.25	32.682
652.58	34.500
652.90	33.791
653.23	31.933
653.56	31.810
653.88	32.131
654.21	30.123
654.54	31.409
654.86	31.239
655.19	33.918
655.52	40.867
655.84	44.911
656.17	51.622
656.49	68.187
656.82	69.250
657.15	50.567
657.47	37.075
657.80	26.900
658.13	25.813
658.45	38.631
658.78	36.530
659.10	35.494
659.43	34.684
659.75	35.027
660.08	34.000
660.41	34.321
660.73	32.044
661.06	31.889
661.38	31.898
661.71	28.337
662.03	31.760
662.36	30.110
662.68	29.646
663.01	31.878
663.33	29.234
663.66	30.465
663.98	28.605
664.31	29.851
664.63	28.111
664.96	27.174
665.28	29.139
665.61	31.602
665.93	30.435
666.26	31.236
666.58	29.306
666.91	31.059
667.23	31.840
667.56	30.095
667.88	27.098
668.21	31.026
668.53	30.733
668.86	32.547
669.18	30.660
669.50	27.845
669.83	30.000
670.15	31.935
670.48	30.861
670.80	31.567
671.13	27.517
671.45	26.712
671.77	32.833
672.10	30.297
672.42	33.708
672.75	34.458
673.07	33.274
673.39	32.477
673.72	31.755
674.04	29.792
674.37	30.932
674.69	28.266
675.01	31.778
675.34	29.730
675.66	29.861
675.98	30.155
676.31	30.275
676.63	28.741
676.95	30.227
677.28	32.706
677.60	32.771
677.92	30.734
678.25	31.072
678.57	31.169
678.89	31.303
679.22	34.228
679.54	29.317
679.86	31.213
680.18	32.816
680.51	31.818
680.83	30.616
681.15	33.000
681.48	34.016
681.80	31.818
682.12	32.661
682.44	32.218
682.77	33.113
683.09	30.435
683.41	30.455
683.73	30.184
684.06	32.080
684.38	31.828
684.70	34.423
685.02	31.120
685.34	32.806
685.67	31.520
685.99	33.092
686.31	33.451
686.63	32.468
686.96	30.989
687.28	32.121
687.60	31.939
687.92	32.525
688.24	31.653
688.56	33.406
688.89	31.473
689.21	32.889
689.53	29.698
689.85	31.163
690.17	32.143
690.49	32.388
690.82	29.854
691.14	30.238
691.46	31.776
691.78	34.685
692.10	33.118
692.42	33.550
692.74	32.479
693.06	29.279
693.39	30.995
693.71	31.448
694.03	31.640
694.35	32.009
694.67	31.566
694.99	27.676
695.31	32.898
695.63	32.750
695.95	28.535
696.27	31.347
696.59	30.833
696.91	28.852
697.23	29.563
697.56	31.931
697.88	35.054
698.20	32.802
698.52	31.529
698.84	31.579
699.16	30.750
699.48	31.328
699.80	31.762
700.12	29.919
700.44	34.174
700.76	26.744
701.08	30.000
701.40	27.711
701.72	33.951
702.04	29.703
702.36	32.107
702.68	31.832
703.00	32.727
703.32	30.205
703.64	28.249
703.96	29.565
704.28	31.595
704.60	33.016
704.91	25.868
705.23	27.575
705.55	29.682
705.87	28.159
706.19	27.778
706.51	28.179
706.83	32.154
707.15	30.841
707.47	32.493
707.79	32.292
708.11	35.750
708.43	32.750
708.74	32.041
709.06	33.803
709.38	31.804
709.70	32.544
710.02	28.344
710.34	33.437
710.66	27.564
710.98	28.477
711.29	30.820
711.61	34.237
711.93	32.248
712.25	35.052
712.57	28.571
712.89	29.104
713.20	31.488
713.52	34.146
713.84	28.669
714.16	32.646
714.48	34.516
714.80	34.936
715.11	31.003
715.43	31.348
715.75	30.667
716.07	29.568
716.39	30.537
716.70	30.627
717.02	25.191
717.34	30.364
717.66	22.566
717.97	26.522
718.29	33.891
718.61	29.134
718.93	29.457
719.24	29.658
719.56	31.325
719.88	28.179
720.20	35.985
720.51	23.372
720.83	29.344
721.15	28.571
721.46	29.032
721.78	30.040
722.10	28.996
722.42	29.046
722.73	29.796
723.05	30.204
723.37	31.780
723.68	30.631
724.00	30.342
724.32	30.222
724.63	29.545
724.95	32.751
725.27	34.101
725.58	31.780
725.90	29.762
726.22	33.591
726.53	29.492
726.85	35.206
727.16	35.849
727.48	28.745
727.80	31.579
728.11	33.475
728.43	28.235
728.74	29.032
729.06	31.200
729.38	35.338
729.69	30.677
730.01	30.385
730.32	34.328
730.64	30.742
730.96	31.698
731.27	33.000
731.59	32.881
731.90	35.350
732.22	31.861
732.53	36.213
732.85	29.787
733.16	34.343
733.48	29.496
733.80	32.971
734.11	31.186
734.43	33.333
734.74	36.061
735.06	33.225
735.37	34.743
735.69	35.690
736.00	34.495
736.32	33.221
736.63	30.282
736.95	36.519
737.26	27.402
737.58	34.899
737.89	33.700
738.21	32.707
738.52	37.449
738.83	34.934
739.15	28.384
739.46	38.189
739.78	31.502
740.09	32.026
740.41	34.783
740.72	32.283
741.04	38.057
741.35	27.660
741.66	25.118
741.98	26.531
742.29	30.693
742.61	30.890
742.92	28.910
743.23	29.167
743.55	31.222
743.86	30.622
744.18	28.708
744.49	25.000
744.80	29.348
745.12	32.620
745.43	26.829
745.74	30.729
746.06	32.683
746.37	37.696
746.68	32.227
747.00	27.128
747.31	30.348
747.62	33.010
747.94	29.665
748.25	31.188
748.56	34.426
748.88	24.607
749.19	35.106
749.50	33.005
749.82	23.585
750.13	32.569
750.44	38.346
750.75	37.687
751.07	37.591
751.38	33.333
751.69	29.412
752.01	32.171
752.32	33.068
752.63	34.387
752.94	32.759
753.26	35.565
753.57	29.864
753.88	34.071
754.19	28.750
754.51	30.992
754.82	27.126
755.13	38.333
755.44	35.484
755.75	38.281
756.07	33.852
756.38	31.321
756.69	32.950
757.00	32.000
757.31	32.680
757.63	33.537
757.94	33.056
758.25	32.603
758.56	31.383
758.87	28.895
759.18	33.333
759.50	29.091
759.81	38.127
760.12	36.452
760.43	31.818
760.74	32.407
761.05	34.769
761.36	32.955
761.67	34.545
761.99	33.673
762.30	25.818
762.61	28.854
762.92	34.389
763.23	25.676
763.54	32.710
763.85	33.475
764.16	32.365
764.47	31.855
764.78	30.403
765.10	36.364
765.41	34.069
765.72	31.111
766.03	31.955
766.34	32.482
766.65	35.060
766.96	31.818
767.27	27.660
767.58	29.885
767.89	26.241
768.20	21.023
768.51	30.220
768.82	34.975
769.13	33.180
769.44	32.618
769.75	29.680
770.06	27.586
770.37	30.288
770.68	37.563
770.99	31.222
771.30	39.216
771.61	28.959
771.92	32.328
772.23	31.527
772.54	29.570
772.85	35.185
773.16	28.652
773.47	36.601
773.78	28.758
774.09	32.934
774.39	22.000
774.70	22.293
775.01	37.241
775.32	31.429
775.63	17.355
775.94	29.771
776.25	34.646
776.56	20.833
776.87	41.346
777.18	23.932
777.48	28.448
777.79	16.522
778.10	19.048
778.41	22.523
778.72	36.508
779.03	30.827
779.34	30.496
779.65	34.247
779.95	29.452
780.26	29.655
780.57	24.390
780.88	26.772
781.19	36.207
781.50	43.411
781.80	29.586
782.11	27.673
782.42	38.462
782.73	33.094
783.04	31.111
783.34	27.083
783.65	25.641
783.96	26.230
784.27	37.931
784.57	29.268
784.88	28.906
785.19	33.000
785.50	33.000
785.81	34.483
786.11	31.034
786.42	25.243
786.73	36.364
787.04	20.408
787.34	21.429
787.65	31.429
787.96	36.283
788.26	36.364
788.57	27.350
788.88	33.594
789.19	30.952
789.49	25.217
789.80	28.571
790.11	33.333
790.41	17.273
790.72	31.522
791.03	38.636
791.33	32.500
791.64	20.000
791.95	25.581
792.25	34.043
792.56	39.326
792.87	26.027
793.17	13.043
793.48	25.333
793.79	31.250
794.09	27.500
794.40	21.698
794.70	27.184
795.01	28.455
795.32	25.641
795.62	24.762
795.93	25.490
796.23	23.585
796.54	26.042
796.85	36.765
797.15	12.676
797.46	30.556
797.76	28.788
798.07	24.419
798.37	22.368
798.68	25.758
798.99	13.580
799.29	25.714
799.60	18.841
799.90	42.667
800.21	4.918
800.51	20.000
800.82	16.949
801.12	36.232
801.43	31.148
801.73	30.159
802.04	16.000
802.34	10.448
802.65	3.846
802.95	25.000
803.26	-3.846
803.56	23.529
803.87	34.783
804.17	24.000
804.48	42.857
804.78	11.111
805.09	17.391
805.39	33.333
805.70	20.370
806.00	8.772
806.30	43.662
806.61	28.571
806.91	20.833
807.22	34.211
807.52	24.000
807.83	29.091
808.13	22.222
808.43	52.941
808.74	14.925
809.04	20.339
809.35	32.692
809.65	37.500
809.95	8.108
810.26	0.000
810.56	20.548
810.86	-2.381
811.17	24.000
811.47	18.367
811.77	2.632
812.08	9.091
812.38	11.321
812.69	40.000
812.99	21.212
813.29	10.526
813.59	22.857
813.90	25.000
814.20	25.641
814.50	13.462
814.81	32.075
815.11	8.511
815.41	33.898
815.72	7.143
816.02	25.490
816.32	16.667
816.62	24.390
816.93	8.108
817.23	14.286
817.53	18.750
817.84	13.043
818.14	25.000
818.44	-5.263
818.74	30.435
819.04	15.000
819.35	32.432
819.65	8.824
819.95	13.889
820.25	26.190
820.56	22.500
820.86	-3.448
821.16	42.500
821.46	55.319
821.76	50.000
822.07	23.256
822.37	-13.514
822.67	-9.375
822.97	66.667
823.27	25.000
823.57	4.000
823.88	0.000
824.18	-10.714
824.48	23.529
824.78	29.032
825.08	60.870
825.38	0.000
825.69	33.333
825.99	23.684
826.29	16.667
826.59	26.667
826.89	28.571
827.19	41.304
827.49	27.500
827.79	17.143
828.09	64.286
828.39	54.545
828.70	51.351
829.00	21.429
829.30	-14.286
829.60	0.000
829.90	21.875
830.20	36.842
830.50	-22.222
830.80	8.696
831.10	22.727
831.40	75.758
831.70	16.129
832.00	19.048
832.30	4.762
832.60	0.000
832.90	34.483
833.20	0.000
833.50	18.182
833.80	18.519
834.10	-15.385
834.40	21.875
834.70	33.333
835.00	-5.263
835.30	96.154
835.60	6.667
835.90	16.129
836.20	13.636
836.50	42.857
836.80	3.846
837.10	7.143
837.40	-33.333
837.70	86.364
838.00	-36.364
838.30	8.696
838.60	-7.692
838.90	68.182
839.19	14.286
839.49	53.333
839.79	-30.769
840.09	8.333
840.39	42.857
840.69	21.429
840.99	46.154
841.29	-42.105
841.59	-60.000
841.88	27.273
842.18	60.000
842.48	31.250
842.78	20.000
843.08	18.519
843.38	-110.000
843.68	39.130
843.97	40.000
844.27	-86.667
844.57	40.000
844.87	27.778
845.17	9.524
845.47	93.333
845.76	23.810
846.06	76.471
846.36	50.000
846.66	21.429
846.96	40.000
847.25	-125.000
847.55	-28.571
847.85	-25.000
848.15	-27.273
848.44	-266.667
848.74	30.000
849.04	59.259
849.34	27.273
849.63	66.667
849.93	-20.000
850.23	38.889
850.53	120.000
850.82	84.615
851.12	-77.778
851.42	66.667
851.71	-19.231
852.01	0.000
852.31	-25.000
852.61	18.182
852.90	-80.000
853.20	5.263
853.50	16.667
853.79	30.435
854.09	45.833
854.39	26.316
854.68	29.167
854.98	32.258
855.28	15.385
855.57	30.000
855.87	-11.111
856.17	44.444
856.46	7.143
856.76	-106.667
857.05	22.222
857.35	72.000
857.65	22.222
857.94	7.692
858.24	41.379
858.53	16.667
858.83	59.259
859.13	63.636
859.42	43.478
859.72	-50.000
860.01	-733.333
860.31	44.000
860.60	52.381
860.90	300.000
861.20	53.333
861.49	0.000
861.79	-20.000
862.08	0.000
862.38	113.333
862.67	40.000
862.97	-66.667
863.26	-16.667
863.56	83.333
863.85	-433.333
864.15	38.889
864.44	-50.000
864.74	64.286
865.03	25.000
865.33	-240.000
865.62	16.667
865.92	33.333
866.21	-133.333
866.51	31.250
866.80	-18.182
867.10	-350.000
867.39	0.000
867.69	0.000
867.98	53.846
868.27	-100.000
868.57	33.333
868.86	72.222
869.16	-15.385
869.45	80.000
869.75	-100.000
870.04	0.000
870.33	-28.571
870.63	38.095
870.92	300.000
871.22	-60.000
871.51	0.000
871.80	33.333
872.10	266.667
>>>>>End Processed Spectral Data<<<<<
