SpectraSuite Data File
++++++++++++++++++++++++++++++++++++
Date: Fri May 15 17:20:48 PDT 2015
User: schluterlab
Dark Spectrum Present: Yes
Reference Spectrum Present: Yes
Number of Sampled Component Spectra: 1
Spectrometers: USB2E3373
Integration Time (usec): 3000 (USB2E3373)
Spectra Averaged: 3 (USB2E3373)
Boxcar Smoothing: 0 (USB2E3373)
Correct for Electrical Dark: No (USB2E3373)
Strobe/Lamp Enabled: No (USB2E3373)
Correct for Detector Non-linearity: No (USB2E3373)
Correct for Stray Light: No (USB2E3373)
Number of Pixels in Processed Spectrum: 2048
>>>>>Begin Processed Spectral Data<<<<<
178.53	0.000
178.91	0.000
179.29	125.000
179.67	-650.000
180.04	-142.857
180.42	150.000
180.80	600.000
181.18	-233.333
181.56	100.000
181.94	150.000
182.31	-900.000
182.69	0.000
183.07	100.000
183.45	180.000
183.83	-16.667
184.20	9.091
184.58	11.111
184.96	-175.000
185.34	-0.000
185.72	150.000
186.09	-7.692
186.47	-500.000
186.85	66.667
187.23	55.556
187.61	-1100.000
187.98	66.667
188.36	88.889
188.74	-133.333
189.12	64.706
189.49	44.444
189.87	0.000
190.25	114.286
190.63	300.000
191.00	-100.000
191.38	26.316
191.76	550.000
192.14	200.000
192.51	500.000
192.89	111.111
193.27	57.143
193.65	-66.667
194.02	72.727
194.40	0.000
194.78	-125.000
195.15	-8.333
195.53	75.000
195.91	-25.000
196.29	200.000
196.66	100.000
197.04	-0.000
197.42	66.667
197.79	-333.333
198.17	-38.462
198.55	700.000
198.92	-300.000
199.30	1600.000
199.68	-20.000
200.05	-133.333
200.43	0.000
200.81	266.667
201.18	400.000
201.56	-100.000
201.94	-100.000
202.31	-200.000
202.69	-160.000
203.07	75.000
203.44	800.000
203.82	0.000
204.19	35.714
204.57	100.000
204.95	-25.000
205.32	100.000
205.70	42.857
206.08	150.000
206.45	233.333
206.83	164.286
207.20	14.286
207.58	-0.000
207.96	-100.000
208.33	-50.000
208.71	200.000
209.08	83.333
209.46	-200.000
209.84	140.000
210.21	-900.000
210.59	28.571
210.96	133.333
211.34	75.000
211.71	106.667
212.09	-71.429
212.46	-1500.000
212.84	0.000
213.22	130.000
213.59	-100.000
213.97	123.077
214.34	172.727
214.72	100.000
215.09	225.000
215.47	7.692
215.84	54.545
216.22	200.000
216.59	-50.000
216.97	250.000
217.34	0.000
217.72	20.000
218.09	150.000
218.47	62.500
218.84	-100.000
219.22	22.222
219.59	40.000
219.97	33.333
220.34	75.000
220.72	85.714
221.09	-150.000
221.47	400.000
221.84	-50.000
222.22	-550.000
222.59	127.273
222.97	41.667
223.34	-133.333
223.72	-14.286
224.09	61.905
224.46	25.000
224.84	166.667
225.21	110.000
225.59	46.667
225.96	100.000
226.34	175.000
226.71	-14.286
227.08	0.000
227.46	0.000
227.83	-200.000
228.21	166.667
228.58	63.636
228.95	75.000
229.33	30.000
229.70	-6.250
230.08	-75.000
230.45	100.000
230.82	114.286
231.20	73.333
231.57	57.143
231.95	71.429
232.32	0.000
232.69	78.571
233.07	300.000
233.44	60.000
233.81	60.000
234.19	133.333
234.56	82.353
234.93	200.000
235.31	325.000
235.68	-120.000
236.05	-30.769
236.43	5.000
236.80	35.294
237.17	28.125
237.55	25.000
237.92	37.037
238.29	27.778
238.67	6.667
239.04	23.529
239.41	-21.951
239.79	10.000
240.16	41.463
240.53	7.895
240.91	-6.522
241.28	19.048
241.65	32.143
242.02	36.986
242.40	31.667
242.77	3.390
243.14	4.545
243.51	18.750
243.89	17.241
244.26	9.195
244.63	9.524
245.00	13.402
245.38	20.619
245.75	2.247
246.12	10.345
246.49	14.876
246.87	11.538
247.24	5.042
247.61	15.789
247.98	21.138
248.36	15.625
248.73	24.342
249.10	14.935
249.47	14.557
249.84	19.608
250.22	15.294
250.59	12.418
250.96	17.840
251.33	15.116
251.70	13.529
252.08	20.305
252.45	13.861
252.82	14.070
253.19	21.659
253.56	17.757
253.94	18.468
254.31	17.391
254.68	17.544
255.05	11.417
255.42	21.397
255.79	18.147
256.16	15.564
256.54	18.657
256.91	14.449
257.28	13.011
257.65	12.734
258.02	15.248
258.39	18.519
258.76	17.949
259.14	17.276
259.51	16.828
259.88	16.838
260.25	16.340
260.62	17.361
260.99	10.508
261.36	15.068
261.73	16.772
262.10	16.717
262.47	15.951
262.85	15.987
263.22	15.692
263.59	17.134
263.96	16.149
264.33	16.364
264.70	13.988
265.07	15.774
265.44	13.881
265.81	14.972
266.18	13.934
266.55	14.653
266.92	12.694
267.29	16.449
267.66	14.578
268.03	17.277
268.40	13.577
268.77	20.053
269.14	15.588
269.51	15.424
269.88	14.713
270.25	11.480
270.62	12.683
270.99	13.811
271.36	13.447
271.73	15.258
272.10	16.058
272.47	13.475
272.84	14.356
273.21	16.009
273.58	15.663
273.95	16.934
274.32	12.471
274.69	13.801
275.06	16.071
275.43	13.379
275.80	13.245
276.17	14.483
276.54	14.775
276.91	15.132
277.28	16.376
277.65	17.769
278.02	15.957
278.39	12.473
278.76	14.046
279.13	10.581
279.50	14.916
279.87	12.527
280.23	13.333
280.60	15.789
280.97	13.737
281.34	14.038
281.71	15.606
282.08	16.155
282.45	12.524
282.82	12.934
283.19	16.634
283.56	13.102
283.92	13.852
284.29	13.269
284.66	14.341
285.03	13.949
285.40	14.178
285.77	12.127
286.14	15.704
286.51	15.498
286.87	12.980
287.24	12.339
287.61	13.228
287.98	15.263
288.35	13.345
288.72	15.587
289.08	12.674
289.45	15.114
289.82	14.336
290.19	13.652
290.56	12.350
290.93	12.963
291.29	12.789
291.66	14.488
292.03	13.557
292.40	12.258
292.77	13.716
293.13	11.526
293.50	12.291
293.87	12.977
294.24	14.065
294.60	12.966
294.97	13.095
295.34	12.577
295.71	13.860
296.08	12.706
296.44	12.091
296.81	13.333
297.18	12.319
297.55	13.957
297.91	14.521
298.28	15.303
298.65	13.704
299.02	11.995
299.38	11.765
299.75	13.103
300.12	12.042
300.48	13.175
300.85	13.688
301.22	13.247
301.59	14.342
301.95	13.924
302.32	13.748
302.69	12.562
303.05	13.861
303.42	12.080
303.79	13.902
304.15	14.934
304.52	10.939
304.89	13.099
305.25	13.075
305.62	12.602
305.99	12.982
306.35	13.179
306.72	12.823
307.09	13.797
307.45	13.548
307.82	13.542
308.19	14.634
308.55	14.722
308.92	13.508
309.29	13.184
309.65	12.487
310.02	12.651
310.38	14.819
310.75	13.770
311.12	12.917
311.48	13.043
311.85	14.136
312.22	13.080
312.58	13.907
312.95	13.447
313.31	13.665
313.68	13.717
314.05	11.837
314.41	14.227
314.78	14.330
315.14	14.697
315.51	15.217
315.87	13.627
316.24	14.863
316.61	14.075
316.97	15.476
317.34	14.551
317.70	13.767
318.07	14.038
318.43	15.392
318.80	14.205
319.16	15.137
319.53	15.575
319.89	13.878
320.26	15.486
320.62	16.550
320.99	14.196
321.35	15.211
321.72	15.576
322.08	15.609
322.45	14.721
322.81	15.815
323.18	14.524
323.54	16.409
323.91	16.261
324.27	15.234
324.64	16.479
325.00	17.609
325.37	18.274
325.73	17.135
326.10	17.166
326.46	17.399
326.83	16.885
327.19	18.221
327.56	19.114
327.92	18.662
328.29	18.304
328.65	18.774
329.01	19.577
329.38	18.986
329.74	19.075
330.11	20.019
330.47	20.130
330.84	19.808
331.20	21.103
331.56	20.463
331.93	21.644
332.29	21.815
332.66	22.172
333.02	21.654
333.38	21.265
333.75	21.612
334.11	20.770
334.48	22.393
334.84	21.429
335.20	22.324
335.57	21.215
335.93	23.126
336.29	21.915
336.66	21.889
337.02	22.119
337.38	21.759
337.75	21.545
338.11	22.453
338.47	23.084
338.84	22.643
339.20	22.212
339.56	22.202
339.93	23.545
340.29	22.752
340.65	22.939
341.02	22.163
341.38	23.451
341.74	23.145
342.11	22.444
342.47	21.708
342.83	23.356
343.20	22.300
343.56	23.826
343.92	22.675
344.28	22.203
344.65	21.503
345.01	21.435
345.37	22.372
345.73	22.259
346.10	23.037
346.46	22.624
346.82	21.031
347.19	21.446
347.55	21.387
347.91	22.249
348.27	21.342
348.63	22.232
349.00	22.642
349.36	22.444
349.72	22.554
350.08	21.148
350.45	21.628
350.81	21.013
351.17	20.684
351.53	22.041
351.89	19.983
352.26	21.280
352.62	22.661
352.98	21.928
353.34	20.290
353.70	22.249
354.07	21.129
354.43	21.377
354.79	21.305
355.15	21.032
355.51	21.123
355.87	22.896
356.24	21.044
356.60	20.614
356.96	23.254
357.32	21.486
357.68	21.579
358.04	21.729
358.40	20.981
358.77	23.126
359.13	22.018
359.49	21.803
359.85	21.685
360.21	21.611
360.57	21.270
360.93	22.088
361.29	21.601
361.66	22.257
362.02	20.758
362.38	21.325
362.74	21.272
363.10	22.047
363.46	21.572
363.82	22.539
364.18	21.550
364.54	21.765
364.90	22.079
365.26	22.125
365.62	23.212
365.98	22.214
366.35	22.651
366.71	22.247
367.07	22.859
367.43	21.783
367.79	21.979
368.15	21.536
368.51	21.850
368.87	21.464
369.23	22.238
369.59	22.449
369.95	22.654
370.31	22.832
370.67	22.463
371.03	22.479
371.39	22.903
371.75	22.711
372.11	22.825
372.47	23.151
372.83	22.569
373.19	23.181
373.55	22.094
373.91	22.966
374.27	22.608
374.63	23.475
374.99	23.191
375.35	23.955
375.71	23.776
376.07	23.244
376.42	23.605
376.78	23.893
377.14	24.171
377.50	23.373
377.86	23.963
378.22	24.378
378.58	23.782
378.94	24.323
379.30	24.392
379.66	25.141
380.02	24.096
380.38	24.772
380.74	24.417
381.09	25.583
381.45	24.832
381.81	24.985
382.17	26.142
382.53	25.484
382.89	25.738
383.25	26.136
383.61	26.098
383.97	25.651
384.32	26.642
384.68	25.944
385.04	25.184
385.40	25.638
385.76	27.421
386.12	27.426
386.48	26.756
386.83	26.696
387.19	27.289
387.55	27.039
387.91	26.895
388.27	26.923
388.62	27.942
388.98	26.765
389.34	27.420
389.70	27.843
390.06	27.250
390.42	27.850
390.77	27.731
391.13	28.058
391.49	28.331
391.85	27.420
392.20	27.746
392.56	28.608
392.92	27.716
393.28	28.007
393.64	27.147
393.99	28.527
394.35	28.147
394.71	27.969
395.07	27.718
395.42	27.262
395.78	27.818
396.14	28.625
396.50	27.711
396.85	28.075
397.21	28.008
397.57	28.401
397.92	27.561
398.28	28.046
398.64	26.988
399.00	28.047
399.35	26.016
399.71	27.743
400.07	27.509
400.42	27.907
400.78	28.047
401.14	27.102
401.49	27.457
401.85	27.971
402.21	28.193
402.57	27.437
402.92	27.478
403.28	28.258
403.63	28.373
403.99	27.551
404.35	27.733
404.70	27.381
405.06	28.026
405.42	28.216
405.77	26.729
406.13	27.998
406.49	27.176
406.84	27.384
407.20	26.791
407.55	26.401
407.91	27.473
408.27	26.769
408.62	26.954
408.98	26.433
409.34	27.509
409.69	27.326
410.05	26.909
410.40	27.160
410.76	27.684
411.11	27.375
411.47	27.285
411.83	26.554
412.18	26.641
412.54	27.029
412.89	27.278
413.25	27.617
413.60	27.143
413.96	26.994
414.31	27.317
414.67	26.812
415.03	27.031
415.38	26.828
415.74	27.296
416.09	27.694
416.45	28.292
416.80	27.826
417.16	28.177
417.51	27.848
417.87	28.162
418.22	28.044
418.58	28.428
418.93	28.276
419.29	27.401
419.64	28.062
420.00	28.841
420.35	28.239
420.71	29.101
421.06	29.036
421.42	28.305
421.77	28.902
422.12	28.490
422.48	29.128
422.83	28.886
423.19	28.894
423.54	28.454
423.90	28.681
424.25	28.530
424.61	29.192
424.96	28.920
425.31	29.289
425.67	30.223
426.02	30.271
426.38	30.808
426.73	30.448
427.09	31.456
427.44	30.059
427.79	30.583
428.15	30.340
428.50	30.224
428.85	29.238
429.21	30.843
429.56	31.105
429.92	29.687
430.27	28.922
430.62	30.005
430.98	29.777
431.33	30.389
431.68	30.403
432.04	29.793
432.39	29.207
432.74	30.006
433.10	31.149
433.45	31.123
433.80	29.774
434.16	30.803
434.51	29.839
434.86	30.139
435.22	30.847
435.57	32.127
435.92	31.317
436.28	30.590
436.63	31.489
436.98	31.112
437.34	30.974
437.69	30.948
438.04	30.997
438.39	30.727
438.75	31.633
439.10	31.409
439.45	31.589
439.81	30.826
440.16	31.710
440.51	32.358
440.86	32.568
441.22	30.882
441.57	32.395
441.92	32.162
442.27	32.151
442.63	32.602
442.98	31.878
443.33	31.330
443.68	31.724
444.03	32.091
444.39	31.776
444.74	32.497
445.09	32.461
445.44	31.681
445.79	32.594
446.15	30.947
446.50	31.503
446.85	32.412
447.20	31.908
447.55	32.143
447.91	32.149
448.26	32.214
448.61	32.527
448.96	32.645
449.31	32.659
449.66	32.811
450.02	32.915
450.37	32.602
450.72	32.932
451.07	33.038
451.42	32.459
451.77	31.585
452.12	31.041
452.47	31.874
452.83	32.627
453.18	32.574
453.53	32.048
453.88	32.665
454.23	33.190
454.58	33.942
454.93	32.925
455.28	31.492
455.63	33.788
455.98	32.592
456.34	33.333
456.69	32.338
457.04	33.207
457.39	33.840
457.74	33.495
458.09	32.313
458.44	31.714
458.79	32.549
459.14	31.522
459.49	33.552
459.84	32.995
460.19	33.617
460.54	32.946
460.89	33.580
461.24	32.919
461.59	33.789
461.94	33.648
462.29	32.992
462.64	34.020
462.99	33.040
463.34	33.102
463.69	33.333
464.04	33.414
464.39	32.990
464.74	32.454
465.09	33.313
465.44	33.641
465.79	32.086
466.14	33.580
466.49	32.662
466.84	32.719
467.19	33.730
467.54	32.695
467.89	33.291
468.24	33.273
468.59	34.286
468.94	33.016
469.29	34.098
469.64	33.561
469.99	34.828
470.34	32.901
470.68	33.855
471.03	34.183
471.38	34.165
471.73	33.403
472.08	33.514
472.43	34.631
472.78	33.585
473.13	34.082
473.48	34.007
473.83	33.811
474.17	34.003
474.52	34.461
474.87	33.818
475.22	33.923
475.57	33.427
475.92	33.955
476.27	33.760
476.61	33.854
476.96	32.794
477.31	34.181
477.66	33.596
478.01	33.970
478.36	33.170
478.70	34.747
479.05	34.560
479.40	33.704
479.75	33.994
480.10	33.794
480.45	34.050
480.79	34.743
481.14	34.119
481.49	33.990
481.84	35.135
482.19	33.442
482.53	33.573
482.88	32.983
483.23	33.589
483.58	33.349
483.92	34.027
484.27	33.090
484.62	33.931
484.97	33.416
485.31	33.418
485.66	32.053
486.01	32.548
486.36	31.864
486.70	31.441
487.05	32.745
487.40	32.575
487.75	32.930
488.09	32.818
488.44	33.735
488.79	33.806
489.13	34.615
489.48	33.989
489.83	34.215
490.17	34.652
490.52	33.995
490.87	33.873
491.22	34.241
491.56	35.057
491.91	33.987
492.26	34.322
492.60	34.405
492.95	34.530
493.30	33.952
493.64	34.578
493.99	35.072
494.34	33.738
494.68	35.238
495.03	33.577
495.37	33.710
495.72	35.740
496.07	34.537
496.41	34.764
496.76	34.316
497.11	34.420
497.45	34.845
497.80	34.107
498.14	34.029
498.49	35.551
498.84	34.581
499.18	35.643
499.53	34.474
499.87	34.630
500.22	33.877
500.56	35.098
500.91	33.936
501.26	33.959
501.60	35.219
501.95	34.498
502.29	35.448
502.64	35.473
502.98	34.632
503.33	34.582
503.67	34.747
504.02	34.262
504.36	35.181
504.71	35.152
505.06	33.820
505.40	34.772
505.75	35.103
506.09	34.161
506.44	35.421
506.78	35.204
507.13	35.574
507.47	34.465
507.82	34.562
508.16	34.707
508.51	35.310
508.85	35.583
509.19	34.859
509.54	34.370
509.88	34.358
510.23	35.449
510.57	35.489
510.92	33.795
511.26	35.516
511.61	35.699
511.95	34.959
512.30	35.754
512.64	34.391
512.98	34.868
513.33	35.534
513.67	35.873
514.02	36.556
514.36	36.457
514.70	36.072
515.05	36.075
515.39	35.478
515.74	36.228
516.08	36.999
516.42	36.514
516.77	35.401
517.11	35.727
517.46	36.445
517.80	36.830
518.14	36.069
518.49	34.615
518.83	35.115
519.17	35.476
519.52	35.524
519.86	35.534
520.20	35.358
520.55	36.398
520.89	35.508
521.23	36.162
521.58	35.521
521.92	36.667
522.26	36.044
522.61	36.039
522.95	37.550
523.29	37.675
523.64	37.230
523.98	37.200
524.32	35.438
524.66	37.132
525.01	36.883
525.35	37.395
525.69	35.623
526.04	35.780
526.38	36.835
526.72	35.579
527.06	37.030
527.41	37.467
527.75	37.198
528.09	37.076
528.43	37.542
528.78	35.842
529.12	37.355
529.46	36.127
529.80	35.402
530.15	36.964
530.49	36.633
530.83	38.304
531.17	37.542
531.51	36.799
531.86	35.350
532.20	36.674
532.54	36.215
532.88	36.550
533.22	36.626
533.57	36.435
533.91	36.292
534.25	36.719
534.59	36.947
534.93	34.865
535.27	35.025
535.62	35.710
535.96	36.008
536.30	36.214
536.64	36.527
536.98	36.516
537.32	37.767
537.66	36.676
538.01	37.692
538.35	36.061
538.69	35.752
539.03	35.748
539.37	36.137
539.71	35.310
540.05	36.388
540.39	36.981
540.73	36.611
541.07	37.155
541.42	36.828
541.76	36.683
542.10	36.958
542.44	36.206
542.78	34.825
543.12	36.401
543.46	36.300
543.80	37.266
544.14	35.648
544.48	35.376
544.82	35.680
545.16	37.090
545.50	35.981
545.84	37.465
546.18	37.163
546.52	36.842
546.86	36.592
547.20	36.195
547.54	35.194
547.88	36.821
548.22	36.818
548.56	35.224
548.90	36.388
549.24	34.366
549.58	36.037
549.92	35.096
550.26	36.044
550.60	36.357
550.94	37.192
551.28	36.708
551.62	37.231
551.96	36.917
552.30	36.550
552.64	35.402
552.98	35.373
553.32	36.091
553.66	35.849
554.00	36.204
554.34	37.297
554.68	36.209
555.02	37.426
555.36	35.976
555.69	36.410
556.03	36.545
556.37	34.306
556.71	36.606
557.05	35.570
557.39	36.580
557.73	36.807
558.07	35.445
558.41	36.753
558.75	37.412
559.08	36.407
559.42	36.508
559.76	36.429
560.10	35.703
560.44	35.517
560.78	36.224
561.12	36.178
561.45	36.613
561.79	35.924
562.13	36.125
562.47	36.547
562.81	35.879
563.15	36.460
563.48	36.775
563.82	36.239
564.16	36.212
564.50	35.135
564.84	36.680
565.17	35.882
565.51	35.929
565.85	36.008
566.19	36.605
566.52	36.126
566.86	37.082
567.20	34.994
567.54	35.097
567.88	37.786
568.21	36.086
568.55	35.109
568.89	34.805
569.23	34.665
569.56	33.625
569.90	33.983
570.24	33.420
570.57	34.182
570.91	34.054
571.25	33.180
571.59	32.918
571.92	32.711
572.26	33.122
572.60	33.147
572.93	33.229
573.27	32.696
573.61	32.488
573.95	32.878
574.28	32.468
574.62	32.240
574.96	31.987
575.29	31.878
575.63	31.018
575.97	32.014
576.30	32.527
576.64	32.397
576.98	32.510
577.31	31.973
577.65	32.248
577.98	32.206
578.32	32.117
578.66	31.464
578.99	31.212
579.33	32.026
579.67	31.845
580.00	31.722
580.34	32.090
580.67	31.503
581.01	31.916
581.35	31.891
581.68	31.785
582.02	31.547
582.35	31.588
582.69	32.061
583.02	31.809
583.36	32.363
583.70	32.632
584.03	32.611
584.37	32.891
584.70	32.967
585.04	31.891
585.37	32.113
585.71	32.066
586.04	31.694
586.38	31.768
586.72	32.224
587.05	32.958
587.39	32.429
587.72	33.160
588.06	32.521
588.39	32.954
588.73	32.112
589.06	32.648
589.40	33.011
589.73	33.479
590.07	33.912
590.40	34.017
590.73	34.061
591.07	33.927
591.40	33.927
591.74	33.439
592.07	34.740
592.41	34.320
592.74	32.895
593.08	32.239
593.41	32.191
593.75	32.221
594.08	32.578
594.41	33.115
594.75	33.244
595.08	32.917
595.42	33.493
595.75	33.233
596.09	33.034
596.42	33.485
596.75	33.837
597.09	33.895
597.42	33.695
597.75	33.852
598.09	33.228
598.42	33.574
598.76	33.462
599.09	32.572
599.42	33.119
599.76	32.807
600.09	33.032
600.42	32.449
600.76	32.392
601.09	33.092
601.42	32.158
601.76	32.632
602.09	32.797
602.42	34.204
602.76	32.980
603.09	33.887
603.42	34.030
603.76	32.540
604.09	32.928
604.42	33.545
604.76	33.378
605.09	34.415
605.42	33.770
605.75	33.231
606.09	33.079
606.42	33.111
606.75	33.680
607.09	32.923
607.42	32.743
607.75	32.371
608.08	32.749
608.42	32.481
608.75	33.590
609.08	33.881
609.41	33.147
609.75	33.972
610.08	33.600
610.41	33.092
610.74	32.960
611.07	34.470
611.41	33.679
611.74	34.222
612.07	33.940
612.40	34.847
612.73	34.746
613.07	33.971
613.40	34.409
613.73	33.408
614.06	34.057
614.39	33.728
614.72	33.501
615.06	34.302
615.39	32.806
615.72	33.100
616.05	34.134
616.38	33.219
616.71	34.373
617.05	34.466
617.38	34.192
617.71	35.094
618.04	34.857
618.37	35.183
618.70	34.653
619.03	34.653
619.36	34.515
619.69	35.027
620.03	35.573
620.36	34.835
620.69	34.618
621.02	35.398
621.35	35.685
621.68	37.075
622.01	34.750
622.34	35.275
622.67	36.041
623.00	34.916
623.33	35.747
623.66	34.256
623.99	35.098
624.32	35.361
624.65	34.511
624.99	35.967
625.32	34.344
625.65	36.214
625.98	35.939
626.31	36.492
626.64	36.395
626.97	36.562
627.30	35.989
627.63	37.955
627.96	36.478
628.29	36.355
628.62	37.856
628.95	36.874
629.28	36.492
629.61	36.590
629.94	36.657
630.26	37.055
630.59	37.981
630.92	36.718
631.25	35.487
631.58	37.885
631.91	37.061
632.24	38.647
632.57	37.159
632.90	36.892
633.23	38.941
633.56	40.050
633.89	36.868
634.22	39.383
634.55	40.788
634.88	39.591
635.20	38.718
635.53	38.400
635.86	38.492
636.19	38.163
636.52	38.393
636.85	37.965
637.18	36.352
637.51	37.736
637.83	37.057
638.16	41.064
638.49	38.965
638.82	39.211
639.15	39.484
639.48	39.615
639.81	38.494
640.13	39.105
640.46	40.525
640.79	37.555
641.12	37.223
641.45	40.390
641.77	39.259
642.10	40.126
642.43	40.836
642.76	39.604
643.09	41.357
643.41	39.968
643.74	40.198
644.07	39.080
644.40	39.020
644.73	41.506
645.05	40.604
645.38	41.799
645.71	41.135
646.04	41.831
646.36	41.312
646.69	41.367
647.02	41.021
647.35	41.045
647.67	38.940
648.00	41.231
648.33	38.908
648.66	38.136
648.98	36.348
649.31	40.331
649.64	36.421
649.96	39.222
650.29	39.182
650.62	38.291
650.94	39.815
651.27	39.851
651.60	40.180
651.92	40.909
652.25	35.879
652.58	37.167
652.90	39.623
653.23	38.992
653.56	37.225
653.88	37.629
654.21	37.653
654.54	38.710
654.86	37.521
655.19	37.573
655.52	34.056
655.84	28.868
656.17	32.300
656.49	43.315
656.82	45.698
657.15	35.103
657.47	26.539
657.80	19.845
658.13	19.846
658.45	31.430
658.78	32.141
659.10	32.379
659.43	33.165
659.75	34.780
660.08	35.931
660.41	38.202
660.73	37.707
661.06	40.728
661.38	41.096
661.71	40.657
662.03	40.987
662.36	40.879
662.68	40.265
663.01	42.140
663.33	40.139
663.66	40.233
663.98	38.837
664.31	42.217
664.63	42.166
664.96	40.435
665.28	38.852
665.61	39.827
665.93	41.304
666.26	41.649
666.58	36.018
666.91	42.588
667.23	40.094
667.56	40.284
667.88	40.767
668.21	40.811
668.53	44.681
668.86	41.981
669.18	39.623
669.50	41.162
669.83	39.767
670.15	41.492
670.48	43.780
670.80	39.631
671.13	39.150
671.45	33.790
671.77	38.627
672.10	37.624
672.42	36.330
672.75	39.609
673.07	38.819
673.39	39.266
673.72	35.700
674.04	38.333
674.37	39.407
674.69	38.116
675.01	38.000
675.34	37.613
675.66	43.981
675.98	39.024
676.31	40.367
676.63	37.292
676.95	36.136
677.28	39.765
677.60	38.554
677.92	37.844
678.25	40.481
678.57	38.528
678.89	35.294
679.22	39.821
679.54	35.341
679.86	37.376
680.18	36.893
680.51	35.606
680.83	37.773
681.15	38.000
681.48	38.115
681.80	36.157
682.12	34.677
682.44	38.494
682.77	39.073
683.09	38.673
683.41	40.000
683.73	39.862
684.06	37.389
684.38	34.194
684.70	37.908
685.02	35.685
685.34	37.747
685.67	33.959
685.99	34.358
686.31	35.221
686.63	35.065
686.96	34.411
687.28	35.556
687.60	35.741
687.92	40.202
688.24	36.492
688.56	38.210
688.89	40.179
689.21	38.889
689.53	38.051
689.85	34.651
690.17	36.607
690.49	36.643
690.82	37.136
691.14	36.667
691.46	40.888
691.78	36.712
692.10	36.989
692.42	36.580
692.74	36.538
693.06	34.009
693.39	37.104
693.71	35.294
694.03	32.564
694.35	36.682
694.67	40.152
694.99	37.859
695.31	39.426
695.63	41.000
695.95	37.374
696.27	33.161
696.59	38.333
696.91	37.815
697.23	37.018
697.56	38.861
697.88	37.204
698.20	35.535
698.52	38.824
698.84	33.014
699.16	36.750
699.48	38.095
699.80	36.476
700.12	39.353
700.44	37.815
700.76	38.081
701.08	37.879
701.40	37.651
701.72	38.889
702.04	39.274
702.36	40.134
702.68	37.838
703.00	39.091
703.32	37.537
703.64	35.028
703.96	34.783
704.28	38.037
704.60	38.730
704.91	36.593
705.23	39.203
705.55	38.869
705.87	43.321
706.19	41.852
706.51	38.488
706.83	39.228
707.15	35.826
707.47	37.815
707.79	33.594
708.11	33.750
708.43	37.000
708.74	33.333
709.06	36.620
709.38	37.920
709.70	36.391
710.02	37.580
710.34	37.771
710.66	34.936
710.98	35.762
711.29	39.016
711.61	40.000
711.93	38.762
712.25	40.893
712.57	38.828
712.89	34.328
713.20	35.986
713.52	36.585
713.84	36.519
714.16	37.113
714.48	35.806
714.80	37.821
715.11	34.347
715.43	32.602
715.75	37.667
716.07	33.887
716.39	37.248
716.70	37.269
717.02	34.733
717.34	41.296
717.66	38.053
717.97	36.522
718.29	35.146
718.61	38.189
718.93	38.372
719.24	36.882
719.56	35.341
719.88	32.990
720.20	35.227
720.51	31.801
720.83	35.521
721.15	38.655
721.46	35.081
721.78	30.435
722.10	33.457
722.42	36.515
722.73	35.510
723.05	40.816
723.37	42.797
723.68	46.847
724.00	34.615
724.32	34.667
724.63	37.273
724.95	38.428
725.27	38.710
725.58	39.407
725.90	34.524
726.22	39.768
726.53	31.186
726.85	36.330
727.16	40.377
727.48	38.057
727.80	31.579
728.11	30.932
728.43	35.686
728.74	28.629
729.06	37.200
729.38	36.466
729.69	33.068
730.01	30.385
730.32	37.687
730.64	33.216
730.96	35.094
731.27	35.667
731.59	37.288
731.90	30.255
732.22	38.486
732.53	36.877
732.85	34.043
733.16	38.384
733.48	32.014
733.80	32.609
734.11	35.254
734.43	35.739
734.74	33.636
735.06	30.945
735.37	31.420
735.69	34.680
736.00	33.101
736.32	33.557
736.63	35.563
736.95	36.177
737.26	32.384
737.58	30.872
737.89	38.095
738.21	32.331
738.52	41.152
738.83	36.245
739.15	31.441
739.46	38.189
739.78	28.938
740.09	33.007
740.41	29.348
740.72	34.252
741.04	34.413
741.35	36.170
741.66	32.701
741.98	36.224
742.29	33.168
742.61	39.791
742.92	32.701
743.23	32.870
743.55	37.557
743.86	32.536
744.18	35.407
744.49	38.298
744.80	30.978
745.12	44.385
745.43	33.659
745.74	35.938
746.06	32.683
746.37	37.173
746.68	35.071
747.00	34.043
747.31	34.328
747.62	31.068
747.94	38.756
748.25	38.119
748.56	36.612
748.88	31.414
749.19	35.638
749.50	34.483
749.82	28.302
750.13	33.028
750.44	33.835
750.75	37.313
751.07	38.686
751.38	33.716
751.69	27.059
752.01	34.496
752.32	33.068
752.63	32.411
752.94	30.172
753.26	37.238
753.57	34.842
753.88	38.496
754.19	36.250
754.51	29.339
754.82	34.008
755.13	38.333
755.44	34.274
755.75	35.156
756.07	35.798
756.38	31.321
756.69	30.268
757.00	30.667
757.31	32.680
757.63	26.524
757.94	30.278
758.25	27.397
758.56	27.394
758.87	31.161
759.18	29.907
759.50	33.091
759.81	29.431
760.12	30.645
760.43	33.333
760.74	31.173
761.05	29.846
761.36	29.545
761.67	28.788
761.99	36.395
762.30	26.182
762.61	34.783
762.92	35.747
763.23	32.432
763.54	31.308
763.85	40.678
764.16	31.535
764.47	31.855
764.78	32.234
765.10	37.037
765.41	30.284
765.72	31.111
766.03	27.068
766.34	33.942
766.65	33.466
766.96	34.343
767.27	30.851
767.58	28.736
767.89	31.206
768.20	34.091
768.51	37.363
768.82	35.468
769.13	30.876
769.44	30.472
769.75	30.594
770.06	34.483
770.37	33.173
770.68	37.056
770.99	30.317
771.30	32.843
771.61	32.127
771.92	33.190
772.23	33.990
772.54	33.333
772.85	38.272
773.16	30.899
773.47	41.830
773.78	39.216
774.09	32.335
774.39	38.667
774.70	36.943
775.01	42.069
775.32	30.000
775.63	32.231
775.94	33.588
776.25	27.559
776.56	37.500
776.87	38.462
777.18	32.479
777.48	38.793
777.79	40.000
778.10	29.524
778.41	36.937
778.72	35.714
779.03	36.090
779.34	40.426
779.65	33.562
779.95	28.082
780.26	33.103
780.57	33.333
780.88	37.008
781.19	30.172
781.50	28.682
781.80	31.953
782.11	32.704
782.42	39.231
782.73	38.849
783.04	30.370
783.34	34.028
783.65	28.205
783.96	38.525
784.27	38.621
784.57	35.772
784.88	36.719
785.19	38.000
785.50	34.000
785.81	35.345
786.11	30.172
786.42	43.689
786.73	44.545
787.04	36.735
787.34	36.607
787.65	35.238
787.96	33.628
788.26	38.182
788.57	36.752
788.88	27.344
789.19	29.365
789.49	28.696
789.80	32.653
790.11	30.303
790.41	19.091
790.72	32.609
791.03	29.545
791.33	38.750
791.64	30.000
791.95	25.581
792.25	26.596
792.56	38.202
792.87	42.466
793.17	34.783
793.48	26.667
793.79	28.750
794.09	47.500
794.40	31.132
794.70	36.893
795.01	29.268
795.32	33.333
795.62	28.571
795.93	37.255
796.23	28.302
796.54	33.333
796.85	51.471
797.15	35.211
797.46	59.722
797.76	36.364
798.07	29.070
798.37	28.947
798.68	39.394
798.99	38.272
799.29	20.000
799.60	33.333
799.90	41.333
800.21	31.148
800.51	40.000
800.82	33.898
801.12	43.478
801.43	57.377
801.73	26.984
802.04	36.000
802.34	34.328
802.65	38.462
802.95	25.000
803.26	38.462
803.56	35.294
803.87	19.565
804.17	33.333
804.48	39.683
804.78	42.593
805.09	26.087
805.39	37.778
805.70	46.296
806.00	21.053
806.30	35.211
806.61	37.143
806.91	11.111
807.22	40.789
807.52	52.000
807.83	23.636
808.13	37.500
808.43	42.647
808.74	22.388
809.04	32.203
809.35	21.154
809.65	46.875
809.95	16.216
810.26	27.273
810.56	32.877
810.86	21.429
811.17	46.000
811.47	38.776
811.77	23.684
812.08	56.818
812.38	18.868
812.69	17.500
812.99	21.212
813.29	50.000
813.59	25.714
813.90	22.727
814.20	-2.564
814.50	25.000
814.81	54.717
815.11	23.404
815.41	44.068
815.72	23.810
816.02	41.176
816.32	47.917
816.62	34.146
816.93	29.730
817.23	42.857
817.53	66.667
817.84	41.304
818.14	40.385
818.44	42.105
818.74	47.826
819.04	35.000
819.35	48.649
819.65	64.706
819.95	47.222
820.25	28.571
820.56	67.500
820.86	-6.897
821.16	62.500
821.46	55.319
821.76	45.000
822.07	34.884
822.37	37.838
822.67	62.500
822.97	54.762
823.27	42.857
823.57	48.000
823.88	7.407
824.18	21.429
824.48	47.059
824.78	58.065
825.08	52.174
825.38	57.576
825.69	8.333
825.99	21.053
826.29	5.556
826.59	26.667
826.89	-9.524
827.19	47.826
827.49	22.500
827.79	62.857
828.09	14.286
828.39	30.303
828.70	75.676
829.00	53.571
829.30	0.000
829.60	46.667
829.90	62.500
830.20	50.000
830.50	18.519
830.80	56.522
831.10	68.182
831.40	72.727
831.70	41.935
832.00	76.190
832.30	38.095
832.60	-41.667
832.90	34.483
833.20	5.000
833.50	51.515
833.80	51.852
834.10	38.462
834.40	15.625
834.70	44.444
835.00	105.263
835.30	57.692
835.60	100.000
835.90	67.742
836.20	59.091
836.50	57.143
836.80	-7.692
837.10	14.286
837.40	0.000
837.70	59.091
838.00	45.455
838.30	-13.043
838.60	23.077
838.90	63.636
839.19	39.286
839.49	33.333
839.79	115.385
840.09	16.667
840.39	53.571
840.69	50.000
840.99	26.923
841.29	57.895
841.59	40.000
841.88	100.000
842.18	30.000
842.48	93.750
842.78	66.667
843.08	14.815
843.38	0.000
843.68	56.522
843.97	60.000
844.27	-20.000
844.57	35.000
844.87	66.667
845.17	33.333
845.47	106.667
845.76	28.571
846.06	52.941
846.36	10.000
846.66	-14.286
846.96	113.333
847.25	112.500
847.55	178.571
847.85	162.500
848.15	40.909
848.44	-366.667
848.74	55.000
849.04	55.556
849.34	72.727
849.63	-116.667
849.93	-80.000
850.23	83.333
850.53	130.000
850.82	15.385
851.12	55.556
851.42	86.667
851.71	34.615
852.01	50.000
852.31	-100.000
852.61	27.273
852.90	-20.000
853.20	68.421
853.50	8.333
853.79	34.783
854.09	54.167
854.39	47.368
854.68	45.833
854.98	61.290
855.28	46.154
855.57	60.000
855.87	27.778
856.17	85.185
856.46	85.714
856.76	13.333
857.05	133.333
857.35	68.000
857.65	38.889
857.94	38.462
858.24	55.172
858.53	50.000
858.83	44.444
859.13	104.545
859.42	43.478
859.72	150.000
860.01	-366.667
860.31	60.000
860.60	42.857
860.90	-100.000
861.20	13.333
861.49	-500.000
861.79	80.000
862.08	35.000
862.38	66.667
862.67	-180.000
862.97	116.667
863.26	66.667
863.56	55.556
863.85	-200.000
864.15	100.000
864.44	60.000
864.74	107.143
865.03	175.000
865.33	40.000
865.62	300.000
865.92	-8.333
866.21	16.667
866.51	68.750
866.80	36.364
867.10	-250.000
867.39	83.333
867.69	0.000
867.98	115.385
868.27	-100.000
868.57	60.000
868.86	94.444
869.16	-76.923
869.45	93.333
869.75	200.000
870.04	0.000
870.33	171.429
870.63	66.667
870.92	-166.667
871.22	-220.000
871.51	1400.000
871.80	233.333
872.10	166.667
>>>>>End Processed Spectral Data<<<<<
