SpectraSuite Data File
++++++++++++++++++++++++++++++++++++
Date: Fri May 15 17:11:02 PDT 2015
User: schluterlab
Dark Spectrum Present: Yes
Reference Spectrum Present: Yes
Number of Sampled Component Spectra: 1
Spectrometers: USB2E3373
Integration Time (usec): 3000 (USB2E3373)
Spectra Averaged: 3 (USB2E3373)
Boxcar Smoothing: 0 (USB2E3373)
Correct for Electrical Dark: No (USB2E3373)
Strobe/Lamp Enabled: No (USB2E3373)
Correct for Detector Non-linearity: No (USB2E3373)
Correct for Stray Light: No (USB2E3373)
Number of Pixels in Processed Spectrum: 2048
>>>>>Begin Processed Spectral Data<<<<<
178.53	0.000
178.91	0.000
179.29	137.500
179.67	0.000
180.04	-14.286
180.42	275.000
180.80	400.000
181.18	-133.333
181.56	550.000
181.94	50.000
182.31	-0.000
182.69	220.000
183.07	66.667
183.45	40.000
183.83	-150.000
184.20	90.909
184.58	22.222
184.96	-125.000
185.34	66.667
185.72	-350.000
186.09	61.538
186.47	0.000
186.85	-0.000
187.23	33.333
187.61	-500.000
187.98	100.000
188.36	77.778
188.74	200.000
189.12	100.000
189.49	50.000
189.87	0.000
190.25	64.286
190.63	600.000
191.00	-33.333
191.38	73.684
191.76	350.000
192.14	-50.000
192.51	300.000
192.89	-11.111
193.27	85.714
193.65	-16.667
194.02	136.364
194.40	30.000
194.78	-87.500
195.15	58.333
195.53	50.000
195.91	100.000
196.29	-50.000
196.66	76.923
197.04	57.143
197.42	-55.556
197.79	-433.333
198.17	-123.077
198.55	300.000
198.92	133.333
199.30	700.000
199.68	100.000
200.05	-100.000
200.43	0.000
200.81	200.000
201.18	33.333
201.56	1300.000
201.94	150.000
202.31	-233.333
202.69	-160.000
203.07	-150.000
203.44	1300.000
203.82	0.000
204.19	114.286
204.57	-300.000
204.95	12.500
205.32	80.000
205.70	200.000
206.08	300.000
206.45	122.222
206.83	128.571
207.20	-42.857
207.58	800.000
207.96	-266.667
208.33	60.000
208.71	-150.000
209.08	-66.667
209.46	-900.000
209.84	200.000
210.21	0.000
210.59	14.286
210.96	216.667
211.34	200.000
211.71	140.000
212.09	-114.286
212.46	-1500.000
212.84	0.000
213.22	60.000
213.59	-150.000
213.97	115.385
214.34	100.000
214.72	50.000
215.09	100.000
215.47	38.462
215.84	9.091
216.22	-100.000
216.59	75.000
216.97	550.000
217.34	100.000
217.72	-80.000
218.09	25.000
218.47	62.500
218.84	200.000
219.22	-11.111
219.59	20.000
219.97	66.667
220.34	25.000
220.72	114.286
221.09	75.000
221.47	600.000
221.84	-150.000
222.22	-300.000
222.59	72.727
222.97	91.667
223.34	233.333
223.72	7.143
224.09	52.381
224.46	60.714
224.84	466.667
225.21	110.000
225.59	66.667
225.96	-300.000
226.34	-25.000
226.71	71.429
227.08	166.667
227.46	137.500
227.83	-200.000
228.21	100.000
228.58	109.091
228.95	25.000
229.33	30.000
229.70	62.500
230.08	-100.000
230.45	-42.857
230.82	271.429
231.20	60.000
231.57	100.000
231.95	185.714
232.32	10.000
232.69	85.714
233.07	300.000
233.44	0.000
233.81	130.000
234.19	-11.111
234.56	52.941
234.93	-450.000
235.31	375.000
235.68	140.000
236.05	130.769
236.43	75.000
236.80	58.824
237.17	78.125
237.55	40.000
237.92	33.333
238.29	61.111
238.67	93.333
239.04	100.000
239.41	29.268
239.79	90.000
240.16	100.000
240.53	42.105
240.91	63.043
241.28	68.254
241.65	87.500
242.02	73.973
242.40	93.333
242.77	77.966
243.14	66.667
243.51	68.750
243.89	74.713
244.26	60.920
244.63	75.000
245.00	70.103
245.38	67.010
245.75	75.281
246.12	58.621
246.49	54.545
246.87	74.038
247.24	65.546
247.61	64.035
247.98	76.423
248.36	62.500
248.73	65.789
249.10	61.039
249.47	60.759
249.84	69.935
250.22	75.882
250.59	73.203
250.96	62.441
251.33	70.349
251.70	74.706
252.08	72.081
252.45	67.822
252.82	71.859
253.19	68.664
253.56	71.495
253.94	71.622
254.31	67.826
254.68	71.930
255.05	66.142
255.42	69.869
255.79	70.656
256.16	69.650
256.54	66.418
256.91	68.441
257.28	62.825
257.65	64.794
258.02	66.312
258.39	69.024
258.76	72.527
259.14	69.767
259.51	70.550
259.88	68.729
260.25	70.261
260.62	73.958
260.99	67.458
261.36	69.521
261.73	70.570
262.10	68.693
262.47	68.098
262.85	72.100
263.22	69.231
263.59	69.470
263.96	70.497
264.33	71.212
264.70	71.429
265.07	69.940
265.44	71.105
265.81	68.079
266.18	68.579
266.55	67.352
266.92	65.544
267.29	65.796
267.66	66.496
268.03	69.895
268.40	65.535
268.77	73.529
269.14	70.024
269.51	72.237
269.88	72.319
270.25	63.010
270.62	64.878
270.99	67.263
271.36	64.059
271.73	67.606
272.10	68.856
272.47	69.267
272.84	70.297
273.21	65.661
273.58	68.916
273.95	66.819
274.32	66.744
274.69	64.932
275.06	68.080
275.43	64.853
275.80	66.004
276.17	65.287
276.54	60.814
276.91	64.035
277.28	65.721
277.65	63.636
278.02	62.128
278.39	69.803
278.76	66.667
279.13	61.411
279.50	65.336
279.87	65.011
280.23	67.527
280.60	63.158
280.97	67.071
281.34	64.808
281.71	66.735
282.08	64.622
282.45	61.057
282.82	62.741
283.19	62.863
283.56	62.428
283.92	62.998
284.29	60.577
284.66	60.465
285.03	62.672
285.40	62.949
285.77	60.633
286.14	61.011
286.51	62.731
286.87	58.318
287.24	63.168
287.61	59.965
287.98	61.930
288.35	60.312
288.72	59.895
289.08	60.590
289.45	58.524
289.82	55.944
290.19	56.143
290.56	58.319
290.93	57.071
291.29	51.772
291.66	56.693
292.03	53.110
292.40	56.452
292.77	53.429
293.13	50.649
293.50	51.138
293.87	51.908
294.24	51.159
294.60	50.373
294.97	50.298
295.34	50.613
295.71	49.031
296.08	48.879
296.44	49.360
296.81	48.611
297.18	48.116
297.55	48.916
297.91	47.397
298.28	46.702
298.65	47.761
299.02	45.418
299.38	45.554
299.75	47.724
300.12	45.550
300.48	45.850
300.85	44.360
301.22	43.247
301.59	45.000
301.95	44.557
302.32	43.320
302.69	43.532
303.05	44.802
303.42	43.462
303.79	43.692
304.15	42.652
304.52	41.260
304.89	41.053
305.25	42.010
305.62	42.357
305.99	41.871
306.35	43.121
306.72	41.845
307.09	40.821
307.45	42.595
307.82	39.815
308.19	42.393
308.55	39.149
308.92	41.721
309.29	40.223
309.65	39.935
310.02	40.924
310.38	41.603
310.75	42.186
311.12	41.765
311.48	40.615
311.85	39.895
312.22	39.662
312.58	40.658
312.95	40.235
313.31	38.509
313.68	39.267
314.05	39.184
314.41	39.588
314.78	39.794
315.14	39.260
315.51	39.855
315.87	39.242
316.24	40.445
316.61	40.846
316.97	38.790
317.34	39.453
317.70	38.910
318.07	40.673
318.43	38.922
318.80	39.299
319.16	38.867
319.53	39.791
319.89	38.681
320.26	38.462
320.62	41.324
320.99	37.891
321.35	37.616
321.72	39.564
322.08	39.074
322.45	38.782
322.81	37.525
323.18	37.390
323.54	38.803
323.91	38.462
324.27	39.453
324.64	37.734
325.00	38.230
325.37	39.669
325.73	37.625
326.10	38.329
326.46	38.655
326.83	38.233
327.19	38.274
327.56	37.619
327.92	38.028
328.29	37.589
328.65	38.113
329.01	38.419
329.38	37.419
329.74	36.827
330.11	36.423
330.47	36.735
330.84	35.865
331.20	38.878
331.56	36.019
331.93	37.991
332.29	37.122
332.66	37.104
333.02	36.059
333.38	35.197
333.75	38.004
334.11	35.900
334.48	35.902
334.84	36.264
335.20	36.871
335.57	35.630
335.93	36.134
336.29	37.017
336.66	36.331
337.02	36.245
337.38	35.278
337.75	34.818
338.11	36.970
338.47	36.588
338.84	36.229
339.20	34.826
339.56	34.771
339.93	35.900
340.29	36.606
340.65	34.946
341.02	35.727
341.38	35.221
341.74	34.541
342.11	34.835
342.47	35.854
342.83	35.900
343.20	35.192
343.56	34.870
343.92	35.961
344.28	35.098
344.65	35.320
345.01	35.782
345.37	34.567
345.73	34.477
346.10	35.116
346.46	35.660
346.82	35.843
347.19	34.580
347.55	34.837
347.91	35.841
348.27	33.872
348.63	37.479
349.00	34.208
349.36	34.165
349.72	34.992
350.08	33.689
350.45	34.158
350.81	33.555
351.17	32.736
351.53	33.878
351.89	34.021
352.26	33.680
352.62	33.710
352.98	32.851
353.34	33.092
353.70	35.518
354.07	32.419
354.43	33.227
354.79	34.847
355.15	34.048
355.51	34.177
355.87	33.091
356.24	33.768
356.60	33.306
356.96	32.857
357.32	34.265
357.68	32.291
358.04	33.199
358.40	33.682
358.77	32.616
359.13	32.666
359.49	32.049
359.85	32.527
360.21	32.935
360.57	31.523
360.93	32.829
361.29	31.269
361.66	32.994
362.02	33.106
362.38	32.978
362.74	32.324
363.10	32.882
363.46	30.838
363.82	32.607
364.18	30.849
364.54	32.132
364.90	32.115
365.26	32.169
365.62	33.650
365.98	33.284
366.35	32.993
366.71	32.373
367.07	33.672
367.43	31.704
367.79	31.943
368.15	31.443
368.51	32.702
368.87	32.448
369.23	32.058
369.59	32.289
369.95	32.845
370.31	32.587
370.67	32.090
371.03	31.143
371.39	30.708
371.75	31.502
372.11	31.098
372.47	33.136
372.83	32.931
373.19	32.097
373.55	31.119
373.91	31.677
374.27	31.892
374.63	32.017
374.99	31.489
375.35	31.755
375.71	31.399
376.07	32.093
376.42	31.156
376.78	32.416
377.14	31.821
377.50	31.806
377.86	31.392
378.22	31.398
378.58	31.795
378.94	31.632
379.30	31.878
379.66	31.599
380.02	30.533
380.38	30.250
380.74	30.341
381.09	32.945
381.45	31.254
381.81	31.339
382.17	32.487
382.53	31.168
382.89	31.701
383.25	30.616
383.61	31.585
383.97	30.413
384.32	29.831
384.68	30.712
385.04	30.576
385.40	29.994
385.76	32.138
386.12	31.953
386.48	30.779
386.83	31.452
387.19	31.197
387.55	31.619
387.91	31.601
388.27	31.258
388.62	31.026
388.98	32.167
389.34	31.980
389.70	32.070
390.06	30.585
390.42	30.635
390.77	31.655
391.13	30.706
391.49	30.983
391.85	31.319
392.20	32.392
392.56	31.532
392.92	31.885
393.28	32.252
393.64	30.811
393.99	31.599
394.35	31.436
394.71	31.481
395.07	30.358
395.42	31.694
395.78	31.336
396.14	31.211
396.50	31.833
396.85	30.908
397.21	32.018
397.57	31.097
397.92	32.235
398.28	30.977
398.64	30.843
399.00	31.038
399.35	31.095
399.71	30.902
400.07	30.653
400.42	31.028
400.78	30.986
401.14	30.732
401.49	31.149
401.85	30.957
402.21	30.602
402.57	31.750
402.92	30.615
403.28	31.704
403.63	30.580
403.99	30.612
404.35	30.856
404.70	30.417
405.06	31.022
405.42	31.510
405.77	29.343
406.13	30.326
406.49	30.965
406.84	30.929
407.20	30.825
407.55	30.457
407.91	29.880
408.27	29.573
408.62	31.815
408.98	31.423
409.34	32.404
409.69	30.685
410.05	30.850
410.40	31.111
410.76	31.484
411.11	30.500
411.47	30.966
411.83	29.692
412.18	31.017
412.54	31.586
412.89	29.803
413.25	30.265
413.60	30.559
413.96	29.939
414.31	29.817
414.67	30.917
415.03	30.160
415.38	29.569
415.74	30.423
416.09	31.156
416.45	31.195
416.80	30.337
417.16	30.732
417.51	31.246
417.87	31.356
418.22	30.894
418.58	30.234
418.93	31.536
419.29	29.706
419.64	31.108
420.00	31.486
420.35	30.030
420.71	31.045
421.06	30.939
421.42	31.370
421.77	30.173
422.12	29.512
422.48	29.724
422.83	29.698
423.19	30.587
423.54	29.336
423.90	29.741
424.25	30.310
424.61	30.661
424.96	29.617
425.31	30.618
425.67	30.516
426.02	31.390
426.38	30.870
426.73	31.053
427.09	32.025
427.44	31.588
427.79	30.524
428.15	30.825
428.50	30.527
428.85	29.300
429.21	30.843
429.56	31.105
429.92	30.354
430.27	30.927
430.62	30.005
430.98	30.520
431.33	31.756
431.68	29.723
432.04	30.520
432.39	29.606
432.74	29.044
433.10	30.402
433.45	29.630
433.80	29.890
434.16	30.526
434.51	30.376
434.86	30.372
435.22	30.286
435.57	31.192
435.92	29.820
436.28	30.173
436.63	29.435
436.98	30.939
437.34	29.159
437.69	29.934
438.04	29.630
438.39	29.566
438.75	30.055
439.10	31.409
439.45	30.615
439.81	30.703
440.16	30.819
440.51	31.284
440.86	30.453
441.22	29.468
441.57	30.353
441.92	31.584
442.27	31.319
442.63	31.424
442.98	30.787
443.33	29.772
443.68	31.034
444.03	30.700
444.39	30.300
444.74	31.773
445.09	30.679
445.44	29.915
445.79	31.511
446.15	30.947
446.50	29.950
446.85	30.712
447.20	30.292
447.55	31.138
447.91	30.457
448.26	30.336
448.61	30.225
448.96	31.038
449.31	30.347
449.66	29.559
450.02	30.576
450.37	29.816
450.72	30.813
451.07	31.203
451.42	29.900
451.77	30.018
452.12	30.084
452.47	30.586
452.83	30.389
453.18	29.855
453.53	30.088
453.88	30.298
454.23	30.424
454.58	30.919
454.93	30.606
455.28	29.016
455.63	30.006
455.98	30.487
456.34	30.204
456.69	30.559
457.04	31.443
457.39	30.741
457.74	30.351
458.09	29.370
458.44	30.427
458.79	29.468
459.14	30.778
459.49	31.045
459.84	30.118
460.19	29.794
460.54	30.685
460.89	30.682
461.24	30.062
461.59	29.276
461.94	30.252
462.29	30.398
462.64	29.635
462.99	30.873
463.34	29.207
463.69	29.858
464.04	30.448
464.39	30.079
464.74	29.693
465.09	30.318
465.44	29.948
465.79	30.045
466.14	30.673
466.49	30.305
466.84	30.993
467.19	30.288
467.54	29.693
467.89	29.375
468.24	29.319
468.59	30.095
468.94	29.270
469.29	30.295
469.64	29.050
469.99	30.413
470.34	28.805
470.68	29.828
471.03	30.078
471.38	28.887
471.73	29.132
472.08	28.901
472.43	28.456
472.78	29.061
473.13	29.864
473.48	30.554
473.83	29.390
474.17	29.598
474.52	29.419
474.87	30.061
475.22	29.835
475.57	29.418
475.92	29.841
476.27	30.210
476.61	30.613
476.96	28.834
477.31	29.962
477.66	29.888
478.01	30.320
478.36	28.867
478.70	30.560
479.05	29.121
479.40	29.412
479.75	29.093
480.10	28.879
480.45	29.300
480.79	30.514
481.14	30.123
481.49	28.768
481.84	30.019
482.19	29.373
482.53	29.784
482.88	29.451
483.23	29.175
483.58	29.104
483.92	28.993
484.27	28.396
484.62	29.045
484.97	29.187
485.31	29.805
485.66	30.951
486.01	32.449
486.36	32.182
486.70	31.495
487.05	30.377
487.40	30.636
487.75	29.746
488.09	28.276
488.44	28.095
488.79	27.979
489.13	28.846
489.48	28.474
489.83	28.969
490.17	28.270
490.52	28.545
490.87	28.089
491.22	28.032
491.56	29.080
491.91	27.629
492.26	29.169
492.60	28.647
492.95	28.775
493.30	28.188
493.64	28.536
493.99	28.937
494.34	27.767
494.68	28.476
495.03	28.078
495.37	27.478
495.72	28.925
496.07	28.780
496.41	27.830
496.76	28.328
497.11	28.645
497.45	28.401
497.80	29.314
498.14	28.117
498.49	28.187
498.84	28.244
499.18	28.112
499.53	27.629
499.87	27.529
500.22	28.487
500.56	28.341
500.91	27.912
501.26	26.693
501.60	27.988
501.95	28.384
502.29	27.990
502.64	28.475
502.98	27.380
503.33	28.146
503.67	28.578
504.02	28.201
504.36	28.402
504.71	27.222
505.06	27.831
505.40	27.411
505.75	28.196
506.09	27.471
506.44	29.004
506.78	28.163
507.13	27.766
507.47	27.050
507.82	26.229
508.16	27.364
508.51	28.227
508.85	28.310
509.19	28.100
509.54	27.078
509.88	26.861
510.23	27.757
510.57	27.739
510.92	25.533
511.26	27.332
511.61	27.888
511.95	26.904
512.30	27.605
512.64	26.544
512.98	26.727
513.33	27.532
513.67	26.777
514.02	28.432
514.36	27.600
514.70	27.506
515.05	27.850
515.39	26.505
515.74	27.365
516.08	26.778
516.42	27.562
516.77	26.799
517.11	27.181
517.46	26.691
517.80	27.294
518.14	27.067
518.49	25.841
518.83	26.853
519.17	26.198
519.52	25.577
519.86	26.471
520.20	26.549
520.55	25.704
520.89	25.471
521.23	25.206
521.58	27.129
521.92	26.923
522.26	25.830
522.61	25.909
522.95	27.947
523.29	26.938
523.64	26.747
523.98	26.507
524.32	25.773
524.66	26.889
525.01	25.844
525.35	26.442
525.69	26.532
526.04	26.124
526.38	26.459
526.72	26.030
527.06	25.551
527.41	26.847
527.75	26.005
528.09	25.847
528.43	27.752
528.78	26.667
529.12	26.645
529.46	27.225
529.80	26.219
530.15	26.997
530.49	25.387
530.83	26.676
531.17	25.252
531.51	25.855
531.86	25.765
532.20	26.374
532.54	27.025
532.88	26.762
533.22	26.411
533.57	26.606
533.91	26.632
534.25	27.930
534.59	26.171
534.93	25.991
535.27	26.459
535.62	26.636
535.96	26.875
536.30	26.649
536.64	26.809
536.98	25.366
537.32	26.743
537.66	27.349
538.01	27.552
538.35	26.907
538.69	26.365
539.03	25.632
539.37	25.908
539.71	26.517
540.05	27.155
540.39	26.316
540.73	26.499
541.07	26.796
541.42	27.621
541.76	26.290
542.10	26.084
542.44	26.616
542.78	25.671
543.12	26.854
543.46	27.260
543.80	26.995
544.14	26.168
544.48	26.316
544.82	27.068
545.16	27.322
545.50	26.101
545.84	25.708
546.18	27.021
546.52	26.388
546.86	26.168
547.20	26.967
547.54	26.148
547.88	27.514
548.22	26.627
548.56	26.451
548.90	26.954
549.24	25.964
549.58	26.234
549.92	24.160
550.26	26.740
550.60	27.138
550.94	26.214
551.28	26.275
551.62	25.923
551.96	25.338
552.30	26.389
552.64	25.811
552.98	26.512
553.32	26.676
553.66	25.980
554.00	26.569
554.34	26.366
554.68	26.991
555.02	25.893
555.36	25.580
555.69	27.033
556.03	25.910
556.37	26.833
556.71	26.137
557.05	26.995
557.39	25.651
557.73	26.012
558.07	26.998
558.41	25.881
558.75	25.643
559.08	26.635
559.42	25.476
559.76	26.421
560.10	26.682
560.44	27.401
560.78	26.224
561.12	26.798
561.45	28.039
561.79	26.120
562.13	26.544
562.47	25.612
562.81	26.009
563.15	26.305
563.48	27.935
563.82	27.728
564.16	26.880
564.50	26.622
564.84	26.171
565.17	26.224
565.51	26.981
565.85	27.160
566.19	27.122
566.52	26.877
566.86	26.928
567.20	26.775
567.54	27.920
567.88	28.940
568.21	27.998
568.55	28.750
568.89	28.645
569.23	29.514
569.56	29.597
569.90	30.816
570.24	29.885
570.57	30.327
570.91	30.673
571.25	30.023
571.59	29.742
571.92	29.096
572.26	29.589
572.60	29.643
572.93	29.652
573.27	29.937
573.61	29.982
573.95	30.284
574.28	30.588
574.62	29.647
574.96	30.441
575.29	30.363
575.63	28.997
575.97	29.086
576.30	29.407
576.64	29.377
576.98	30.553
577.31	30.204
577.65	30.711
577.98	30.642
578.32	30.219
578.66	30.325
578.99	29.481
579.33	29.428
579.67	29.599
580.00	29.772
580.34	29.552
580.67	29.253
581.01	29.947
581.35	30.922
581.68	31.254
582.02	31.565
582.35	31.402
582.69	30.970
583.02	29.759
583.36	30.234
583.70	29.803
584.03	29.552
584.37	29.644
584.70	29.670
585.04	29.301
585.37	30.565
585.71	30.610
586.04	30.484
586.38	29.981
586.72	29.813
587.05	30.387
587.39	31.283
587.72	30.946
588.06	30.390
588.39	30.162
588.73	29.518
589.06	30.170
589.40	28.966
589.73	29.244
590.07	29.494
590.40	29.528
590.73	29.448
591.07	28.668
591.40	28.406
591.74	29.412
592.07	28.757
592.41	29.417
592.74	29.908
593.08	30.003
593.41	30.148
593.75	30.389
594.08	29.488
594.41	29.767
594.75	29.122
595.08	29.625
595.42	28.745
595.75	30.267
596.09	29.281
596.42	29.310
596.75	29.041
597.09	28.519
597.42	28.500
597.75	29.867
598.09	28.882
598.42	27.662
598.76	29.730
599.09	29.447
599.42	29.595
599.76	29.496
600.09	29.827
600.42	29.606
600.76	28.566
601.09	29.427
601.42	28.986
601.76	28.742
602.09	28.259
602.42	30.118
602.76	28.947
603.09	29.444
603.42	30.435
603.76	29.758
604.09	29.283
604.42	29.907
604.76	29.105
605.09	28.931
605.42	28.894
605.75	28.459
606.09	28.790
606.42	28.899
606.75	28.788
607.09	29.275
607.42	28.888
607.75	29.085
608.08	28.347
608.42	28.598
608.75	28.434
609.08	28.151
609.41	27.919
609.75	27.873
610.08	29.705
610.41	28.937
610.74	29.010
611.07	28.424
611.41	29.528
611.74	28.625
612.07	28.105
612.40	28.228
612.73	28.588
613.07	27.953
613.40	28.282
613.73	27.644
614.06	27.991
614.39	28.652
614.72	28.011
615.06	28.883
615.39	28.876
615.72	27.449
616.05	29.330
616.38	28.091
616.71	27.890
617.05	28.104
617.38	28.221
617.71	27.170
618.04	28.571
618.37	28.689
618.70	28.515
619.03	27.778
619.36	26.990
619.69	27.672
620.03	27.538
620.36	27.039
620.69	27.338
621.02	26.376
621.35	25.809
621.68	27.041
622.01	26.250
622.34	27.294
622.67	27.839
623.00	26.110
623.33	28.049
623.66	26.776
623.99	27.534
624.32	27.985
624.65	27.143
624.99	27.840
625.32	26.005
625.65	27.808
625.98	27.397
626.31	24.855
626.64	26.776
626.97	26.963
627.30	27.408
627.63	26.950
627.96	26.685
628.29	24.977
628.62	24.582
628.95	25.752
629.28	25.605
629.61	26.620
629.94	26.295
630.26	26.087
630.59	25.182
630.92	25.744
631.25	25.949
631.58	24.670
631.91	24.671
632.24	24.312
632.57	25.227
632.90	23.725
633.23	23.529
633.56	24.433
633.89	24.661
634.22	25.432
634.55	23.888
634.88	24.393
635.20	23.077
635.53	23.600
635.86	23.277
636.19	24.062
636.52	25.765
636.85	22.208
637.18	24.403
637.51	24.528
637.83	25.361
638.16	25.375
638.49	23.025
638.82	24.868
639.15	24.016
639.48	24.897
639.81	25.523
640.13	24.964
640.46	22.595
640.79	25.184
641.12	24.520
641.45	22.823
641.77	23.259
642.10	25.118
642.43	22.186
642.76	24.752
643.09	23.586
643.41	22.654
643.74	22.241
644.07	25.287
644.40	24.662
644.73	23.818
645.05	23.154
645.38	22.046
645.71	22.695
646.04	25.314
646.36	22.518
646.69	24.640
647.02	23.440
647.35	20.896
647.67	21.572
648.00	23.321
648.33	24.573
648.66	23.729
648.98	23.283
649.31	22.810
649.64	24.647
649.96	23.987
650.29	24.191
650.62	24.786
650.94	23.519
651.27	21.974
651.60	22.342
651.92	24.650
652.25	24.689
652.58	24.167
652.90	24.528
653.23	24.202
653.56	22.673
653.88	24.742
654.21	20.490
654.54	25.127
654.86	24.958
655.19	25.585
655.52	30.960
655.84	34.704
656.17	39.922
656.49	53.342
656.82	53.177
657.15	38.323
657.47	27.553
657.80	19.785
658.13	18.864
658.45	27.412
658.78	25.592
659.10	24.102
659.43	23.255
659.75	23.088
660.08	23.103
660.41	23.902
660.73	23.343
661.06	21.490
661.38	22.505
661.71	19.507
662.03	24.249
662.36	23.736
662.68	20.796
663.01	21.179
663.33	21.810
663.66	21.163
663.98	20.233
664.31	22.601
664.63	20.737
664.96	18.478
665.28	20.971
665.61	23.160
665.93	23.043
666.26	25.813
666.58	21.700
666.91	19.294
667.23	20.519
667.56	22.986
667.88	21.823
668.21	20.286
668.53	23.168
668.86	19.104
669.18	19.104
669.50	18.644
669.83	22.558
670.15	24.709
670.48	22.010
670.80	20.276
671.13	20.582
671.45	19.635
671.77	27.039
672.10	24.950
672.42	24.719
672.75	27.709
673.07	24.866
673.39	24.037
673.72	21.696
674.04	21.667
674.37	22.246
674.69	23.555
675.01	23.778
675.34	21.622
675.66	24.074
675.98	23.060
676.31	23.165
676.63	22.090
676.95	22.500
677.28	23.059
677.60	22.410
677.92	20.183
678.25	27.571
678.57	22.511
678.89	21.639
679.22	24.832
679.54	24.297
679.86	22.664
680.18	25.049
680.51	23.485
680.83	24.652
681.15	22.200
681.48	27.459
681.80	25.207
682.12	25.403
682.44	22.176
682.77	26.049
683.09	22.883
683.41	22.955
683.73	22.120
684.06	21.460
684.38	24.086
684.70	25.272
685.02	23.651
685.34	23.518
685.67	24.953
685.99	24.051
686.31	27.611
686.63	24.119
686.96	23.954
687.28	20.404
687.60	25.285
687.92	25.859
688.24	23.790
688.56	27.729
688.89	25.670
689.21	25.556
689.53	24.594
689.85	22.326
690.17	24.554
690.49	26.950
690.82	21.117
691.14	26.667
691.46	25.467
691.78	23.649
692.10	25.161
692.42	21.861
692.74	23.932
693.06	23.423
693.39	22.172
693.71	23.529
694.03	22.633
694.35	23.131
694.67	22.727
694.99	22.454
695.31	25.849
695.63	24.250
695.95	21.465
696.27	23.834
696.59	25.833
696.91	19.608
697.23	20.308
697.56	25.990
697.88	27.527
698.20	25.513
698.52	23.059
698.84	22.249
699.16	23.500
699.48	23.810
699.80	24.318
700.12	24.528
700.44	22.129
700.76	22.093
701.08	19.091
701.40	22.289
701.72	20.988
702.04	24.422
702.36	26.756
702.68	27.628
703.00	23.333
703.32	24.047
703.64	19.774
703.96	23.478
704.28	24.233
704.60	24.127
704.91	18.927
705.23	23.588
705.55	26.502
705.87	23.105
706.19	22.222
706.51	23.368
706.83	21.865
707.15	20.249
707.47	26.891
707.79	24.479
708.11	29.250
708.43	26.750
708.74	24.548
709.06	25.915
709.38	26.606
709.70	26.036
710.02	24.522
710.34	24.458
710.66	22.115
710.98	21.192
711.29	27.869
711.61	27.119
711.93	27.036
712.25	24.055
712.57	22.344
712.89	21.269
713.20	27.682
713.52	27.178
713.84	25.939
714.16	25.430
714.48	20.968
714.80	28.205
715.11	24.924
715.43	23.824
715.75	22.667
716.07	23.588
716.39	22.148
716.70	20.664
717.02	19.084
717.34	24.291
717.66	22.566
717.97	23.478
718.29	23.013
718.61	29.134
718.93	24.806
719.24	23.574
719.56	29.317
719.88	25.773
720.20	19.318
720.51	22.989
720.83	22.008
721.15	20.168
721.46	26.613
721.78	22.925
722.10	24.164
722.42	18.672
722.73	22.449
723.05	33.878
723.37	27.542
723.68	26.577
724.00	25.641
724.32	20.444
724.63	21.364
724.95	25.328
725.27	25.346
725.58	28.390
725.90	21.429
726.22	28.571
726.53	31.864
726.85	30.712
727.16	29.811
727.48	21.053
727.80	27.935
728.11	26.695
728.43	23.529
728.74	22.984
729.06	24.800
729.38	31.203
729.69	20.717
730.01	21.538
730.32	27.612
730.64	28.975
730.96	26.038
731.27	26.667
731.59	28.136
731.90	28.662
732.22	29.338
732.53	26.910
732.85	24.468
733.16	28.956
733.48	17.986
733.80	26.449
734.11	22.712
734.43	29.553
734.74	30.000
735.06	25.407
735.37	29.607
735.69	29.293
736.00	29.617
736.32	27.517
736.63	25.704
736.95	29.352
737.26	24.911
737.58	27.517
737.89	31.868
738.21	24.812
738.52	30.453
738.83	27.948
739.15	25.764
739.46	28.740
739.78	24.176
740.09	27.124
740.41	28.623
740.72	21.260
741.04	25.911
741.35	19.574
741.66	19.431
741.98	23.980
742.29	27.228
742.61	28.272
742.92	19.431
743.23	23.148
743.55	27.149
743.86	25.359
744.18	25.359
744.49	15.957
744.80	19.022
745.12	34.225
745.43	22.439
745.74	20.312
746.06	22.439
746.37	25.131
746.68	29.384
747.00	18.085
747.31	23.881
747.62	22.330
747.94	25.359
748.25	22.772
748.56	25.683
748.88	25.654
749.19	26.596
749.50	25.123
749.82	20.283
750.13	26.606
750.44	28.571
750.75	27.239
751.07	28.832
751.38	27.969
751.69	25.490
752.01	28.682
752.32	28.287
752.63	25.296
752.94	24.138
753.26	32.218
753.57	28.054
753.88	24.336
754.19	25.833
754.51	26.446
754.82	26.316
755.13	30.000
755.44	29.032
755.75	26.953
756.07	32.685
756.38	24.528
756.69	26.820
757.00	30.333
757.31	30.719
757.63	29.878
757.94	24.167
758.25	27.123
758.56	29.521
758.87	26.062
759.18	25.234
759.50	24.364
759.81	23.411
760.12	29.677
760.43	29.091
760.74	30.556
761.05	28.923
761.36	29.830
761.67	29.697
761.99	29.592
762.30	24.727
762.61	29.249
762.92	24.887
763.23	27.477
763.54	21.028
763.85	27.966
764.16	24.481
764.47	21.774
764.78	31.136
765.10	32.997
765.41	30.599
765.72	31.111
766.03	27.444
766.34	29.562
766.65	33.865
766.96	26.768
767.27	26.064
767.58	24.138
767.89	29.787
768.20	23.864
768.51	23.077
768.82	26.108
769.13	25.346
769.44	27.897
769.75	23.288
770.06	30.603
770.37	24.038
770.68	30.964
770.99	27.149
771.30	27.451
771.61	29.864
771.92	31.897
772.23	24.138
772.54	25.806
772.85	28.395
773.16	28.090
773.47	35.294
773.78	35.294
774.09	28.743
774.39	20.667
774.70	24.841
775.01	33.793
775.32	25.714
775.63	27.273
775.94	19.084
776.25	18.110
776.56	33.333
776.87	27.885
777.18	19.658
777.48	30.172
777.79	25.217
778.10	15.238
778.41	20.721
778.72	26.984
779.03	21.805
779.34	29.078
779.65	26.027
779.95	19.863
780.26	21.379
780.57	22.764
780.88	29.134
781.19	31.897
781.50	31.783
781.80	30.178
782.11	22.013
782.42	29.231
782.73	17.986
783.04	28.148
783.34	22.222
783.65	14.530
783.96	25.410
784.27	29.655
784.57	26.829
784.88	28.125
785.19	38.000
785.50	38.000
785.81	20.690
786.11	34.483
786.42	28.155
786.73	38.182
787.04	37.755
787.34	29.464
787.65	29.524
787.96	21.239
788.26	39.091
788.57	30.769
788.88	32.031
789.19	22.222
789.49	26.957
789.80	26.531
790.11	22.222
790.41	21.818
790.72	33.696
791.03	22.727
791.33	27.500
791.64	31.250
791.95	25.581
792.25	28.723
792.56	28.090
792.87	19.178
793.17	28.986
793.48	20.000
793.79	25.000
794.09	40.000
794.40	41.509
794.70	40.777
795.01	29.268
795.32	23.932
795.62	32.381
795.93	34.314
796.23	19.811
796.54	40.625
796.85	22.059
797.15	18.310
797.46	16.667
797.76	30.303
798.07	23.256
798.37	18.421
798.68	4.545
798.99	32.099
799.29	31.429
799.60	27.536
799.90	24.000
800.21	27.869
800.51	36.923
800.82	11.864
801.12	24.638
801.43	42.623
801.73	26.984
802.04	20.000
802.34	20.896
802.65	32.692
802.95	21.429
803.26	-7.692
803.56	17.647
803.87	6.522
804.17	32.000
804.48	34.921
804.78	22.222
805.09	15.217
805.39	8.889
805.70	31.481
806.00	14.035
806.30	32.394
806.61	35.714
806.91	13.889
807.22	34.211
807.52	36.000
807.83	29.091
808.13	18.056
808.43	45.588
808.74	19.403
809.04	38.983
809.35	36.538
809.65	28.125
809.95	29.730
810.26	11.364
810.56	24.658
810.86	26.190
811.17	14.000
811.47	30.612
811.77	28.947
812.08	15.909
812.38	30.189
812.69	37.500
812.99	-21.212
813.29	23.684
813.59	0.000
813.90	-9.091
814.20	10.256
814.50	26.923
814.81	47.170
815.11	23.404
815.41	37.288
815.72	26.190
816.02	29.412
816.32	33.333
816.62	19.512
816.93	35.135
817.23	17.143
817.53	33.333
817.84	39.130
818.14	32.692
818.44	-10.526
818.74	32.609
819.04	20.000
819.35	29.730
819.65	14.706
819.95	19.444
820.25	33.333
820.56	47.500
820.86	-10.345
821.16	37.500
821.46	25.532
821.76	27.500
822.07	48.837
822.37	-5.405
822.67	-3.125
822.97	38.095
823.27	3.571
823.57	48.000
823.88	22.222
824.18	46.429
824.48	20.588
824.78	3.226
825.08	17.391
825.38	15.152
825.69	-16.667
825.99	39.474
826.29	5.556
826.59	86.667
826.89	19.048
827.19	23.913
827.49	35.000
827.79	17.143
828.09	50.000
828.39	33.333
828.70	72.973
829.00	25.000
829.30	-14.286
829.60	10.000
829.90	31.250
830.20	44.737
830.50	25.926
830.80	30.435
831.10	50.000
831.40	48.485
831.70	64.516
832.00	9.524
832.30	4.762
832.60	-33.333
832.90	17.241
833.20	5.000
833.50	54.545
833.80	14.815
834.10	23.077
834.40	46.875
834.70	0.000
835.00	31.579
835.30	76.923
835.60	0.000
835.90	51.613
836.20	22.727
836.50	21.429
836.80	-23.077
837.10	25.000
837.40	-66.667
837.70	18.182
838.00	-9.091
838.30	56.522
838.60	-23.077
838.90	9.091
839.19	46.429
839.49	43.333
839.79	15.385
840.09	-41.667
840.39	39.286
840.69	32.143
840.99	-7.692
841.29	-26.316
841.59	-40.000
841.88	27.273
842.18	20.000
842.48	56.250
842.78	53.333
843.08	25.926
843.38	10.000
843.68	52.174
843.97	33.333
844.27	-13.333
844.57	20.000
844.87	-11.111
845.17	19.048
845.47	6.667
845.76	-52.381
846.06	-5.882
846.36	20.000
846.66	-57.143
846.96	40.000
847.25	-162.500
847.55	71.429
847.85	62.500
848.15	9.091
848.44	-66.667
848.74	60.000
849.04	62.963
849.34	9.091
849.63	-33.333
849.93	-280.000
850.23	5.556
850.53	120.000
850.82	-7.692
851.12	22.222
851.42	80.000
851.71	-3.846
852.01	35.714
852.31	50.000
852.61	-18.182
852.90	35.000
853.20	21.053
853.50	8.333
853.79	26.087
854.09	37.500
854.39	26.316
854.68	58.333
854.98	6.452
855.28	57.692
855.57	15.000
855.87	38.889
856.17	48.148
856.46	21.429
856.76	-13.333
857.05	11.111
857.35	36.000
857.65	16.667
857.94	46.154
858.24	55.172
858.53	88.889
858.83	70.370
859.13	31.818
859.42	43.478
859.72	75.000
860.01	-600.000
860.31	48.000
860.60	38.095
860.90	0.000
861.20	0.000
861.49	50.000
861.79	-126.667
862.08	55.000
862.38	140.000
862.67	-120.000
862.97	50.000
863.26	58.333
863.56	38.889
863.85	-633.333
864.15	61.111
864.44	60.000
864.74	171.429
865.03	175.000
865.33	-40.000
865.62	166.667
865.92	25.000
866.21	-66.667
866.51	93.750
866.80	54.545
867.10	250.000
867.39	125.000
867.69	0.000
867.98	46.154
868.27	-300.000
868.57	26.667
868.86	44.444
869.16	-53.846
869.45	60.000
869.75	100.000
870.04	0.000
870.33	42.857
870.63	61.905
870.92	133.333
871.22	-240.000
871.51	1100.000
871.80	111.111
872.10	266.667
>>>>>End Processed Spectral Data<<<<<
