SpectraSuite Data File
++++++++++++++++++++++++++++++++++++
Date: Fri May 15 17:03:56 PDT 2015
User: schluterlab
Dark Spectrum Present: Yes
Reference Spectrum Present: Yes
Number of Sampled Component Spectra: 1
Spectrometers: USB2E3373
Integration Time (usec): 3000 (USB2E3373)
Spectra Averaged: 3 (USB2E3373)
Boxcar Smoothing: 0 (USB2E3373)
Correct for Electrical Dark: No (USB2E3373)
Strobe/Lamp Enabled: No (USB2E3373)
Correct for Detector Non-linearity: No (USB2E3373)
Correct for Stray Light: No (USB2E3373)
Number of Pixels in Processed Spectrum: 2048
>>>>>Begin Processed Spectral Data<<<<<
178.53	0.000
178.91	0.000
179.29	87.500
179.67	50.000
180.04	-271.429
180.42	300.000
180.80	100.000
181.18	-300.000
181.56	50.000
181.94	650.000
182.31	-800.000
182.69	180.000
183.07	333.333
183.45	-40.000
183.83	116.667
184.20	100.000
184.58	33.333
184.96	-300.000
185.34	-233.333
185.72	150.000
186.09	69.231
186.47	600.000
186.85	33.333
187.23	-22.222
187.61	-600.000
187.98	266.667
188.36	155.556
188.74	166.667
189.12	70.588
189.49	105.556
189.87	0.000
190.25	121.429
190.63	400.000
191.00	0.000
191.38	26.316
191.76	1200.000
192.14	-75.000
192.51	300.000
192.89	-100.000
193.27	-28.571
193.65	50.000
194.02	63.636
194.40	70.000
194.78	0.000
195.15	41.667
195.53	137.500
195.91	25.000
196.29	0.000
196.66	7.692
197.04	-200.000
197.42	44.444
197.79	-233.333
198.17	-15.385
198.55	100.000
198.92	-166.667
199.30	1000.000
199.68	-120.000
200.05	266.667
200.43	0.000
200.81	33.333
201.18	33.333
201.56	-0.000
201.94	350.000
202.31	-466.667
202.69	-20.000
203.07	-150.000
203.44	900.000
203.82	0.000
204.19	121.429
204.57	0.000
204.95	37.500
205.32	100.000
205.70	42.857
206.08	150.000
206.45	200.000
206.83	100.000
207.20	-100.000
207.58	-700.000
207.96	0.000
208.33	70.000
208.71	175.000
209.08	33.333
209.46	500.000
209.84	200.000
210.21	200.000
210.59	57.143
210.96	166.667
211.34	-50.000
211.71	80.000
212.09	-57.143
212.46	-500.000
212.84	0.000
213.22	130.000
213.59	-0.000
213.97	38.462
214.34	109.091
214.72	-16.667
215.09	225.000
215.47	115.385
215.84	81.818
216.22	-66.667
216.59	50.000
216.97	550.000
217.34	0.000
217.72	220.000
218.09	112.500
218.47	37.500
218.84	800.000
219.22	66.667
219.59	120.000
219.97	200.000
220.34	-125.000
220.72	228.571
221.09	125.000
221.47	700.000
221.84	100.000
222.22	-600.000
222.59	72.727
222.97	166.667
223.34	100.000
223.72	28.571
224.09	90.476
224.46	42.857
224.84	33.333
225.21	30.000
225.59	120.000
225.96	50.000
226.34	300.000
226.71	42.857
227.08	50.000
227.46	175.000
227.83	150.000
228.21	100.000
228.58	181.818
228.95	87.500
229.33	60.000
229.70	43.750
230.08	37.500
230.45	-14.286
230.82	114.286
231.20	60.000
231.57	78.571
231.95	114.286
232.32	-10.000
232.69	100.000
233.07	200.000
233.44	20.000
233.81	70.000
234.19	-33.333
234.56	76.471
234.93	150.000
235.31	-50.000
235.68	-140.000
236.05	-23.077
236.43	45.000
236.80	52.941
237.17	43.750
237.55	40.000
237.92	25.926
238.29	11.111
238.67	40.000
239.04	23.529
239.41	26.829
239.79	6.667
240.16	21.951
240.53	18.421
240.91	19.565
241.28	19.048
241.65	21.429
242.02	47.945
242.40	23.333
242.77	40.678
243.14	10.606
243.51	27.500
243.89	33.333
244.26	24.138
244.63	22.619
245.00	23.711
245.38	20.619
245.75	8.989
246.12	9.483
246.49	23.140
246.87	23.077
247.24	15.126
247.61	20.175
247.98	17.886
248.36	19.375
248.73	26.316
249.10	17.532
249.47	26.582
249.84	17.647
250.22	17.647
250.59	21.569
250.96	25.352
251.33	25.581
251.70	27.059
252.08	21.320
252.45	25.248
252.82	20.603
253.19	25.346
253.56	16.355
253.94	20.270
254.31	20.870
254.68	23.684
255.05	16.929
255.42	19.214
255.79	19.691
256.16	21.012
256.54	20.522
256.91	19.392
257.28	15.985
257.65	18.727
258.02	15.248
258.39	19.529
258.76	20.147
259.14	20.598
259.51	21.683
259.88	18.213
260.25	19.935
260.62	22.569
260.99	13.220
261.36	14.726
261.73	15.823
262.10	17.933
262.47	20.552
262.85	15.674
263.22	17.846
263.59	18.380
263.96	21.118
264.33	17.273
264.70	19.048
265.07	17.857
265.44	19.830
265.81	18.927
266.18	16.120
266.55	19.280
266.92	19.171
267.29	18.016
267.66	18.159
268.03	20.157
268.40	19.060
268.77	21.123
269.14	16.787
269.51	18.766
269.88	16.708
270.25	16.071
270.62	18.780
270.99	16.368
271.36	16.381
271.73	17.840
272.10	17.275
272.47	16.548
272.84	18.317
273.21	19.258
273.58	18.313
273.95	17.391
274.32	17.090
274.69	15.385
275.06	18.080
275.43	19.048
275.80	17.439
276.17	17.241
276.54	16.488
276.91	18.640
277.28	17.031
277.65	17.975
278.02	18.085
278.39	16.193
278.76	17.610
279.13	13.485
279.50	18.908
279.87	15.551
280.23	17.419
280.60	16.569
280.97	15.152
281.34	16.538
281.71	18.070
282.08	17.178
282.45	15.068
282.82	15.637
283.19	16.828
283.56	17.148
283.92	16.319
284.29	16.923
284.66	17.442
285.03	16.306
285.40	17.391
285.77	15.466
286.14	15.523
286.51	17.159
286.87	15.356
287.24	16.575
287.61	14.815
287.98	15.965
288.35	14.731
288.72	14.361
289.08	14.062
289.45	15.641
289.82	16.084
290.19	16.041
290.56	13.894
290.93	13.805
291.29	14.330
291.66	15.906
292.03	16.427
292.40	15.323
292.77	13.876
293.13	12.987
293.50	12.140
293.87	14.656
294.24	12.674
294.60	14.903
294.97	13.690
295.34	12.270
295.71	14.158
296.08	12.257
296.44	10.811
296.81	13.611
297.18	12.609
297.55	13.279
297.91	13.014
298.28	14.248
298.65	13.297
299.02	11.590
299.38	11.081
299.75	11.310
300.12	10.602
300.48	12.648
300.85	12.548
301.22	11.948
301.59	11.447
301.95	13.797
302.32	12.192
302.69	13.184
303.05	12.500
303.42	13.823
303.79	10.864
304.15	13.142
304.52	11.296
304.89	11.462
305.25	10.533
305.62	10.502
305.99	11.930
306.35	10.867
306.72	10.349
307.09	11.973
307.45	12.055
307.82	10.880
308.19	11.266
308.55	10.578
308.92	13.725
309.29	11.844
309.65	10.980
310.02	12.541
310.38	11.526
310.75	11.366
311.12	12.594
311.48	11.559
311.85	12.147
312.22	11.181
312.58	11.040
312.95	12.487
313.31	11.801
313.68	11.623
314.05	13.367
314.41	11.546
314.78	13.711
315.14	14.594
315.51	13.251
315.87	13.525
316.24	15.369
316.61	14.764
316.97	15.278
317.34	13.281
317.70	15.296
318.07	15.769
318.43	16.569
318.80	15.814
319.16	16.699
319.53	18.613
319.89	17.421
320.26	17.510
320.62	19.157
320.99	17.537
321.35	19.527
321.72	20.457
322.08	20.342
322.45	21.218
322.81	20.629
323.18	22.473
323.54	21.525
323.91	22.687
324.27	24.023
324.64	22.753
325.00	24.726
325.37	24.610
325.73	24.569
326.10	26.158
326.46	26.457
326.83	26.072
327.19	27.376
327.56	28.410
327.92	28.961
328.29	29.464
328.65	29.623
329.01	30.331
329.38	30.691
329.74	30.123
330.11	31.881
330.47	31.169
330.84	30.673
331.20	35.741
331.56	32.130
331.93	32.694
332.29	33.914
332.66	34.118
333.02	33.271
333.38	34.097
333.75	36.722
334.11	34.288
334.48	36.899
334.84	35.165
335.20	35.316
335.57	35.630
335.93	35.411
336.29	37.753
336.66	35.967
337.02	36.338
337.38	36.481
337.75	37.182
338.11	36.610
338.47	37.500
338.84	36.691
339.20	37.386
339.56	36.514
339.93	38.406
340.29	36.697
340.65	37.724
341.02	38.652
341.38	37.080
341.74	37.279
342.11	36.915
342.47	38.523
342.83	37.716
343.20	38.066
343.56	39.217
343.92	38.264
344.28	36.977
344.65	38.083
345.01	36.733
345.37	38.604
345.73	38.075
346.10	39.517
346.46	36.754
346.82	37.398
347.19	37.822
347.55	38.931
347.91	38.916
348.27	37.672
348.63	38.501
349.00	36.751
349.36	37.573
349.72	39.801
350.08	38.443
350.45	37.909
350.81	37.209
351.17	37.541
351.53	39.184
351.89	35.838
352.26	36.960
352.62	39.677
352.98	36.627
353.34	36.312
353.70	38.511
354.07	38.306
354.43	38.591
354.79	38.233
355.15	38.810
355.51	37.579
355.87	39.806
356.24	37.194
356.60	37.995
356.96	39.365
357.32	38.738
357.68	37.217
358.04	37.722
358.40	38.746
358.77	39.633
359.13	39.071
359.49	38.136
359.85	39.080
360.21	38.915
360.57	38.638
360.93	39.486
361.29	39.426
361.66	40.439
362.02	38.636
362.38	38.766
362.74	39.137
363.10	40.557
363.46	40.697
363.82	40.045
364.18	38.376
364.54	39.265
364.90	38.495
365.26	40.320
365.62	41.314
365.98	40.323
366.35	40.204
366.71	41.316
367.07	41.727
367.43	40.043
367.79	39.152
368.15	40.847
368.51	40.859
368.87	39.986
369.23	40.650
369.59	40.525
369.95	42.595
370.31	41.257
370.67	40.970
371.03	40.105
371.39	40.336
371.75	41.685
372.11	41.227
372.47	42.234
372.83	42.229
373.19	40.870
373.55	41.444
373.91	41.685
374.27	42.381
374.63	43.575
374.99	43.050
375.35	43.454
375.71	44.965
376.07	43.399
376.42	44.218
376.78	43.356
377.14	43.940
377.50	43.028
377.86	44.645
378.22	44.544
378.58	44.679
378.94	44.802
379.30	43.980
379.66	45.580
380.02	44.513
380.38	44.553
380.74	43.986
381.09	46.319
381.45	45.382
381.81	45.096
382.17	45.558
382.53	45.971
382.89	46.579
383.25	46.111
383.61	47.256
383.97	47.365
384.32	47.029
384.68	47.121
385.04	47.426
385.40	47.231
385.76	48.742
386.12	48.577
386.48	49.106
386.83	48.573
387.19	48.413
387.55	48.996
387.91	49.022
388.27	48.779
388.62	50.031
388.98	49.171
389.34	48.969
389.70	49.347
390.06	48.647
390.42	49.288
390.77	49.771
391.13	48.613
391.49	49.030
391.85	50.942
392.20	49.404
392.56	50.477
392.92	50.323
393.28	50.000
393.64	49.970
393.99	50.408
394.35	49.589
394.71	50.383
395.07	49.466
395.42	50.577
395.78	50.554
396.14	51.324
396.50	51.680
396.85	51.320
397.21	50.689
397.57	50.658
397.92	51.648
398.28	51.897
398.64	49.639
399.00	51.919
399.35	50.000
399.71	51.292
400.07	51.874
400.42	51.346
400.78	52.235
401.14	50.998
401.49	51.042
401.85	51.432
402.21	51.627
402.57	52.500
402.92	49.812
403.28	51.942
403.63	51.639
403.99	50.765
404.35	53.092
404.70	51.071
405.06	50.411
405.42	51.523
405.77	51.772
406.13	52.852
406.49	51.391
406.84	52.567
407.20	52.739
407.55	50.805
407.91	52.406
408.27	51.243
408.62	51.631
408.98	51.694
409.34	51.859
409.69	52.713
410.05	50.554
410.40	52.407
410.76	52.714
411.11	51.437
411.47	52.991
411.83	51.789
412.18	52.445
412.54	51.810
412.89	50.862
413.25	52.527
413.60	52.547
413.96	52.331
414.31	53.110
414.67	51.379
415.03	51.531
415.38	53.394
415.74	53.355
416.09	54.540
416.45	53.545
416.80	52.346
417.16	54.075
417.51	53.098
417.87	52.738
418.22	54.275
418.58	55.050
418.93	55.110
419.29	51.601
419.64	53.856
420.00	54.282
420.35	53.672
420.71	54.435
421.06	53.223
421.42	53.606
421.77	55.029
422.12	54.540
422.48	52.734
422.83	54.002
423.19	54.515
423.54	54.145
423.90	53.710
424.25	55.224
424.61	55.386
424.96	54.588
425.31	55.690
425.67	55.927
426.02	55.359
426.38	55.667
426.73	55.387
427.09	56.582
427.44	55.118
427.79	56.335
428.15	56.432
428.50	55.784
428.85	55.958
429.21	56.367
429.56	56.334
429.92	55.316
430.27	55.689
430.62	54.626
430.98	55.945
431.33	56.730
431.68	56.567
432.04	56.568
432.39	56.475
432.74	55.743
433.10	57.586
433.45	56.272
433.80	57.690
434.16	55.346
434.51	56.935
434.86	56.911
435.22	56.310
435.57	57.268
435.92	58.084
436.28	56.768
436.63	57.045
436.98	56.547
437.34	57.471
437.69	59.511
438.04	57.664
438.39	58.094
438.75	59.016
439.10	58.517
439.45	59.647
439.81	57.982
440.16	59.382
440.51	58.627
440.86	60.181
441.22	57.410
441.57	59.216
441.92	60.126
442.27	59.590
442.63	58.672
442.98	59.391
443.33	58.598
443.68	58.355
444.03	60.010
444.39	58.239
444.74	60.312
445.09	59.855
445.44	58.860
445.79	60.289
446.15	58.590
446.50	58.846
446.85	59.989
447.20	59.437
447.55	59.766
447.91	60.293
448.26	59.818
448.61	60.161
448.96	60.585
449.31	60.462
449.66	60.163
450.02	60.810
450.37	60.818
450.72	60.023
451.07	60.823
451.42	59.551
451.77	60.518
452.12	59.809
452.47	60.528
452.83	59.717
453.18	59.583
453.53	60.746
453.88	60.474
454.23	60.172
454.58	61.524
454.93	60.374
455.28	60.063
455.63	59.454
455.98	61.215
456.34	59.962
456.69	59.085
457.04	61.563
457.39	60.267
457.74	60.762
458.09	58.740
458.44	59.684
458.79	59.216
459.14	60.812
459.49	60.537
459.84	61.027
460.19	61.590
460.54	60.819
460.89	61.307
461.24	61.056
461.59	60.926
461.94	59.371
462.29	60.374
462.64	61.262
462.99	61.341
463.34	62.170
463.69	61.969
464.04	61.017
464.39	61.128
464.74	61.656
465.09	62.133
465.44	61.108
465.79	59.184
466.14	61.517
466.49	61.242
466.84	60.500
467.19	61.327
467.54	59.642
467.89	62.350
468.24	62.226
468.59	62.476
468.94	61.016
469.29	61.902
469.64	62.406
469.99	62.719
470.34	62.662
470.68	61.521
471.03	62.916
471.38	62.910
471.73	62.605
472.08	61.737
472.43	62.886
472.78	62.509
473.13	63.810
473.48	61.889
473.83	61.395
474.17	63.601
474.52	63.242
474.87	62.364
475.22	62.294
475.57	61.321
475.92	62.479
476.27	62.631
476.61	62.211
476.96	61.350
477.31	62.628
477.66	62.865
478.01	62.381
478.36	61.002
478.70	63.730
479.05	62.912
479.40	62.904
479.75	62.826
480.10	62.366
480.45	62.700
480.79	63.444
481.14	63.115
481.49	61.182
481.84	62.741
482.19	62.722
482.53	63.118
482.88	62.196
483.23	61.276
483.58	62.453
483.92	62.052
484.27	61.668
484.62	61.945
484.97	62.189
485.31	61.777
485.66	59.968
486.01	59.595
486.36	58.488
486.70	58.847
487.05	59.370
487.40	60.290
487.75	61.408
488.09	60.970
488.44	61.933
488.79	61.412
489.13	63.181
489.48	62.762
489.83	62.377
490.17	63.011
490.52	64.065
490.87	61.777
491.22	62.894
491.56	62.761
491.91	62.189
492.26	63.150
492.60	62.092
492.95	64.043
493.30	62.286
493.64	63.949
493.99	63.623
494.34	63.204
494.68	63.238
495.03	63.114
495.37	62.561
495.72	64.462
496.07	63.805
496.41	64.481
496.76	63.795
497.11	61.854
497.45	64.678
497.80	64.178
498.14	63.140
498.49	63.382
498.84	63.573
499.18	65.161
499.53	63.194
499.87	64.397
500.22	63.798
500.56	64.902
500.91	63.906
501.26	63.618
501.60	63.601
501.95	63.464
502.29	63.487
502.64	64.286
502.98	65.121
503.33	64.313
503.67	63.759
504.02	64.321
504.36	65.512
504.71	64.192
505.06	64.469
505.40	65.533
505.75	65.825
506.09	63.761
506.44	65.554
506.78	64.745
507.13	64.891
507.47	63.499
507.82	64.850
508.16	65.188
508.51	65.687
508.85	64.887
509.19	65.035
509.54	64.611
509.88	65.102
510.23	65.949
510.57	65.206
510.92	64.979
511.26	65.903
511.61	66.667
511.95	67.068
512.30	67.073
512.64	65.498
512.98	65.750
513.33	66.872
513.67	66.686
514.02	68.021
514.36	68.229
514.70	68.357
515.05	67.098
515.39	67.946
515.74	68.743
516.08	67.782
516.42	67.727
516.77	67.642
517.11	68.665
517.46	68.043
517.80	67.938
518.14	68.402
518.49	67.548
518.83	68.408
519.17	67.374
519.52	67.910
519.86	68.667
520.20	69.077
520.55	68.043
520.89	68.695
521.23	68.461
521.58	69.527
521.92	68.526
522.26	69.356
522.61	68.896
522.95	70.861
523.29	69.504
523.64	68.806
523.98	69.605
524.32	69.910
524.66	69.718
525.01	69.351
525.35	70.318
525.69	71.313
526.04	69.643
526.38	69.066
526.72	69.719
527.06	69.650
527.41	70.251
527.75	69.638
528.09	69.701
528.43	71.843
528.78	71.353
529.12	70.129
529.46	70.175
529.80	69.728
530.15	71.023
530.49	71.313
530.83	72.503
531.17	69.443
531.51	70.246
531.86	69.952
532.20	69.450
532.54	70.456
532.88	69.610
533.22	70.833
533.57	69.921
533.91	70.431
534.25	70.833
534.59	68.954
534.93	68.345
535.27	68.084
535.62	69.734
535.96	71.689
536.30	69.987
536.64	71.813
536.98	70.941
537.32	70.555
537.66	72.090
538.01	71.469
538.35	69.695
538.69	69.374
539.03	70.745
539.37	71.400
539.71	69.393
540.05	70.604
540.39	71.122
540.73	71.130
541.07	72.099
541.42	70.699
541.76	72.264
542.10	69.718
542.44	71.786
542.78	70.406
543.12	70.055
543.46	70.445
543.80	70.576
544.14	67.957
544.48	69.753
544.82	70.403
545.16	71.721
545.50	71.362
545.84	72.167
546.18	71.631
546.52	72.026
546.86	71.459
547.20	72.389
547.54	70.318
547.88	72.283
548.22	71.137
548.56	69.459
548.90	72.372
549.24	71.625
549.58	71.368
549.92	70.765
550.26	72.088
550.60	72.268
550.94	73.264
551.28	73.725
551.62	73.615
551.96	72.632
552.30	71.564
552.64	70.733
552.98	72.152
553.32	70.542
553.66	72.859
554.00	73.358
554.34	73.486
554.68	71.681
555.02	72.247
555.36	73.149
555.69	72.527
556.03	71.734
556.37	72.171
556.71	72.852
557.05	72.931
557.39	72.639
557.73	73.763
558.07	73.077
558.41	73.890
558.75	73.500
559.08	72.262
559.42	73.016
559.76	74.460
560.10	74.006
560.44	74.609
560.78	73.846
561.12	73.484
561.45	73.717
561.79	73.529
562.13	73.101
562.47	72.734
562.81	74.352
563.15	71.862
563.48	72.631
563.82	74.537
564.16	73.398
564.50	72.635
564.84	72.691
565.17	73.508
565.51	74.454
565.85	73.594
566.19	73.276
566.52	73.324
566.86	72.108
567.20	73.599
567.54	72.993
567.88	73.462
568.21	72.568
568.55	72.228
568.89	71.869
569.23	71.690
569.56	69.834
569.90	70.849
570.24	69.073
570.57	68.691
570.91	69.432
571.25	68.925
571.59	68.265
571.92	66.578
572.26	67.874
572.60	67.969
572.93	68.623
573.27	68.119
573.61	68.526
573.95	68.924
574.28	67.135
574.62	67.251
574.96	66.916
575.29	66.633
575.63	65.691
575.97	67.173
576.30	68.260
576.64	66.940
576.98	67.362
577.31	68.371
577.65	67.156
577.98	67.181
578.32	67.028
578.66	66.688
578.99	67.010
579.33	66.425
579.67	66.742
580.00	68.405
580.34	68.905
580.67	67.532
581.01	67.891
581.35	67.011
581.68	67.644
582.02	66.599
582.35	66.648
582.69	67.569
583.02	67.443
583.36	68.394
583.70	69.600
584.03	69.892
584.37	70.243
584.70	70.385
585.04	68.627
585.37	67.838
585.71	68.823
586.04	67.700
586.38	68.765
586.72	69.268
587.05	70.797
587.39	69.723
587.72	69.601
588.06	70.246
588.39	69.382
588.73	69.475
589.06	71.298
589.40	70.722
589.73	70.391
590.07	70.997
590.40	71.517
590.73	72.199
591.07	71.120
591.40	72.707
591.74	72.489
592.07	72.774
592.41	72.261
592.74	70.052
593.08	68.390
593.41	69.984
593.75	69.120
594.08	69.722
594.41	69.942
594.75	71.221
595.08	71.169
595.42	71.623
595.75	71.536
596.09	71.814
596.42	72.385
596.75	73.091
597.09	71.708
597.42	71.996
597.75	73.019
598.09	73.427
598.42	71.074
598.76	71.300
599.09	71.514
599.42	69.913
599.76	70.918
600.09	71.569
600.42	70.697
600.76	70.579
601.09	70.534
601.42	70.858
601.76	71.933
602.09	72.401
602.42	73.589
602.76	71.392
603.09	73.173
603.42	74.540
603.76	72.298
604.09	72.864
604.42	72.166
604.76	74.099
605.09	72.761
605.42	72.325
605.75	72.636
606.09	71.635
606.42	71.226
606.75	73.117
607.09	73.407
607.42	72.840
607.75	73.224
608.08	71.608
608.42	72.179
608.75	73.880
609.08	74.689
609.41	75.178
609.75	74.093
610.08	74.039
610.41	73.527
610.74	74.208
611.07	75.607
611.41	75.195
611.74	75.640
612.07	73.340
612.40	75.055
612.73	76.667
613.07	74.522
613.40	75.000
613.73	75.602
614.06	73.845
614.39	76.481
614.72	75.070
615.06	76.145
615.39	73.526
615.72	74.004
616.05	76.369
616.38	73.960
616.71	75.902
617.05	77.208
617.38	76.744
617.71	77.799
618.04	78.794
618.37	78.625
618.70	77.030
619.03	78.125
619.36	78.509
619.69	79.606
620.03	78.890
620.36	77.539
620.69	77.944
621.02	79.052
621.35	80.830
621.68	82.823
622.01	80.333
622.34	80.367
622.67	79.574
623.00	78.407
623.33	78.354
623.66	78.235
623.99	78.669
624.32	78.783
624.65	78.496
624.99	80.060
625.32	79.151
625.65	79.497
625.98	81.225
626.31	79.717
626.64	82.236
626.97	82.112
627.30	81.786
627.63	82.236
627.96	83.378
628.29	84.089
628.62	84.071
628.95	83.367
629.28	85.786
629.61	84.646
629.94	84.262
630.26	83.597
630.59	87.305
630.92	83.897
631.25	83.590
631.58	85.352
631.91	86.623
632.24	86.124
632.57	87.045
632.90	88.612
633.23	86.235
633.56	92.065
633.89	89.642
634.22	88.148
634.55	89.962
634.88	89.017
635.20	89.487
635.53	90.400
635.86	87.646
636.19	90.039
636.52	90.561
636.85	88.337
637.18	87.925
637.51	88.428
637.83	88.699
638.16	93.042
638.49	87.875
638.82	87.632
639.15	90.773
639.48	89.546
639.81	89.540
640.13	94.949
640.46	90.233
640.79	90.869
641.12	91.285
641.45	91.291
641.77	91.259
642.10	93.839
642.43	89.871
642.76	95.875
643.09	93.376
643.41	91.100
643.74	89.456
644.07	92.611
644.40	94.426
644.73	96.673
645.05	92.114
645.38	96.120
645.71	92.553
646.04	98.205
646.36	94.326
646.69	95.683
647.02	95.085
647.35	94.216
647.67	89.945
648.00	96.082
648.33	93.174
648.66	92.203
648.98	92.965
649.31	92.066
649.64	91.366
649.96	89.465
650.29	93.186
650.62	92.991
650.94	96.481
651.27	95.345
651.60	94.234
651.92	91.608
652.25	96.625
652.58	94.167
652.90	93.654
653.23	92.101
653.56	91.032
653.88	94.158
654.21	91.594
654.54	93.039
654.86	91.341
655.19	84.064
655.52	79.799
655.84	70.962
656.17	78.004
656.49	100.000
656.82	100.000
657.15	96.405
657.47	64.407
657.80	49.233
658.13	48.986
658.45	76.388
658.78	77.264
659.10	77.918
659.43	79.675
659.75	82.486
660.08	84.621
660.41	89.785
660.73	90.331
661.06	95.147
661.38	96.673
661.71	93.840
662.03	100.429
662.36	99.121
662.68	98.894
663.01	100.218
663.33	104.872
663.66	101.860
663.98	100.465
664.31	92.964
664.63	97.696
664.96	93.478
665.28	95.585
665.61	99.784
665.93	99.348
666.26	96.529
666.58	97.092
666.91	98.588
667.23	102.830
667.56	102.133
667.88	99.760
668.21	102.148
668.53	99.764
668.86	100.472
669.18	99.528
669.50	100.726
669.83	101.860
670.15	98.368
670.48	102.871
670.80	101.382
671.13	97.092
671.45	94.977
671.77	96.781
672.10	94.257
672.42	94.382
672.75	93.250
673.07	92.844
673.39	94.128
673.72	94.675
674.04	96.875
674.37	97.881
674.69	96.788
675.01	96.889
675.34	101.351
675.66	101.389
675.98	96.009
676.31	97.936
676.63	101.188
676.95	97.955
677.28	99.059
677.60	100.964
677.92	96.789
678.25	103.063
678.57	98.485
678.89	96.218
679.22	103.356
679.54	96.185
679.86	92.843
680.18	96.505
680.51	93.939
680.83	96.421
681.15	94.600
681.48	98.156
681.80	94.421
682.12	93.347
682.44	98.326
682.77	98.013
683.09	100.000
683.41	94.773
683.73	102.765
684.06	94.248
684.38	93.118
684.70	97.821
685.02	97.303
685.34	91.502
685.67	93.621
685.99	92.405
686.31	93.451
686.63	94.434
686.96	90.875
687.28	92.929
687.60	91.825
687.92	99.596
688.24	93.952
688.56	98.908
688.89	98.437
689.21	96.000
689.53	96.288
689.85	100.465
690.17	95.536
690.49	99.054
690.82	101.699
691.14	97.619
691.46	101.402
691.78	94.595
692.10	97.419
692.42	97.619
692.74	93.590
693.06	92.793
693.39	90.498
693.71	93.213
694.03	100.462
694.35	99.766
694.67	100.758
694.99	99.217
695.31	99.478
695.63	96.500
695.95	94.949
696.27	98.705
696.59	104.722
696.91	101.120
697.23	96.401
697.56	100.743
697.88	96.989
698.20	97.950
698.52	99.765
698.84	94.976
699.16	97.500
699.48	98.496
699.80	93.797
700.12	102.695
700.44	101.401
700.76	97.384
701.08	98.788
701.40	99.398
701.72	105.247
702.04	107.261
702.36	113.378
702.68	100.000
703.00	102.727
703.32	103.812
703.64	95.480
703.96	99.710
704.28	98.773
704.60	104.444
704.91	101.577
705.23	103.987
705.55	112.367
705.87	108.664
706.19	106.296
706.51	100.344
706.83	102.572
707.15	99.688
707.47	102.521
707.79	98.698
708.11	99.250
708.43	94.000
708.74	96.382
709.06	97.465
709.38	107.339
709.70	100.000
710.02	101.592
710.34	99.071
710.66	96.154
710.98	99.669
711.29	107.213
711.61	103.390
711.93	100.651
712.25	103.093
712.57	103.663
712.89	104.104
713.20	101.384
713.52	100.348
713.84	104.778
714.16	105.498
714.48	97.419
714.80	102.885
715.11	95.441
715.43	96.552
715.75	102.333
716.07	100.664
716.39	99.329
716.70	106.273
717.02	106.107
717.34	108.502
717.66	107.522
717.97	109.565
718.29	107.113
718.61	108.268
718.93	105.426
719.24	103.042
719.56	106.827
719.88	97.251
720.20	101.515
720.51	98.851
720.83	98.842
721.15	109.664
721.46	104.032
721.78	98.419
722.10	96.654
722.42	102.905
722.73	106.939
723.05	106.939
723.37	107.203
723.68	111.261
724.00	105.556
724.32	106.667
724.63	107.727
724.95	104.367
725.27	108.756
725.58	111.017
725.90	99.206
726.22	101.544
726.53	93.898
726.85	100.375
727.16	103.019
727.48	102.024
727.80	100.000
728.11	102.542
728.43	96.078
728.74	100.000
729.06	104.000
729.38	103.008
729.69	101.992
730.01	98.077
730.32	102.239
730.64	97.173
730.96	102.264
731.27	98.667
731.59	97.627
731.90	96.497
732.22	97.161
732.53	96.013
732.85	103.546
733.16	94.949
733.48	97.482
733.80	96.014
734.11	97.627
734.43	98.969
734.74	95.758
735.06	98.371
735.37	92.447
735.69	96.970
736.00	100.348
736.32	92.617
736.63	94.366
736.95	92.150
737.26	93.238
737.58	91.275
737.89	95.604
738.21	99.248
738.52	102.881
738.83	106.550
739.15	101.310
739.46	100.787
739.78	92.308
740.09	96.732
740.41	98.913
740.72	98.819
741.04	98.785
741.35	97.447
741.66	105.687
741.98	110.204
742.29	104.455
742.61	106.283
742.92	100.948
743.23	97.222
743.55	98.190
743.86	105.742
744.18	98.086
744.49	106.383
744.80	108.152
745.12	113.904
745.43	99.024
745.74	111.979
746.06	100.976
746.37	109.948
746.68	107.583
747.00	103.191
747.31	107.463
747.62	103.398
747.94	107.177
748.25	103.960
748.56	120.219
748.88	107.330
749.19	114.894
749.50	108.867
749.82	95.755
750.13	100.000
750.44	98.496
750.75	100.000
751.07	104.015
751.38	94.636
751.69	102.353
752.01	102.713
752.32	102.390
752.63	98.419
752.94	99.569
753.26	101.674
753.57	95.928
753.88	103.982
754.19	99.167
754.51	97.521
754.82	100.810
755.13	97.083
755.44	103.629
755.75	103.516
756.07	103.502
756.38	95.472
756.69	98.084
757.00	93.000
757.31	91.176
757.63	90.244
757.94	86.389
758.25	86.027
758.56	89.628
758.87	89.802
759.18	95.016
759.50	97.091
759.81	92.977
760.12	93.226
760.43	90.909
760.74	96.914
761.05	96.000
761.36	91.477
761.67	98.788
761.99	96.939
762.30	90.909
762.61	98.814
762.92	101.357
763.23	101.802
763.54	107.477
763.85	103.390
764.16	96.266
764.47	92.742
764.78	93.040
765.10	92.929
765.41	89.590
765.72	90.159
766.03	97.744
766.34	90.876
766.65	102.789
766.96	107.071
767.27	103.191
767.58	102.299
767.89	113.475
768.20	90.909
768.51	97.802
768.82	97.537
769.13	95.853
769.44	93.562
769.75	94.064
770.06	85.776
770.37	99.519
770.68	102.030
770.99	90.498
771.30	102.451
771.61	95.475
771.92	97.414
772.23	102.956
772.54	104.839
772.85	104.321
773.16	98.876
773.47	113.072
773.78	107.843
774.09	104.790
774.39	104.000
774.70	101.911
775.01	96.552
775.32	99.286
775.63	108.264
775.94	108.397
776.25	111.024
776.56	106.667
776.87	118.269
777.18	104.274
777.48	104.310
777.79	96.522
778.10	100.000
778.41	102.703
778.72	96.032
779.03	103.008
779.34	98.582
779.65	98.630
779.95	91.781
780.26	96.552
780.57	98.374
780.88	96.063
781.19	97.414
781.50	96.124
781.80	90.533
782.11	91.195
782.42	112.308
782.73	99.281
783.04	105.926
783.34	86.806
783.65	87.179
783.96	109.016
784.27	100.000
784.57	98.374
784.88	89.062
785.19	109.000
785.50	111.000
785.81	99.138
786.11	93.966
786.42	103.883
786.73	114.545
787.04	109.184
787.34	94.643
787.65	102.857
787.96	102.655
788.26	100.909
788.57	103.419
788.88	99.219
789.19	91.270
789.49	100.000
789.80	115.306
790.11	100.000
790.41	97.273
790.72	106.522
791.03	97.727
791.33	105.000
791.64	111.250
791.95	101.163
792.25	104.255
792.56	103.371
792.87	110.959
793.17	102.899
793.48	106.667
793.79	87.500
794.09	113.750
794.40	88.679
794.70	98.058
795.01	96.748
795.32	99.145
795.62	108.571
795.93	108.824
796.23	81.132
796.54	91.667
796.85	119.118
797.15	91.549
797.46	108.333
797.76	116.667
798.07	91.860
798.37	98.684
798.68	100.000
798.99	93.827
799.29	104.286
799.60	107.246
799.90	101.333
800.21	109.836
800.51	113.846
800.82	94.915
801.12	118.841
801.43	118.033
801.73	120.635
802.04	128.000
802.34	91.045
802.65	130.769
802.95	107.143
803.26	92.308
803.56	113.725
803.87	123.913
804.17	93.333
804.48	98.413
804.78	92.593
805.09	115.217
805.39	131.111
805.70	105.556
806.00	77.193
806.30	90.141
806.61	110.000
806.91	98.611
807.22	110.526
807.52	104.000
807.83	96.364
808.13	106.944
808.43	102.941
808.74	88.060
809.04	81.356
809.35	96.154
809.65	95.312
809.95	108.108
810.26	109.091
810.56	89.041
810.86	130.952
811.17	108.000
811.47	108.163
811.77	126.316
812.08	134.091
812.38	94.340
812.69	105.000
812.99	142.424
813.29	107.895
813.59	120.000
813.90	113.636
814.20	84.615
814.50	100.000
814.81	94.340
815.11	89.362
815.41	93.220
815.72	114.286
816.02	94.118
816.32	79.167
816.62	97.561
816.93	86.486
817.23	140.000
817.53	110.417
817.84	91.304
818.14	82.692
818.44	105.263
818.74	97.826
819.04	82.500
819.35	105.405
819.65	129.412
819.95	111.111
820.25	102.381
820.56	110.000
820.86	89.655
821.16	137.500
821.46	104.255
821.76	102.500
822.07	97.674
822.37	108.108
822.67	109.375
822.97	88.095
823.27	164.286
823.57	112.000
823.88	96.296
824.18	135.714
824.48	91.176
824.78	112.903
825.08	130.435
825.38	106.061
825.69	112.500
825.99	89.474
826.29	122.222
826.59	240.000
826.89	147.619
827.19	115.217
827.49	52.500
827.79	105.714
828.09	114.286
828.39	106.061
828.70	113.514
829.00	110.714
829.30	138.095
829.60	93.333
829.90	100.000
830.20	105.263
830.50	100.000
830.80	126.087
831.10	136.364
831.40	142.424
831.70	122.581
832.00	152.381
832.30	100.000
832.60	133.333
832.90	100.000
833.20	85.000
833.50	115.152
833.80	100.000
834.10	111.538
834.40	96.875
834.70	188.889
835.00	100.000
835.30	146.154
835.60	206.667
835.90	77.419
836.20	136.364
836.50	114.286
836.80	42.308
837.10	110.714
837.40	566.667
837.70	150.000
838.00	227.273
838.30	86.957
838.60	176.923
838.90	118.182
839.19	64.286
839.49	90.000
839.79	146.154
840.09	100.000
840.39	110.714
840.69	75.000
840.99	107.692
841.29	89.474
841.59	140.000
841.88	272.727
842.18	290.000
842.48	156.250
842.78	153.333
843.08	48.148
843.38	100.000
843.68	104.348
843.97	106.667
844.27	220.000
844.57	125.000
844.87	127.778
845.17	76.190
845.47	186.667
845.76	71.429
846.06	105.882
846.36	210.000
846.66	14.286
846.96	80.000
847.25	62.500
847.55	128.571
847.85	150.000
848.15	50.000
848.44	400.000
848.74	95.000
849.04	74.074
849.34	118.182
849.63	183.333
849.93	20.000
850.23	61.111
850.53	290.000
850.82	130.769
851.12	200.000
851.42	126.667
851.71	46.154
852.01	50.000
852.31	50.000
852.61	163.636
852.90	45.000
853.20	84.211
853.50	150.000
853.79	104.348
854.09	100.000
854.39	68.421
854.68	100.000
854.98	100.000
855.28	130.769
855.57	75.000
855.87	133.333
856.17	62.963
856.46	171.429
856.76	106.667
857.05	288.889
857.35	68.000
857.65	83.333
857.94	161.538
858.24	86.207
858.53	77.778
858.83	107.407
859.13	63.636
859.42	69.565
859.72	425.000
860.01	366.667
860.31	32.000
860.60	38.095
860.90	533.333
861.20	60.000
861.49	150.000
861.79	60.000
862.08	65.000
862.38	146.667
862.67	220.000
862.97	50.000
863.26	158.333
863.56	150.000
863.85	-100.000
864.15	111.111
864.44	70.000
864.74	192.857
865.03	75.000
865.33	80.000
865.62	216.667
865.92	141.667
866.21	-33.333
866.51	118.750
866.80	45.455
867.10	250.000
867.39	166.667
867.69	0.000
867.98	61.538
868.27	400.000
868.57	113.333
868.86	88.889
869.16	53.846
869.45	133.333
869.75	-900.000
870.04	0.000
870.33	71.429
870.63	85.714
870.92	-100.000
871.22	40.000
871.51	200.000
871.80	222.222
872.10	33.333
>>>>>End Processed Spectral Data<<<<<
