SpectraSuite Data File
++++++++++++++++++++++++++++++++++++
Date: Fri May 15 17:16:13 PDT 2015
User: schluterlab
Dark Spectrum Present: Yes
Reference Spectrum Present: Yes
Number of Sampled Component Spectra: 1
Spectrometers: USB2E3373
Integration Time (usec): 3000 (USB2E3373)
Spectra Averaged: 3 (USB2E3373)
Boxcar Smoothing: 0 (USB2E3373)
Correct for Electrical Dark: No (USB2E3373)
Strobe/Lamp Enabled: No (USB2E3373)
Correct for Detector Non-linearity: No (USB2E3373)
Correct for Stray Light: No (USB2E3373)
Number of Pixels in Processed Spectrum: 2048
>>>>>Begin Processed Spectral Data<<<<<
178.53	0.000
178.91	0.000
179.29	225.000
179.67	350.000
180.04	-128.571
180.42	325.000
180.80	400.000
181.18	-233.333
181.56	-150.000
181.94	250.000
182.31	800.000
182.69	160.000
183.07	166.667
183.45	60.000
183.83	-50.000
184.20	0.000
184.58	55.556
184.96	25.000
185.34	33.333
185.72	100.000
186.09	30.769
186.47	-100.000
186.85	116.667
187.23	44.444
187.61	-100.000
187.98	200.000
188.36	133.333
188.74	0.000
189.12	82.353
189.49	33.333
189.87	0.000
190.25	114.286
190.63	450.000
191.00	-33.333
191.38	42.105
191.76	450.000
192.14	-100.000
192.51	400.000
192.89	-44.444
193.27	14.286
193.65	-50.000
194.02	90.909
194.40	120.000
194.78	-25.000
195.15	108.333
195.53	-12.500
195.91	125.000
196.29	-75.000
196.66	-0.000
197.04	14.286
197.42	55.556
197.79	-166.667
198.17	-15.385
198.55	-0.000
198.92	-33.333
199.30	700.000
199.68	180.000
200.05	266.667
200.43	0.000
200.81	300.000
201.18	333.333
201.56	-200.000
201.94	100.000
202.31	-133.333
202.69	60.000
203.07	-0.000
203.44	400.000
203.82	0.000
204.19	14.286
204.57	-66.667
204.95	112.500
205.32	40.000
205.70	-28.571
206.08	50.000
206.45	188.889
206.83	92.857
207.20	-57.143
207.58	600.000
207.96	-33.333
208.33	-70.000
208.71	225.000
209.08	100.000
209.46	0.000
209.84	-60.000
210.21	-800.000
210.59	85.714
210.96	216.667
211.34	425.000
211.71	93.333
212.09	128.571
212.46	-900.000
212.84	0.000
213.22	100.000
213.59	-250.000
213.97	176.923
214.34	81.818
214.72	100.000
215.09	150.000
215.47	92.308
215.84	45.455
216.22	0.000
216.59	62.500
216.97	350.000
217.34	25.000
217.72	20.000
218.09	62.500
218.47	12.500
218.84	300.000
219.22	22.222
219.59	-40.000
219.97	100.000
220.34	275.000
220.72	85.714
221.09	250.000
221.47	250.000
221.84	-150.000
222.22	-100.000
222.59	45.455
222.97	125.000
223.34	300.000
223.72	57.143
224.09	14.286
224.46	25.000
224.84	33.333
225.21	60.000
225.59	33.333
225.96	-200.000
226.34	-0.000
226.71	157.143
227.08	66.667
227.46	112.500
227.83	450.000
228.21	77.778
228.58	63.636
228.95	0.000
229.33	40.000
229.70	31.250
230.08	-25.000
230.45	71.429
230.82	142.857
231.20	106.667
231.57	121.429
231.95	57.143
232.32	80.000
232.69	42.857
233.07	100.000
233.44	200.000
233.81	20.000
234.19	44.444
234.56	23.529
234.93	-200.000
235.31	225.000
235.68	60.000
236.05	69.231
236.43	-5.000
236.80	64.706
237.17	50.000
237.55	40.000
237.92	-7.407
238.29	61.111
238.67	50.000
239.04	29.412
239.41	19.512
239.79	53.333
240.16	58.537
240.53	42.105
240.91	28.261
241.28	47.619
241.65	28.571
242.02	52.055
242.40	43.333
242.77	42.373
243.14	19.697
243.51	42.500
243.89	52.874
244.26	32.184
244.63	40.476
245.00	41.237
245.38	51.546
245.75	35.955
246.12	37.069
246.49	41.322
246.87	42.308
247.24	33.613
247.61	35.965
247.98	39.024
248.36	35.625
248.73	40.789
249.10	44.805
249.47	41.139
249.84	38.562
250.22	39.412
250.59	48.366
250.96	38.967
251.33	41.279
251.70	41.176
252.08	34.010
252.45	38.614
252.82	39.698
253.19	40.092
253.56	41.121
253.94	38.739
254.31	40.000
254.68	41.667
255.05	42.913
255.42	43.668
255.79	42.471
256.16	42.023
256.54	37.687
256.91	38.403
257.28	37.175
257.65	41.573
258.02	40.071
258.39	38.721
258.76	42.125
259.14	44.518
259.51	41.424
259.88	39.519
260.25	40.523
260.62	42.708
260.99	38.644
261.36	39.726
261.73	41.456
262.10	42.553
262.47	37.117
262.85	37.931
263.22	38.769
263.59	41.433
263.96	38.509
264.33	41.515
264.70	40.476
265.07	40.476
265.44	41.076
265.81	38.701
266.18	38.525
266.55	39.075
266.92	43.005
267.29	39.948
267.66	40.153
268.03	41.361
268.40	37.598
268.77	43.316
269.14	37.890
269.51	40.874
269.88	38.404
270.25	37.755
270.62	36.829
270.99	38.107
271.36	34.963
271.73	39.671
272.10	40.146
272.47	40.189
272.84	39.356
273.21	40.139
273.58	39.518
273.95	40.503
274.32	35.566
274.69	35.520
275.06	40.402
275.43	36.281
275.80	35.541
276.17	38.851
276.54	36.188
276.91	37.281
277.28	35.808
277.65	41.529
278.02	35.745
278.39	38.074
278.76	40.881
279.13	34.855
279.50	36.975
279.87	37.365
280.23	38.280
280.60	37.232
280.97	37.172
281.34	37.500
281.71	39.425
282.08	35.174
282.45	37.965
282.82	34.749
283.19	37.331
283.56	36.224
283.92	36.812
284.29	36.346
284.66	34.884
285.03	37.328
285.40	35.161
285.77	33.743
286.14	34.477
286.51	36.531
286.87	35.101
287.24	33.333
287.61	36.508
287.98	32.982
288.35	33.276
288.72	34.851
289.08	34.375
289.45	35.501
289.82	34.615
290.19	34.812
290.56	31.904
290.93	33.838
291.29	30.354
291.66	30.866
292.03	29.825
292.40	31.935
292.77	32.855
293.13	30.032
293.50	29.590
293.87	29.313
294.24	31.066
294.60	30.402
294.97	29.315
295.34	31.135
295.71	28.763
296.08	29.895
296.44	27.454
296.81	28.472
297.18	29.855
297.55	28.184
297.91	27.397
298.28	27.836
298.65	27.137
299.02	26.819
299.38	24.624
299.75	26.483
300.12	26.832
300.48	25.296
300.85	25.222
301.22	23.766
301.59	26.447
301.95	27.215
302.32	27.497
302.69	25.871
303.05	23.886
303.42	25.778
303.79	25.234
304.15	26.165
304.52	23.900
304.89	24.444
305.25	24.697
305.62	23.921
305.99	25.614
306.35	24.509
306.72	23.622
307.09	24.059
307.45	24.684
307.82	26.505
308.19	24.158
308.55	22.792
308.92	24.183
309.29	23.799
309.65	22.282
310.02	23.432
310.38	23.381
310.75	24.809
311.12	24.220
311.48	24.496
311.85	22.932
312.22	24.262
312.58	24.204
312.95	23.372
313.31	23.188
313.68	23.874
314.05	23.367
314.41	24.124
314.78	24.330
315.14	23.741
315.51	25.052
315.87	24.180
316.24	24.469
316.61	23.819
316.97	23.611
317.34	24.316
317.70	24.092
318.07	25.192
318.43	24.412
318.80	23.958
319.16	25.781
319.53	25.641
319.89	24.902
320.26	26.417
320.62	27.783
320.99	25.365
321.35	27.749
321.72	28.764
322.08	27.895
322.45	28.223
322.81	28.880
323.18	28.361
323.54	29.440
323.91	29.309
324.27	31.152
324.64	31.554
325.00	32.847
325.37	34.160
325.73	33.545
326.10	34.332
326.46	36.413
326.83	36.395
327.19	38.448
327.56	37.706
327.92	38.468
328.29	39.911
328.65	40.755
329.01	41.360
329.38	42.949
329.74	42.587
330.11	42.447
330.47	43.135
330.84	44.519
331.20	47.433
331.56	45.926
331.93	47.032
332.29	48.304
332.66	47.059
333.02	48.234
333.38	47.388
333.75	50.458
334.11	48.075
334.48	49.683
334.84	49.908
335.20	49.680
335.57	49.320
335.93	51.762
336.29	52.210
336.66	49.046
337.02	51.208
337.38	50.741
337.75	51.455
338.11	52.029
338.47	52.099
338.84	52.957
339.20	50.640
339.56	51.927
339.93	51.746
340.29	52.202
340.65	52.419
341.02	52.394
341.38	51.947
341.74	52.385
342.11	52.166
342.47	53.915
342.83	53.201
343.20	51.045
343.56	53.565
343.92	53.499
344.28	53.459
344.65	53.541
345.01	53.328
345.37	52.229
345.73	54.728
346.10	54.357
346.46	52.733
346.82	51.800
347.19	52.369
347.55	52.966
347.91	54.935
348.27	53.517
348.63	53.492
349.00	53.404
349.36	54.032
349.72	52.653
350.08	54.508
350.45	53.711
350.81	54.734
351.17	52.036
351.53	55.918
351.89	52.684
352.26	52.560
352.62	53.871
352.98	53.012
353.34	53.301
353.70	53.803
354.07	53.468
354.43	53.883
354.79	54.500
355.15	53.492
355.51	53.165
355.87	55.259
356.24	53.100
356.60	53.921
356.96	55.079
357.32	55.990
357.68	52.619
358.04	54.200
358.40	54.421
358.77	55.582
359.13	56.285
359.49	51.772
359.85	54.680
360.21	56.061
360.57	54.399
360.93	55.673
361.29	53.927
361.66	55.878
362.02	56.591
362.38	56.588
362.74	55.791
363.10	56.960
363.46	56.783
363.82	56.875
364.18	55.277
364.54	55.956
364.90	56.272
365.26	55.895
365.62	58.102
365.98	56.158
366.35	57.174
366.71	59.571
367.07	58.491
367.43	58.088
367.79	57.102
368.15	56.784
368.51	58.922
368.87	58.435
369.23	57.617
369.59	59.111
369.95	58.431
370.31	58.887
370.67	60.299
371.03	59.746
371.39	59.008
371.75	59.341
372.11	58.845
372.47	60.503
372.83	58.978
373.19	60.699
373.55	60.289
373.91	61.339
374.27	60.595
374.63	60.948
374.99	61.277
375.35	61.838
375.71	61.958
376.07	62.711
376.42	61.020
376.78	61.678
377.14	62.559
377.50	63.546
377.86	63.186
378.22	63.689
378.58	63.718
378.94	63.768
379.30	63.069
379.66	64.828
380.02	63.581
380.38	64.273
380.74	64.393
381.09	65.460
381.45	65.382
381.81	65.453
382.17	66.053
382.53	65.834
382.89	68.989
383.25	67.579
383.61	67.561
383.97	66.984
384.32	66.792
384.68	67.183
385.04	67.279
385.40	66.708
385.76	68.679
386.12	69.211
386.48	68.710
386.83	69.119
387.19	69.719
387.55	69.072
387.91	70.171
388.27	68.376
388.62	70.422
388.98	69.859
389.34	70.581
389.70	69.857
390.06	69.226
390.42	71.049
390.77	71.354
391.13	69.735
391.49	71.022
391.85	71.930
392.20	71.438
392.56	71.202
392.92	72.578
393.28	72.583
393.64	72.372
393.99	72.414
394.35	73.814
394.71	72.669
395.07	70.773
395.42	71.403
395.78	73.225
396.14	72.320
396.50	73.494
396.85	74.501
397.21	72.744
397.57	73.480
397.92	72.618
398.28	73.908
398.64	72.711
399.00	75.169
399.35	72.912
399.71	71.970
400.07	74.909
400.42	72.644
400.78	74.036
401.14	73.382
401.49	73.556
401.85	73.614
402.21	74.096
402.57	73.562
402.92	74.467
403.28	74.185
403.63	74.590
403.99	74.745
404.35	75.578
404.70	73.393
405.06	74.207
405.42	74.208
405.77	74.085
406.13	76.426
406.49	74.186
406.84	75.917
407.20	75.135
407.55	74.565
407.91	75.334
408.27	74.697
408.62	74.954
408.98	75.046
409.34	74.907
409.69	75.129
410.05	75.123
410.40	74.815
410.76	74.729
411.11	74.937
411.47	75.674
411.83	74.325
412.18	77.413
412.54	74.719
412.89	75.062
413.25	74.368
413.60	74.969
413.96	73.988
414.31	74.817
414.67	75.754
415.03	76.099
415.38	73.564
415.74	75.831
416.09	76.159
416.45	75.962
416.80	74.884
417.16	77.762
417.51	76.482
417.87	76.402
418.22	78.497
418.58	76.656
418.93	78.182
419.29	74.840
419.64	77.835
420.00	76.637
420.35	76.179
420.71	76.731
421.06	78.146
421.42	78.005
421.77	77.457
422.12	76.561
422.48	77.964
422.83	76.160
423.19	77.878
423.54	77.484
423.90	77.680
424.25	78.588
424.61	78.580
424.96	77.642
425.31	80.474
425.67	79.519
426.02	78.799
426.38	79.962
426.73	79.237
427.09	79.620
427.44	79.706
427.79	79.316
428.15	77.973
428.50	79.891
428.85	79.361
429.21	79.626
429.56	81.132
429.92	78.172
430.27	79.348
430.62	79.247
430.98	79.777
431.33	80.126
431.68	77.708
432.04	80.771
432.39	78.950
432.74	77.210
433.10	80.460
433.45	81.243
433.80	82.298
434.16	82.050
434.51	81.022
434.86	80.662
435.22	80.370
435.57	81.410
435.92	80.599
436.28	80.203
436.63	81.175
436.98	80.649
437.34	82.698
437.69	81.694
438.04	81.937
438.39	79.719
438.75	82.149
439.10	83.418
439.45	81.862
439.81	82.508
440.16	84.739
440.51	83.164
440.86	85.257
441.22	82.183
441.57	83.278
441.92	84.523
442.27	83.647
442.63	82.816
442.98	83.343
443.33	83.528
443.68	83.926
444.03	82.961
444.39	84.506
444.74	85.786
445.09	84.744
445.44	85.698
445.79	86.694
446.15	83.095
446.50	85.025
446.85	85.707
447.20	83.889
447.55	84.208
447.91	85.336
448.26	85.259
448.61	85.320
448.96	85.600
449.31	86.012
449.66	85.250
450.02	86.195
450.37	86.248
450.72	85.223
451.07	86.709
451.42	83.021
451.77	85.232
452.12	84.091
452.47	84.095
452.83	85.630
453.18	83.871
453.53	85.461
453.88	85.307
454.23	83.958
454.58	87.154
454.93	84.601
455.28	83.937
455.63	86.671
455.98	86.831
456.34	84.419
456.69	83.736
457.04	85.444
457.39	86.391
457.74	85.792
458.09	83.461
458.44	85.840
458.79	84.874
459.14	84.497
459.49	85.851
459.84	86.746
460.19	86.226
460.54	85.208
460.89	84.545
461.24	86.522
461.59	84.798
461.94	82.264
462.29	84.982
462.64	85.714
462.99	84.225
463.34	85.535
463.69	84.813
464.04	85.230
464.39	84.233
464.74	84.049
465.09	87.211
465.44	85.920
465.79	84.184
466.14	84.550
466.49	84.991
466.84	84.355
467.19	83.917
467.54	84.100
467.89	84.649
468.24	84.002
468.59	84.190
468.94	83.810
469.29	84.525
469.64	83.390
469.99	85.004
470.34	84.642
470.68	86.130
471.03	84.572
471.38	84.094
471.73	83.964
472.08	81.275
472.43	84.564
472.78	83.482
473.13	84.218
473.48	83.518
473.83	83.188
474.17	83.290
474.52	83.599
474.87	81.576
475.22	84.259
475.57	83.117
475.92	84.312
476.27	82.945
476.61	82.812
476.96	80.312
477.31	83.072
477.66	82.640
478.01	82.594
478.36	82.081
478.70	85.046
479.05	83.407
479.40	82.724
479.75	81.856
480.10	82.642
480.45	82.100
480.79	82.981
481.14	84.119
481.49	83.744
481.84	83.253
482.19	82.133
482.53	83.645
482.88	81.766
483.23	82.102
483.58	81.368
483.92	81.752
484.27	81.358
484.62	82.205
484.97	82.794
485.31	81.900
485.66	83.692
486.01	85.641
486.36	83.909
486.70	82.793
487.05	82.198
487.40	82.472
487.75	81.352
488.09	80.964
488.44	79.780
488.79	80.164
489.13	80.809
489.48	82.343
489.83	80.448
490.17	80.404
490.52	80.970
490.87	78.852
491.22	80.707
491.56	80.740
491.91	80.210
492.26	80.943
492.60	78.743
492.95	81.210
493.30	79.287
493.64	81.876
493.99	81.256
494.34	81.117
494.68	80.857
495.03	81.168
495.37	79.637
495.72	80.464
496.07	80.439
496.41	79.953
496.76	81.299
497.11	78.575
497.45	79.284
497.80	79.970
498.14	78.142
498.49	81.006
498.84	79.940
499.18	79.518
499.53	79.812
499.87	78.599
500.22	79.921
500.56	80.736
500.91	79.317
501.26	78.893
501.60	79.685
501.95	80.640
502.29	79.128
502.64	80.840
502.98	80.661
503.33	78.194
503.67	79.084
504.02	79.765
504.36	78.773
504.71	78.535
505.06	78.661
505.40	78.477
505.75	79.433
506.09	78.763
506.44	80.031
506.78	79.133
507.13	79.576
507.47	76.554
507.82	79.060
508.16	78.236
508.51	78.856
508.85	79.540
509.19	77.488
509.54	78.981
509.88	77.508
510.23	78.644
510.57	79.102
510.92	77.239
511.26	78.342
511.61	78.768
511.95	77.370
512.30	78.104
512.64	77.685
512.98	77.428
513.33	78.176
513.67	77.487
514.02	80.378
514.36	77.600
514.70	79.837
515.05	78.378
515.39	77.627
515.74	78.503
516.08	78.422
516.42	78.563
516.77	76.653
517.11	80.237
517.46	78.336
517.80	78.546
518.14	76.730
518.49	77.103
518.83	77.704
519.17	76.167
519.52	77.324
519.86	77.671
520.20	78.068
520.55	76.673
520.89	77.854
521.23	76.757
521.58	76.845
521.92	76.731
522.26	76.383
522.61	76.494
522.95	79.272
523.29	78.018
523.64	78.590
523.98	79.132
524.32	76.740
524.66	77.081
525.01	77.013
525.35	77.187
525.69	76.902
526.04	76.587
526.38	79.183
526.72	76.128
527.06	75.551
527.41	76.979
527.75	77.681
528.09	76.545
528.43	78.798
528.78	77.294
529.12	76.968
529.46	78.428
529.80	75.744
530.15	79.010
530.49	78.047
530.83	78.591
531.17	75.353
531.51	76.744
531.86	77.430
532.20	77.383
532.54	76.719
532.88	78.234
533.22	76.815
533.57	76.278
533.91	78.133
534.25	77.865
534.59	77.229
534.93	76.841
535.27	77.475
535.62	76.863
535.96	78.213
536.30	76.451
536.64	78.291
536.98	77.561
537.32	79.232
537.66	78.191
538.01	78.741
538.35	76.491
538.69	75.499
539.03	77.649
539.37	76.649
539.71	75.937
540.05	76.035
540.39	77.424
540.73	77.266
541.07	77.279
541.42	76.613
541.76	77.977
542.10	76.531
542.44	76.511
542.78	76.738
543.12	76.786
543.46	74.896
543.80	77.585
544.14	74.099
544.48	77.215
544.82	76.487
545.16	76.708
545.50	75.300
545.84	77.904
546.18	77.305
546.52	76.063
546.86	76.923
547.20	78.326
547.54	76.184
547.88	76.698
548.22	75.477
548.56	74.934
548.90	77.224
549.24	75.482
549.58	77.221
549.92	75.482
550.26	75.897
550.60	77.621
550.94	76.027
551.28	76.352
551.62	76.615
551.96	77.218
552.30	76.754
552.64	74.965
552.98	75.949
553.32	76.819
553.66	77.068
554.00	79.051
554.34	77.105
554.68	75.295
555.02	75.521
555.36	77.188
555.69	75.458
556.03	76.874
556.37	75.872
556.71	76.895
557.05	75.541
557.39	74.052
557.73	76.762
558.07	78.054
558.41	76.417
558.75	76.695
559.08	76.832
559.42	76.587
559.76	77.742
560.10	75.765
560.44	75.428
560.78	75.524
561.12	77.433
561.45	78.356
561.79	77.941
562.13	77.431
562.47	77.194
562.81	77.522
563.15	75.811
563.48	77.157
563.82	77.831
564.16	78.134
564.50	76.554
564.84	77.376
565.17	77.129
565.51	79.781
565.85	78.944
566.19	77.188
566.52	79.021
566.86	78.149
567.20	76.775
567.54	80.657
567.88	81.136
568.21	79.695
568.55	79.457
568.89	80.903
569.23	80.164
569.56	80.604
569.90	81.892
570.24	80.275
570.57	81.491
570.91	81.108
571.25	80.862
571.59	79.788
571.92	78.815
572.26	80.133
572.60	79.411
572.93	78.318
573.27	80.000
573.61	80.310
573.95	80.202
574.28	79.767
574.62	80.524
574.96	79.332
575.29	79.253
575.63	78.103
575.97	78.341
576.30	78.521
576.64	78.517
576.98	80.232
577.31	79.676
577.65	80.757
577.98	80.431
578.32	79.917
578.66	78.444
578.99	78.615
579.33	78.316
579.67	77.795
580.00	79.797
580.34	79.627
580.67	78.536
581.01	79.947
581.35	79.565
581.68	80.890
582.02	81.006
582.35	80.780
582.69	80.230
583.02	79.556
583.36	80.554
583.70	79.829
584.03	80.956
584.37	80.124
584.70	79.808
585.04	79.870
585.37	79.779
585.71	80.276
586.04	79.980
586.38	80.075
586.72	79.598
587.05	81.138
587.39	80.934
587.72	82.422
588.06	80.653
588.39	80.347
588.73	80.342
589.06	79.974
589.40	80.505
589.73	80.029
590.07	80.098
590.40	79.915
590.73	81.219
591.07	79.304
591.40	80.721
591.74	81.041
592.07	80.288
592.41	80.963
592.74	79.849
593.08	80.335
593.41	81.417
593.75	80.471
594.08	80.124
594.41	79.585
594.75	80.153
595.08	79.947
595.42	80.272
595.75	81.787
596.09	81.353
596.42	80.488
596.75	80.639
597.09	79.362
597.42	80.714
597.75	81.219
598.09	79.312
598.42	79.964
598.76	79.494
599.09	80.248
599.42	79.765
599.76	80.549
600.09	80.920
600.42	81.274
600.76	79.569
601.09	79.847
601.42	79.240
601.76	79.873
602.09	80.734
602.42	81.340
602.76	81.579
603.09	81.271
603.42	82.065
603.76	80.968
604.09	80.923
604.42	80.584
604.76	82.510
605.09	80.027
605.42	79.142
605.75	80.911
606.09	80.764
606.42	80.150
606.75	80.693
607.09	80.308
607.42	79.973
607.75	81.039
608.08	79.200
608.42	77.387
608.75	80.723
609.08	80.618
609.41	79.340
609.75	78.982
610.08	80.379
610.41	80.290
610.74	80.449
611.07	80.982
611.41	79.969
611.74	81.343
612.07	80.086
612.40	79.705
612.73	81.186
613.07	78.796
613.40	80.470
613.73	80.134
614.06	79.911
614.39	79.921
614.72	79.552
615.06	79.721
615.39	79.039
615.72	77.826
616.05	80.056
616.38	77.265
616.71	80.000
617.05	80.049
617.38	80.893
617.71	80.566
618.04	81.587
618.37	80.895
618.70	79.736
619.03	80.694
619.36	78.003
619.69	82.032
620.03	81.300
620.36	80.329
620.69	79.515
621.02	79.434
621.35	79.834
621.68	80.357
622.01	80.000
622.34	79.968
622.67	80.678
623.00	79.556
623.33	81.402
623.66	79.581
623.99	78.971
624.32	78.707
624.65	80.075
624.99	81.114
625.32	80.743
625.65	79.890
625.98	81.628
626.31	78.803
626.64	79.116
626.97	80.890
627.30	79.072
627.63	77.556
627.96	79.695
628.29	77.983
628.62	79.253
628.95	78.557
629.28	82.359
629.61	77.767
629.94	80.156
630.26	78.063
630.59	80.437
630.92	78.667
631.25	77.436
631.58	79.515
631.91	77.303
632.24	79.472
632.57	78.295
632.90	80.071
633.23	77.529
633.56	79.345
633.89	78.422
634.22	79.630
634.55	79.924
634.88	79.055
635.20	78.590
635.53	80.400
635.86	78.153
636.19	81.759
636.52	81.122
636.85	77.171
637.18	79.623
637.51	76.604
637.83	77.004
638.16	80.082
638.49	78.065
638.82	78.421
639.15	79.919
639.48	81.568
639.81	79.079
640.13	78.788
640.46	79.738
640.79	78.351
641.12	78.730
641.45	79.880
641.77	77.630
642.10	78.989
642.43	75.563
642.76	79.868
643.09	77.383
643.41	76.375
643.74	80.066
644.07	78.489
644.40	78.041
644.73	80.560
645.05	78.523
645.38	81.658
645.71	78.546
646.04	81.508
646.36	77.660
646.69	79.317
647.02	81.096
647.35	78.731
647.67	75.686
648.00	81.903
648.33	76.962
648.66	82.542
648.98	77.889
649.31	78.843
649.64	80.377
649.96	80.551
650.29	80.750
650.62	77.949
650.94	82.778
651.27	81.192
651.60	81.441
651.92	78.671
652.25	79.751
652.58	79.333
652.90	82.333
653.23	82.521
653.56	77.157
653.88	79.725
654.21	75.482
654.54	76.910
654.86	79.287
655.19	79.094
655.52	83.437
655.84	86.697
656.17	96.892
656.49	100.000
656.82	100.000
657.15	100.000
657.47	100.000
657.80	84.603
658.13	52.978
658.45	82.017
658.78	80.539
659.10	78.900
659.43	78.336
659.75	80.316
660.08	78.000
660.41	79.980
660.73	80.110
661.06	79.029
661.38	79.452
661.71	74.127
662.03	78.112
662.36	78.901
662.68	80.531
663.01	78.166
663.33	77.958
663.66	77.907
663.98	77.907
664.31	75.267
664.63	81.106
664.96	75.217
665.28	77.263
665.61	80.736
665.93	78.261
666.26	80.694
666.58	75.391
666.91	83.294
667.23	83.019
667.56	77.725
667.88	81.295
668.21	80.191
668.53	81.560
668.86	78.066
669.18	76.887
669.50	78.450
669.83	77.442
670.15	78.555
670.48	78.469
670.80	80.184
671.13	74.497
671.45	74.201
671.77	78.755
672.10	78.812
672.42	78.277
672.75	80.462
673.07	81.395
673.39	80.183
673.72	76.529
674.04	75.625
674.37	81.568
674.69	79.443
675.01	79.333
675.34	78.829
675.66	79.630
675.98	77.384
676.31	78.211
676.63	80.523
676.95	75.000
677.28	78.588
677.60	80.964
677.92	78.670
678.25	77.024
678.57	79.437
678.89	78.992
679.22	83.669
679.54	79.518
679.86	80.716
680.18	77.087
680.51	80.492
680.83	79.125
681.15	79.800
681.48	81.557
681.80	80.785
682.12	78.226
682.44	82.427
682.77	82.119
683.09	80.092
683.41	80.682
683.73	80.184
684.06	79.204
684.38	79.140
684.70	83.660
685.02	79.876
685.34	78.458
685.67	79.550
685.99	79.024
686.31	80.354
686.63	82.560
686.96	78.707
687.28	81.818
687.60	78.137
687.92	83.636
688.24	80.444
688.56	83.624
688.89	82.143
689.21	82.444
689.53	81.439
689.85	81.163
690.17	79.464
690.49	81.087
690.82	81.796
691.14	79.048
691.46	83.645
691.78	81.532
692.10	82.581
692.42	79.870
692.74	78.205
693.06	81.982
693.39	81.222
693.71	80.995
694.03	80.370
694.35	80.841
694.67	82.576
694.99	79.373
695.31	84.334
695.63	79.250
695.95	79.798
696.27	80.570
696.59	82.778
696.91	79.832
697.23	80.206
697.56	86.386
697.88	80.860
698.20	80.410
698.52	83.059
698.84	81.579
699.16	77.750
699.48	82.456
699.80	78.412
700.12	81.941
700.44	83.473
700.76	76.453
701.08	82.424
701.40	82.530
701.72	82.716
702.04	86.799
702.36	82.943
702.68	81.081
703.00	80.303
703.32	79.472
703.64	77.684
703.96	79.130
704.28	83.129
704.60	84.127
704.91	83.281
705.23	79.402
705.55	82.332
705.87	81.588
706.19	85.185
706.51	78.351
706.83	80.064
707.15	80.997
707.47	84.314
707.79	80.729
708.11	79.250
708.43	77.750
708.74	79.070
709.06	83.944
709.38	86.239
709.70	79.882
710.02	78.025
710.34	82.353
710.66	74.679
710.98	84.768
711.29	90.492
711.61	84.746
711.93	78.502
712.25	87.285
712.57	79.121
712.89	78.358
713.20	82.007
713.52	79.443
713.84	86.689
714.16	89.003
714.48	83.226
714.80	84.615
715.11	82.371
715.43	83.386
715.75	84.000
716.07	77.076
716.39	80.872
716.70	85.978
717.02	82.061
717.34	85.020
717.66	85.841
717.97	83.043
718.29	79.079
718.61	80.709
718.93	82.946
719.24	81.369
719.56	90.763
719.88	74.227
720.20	80.303
720.51	81.609
720.83	80.309
721.15	84.454
721.46	88.306
721.78	79.842
722.10	76.208
722.42	80.498
722.73	78.776
723.05	85.714
723.37	84.746
723.68	92.342
724.00	77.350
724.32	83.111
724.63	87.727
724.95	82.096
725.27	86.636
725.58	82.627
725.90	80.159
726.22	84.556
726.53	76.271
726.85	82.772
727.16	81.887
727.48	83.806
727.80	86.640
728.11	84.746
728.43	78.824
728.74	78.629
729.06	84.800
729.38	82.707
729.69	85.657
730.01	78.846
730.32	88.060
730.64	83.746
730.96	91.321
731.27	81.000
731.59	84.746
731.90	81.210
732.22	84.543
732.53	85.382
732.85	85.816
733.16	86.869
733.48	85.612
733.80	89.855
734.11	78.305
734.43	87.629
734.74	84.848
735.06	85.342
735.37	83.988
735.69	91.246
736.00	81.185
736.32	80.872
736.63	82.746
736.95	84.300
737.26	83.274
737.58	86.577
737.89	89.377
738.21	89.098
738.52	90.123
738.83	90.830
739.15	87.336
739.46	85.039
739.78	87.912
740.09	79.085
740.41	82.971
740.72	88.189
741.04	80.162
741.35	85.532
741.66	87.678
741.98	82.143
742.29	83.663
742.61	93.717
742.92	79.147
743.23	88.426
743.55	87.330
743.86	87.560
744.18	83.732
744.49	89.362
744.80	89.674
745.12	94.118
745.43	83.415
745.74	83.854
746.06	91.707
746.37	92.670
746.68	90.995
747.00	86.702
747.31	82.090
747.62	90.291
747.94	91.866
748.25	86.139
748.56	97.814
748.88	82.723
749.19	89.362
749.50	83.251
749.82	79.717
750.13	86.697
750.44	89.474
750.75	89.179
751.07	87.591
751.38	93.487
751.69	85.098
752.01	86.434
752.32	89.243
752.63	87.747
752.94	92.241
753.26	91.213
753.57	82.353
753.88	88.053
754.19	83.333
754.51	92.149
754.82	91.903
755.13	93.333
755.44	87.903
755.75	91.406
756.07	88.716
756.38	84.906
756.69	92.337
757.00	88.667
757.31	89.869
757.63	85.366
757.94	84.167
758.25	83.562
758.56	87.234
758.87	82.720
759.18	85.047
759.50	87.636
759.81	89.298
760.12	83.871
760.43	85.455
760.74	89.815
761.05	93.538
761.36	86.080
761.67	89.394
761.99	89.456
762.30	86.909
762.61	85.375
762.92	86.425
763.23	83.784
763.54	90.187
763.85	88.559
764.16	83.817
764.47	86.694
764.78	86.447
765.10	85.522
765.41	87.382
765.72	87.619
766.03	89.098
766.34	79.197
766.65	84.861
766.96	88.889
767.27	79.787
767.58	85.057
767.89	91.489
768.20	77.273
768.51	87.912
768.82	87.192
769.13	84.332
769.44	86.266
769.75	87.215
770.06	82.759
770.37	87.500
770.68	78.173
770.99	81.900
771.30	96.078
771.61	85.520
771.92	95.690
772.23	92.611
772.54	93.548
772.85	87.037
773.16	78.090
773.47	101.307
773.78	91.503
774.09	77.246
774.39	94.000
774.70	86.624
775.01	89.655
775.32	88.571
775.63	91.736
775.94	83.206
776.25	79.528
776.56	78.333
776.87	95.192
777.18	90.598
777.48	80.172
777.79	82.609
778.10	77.143
778.41	81.081
778.72	93.651
779.03	90.226
779.34	90.780
779.65	92.466
779.95	79.452
780.26	89.655
780.57	82.927
780.88	77.953
781.19	83.621
781.50	99.225
781.80	82.249
782.11	83.019
782.42	98.462
782.73	84.173
783.04	90.370
783.34	75.000
783.65	83.761
783.96	90.164
784.27	79.310
784.57	106.504
784.88	79.687
785.19	99.000
785.50	98.000
785.81	75.862
786.11	90.517
786.42	98.058
786.73	95.455
787.04	96.939
787.34	75.000
787.65	94.286
787.96	79.646
788.26	84.545
788.57	92.308
788.88	89.844
789.19	78.571
789.49	91.304
789.80	93.878
790.11	85.859
790.41	69.091
790.72	89.130
791.03	85.227
791.33	88.750
791.64	77.500
791.95	86.047
792.25	88.298
792.56	82.022
792.87	83.562
793.17	66.667
793.48	81.333
793.79	87.500
794.09	102.500
794.40	80.189
794.70	89.320
795.01	75.610
795.32	83.761
795.62	86.667
795.93	90.196
796.23	82.075
796.54	90.625
796.85	95.588
797.15	85.915
797.46	84.722
797.76	96.970
798.07	74.419
798.37	85.526
798.68	92.424
798.99	75.309
799.29	85.714
799.60	81.159
799.90	74.667
800.21	114.754
800.51	83.077
800.82	110.169
801.12	86.957
801.43	103.279
801.73	80.952
802.04	100.000
802.34	74.627
802.65	82.692
802.95	85.714
803.26	80.769
803.56	94.118
803.87	78.261
804.17	81.333
804.48	96.825
804.78	64.815
805.09	89.130
805.39	100.000
805.70	70.370
806.00	52.632
806.30	81.690
806.61	88.571
806.91	65.278
807.22	94.737
807.52	80.000
807.83	67.273
808.13	80.556
808.43	88.235
808.74	82.090
809.04	79.661
809.35	86.538
809.65	67.188
809.95	113.514
810.26	84.091
810.56	80.822
810.86	97.619
811.17	102.000
811.47	73.469
811.77	92.105
812.08	100.000
812.38	73.585
812.69	90.000
812.99	51.515
813.29	107.895
813.59	94.286
813.90	100.000
814.20	89.744
814.50	92.308
814.81	92.453
815.11	70.213
815.41	76.271
815.72	97.619
816.02	58.824
816.32	52.083
816.62	90.244
816.93	89.189
817.23	62.857
817.53	64.583
817.84	58.696
818.14	61.538
818.44	47.368
818.74	73.913
819.04	45.000
819.35	67.568
819.65	73.529
819.95	83.333
820.25	52.381
820.56	97.500
820.86	96.552
821.16	117.500
821.46	51.064
821.76	85.000
822.07	74.419
822.37	37.838
822.67	100.000
822.97	88.095
823.27	96.429
823.57	96.000
823.88	55.556
824.18	89.286
824.48	82.353
824.78	64.516
825.08	95.652
825.38	112.121
825.69	79.167
825.99	60.526
826.29	88.889
826.59	173.333
826.89	85.714
827.19	71.739
827.49	67.500
827.79	91.429
828.09	117.857
828.39	75.758
828.70	116.216
829.00	57.143
829.30	95.238
829.60	90.000
829.90	68.750
830.20	55.263
830.50	103.704
830.80	43.478
831.10	86.364
831.40	81.818
831.70	51.613
832.00	100.000
832.30	71.429
832.60	50.000
832.90	58.621
833.20	70.000
833.50	112.121
833.80	111.111
834.10	69.231
834.40	118.750
834.70	222.222
835.00	63.158
835.30	146.154
835.60	186.667
835.90	77.419
836.20	68.182
836.50	114.286
836.80	84.615
837.10	60.714
837.40	366.667
837.70	95.455
838.00	127.273
838.30	56.522
838.60	84.615
838.90	45.455
839.19	78.571
839.49	50.000
839.79	92.308
840.09	50.000
840.39	103.571
840.69	64.286
840.99	19.231
841.29	36.842
841.59	-10.000
841.88	218.182
842.18	120.000
842.48	112.500
842.78	80.000
843.08	48.148
843.38	110.000
843.68	73.913
843.97	100.000
844.27	40.000
844.57	50.000
844.87	22.222
845.17	23.810
845.47	146.667
845.76	4.762
846.06	47.059
846.36	150.000
846.66	64.286
846.96	120.000
847.25	75.000
847.55	114.286
847.85	187.500
848.15	63.636
848.44	233.333
848.74	55.000
849.04	100.000
849.34	100.000
849.63	133.333
849.93	200.000
850.23	55.556
850.53	100.000
850.82	0.000
851.12	77.778
851.42	53.333
851.71	46.154
852.01	57.143
852.31	75.000
852.61	63.636
852.90	75.000
853.20	84.211
853.50	0.000
853.79	73.913
854.09	95.833
854.39	110.526
854.68	54.167
854.98	87.097
855.28	80.769
855.57	90.000
855.87	88.889
856.17	111.111
856.46	107.143
856.76	60.000
857.05	155.556
857.35	76.000
857.65	100.000
857.94	92.308
858.24	79.310
858.53	122.222
858.83	55.556
859.13	68.182
859.42	13.043
859.72	150.000
860.01	33.333
860.31	92.000
860.60	57.143
860.90	300.000
861.20	46.667
861.49	150.000
861.79	0.000
862.08	60.000
862.38	173.333
862.67	180.000
862.97	116.667
863.26	66.667
863.56	50.000
863.85	66.667
864.15	83.333
864.44	120.000
864.74	192.857
865.03	50.000
865.33	-20.000
865.62	150.000
865.92	116.667
866.21	16.667
866.51	0.000
866.80	118.182
867.10	250.000
867.39	116.667
867.69	0.000
867.98	115.385
868.27	-200.000
868.57	113.333
868.86	72.222
869.16	-15.385
869.45	26.667
869.75	600.000
870.04	0.000
870.33	185.714
870.63	90.476
870.92	433.333
871.22	160.000
871.51	0.000
871.80	188.889
872.10	366.667
>>>>>End Processed Spectral Data<<<<<
