SpectraSuite Data File
++++++++++++++++++++++++++++++++++++
Date: Fri May 15 20:08:47 PDT 2015
User: schluterlab
Dark Spectrum Present: Yes
Reference Spectrum Present: Yes
Number of Sampled Component Spectra: 1
Spectrometers: USB2E3373
Integration Time (usec): 3000 (USB2E3373)
Spectra Averaged: 3 (USB2E3373)
Boxcar Smoothing: 0 (USB2E3373)
Correct for Electrical Dark: No (USB2E3373)
Strobe/Lamp Enabled: No (USB2E3373)
Correct for Detector Non-linearity: No (USB2E3373)
Correct for Stray Light: No (USB2E3373)
Number of Pixels in Processed Spectrum: 2048
>>>>>Begin Processed Spectral Data<<<<<
178.53	0.000
178.91	0.000
179.29	-25.000
179.67	-300.000
180.04	-57.143
180.42	200.000
180.80	-300.000
181.18	200.000
181.56	100.000
181.94	-250.000
182.31	300.000
182.69	-100.000
183.07	-233.333
183.45	60.000
183.83	83.333
184.20	-36.364
184.58	44.444
184.96	-125.000
185.34	33.333
185.72	50.000
186.09	69.231
186.47	0.000
186.85	83.333
187.23	100.000
187.61	-800.000
187.98	166.667
188.36	0.000
188.74	-66.667
189.12	11.765
189.49	27.778
189.87	0.000
190.25	121.429
190.63	450.000
191.00	-133.333
191.38	78.947
191.76	200.000
192.14	150.000
192.51	-50.000
192.89	-55.556
193.27	-42.857
193.65	33.333
194.02	18.182
194.40	10.000
194.78	-87.500
195.15	-50.000
195.53	-12.500
195.91	-0.000
196.29	-50.000
196.66	107.692
197.04	42.857
197.42	-88.889
197.79	-266.667
198.17	-115.385
198.55	600.000
198.92	-100.000
199.30	0.000
199.68	0.000
200.05	-100.000
200.43	0.000
200.81	33.333
201.18	33.333
201.56	200.000
201.94	-50.000
202.31	-66.667
202.69	80.000
203.07	175.000
203.44	-100.000
203.82	0.000
204.19	35.714
204.57	-633.333
204.95	12.500
205.32	0.000
205.70	0.000
206.08	100.000
206.45	144.444
206.83	100.000
207.20	-114.286
207.58	200.000
207.96	-266.667
208.33	20.000
208.71	150.000
209.08	-133.333
209.46	-200.000
209.84	-80.000
210.21	-800.000
210.59	71.429
210.96	16.667
211.34	25.000
211.71	33.333
212.09	-185.714
212.46	-1000.000
212.84	0.000
213.22	90.000
213.59	450.000
213.97	-30.769
214.34	-27.273
214.72	-116.667
215.09	275.000
215.47	-38.462
215.84	-45.455
216.22	33.333
216.59	12.500
216.97	0.000
217.34	75.000
217.72	-160.000
218.09	37.500
218.47	125.000
218.84	-900.000
219.22	11.111
219.59	-40.000
219.97	300.000
220.34	275.000
220.72	-28.571
221.09	75.000
221.47	-550.000
221.84	-800.000
222.22	-150.000
222.59	9.091
222.97	75.000
223.34	66.667
223.72	0.000
224.09	14.286
224.46	10.714
224.84	133.333
225.21	-40.000
225.59	93.333
225.96	-150.000
226.34	300.000
226.71	-42.857
227.08	133.333
227.46	-37.500
227.83	-200.000
228.21	100.000
228.58	-18.182
228.95	50.000
229.33	80.000
229.70	-18.750
230.08	-100.000
230.45	-42.857
230.82	200.000
231.20	-13.333
231.57	85.714
231.95	100.000
232.32	20.000
232.69	21.429
233.07	466.667
233.44	60.000
233.81	60.000
234.19	166.667
234.56	76.471
234.93	300.000
235.31	250.000
235.68	-220.000
236.05	53.846
236.43	40.000
236.80	52.941
237.17	53.125
237.55	75.000
237.92	62.963
238.29	63.889
238.67	83.333
239.04	67.647
239.41	19.512
239.79	80.000
240.16	46.341
240.53	36.842
240.91	69.565
241.28	63.492
241.65	83.929
242.02	72.603
242.40	83.333
242.77	83.051
243.14	69.697
243.51	65.000
243.89	66.667
244.26	58.621
244.63	53.571
245.00	57.732
245.38	76.289
245.75	73.034
246.12	61.207
246.49	62.810
246.87	73.077
247.24	58.824
247.61	71.930
247.98	70.732
248.36	65.000
248.73	62.500
249.10	68.182
249.47	68.987
249.84	69.281
250.22	71.765
250.59	68.627
250.96	65.258
251.33	66.279
251.70	69.412
252.08	71.574
252.45	68.812
252.82	70.352
253.19	68.664
253.56	71.028
253.94	62.613
254.31	70.870
254.68	75.000
255.05	64.961
255.42	71.179
255.79	66.795
256.16	70.428
256.54	67.537
256.91	66.920
257.28	65.428
257.65	73.034
258.02	67.021
258.39	67.340
258.76	72.161
259.14	71.429
259.51	63.754
259.88	67.698
260.25	67.320
260.62	68.750
260.99	68.475
261.36	73.630
261.73	68.987
262.10	70.821
262.47	69.325
262.85	68.025
263.22	68.615
263.59	68.536
263.96	73.292
264.33	71.515
264.70	72.024
265.07	70.833
265.44	74.221
265.81	74.859
266.18	71.858
266.55	68.895
266.92	70.466
267.29	71.018
267.66	68.542
268.03	68.063
268.40	66.319
268.77	75.401
269.14	66.427
269.51	69.666
269.88	66.584
270.25	68.367
270.62	69.024
270.99	68.031
271.36	67.237
271.73	66.667
272.10	68.613
272.47	67.849
272.84	68.564
273.21	68.677
273.58	73.735
273.95	67.277
274.32	65.589
274.69	65.837
275.06	68.973
275.43	65.079
275.80	66.004
276.17	69.885
276.54	65.525
276.91	69.518
277.28	68.559
277.65	65.702
278.02	66.596
278.39	68.490
278.76	65.409
279.13	64.523
279.50	65.126
279.87	65.227
280.23	65.161
280.60	64.522
280.97	67.475
281.34	61.538
281.71	65.708
282.08	63.804
282.45	64.384
282.82	63.900
283.19	64.797
283.56	63.969
283.92	65.085
284.29	60.962
284.66	63.178
285.03	64.440
285.40	63.705
285.77	61.863
286.14	63.538
286.51	64.945
286.87	61.609
287.24	63.904
287.61	59.965
287.98	61.579
288.35	61.352
288.72	61.646
289.08	59.896
289.45	61.160
289.82	59.091
290.19	60.239
290.56	57.290
290.93	56.566
291.29	52.696
291.66	57.480
292.03	56.778
292.40	55.323
292.77	55.343
293.13	52.597
293.50	50.683
293.87	52.519
294.24	53.168
294.60	49.925
294.97	53.423
295.34	53.681
295.71	51.267
296.08	50.224
296.44	48.080
296.81	50.139
297.18	49.420
297.55	50.136
297.91	50.000
298.28	48.021
298.65	46.811
299.02	47.170
299.38	47.469
299.75	46.483
300.12	46.859
300.48	48.353
300.85	46.261
301.22	44.026
301.59	46.053
301.95	44.430
302.32	46.044
302.69	45.896
303.05	47.153
303.42	45.455
303.79	46.262
304.15	45.520
304.52	44.709
304.89	43.158
305.25	44.794
305.62	43.174
305.99	44.912
306.35	43.353
306.72	42.632
307.09	42.645
307.45	43.513
307.82	43.519
308.19	44.135
308.55	42.966
308.92	43.573
309.29	41.229
309.65	41.658
310.02	42.574
310.38	41.712
310.75	42.842
311.12	42.411
311.48	41.569
311.85	41.047
312.22	43.143
312.58	42.357
312.95	41.836
313.31	42.340
313.68	43.037
314.05	41.939
314.41	41.753
314.78	42.268
315.14	42.857
315.51	41.718
315.87	42.316
316.24	42.063
316.61	42.323
316.97	41.567
317.34	42.188
317.70	41.205
318.07	41.154
318.43	42.745
318.80	41.193
319.16	42.773
319.53	40.076
319.89	43.504
320.26	42.206
320.62	42.026
320.99	41.545
321.35	41.418
321.72	42.160
322.08	42.598
322.45	43.959
322.81	42.633
323.18	43.278
323.54	43.050
323.91	42.648
324.27	42.480
324.64	43.727
325.00	41.515
325.37	44.536
325.73	41.704
326.10	40.599
326.46	42.691
326.83	42.957
327.19	42.982
327.56	44.222
327.92	43.046
328.29	43.036
328.65	43.208
329.01	44.853
329.38	43.134
329.74	44.476
330.11	43.281
330.47	42.208
330.84	41.731
331.20	46.103
331.56	43.148
331.93	44.566
332.29	44.455
332.66	42.624
333.02	42.472
333.38	40.605
333.75	44.322
334.11	40.555
334.48	43.699
334.84	42.491
335.20	42.360
335.57	41.432
335.93	43.180
336.29	42.910
336.66	42.325
337.02	41.543
337.38	41.111
337.75	43.636
338.11	41.389
338.47	44.161
338.84	43.253
339.20	42.962
339.56	43.028
339.93	43.599
340.29	43.761
340.65	43.280
341.02	41.312
341.38	40.442
341.74	43.110
342.11	40.381
342.47	42.082
342.83	42.042
343.20	42.073
343.56	42.087
343.92	42.693
344.28	42.272
344.65	43.264
345.01	41.746
345.37	41.884
345.73	42.176
346.10	43.658
346.46	41.968
346.82	41.653
347.19	40.233
347.55	41.938
347.91	42.071
348.27	41.229
348.63	41.908
349.00	40.853
349.36	41.978
349.72	42.206
350.08	40.164
350.45	41.820
350.81	41.445
351.17	40.228
351.53	41.469
351.89	40.545
352.26	40.160
352.62	41.290
352.98	40.321
353.34	39.452
353.70	40.615
354.07	40.403
354.43	40.833
354.79	41.288
355.15	41.508
355.51	40.902
355.87	40.372
356.24	40.212
356.60	40.259
356.96	40.238
357.32	40.016
357.68	38.702
358.04	40.226
358.40	39.630
358.77	40.989
359.13	40.673
359.49	39.214
359.85	39.158
360.21	38.836
360.57	38.562
360.93	39.713
361.29	38.897
361.66	40.204
362.02	40.303
362.38	39.909
362.74	39.213
363.10	40.858
363.46	39.288
363.82	41.097
364.18	39.926
364.54	39.485
364.90	39.498
365.26	39.083
365.62	40.365
365.98	40.323
366.35	41.078
366.71	39.468
367.07	39.115
367.43	39.252
367.79	39.647
368.15	38.909
368.51	40.131
368.87	39.842
369.23	39.134
369.59	39.723
369.95	40.249
370.31	38.728
370.67	38.582
371.03	38.686
371.39	39.168
371.75	39.048
372.11	38.944
372.47	39.571
372.83	38.964
373.19	39.301
373.55	39.422
373.91	37.869
374.27	39.334
374.63	40.560
374.99	39.716
375.35	39.972
375.71	40.140
376.07	39.256
376.42	39.932
376.78	40.671
377.14	39.607
377.50	38.712
377.86	40.027
378.22	39.056
378.58	39.359
378.94	37.996
379.30	39.177
379.66	40.063
380.02	38.872
380.38	40.049
380.74	38.420
381.09	39.264
381.45	38.287
381.81	39.173
382.17	39.530
382.53	39.788
382.89	40.239
383.25	40.012
383.61	39.207
383.97	38.603
384.32	38.962
384.68	38.824
385.04	39.706
385.40	39.017
385.76	40.755
386.12	39.780
386.48	40.294
386.83	39.632
387.19	39.805
387.55	39.460
387.91	39.548
388.27	39.805
388.62	40.403
388.98	39.902
389.34	40.287
389.70	41.454
390.06	39.207
390.42	39.702
390.77	40.092
391.13	39.281
391.49	39.392
391.85	40.026
392.20	39.611
392.56	39.352
392.92	40.223
393.28	39.800
393.64	39.940
393.99	40.752
394.35	39.785
394.71	40.677
395.07	39.912
395.42	39.162
395.78	41.107
396.14	39.470
396.50	39.822
396.85	40.309
397.21	40.789
397.57	40.690
397.92	39.365
398.28	40.632
398.64	38.735
399.00	40.801
399.35	38.713
399.71	39.460
400.07	40.508
400.42	38.188
400.78	40.723
401.14	40.169
401.49	40.143
401.85	39.549
402.21	40.422
402.57	40.500
402.92	39.460
403.28	40.414
403.63	40.858
403.99	39.031
404.35	40.412
404.70	39.048
405.06	39.718
405.42	40.646
405.77	39.802
406.13	39.930
406.49	39.195
406.84	39.670
407.20	41.240
407.55	39.343
407.91	39.305
408.27	38.623
408.62	40.492
408.98	40.665
409.34	40.830
409.69	39.858
410.05	39.286
410.40	39.012
410.76	40.290
411.11	39.562
411.47	39.711
411.83	38.418
412.18	40.347
412.54	40.200
412.89	38.670
413.25	40.554
413.60	38.758
413.96	38.098
414.31	39.756
414.67	39.192
415.03	38.682
415.38	38.120
415.74	39.935
416.09	40.170
416.45	40.243
416.80	39.260
417.16	39.986
417.51	39.174
417.87	39.635
418.22	40.868
418.58	40.669
418.93	39.937
419.29	38.028
419.64	38.950
420.00	41.121
420.35	39.045
420.71	40.158
421.06	40.086
421.42	39.243
421.77	39.653
422.12	38.593
422.48	40.498
422.83	39.617
423.19	40.181
423.54	39.800
423.90	39.223
424.25	40.184
424.61	39.718
424.96	40.128
425.31	40.901
425.67	40.200
426.02	40.342
426.38	40.388
426.73	40.496
427.09	41.266
427.44	40.588
427.79	40.837
428.15	39.745
428.50	40.400
428.85	39.496
429.21	39.955
429.56	40.539
429.92	40.627
430.27	39.950
430.62	39.519
430.98	40.817
431.33	40.747
431.68	39.874
432.04	39.966
432.39	39.703
432.74	38.906
433.10	41.322
433.45	40.143
433.80	40.279
434.16	39.834
434.51	40.000
434.86	40.534
435.22	41.054
435.57	40.112
435.92	40.838
436.28	39.475
436.63	40.331
436.98	39.745
437.34	40.774
437.69	41.145
438.04	39.145
438.39	39.157
438.75	40.559
439.10	40.181
439.45	41.205
439.81	40.550
440.16	40.914
440.51	40.955
440.86	42.538
441.22	40.781
441.57	40.011
441.92	41.658
442.27	40.632
442.63	41.435
442.98	41.758
443.33	40.957
443.68	41.220
444.03	41.033
444.39	40.580
444.74	41.583
445.09	42.038
445.44	41.140
445.79	42.393
446.15	41.685
446.50	39.878
446.85	41.020
447.20	41.084
447.55	41.350
447.91	40.722
448.26	42.629
448.61	41.739
448.96	41.251
449.31	41.618
449.66	39.489
450.02	41.529
450.37	41.553
450.72	39.404
451.07	42.532
451.42	41.323
451.77	40.989
452.12	41.089
452.47	40.373
452.83	41.755
453.18	41.113
453.53	41.466
453.88	40.984
454.23	41.672
454.58	41.751
454.93	41.495
455.28	41.587
455.63	41.042
455.98	40.770
456.34	41.507
456.69	41.360
457.04	40.958
457.39	41.069
457.74	41.294
458.09	40.848
458.44	40.257
458.79	41.176
459.14	41.476
459.49	42.090
459.84	40.778
460.19	41.444
460.54	42.054
460.89	41.477
461.24	41.863
461.59	42.162
461.94	40.440
462.29	41.074
462.64	43.189
462.99	41.774
463.34	40.890
463.69	42.214
464.04	42.010
464.39	41.965
464.74	40.736
465.09	41.110
465.44	42.239
465.79	40.363
466.14	40.992
466.49	41.403
466.84	41.344
467.19	42.616
467.54	41.699
467.89	40.114
468.24	40.998
468.59	41.397
468.94	40.952
469.29	41.770
469.64	41.490
469.99	42.256
470.34	41.229
470.68	42.282
471.03	41.826
471.38	42.011
471.73	41.317
472.08	41.045
472.43	42.349
472.78	41.809
473.13	41.497
473.48	41.238
473.83	41.158
474.17	42.228
474.52	41.991
474.87	42.121
475.22	40.879
475.57	41.558
475.92	41.360
476.27	41.735
476.61	41.551
476.96	41.383
477.31	42.023
477.66	41.854
478.01	43.796
478.36	41.340
478.70	42.686
479.05	42.308
479.40	42.183
479.75	42.127
480.10	41.577
480.45	42.650
480.79	42.800
481.14	42.213
481.49	41.281
481.84	42.037
482.19	41.160
482.53	42.398
482.88	42.100
483.23	42.083
483.58	41.934
483.92	41.336
484.27	41.431
484.62	41.506
484.97	41.252
485.31	41.691
485.66	41.456
486.01	41.996
486.36	41.729
486.70	43.027
487.05	41.479
487.40	41.960
487.75	42.366
488.09	41.656
488.44	42.056
488.79	41.801
489.13	42.468
489.48	41.599
489.83	41.839
490.17	41.303
490.52	42.725
490.87	40.861
491.22	42.168
491.56	41.082
491.91	41.157
492.26	42.100
492.60	41.075
492.95	42.941
493.30	41.768
493.64	42.878
493.99	42.271
494.34	41.650
494.68	42.762
495.03	41.509
495.37	41.511
495.72	41.494
496.07	42.293
496.41	41.132
496.76	42.331
497.11	41.081
497.45	42.721
497.80	42.079
498.14	42.275
498.49	42.052
498.84	42.066
499.18	42.269
499.53	42.163
499.87	41.634
500.22	42.582
500.56	42.713
500.91	41.014
501.26	40.979
501.60	41.220
501.95	42.310
502.29	42.324
502.64	41.940
502.98	41.934
503.33	41.306
503.67	41.349
504.02	42.326
504.36	43.246
504.71	41.566
505.06	40.664
505.40	41.675
505.75	42.887
506.09	41.814
506.44	43.634
506.78	42.857
507.13	42.089
507.47	41.305
507.82	41.774
508.16	41.838
508.51	42.392
508.85	43.014
509.19	40.873
509.54	41.930
509.88	40.992
510.23	42.711
510.57	42.811
510.92	41.098
511.26	42.826
511.61	41.804
511.95	41.699
512.30	42.295
512.64	40.790
512.98	41.494
513.33	41.858
513.67	41.671
514.02	42.563
514.36	42.857
514.70	43.939
515.05	43.008
515.39	42.739
515.74	43.772
516.08	43.395
516.42	42.462
516.77	41.896
517.11	42.196
517.46	42.908
517.80	42.312
518.14	42.498
518.49	41.647
518.83	42.770
519.17	42.693
519.52	42.037
519.86	42.017
520.20	41.859
520.55	42.026
520.89	42.535
521.23	42.305
521.58	43.470
521.92	43.141
522.26	41.574
522.61	42.727
522.95	43.377
523.29	41.741
523.64	42.694
523.98	43.487
524.32	43.170
524.66	43.342
525.01	42.662
525.35	42.061
525.69	43.030
526.04	41.931
526.38	43.580
526.72	41.596
527.06	42.412
527.41	41.953
527.75	42.493
528.09	42.060
528.43	43.349
528.78	43.564
529.12	42.452
529.46	42.430
529.80	42.495
530.15	43.894
530.49	43.502
530.83	41.382
531.17	41.639
531.51	42.886
531.86	43.440
532.20	41.545
532.54	42.478
532.88	42.984
533.22	41.935
533.57	42.988
533.91	42.363
534.25	43.359
534.59	42.912
534.93	42.354
535.27	42.322
535.62	42.255
535.96	42.140
536.30	44.129
536.64	42.936
536.98	42.718
537.32	43.812
537.66	43.478
538.01	43.636
538.35	42.857
538.69	42.477
539.03	42.174
539.37	42.867
539.71	43.217
540.05	42.430
540.39	42.867
540.73	43.096
541.07	43.439
541.42	43.078
541.76	43.496
542.10	43.496
542.44	43.502
542.78	41.569
543.12	43.819
543.46	43.672
543.80	43.303
544.14	42.390
544.48	43.171
544.82	43.267
545.16	42.691
545.50	42.523
545.84	42.847
546.18	42.766
546.52	43.619
546.86	43.206
547.20	42.418
547.54	41.908
547.88	42.663
548.22	42.735
548.56	43.997
548.90	43.329
549.24	42.287
549.58	43.089
549.92	42.244
550.26	42.198
550.60	43.197
550.94	42.270
551.28	42.195
551.62	43.846
551.96	43.459
552.30	43.348
552.64	43.018
552.98	42.053
553.32	43.153
553.66	41.800
554.00	43.285
554.34	43.648
554.68	43.215
555.02	43.452
555.36	42.633
555.69	42.344
556.03	43.326
556.37	43.274
556.71	44.693
557.05	43.922
557.39	42.082
557.73	43.478
558.07	43.439
558.41	43.032
558.75	44.037
559.08	42.790
559.42	43.016
559.76	42.114
560.10	43.196
560.44	43.410
560.78	44.196
561.12	43.512
561.45	43.219
561.79	42.647
562.13	43.009
562.47	43.669
562.81	43.228
563.15	42.736
563.48	42.857
563.82	44.200
564.16	42.479
564.50	43.041
564.84	42.369
565.17	42.857
565.51	43.989
565.85	44.376
566.19	43.435
566.52	44.772
566.86	43.895
567.20	43.337
567.54	43.796
567.88	44.054
568.21	43.326
568.55	42.826
568.89	44.867
569.23	43.717
569.56	43.695
569.90	43.890
570.24	43.506
570.57	44.400
570.91	44.022
571.25	43.177
571.59	43.195
571.92	42.904
572.26	43.357
572.60	43.008
572.93	43.113
573.27	42.539
573.61	43.109
573.95	42.845
574.28	43.459
574.62	43.224
574.96	43.256
575.29	43.286
575.63	42.161
575.97	42.749
576.30	43.295
576.64	42.013
576.98	43.346
577.31	43.377
577.65	43.716
577.98	43.174
578.32	43.962
578.66	42.854
578.99	43.051
579.33	42.693
579.67	42.998
580.00	43.747
580.34	43.333
580.67	43.249
581.01	44.188
581.35	43.411
581.68	43.732
582.02	43.549
582.35	43.361
582.69	43.222
583.02	43.751
583.36	43.530
583.70	43.795
584.03	44.982
584.37	44.269
584.70	43.681
585.04	42.876
585.37	42.703
585.71	43.051
586.04	43.293
586.38	43.051
586.72	43.673
587.05	43.905
587.39	43.556
587.72	44.232
588.06	43.759
588.39	44.090
588.73	43.742
589.06	44.031
589.40	43.830
589.73	44.542
590.07	44.147
590.40	43.653
590.73	44.522
591.07	43.554
591.40	43.856
591.74	43.394
592.07	44.249
592.41	42.845
592.74	43.130
593.08	42.997
593.41	43.822
593.75	43.736
594.08	43.048
594.41	43.122
594.75	42.710
595.08	44.079
595.42	43.357
595.75	43.635
596.09	43.667
596.42	43.902
596.75	44.139
597.09	43.599
597.42	43.586
597.75	43.839
598.09	43.504
598.42	43.231
598.76	43.544
599.09	43.870
599.42	43.047
599.76	43.341
600.09	43.062
600.42	43.290
600.76	43.388
601.09	43.053
601.42	42.577
601.76	42.914
602.09	43.111
602.42	43.892
602.76	43.548
603.09	43.397
603.42	43.813
603.76	43.266
604.09	43.418
604.42	43.697
604.76	44.326
605.09	44.150
605.42	43.025
605.75	43.433
606.09	43.482
606.42	43.453
606.75	42.641
607.09	43.604
607.42	42.977
607.75	42.673
608.08	42.902
608.42	43.536
608.75	43.952
609.08	42.850
609.41	43.452
609.75	43.196
610.08	44.733
610.41	43.092
610.74	44.661
611.07	44.496
611.41	44.006
611.74	43.763
612.07	43.255
612.40	43.818
612.73	44.350
613.07	42.801
613.40	43.600
613.73	43.145
614.06	43.684
614.39	44.332
614.72	42.689
615.06	43.966
615.39	42.740
615.72	43.165
616.05	44.246
616.38	43.419
616.71	43.303
617.05	43.298
617.38	43.935
617.71	43.459
618.04	44.952
618.37	45.649
618.70	44.026
619.03	43.403
619.36	44.428
619.69	43.366
620.03	45.654
620.36	42.918
620.69	43.183
621.02	43.807
621.35	44.647
621.68	44.303
622.01	43.167
622.34	43.974
622.67	43.218
623.00	43.492
623.33	43.521
623.66	43.231
623.99	45.159
624.32	43.422
624.65	42.481
624.99	44.018
625.32	43.063
625.65	44.148
625.98	44.239
626.31	43.475
626.64	44.974
626.97	44.503
627.30	44.658
627.63	43.761
627.96	44.295
628.29	44.126
628.62	43.068
628.95	43.988
629.28	44.556
629.61	42.971
629.94	44.086
630.26	42.589
630.59	45.057
630.92	44.205
631.25	42.769
631.58	43.722
631.91	42.763
632.24	44.839
632.57	44.545
632.90	44.009
633.23	43.412
633.56	44.332
633.89	44.143
634.22	46.790
634.55	44.854
634.88	44.189
635.20	43.077
635.53	46.533
635.86	43.823
636.19	45.278
636.52	44.388
636.85	41.563
637.18	43.270
637.51	42.516
637.83	44.678
638.16	45.157
638.49	43.052
638.82	45.263
639.15	44.369
639.48	44.429
639.81	45.049
640.13	44.733
640.46	43.294
640.79	44.772
641.12	43.575
641.45	44.595
641.77	43.111
642.10	47.551
642.43	44.695
642.76	44.059
643.09	45.557
643.41	43.204
643.74	43.822
644.07	44.499
644.40	46.284
644.73	45.359
645.05	44.295
645.38	45.150
645.71	45.922
646.04	44.883
646.36	43.262
646.69	46.403
647.02	45.180
647.35	44.030
647.67	42.962
648.00	44.776
648.33	43.003
648.66	42.881
648.98	43.384
649.31	46.116
649.64	44.741
649.96	42.788
650.29	43.271
650.62	44.786
650.94	45.185
651.27	45.065
651.60	44.324
651.92	45.629
652.25	42.984
652.58	45.000
652.90	46.655
653.23	46.891
653.56	43.824
653.88	44.330
654.21	42.207
654.54	44.143
654.86	44.312
655.19	42.398
655.52	46.053
655.84	43.572
656.17	48.684
656.49	66.721
656.82	69.319
657.15	52.799
657.47	39.204
657.80	29.593
658.13	28.918
658.45	44.699
658.78	44.357
659.10	44.052
659.43	44.014
659.75	44.795
660.08	43.310
660.41	45.455
660.73	42.403
661.06	45.061
661.38	42.466
661.71	41.068
662.03	44.635
662.36	44.176
662.68	43.142
663.01	44.760
663.33	43.619
663.66	47.907
663.98	43.023
664.31	43.070
664.63	41.935
664.96	39.783
665.28	45.916
665.61	45.455
665.93	44.348
666.26	44.469
666.58	43.177
666.91	42.118
667.23	47.642
667.56	46.209
667.88	42.926
668.21	47.733
668.53	42.080
668.86	45.047
669.18	43.396
669.50	44.552
669.83	42.093
670.15	44.056
670.48	39.713
670.80	45.392
671.13	42.729
671.45	43.379
671.77	44.850
672.10	42.970
672.42	44.007
672.75	42.451
673.07	45.796
673.39	45.505
673.72	40.828
674.04	42.292
674.37	45.975
674.69	44.968
675.01	45.778
675.34	41.216
675.66	45.602
675.98	48.337
676.31	41.743
676.63	44.181
676.95	44.091
677.28	47.765
677.60	43.614
677.92	41.055
678.25	43.326
678.57	43.723
678.89	42.437
679.22	46.085
679.54	42.169
679.86	42.942
680.18	46.214
680.51	46.591
680.83	42.147
681.15	43.000
681.48	46.311
681.80	43.595
682.12	44.153
682.44	44.351
682.77	44.812
683.09	43.936
683.41	42.955
683.73	41.935
684.06	44.027
684.38	42.151
684.70	45.316
685.02	41.494
685.34	43.083
685.67	44.090
685.99	46.112
686.31	45.133
686.63	44.712
686.96	42.776
687.28	43.838
687.60	41.065
687.92	47.273
688.24	46.573
688.56	46.288
688.89	42.634
689.21	45.556
689.53	45.940
689.85	45.814
690.17	44.866
690.49	44.444
690.82	46.845
691.14	40.238
691.46	47.430
691.78	44.144
692.10	44.086
692.42	44.805
692.74	44.231
693.06	40.991
693.39	42.986
693.71	45.701
694.03	43.880
694.35	46.262
694.67	45.707
694.99	43.342
695.31	42.559
695.63	46.750
695.95	43.687
696.27	41.969
696.59	43.333
696.91	40.336
697.23	41.131
697.56	45.050
697.88	45.161
698.20	42.369
698.52	42.588
698.84	44.737
699.16	43.250
699.48	43.609
699.80	43.921
700.12	42.049
700.44	50.140
700.76	43.605
701.08	40.303
701.40	41.265
701.72	48.765
702.04	47.525
702.36	48.829
702.68	43.844
703.00	48.182
703.32	44.282
703.64	39.266
703.96	42.899
704.28	44.172
704.60	47.619
704.91	45.426
705.23	43.522
705.55	46.996
705.87	47.292
706.19	47.037
706.51	43.643
706.83	43.730
707.15	44.860
707.47	41.457
707.79	45.313
708.11	46.500
708.43	47.250
708.74	42.636
709.06	46.479
709.38	52.294
709.70	44.379
710.02	44.904
710.34	44.892
710.66	47.436
710.98	44.371
711.29	44.590
711.61	45.424
711.93	45.277
712.25	48.454
712.57	46.886
712.89	43.657
713.20	45.675
713.52	47.387
713.84	43.686
714.16	43.643
714.48	43.548
714.80	45.833
715.11	47.112
715.43	42.947
715.75	44.000
716.07	45.847
716.39	43.960
716.70	42.804
717.02	43.130
717.34	48.583
717.66	47.345
717.97	43.913
718.29	46.444
718.61	50.000
718.93	48.837
719.24	46.768
719.56	46.988
719.88	42.268
720.20	45.833
720.51	40.996
720.83	47.490
721.15	49.580
721.46	42.339
721.78	43.083
722.10	41.636
722.42	41.494
722.73	50.204
723.05	46.531
723.37	47.034
723.68	45.045
724.00	47.863
724.32	43.556
724.63	45.000
724.95	47.162
725.27	44.240
725.58	47.034
725.90	40.873
726.22	47.490
726.53	44.746
726.85	42.322
727.16	55.472
727.48	41.700
727.80	46.154
728.11	41.525
728.43	41.176
728.74	45.161
729.06	42.400
729.38	51.880
729.69	43.028
730.01	46.154
730.32	45.149
730.64	44.876
730.96	50.566
731.27	41.333
731.59	46.102
731.90	44.904
732.22	48.896
732.53	46.179
732.85	49.291
733.16	50.168
733.48	42.086
733.80	44.203
734.11	43.390
734.43	46.048
734.74	43.333
735.06	42.997
735.37	46.224
735.69	47.138
736.00	45.993
736.32	45.973
736.63	44.014
736.95	47.782
737.26	46.975
737.58	43.960
737.89	45.788
738.21	49.248
738.52	52.263
738.83	51.965
739.15	46.725
739.46	49.213
739.78	35.165
740.09	46.078
740.41	45.652
740.72	44.094
741.04	46.964
741.35	46.383
741.66	45.498
741.98	42.347
742.29	48.515
742.61	46.073
742.92	36.493
743.23	38.889
743.55	41.176
743.86	41.148
744.18	43.541
744.49	49.468
744.80	45.109
745.12	49.733
745.43	44.390
745.74	52.604
746.06	41.951
746.37	40.838
746.68	48.815
747.00	41.489
747.31	51.741
747.62	46.602
747.94	42.584
748.25	44.554
748.56	44.262
748.88	47.120
749.19	54.255
749.50	47.783
749.82	42.925
750.13	42.661
750.44	48.120
750.75	48.134
751.07	54.745
751.38	45.977
751.69	45.098
752.01	46.512
752.32	45.817
752.63	44.664
752.94	49.138
753.26	56.904
753.57	49.321
753.88	45.133
754.19	42.500
754.51	44.215
754.82	43.320
755.13	47.917
755.44	44.355
755.75	44.141
756.07	47.471
756.38	44.528
756.69	42.912
757.00	44.333
757.31	42.810
757.63	44.817
757.94	42.222
758.25	44.658
758.56	45.479
758.87	42.210
759.18	42.368
759.50	44.364
759.81	46.154
760.12	47.097
760.43	44.848
760.74	47.531
761.05	47.692
761.36	47.443
761.67	49.091
761.99	48.639
762.30	45.091
762.61	43.083
762.92	42.986
763.23	46.847
763.54	53.271
763.85	49.576
764.16	42.324
764.47	45.161
764.78	40.659
765.10	46.801
765.41	46.688
765.72	45.714
766.03	41.729
766.34	43.431
766.65	44.622
766.96	49.495
767.27	41.489
767.58	45.402
767.89	43.262
768.20	49.432
768.51	46.703
768.82	36.453
769.13	47.926
769.44	49.785
769.75	42.466
770.06	42.672
770.37	48.558
770.68	44.670
770.99	47.059
771.30	51.471
771.61	48.416
771.92	46.552
772.23	49.754
772.54	47.312
772.85	52.469
773.16	48.876
773.47	60.131
773.78	47.712
774.09	46.108
774.39	52.667
774.70	48.408
775.01	46.897
775.32	52.143
775.63	32.231
775.94	40.458
776.25	51.969
776.56	43.333
776.87	50.000
777.18	41.026
777.48	32.759
777.79	48.696
778.10	45.714
778.41	47.748
778.72	41.270
779.03	43.609
779.34	46.099
779.65	50.685
779.95	39.726
780.26	43.448
780.57	48.780
780.88	44.882
781.19	48.276
781.50	50.388
781.80	51.479
782.11	42.138
782.42	53.077
782.73	43.885
783.04	50.370
783.34	43.750
783.65	36.752
783.96	49.180
784.27	53.103
784.57	46.341
784.88	47.656
785.19	49.000
785.50	55.000
785.81	50.862
786.11	42.241
786.42	53.398
786.73	52.727
787.04	48.980
787.34	41.071
787.65	44.762
787.96	38.053
788.26	46.364
788.57	38.462
788.88	45.313
789.19	44.444
789.49	50.435
789.80	55.102
790.11	46.465
790.41	34.545
790.72	51.087
791.03	38.636
791.33	51.250
791.64	43.750
791.95	38.372
792.25	60.638
792.56	47.191
792.87	46.575
793.17	27.536
793.48	26.667
793.79	42.500
794.09	42.500
794.40	44.340
794.70	44.660
795.01	41.463
795.32	46.154
795.62	46.667
795.93	49.020
796.23	43.396
796.54	53.125
796.85	48.529
797.15	32.394
797.46	43.056
797.76	63.636
798.07	26.744
798.37	44.737
798.68	42.424
798.99	41.975
799.29	41.429
799.60	36.232
799.90	50.667
800.21	50.820
800.51	30.769
800.82	38.983
801.12	43.478
801.43	60.656
801.73	58.730
802.04	48.000
802.34	31.343
802.65	44.231
802.95	33.929
803.26	42.308
803.56	64.706
803.87	39.130
804.17	25.333
804.48	68.254
804.78	40.741
805.09	45.652
805.39	40.000
805.70	31.481
806.00	15.789
806.30	43.662
806.61	42.857
806.91	27.778
807.22	51.316
807.52	42.667
807.83	65.455
808.13	54.167
808.43	41.176
808.74	40.299
809.04	33.898
809.35	42.308
809.65	42.187
809.95	29.730
810.26	45.455
810.56	38.356
810.86	50.000
811.17	44.000
811.47	51.020
811.77	42.105
812.08	38.636
812.38	66.038
812.69	30.000
812.99	30.303
813.29	52.632
813.59	42.857
813.90	34.091
814.20	46.154
814.50	36.538
814.81	43.396
815.11	23.404
815.41	64.407
815.72	52.381
816.02	52.941
816.32	33.333
816.62	36.585
816.93	54.054
817.23	31.429
817.53	45.833
817.84	45.652
818.14	46.154
818.44	10.526
818.74	58.696
819.04	5.000
819.35	37.838
819.65	17.647
819.95	13.889
820.25	33.333
820.56	50.000
820.86	17.241
821.16	57.500
821.46	23.404
821.76	62.500
822.07	34.884
822.37	35.135
822.67	25.000
822.97	52.381
823.27	17.857
823.57	36.000
823.88	37.037
824.18	78.571
824.48	73.529
824.78	41.935
825.08	43.478
825.38	33.333
825.69	33.333
825.99	52.632
826.29	13.889
826.59	46.667
826.89	-23.810
827.19	26.087
827.49	45.000
827.79	65.714
828.09	50.000
828.39	33.333
828.70	70.270
829.00	21.429
829.30	14.286
829.60	66.667
829.90	43.750
830.20	42.105
830.50	37.037
830.80	60.870
831.10	22.727
831.40	63.636
831.70	51.613
832.00	57.143
832.30	52.381
832.60	66.667
832.90	44.828
833.20	-5.000
833.50	54.545
833.80	40.741
834.10	3.846
834.40	46.875
834.70	44.444
835.00	52.632
835.30	65.385
835.60	80.000
835.90	54.839
836.20	0.000
836.50	39.286
836.80	-11.538
837.10	35.714
837.40	200.000
837.70	54.545
838.00	-72.727
838.30	47.826
838.60	23.077
838.90	22.727
839.19	85.714
839.49	36.667
839.79	38.462
840.09	66.667
840.39	60.714
840.69	17.857
840.99	7.692
841.29	-21.053
841.59	-50.000
841.88	100.000
842.18	50.000
842.48	62.500
842.78	66.667
843.08	18.519
843.38	-60.000
843.68	65.217
843.97	120.000
844.27	40.000
844.57	25.000
844.87	5.556
845.17	9.524
845.47	66.667
845.76	0.000
846.06	52.941
846.36	90.000
846.66	-7.143
846.96	26.667
847.25	-50.000
847.55	85.714
847.85	50.000
848.15	18.182
848.44	-466.667
848.74	45.000
849.04	44.444
849.34	63.636
849.63	33.333
849.93	-140.000
850.23	0.000
850.53	70.000
850.82	38.462
851.12	166.667
851.42	33.333
851.71	3.846
852.01	7.143
852.31	250.000
852.61	-45.455
852.90	30.000
853.20	10.526
853.50	41.667
853.79	52.174
854.09	108.333
854.39	10.526
854.68	79.167
854.98	48.387
855.28	57.692
855.57	20.000
855.87	105.556
856.17	74.074
856.46	85.714
856.76	13.333
857.05	88.889
857.35	56.000
857.65	38.889
857.94	-53.846
858.24	65.517
858.53	61.111
858.83	40.741
859.13	59.091
859.42	21.739
859.72	0.000
860.01	-300.000
860.31	16.000
860.60	-23.810
860.90	133.333
861.20	-20.000
861.49	-650.000
861.79	-6.667
862.08	50.000
862.38	120.000
862.67	-180.000
862.97	66.667
863.26	-41.667
863.56	83.333
863.85	-400.000
864.15	44.444
864.44	-30.000
864.74	128.571
865.03	375.000
865.33	-360.000
865.62	133.333
865.92	-33.333
866.21	-33.333
866.51	131.250
866.80	36.364
867.10	50.000
867.39	125.000
867.69	0.000
867.98	30.769
868.27	0.000
868.57	6.667
868.86	33.333
869.16	-23.077
869.45	40.000
869.75	-600.000
870.04	0.000
870.33	-128.571
870.63	52.381
870.92	-0.000
871.22	-160.000
871.51	300.000
871.80	66.667
872.10	433.333
>>>>>End Processed Spectral Data<<<<<
