SpectraSuite Data File
++++++++++++++++++++++++++++++++++++
Date: Fri May 15 20:15:50 PDT 2015
User: schluterlab
Dark Spectrum Present: Yes
Reference Spectrum Present: Yes
Number of Sampled Component Spectra: 1
Spectrometers: USB2E3373
Integration Time (usec): 3000 (USB2E3373)
Spectra Averaged: 3 (USB2E3373)
Boxcar Smoothing: 0 (USB2E3373)
Correct for Electrical Dark: No (USB2E3373)
Strobe/Lamp Enabled: No (USB2E3373)
Correct for Detector Non-linearity: No (USB2E3373)
Correct for Stray Light: No (USB2E3373)
Number of Pixels in Processed Spectrum: 2048
>>>>>Begin Processed Spectral Data<<<<<
178.53	0.000
178.91	0.000
179.29	12.500
179.67	-350.000
180.04	-42.857
180.42	-125.000
180.80	200.000
181.18	-100.000
181.56	550.000
181.94	-250.000
182.31	400.000
182.69	-120.000
183.07	100.000
183.45	-80.000
183.83	116.667
184.20	45.455
184.58	88.889
184.96	-75.000
185.34	66.667
185.72	-150.000
186.09	46.154
186.47	-500.000
186.85	133.333
187.23	133.333
187.61	100.000
187.98	-133.333
188.36	66.667
188.74	33.333
189.12	64.706
189.49	-11.111
189.87	0.000
190.25	50.000
190.63	250.000
191.00	-266.667
191.38	-57.895
191.76	200.000
192.14	-75.000
192.51	350.000
192.89	-44.444
193.27	-28.571
193.65	150.000
194.02	154.545
194.40	-10.000
194.78	-125.000
195.15	-25.000
195.53	-37.500
195.91	-0.000
196.29	-150.000
196.66	107.692
197.04	57.143
197.42	-22.222
197.79	-333.333
198.17	0.000
198.55	400.000
198.92	0.000
199.30	400.000
199.68	60.000
200.05	-266.667
200.43	0.000
200.81	-33.333
201.18	-433.333
201.56	100.000
201.94	-350.000
202.31	-66.667
202.69	-320.000
203.07	100.000
203.44	600.000
203.82	0.000
204.19	28.571
204.57	-500.000
204.95	-25.000
205.32	160.000
205.70	57.143
206.08	-50.000
206.45	222.222
206.83	64.286
207.20	-28.571
207.58	600.000
207.96	-233.333
208.33	-70.000
208.71	-200.000
209.08	-100.000
209.46	-1400.000
209.84	-60.000
210.21	-1800.000
210.59	-14.286
210.96	166.667
211.34	25.000
211.71	80.000
212.09	-228.571
212.46	-1500.000
212.84	0.000
213.22	90.000
213.59	400.000
213.97	53.846
214.34	-27.273
214.72	-150.000
215.09	425.000
215.47	-7.692
215.84	-72.727
216.22	-166.667
216.59	-12.500
216.97	50.000
217.34	-25.000
217.72	-300.000
218.09	137.500
218.47	87.500
218.84	-100.000
219.22	-66.667
219.59	-140.000
219.97	233.333
220.34	325.000
220.72	-28.571
221.09	-325.000
221.47	-350.000
221.84	-450.000
222.22	-600.000
222.59	-9.091
222.97	-33.333
223.34	-66.667
223.72	-21.429
224.09	9.524
224.46	-10.714
224.84	400.000
225.21	40.000
225.59	0.000
225.96	-200.000
226.34	50.000
226.71	-14.286
227.08	-116.667
227.46	-62.500
227.83	-500.000
228.21	-11.111
228.58	45.455
228.95	0.000
229.33	80.000
229.70	-6.250
230.08	-50.000
230.45	-71.429
230.82	42.857
231.20	40.000
231.57	57.143
231.95	42.857
232.32	-30.000
232.69	14.286
233.07	-100.000
233.44	60.000
233.81	-110.000
234.19	44.444
234.56	-5.882
234.93	400.000
235.31	50.000
235.68	-180.000
236.05	-84.615
236.43	-30.000
236.80	-29.412
237.17	12.500
237.55	-15.000
237.92	-14.815
238.29	16.667
238.67	60.000
239.04	11.765
239.41	-12.195
239.79	-13.333
240.16	9.756
240.53	-15.789
240.91	-13.043
241.28	23.810
241.65	5.357
242.02	19.178
242.40	6.667
242.77	18.644
243.14	3.030
243.51	16.250
243.89	21.839
244.26	6.897
244.63	4.762
245.00	17.526
245.38	13.402
245.75	1.124
246.12	1.724
246.49	5.785
246.87	20.192
247.24	5.042
247.61	9.649
247.98	6.504
248.36	10.625
248.73	5.263
249.10	8.442
249.47	7.595
249.84	6.536
250.22	2.353
250.59	5.882
250.96	18.310
251.33	7.558
251.70	14.706
252.08	4.569
252.45	6.931
252.82	8.543
253.19	11.060
253.56	6.075
253.94	9.459
254.31	8.696
254.68	11.842
255.05	9.843
255.42	6.114
255.79	12.355
256.16	7.004
256.54	10.821
256.91	7.605
257.28	3.346
257.65	4.869
258.02	11.348
258.39	13.805
258.76	10.256
259.14	9.635
259.51	7.443
259.88	6.873
260.25	10.458
260.62	9.375
260.99	6.780
261.36	5.822
261.73	7.595
262.10	9.119
262.47	6.442
262.85	5.016
263.22	7.385
263.59	5.919
263.96	9.938
264.33	6.970
264.70	11.905
265.07	10.714
265.44	7.649
265.81	11.017
266.18	7.377
266.55	12.082
266.92	9.067
267.29	9.922
267.66	8.696
268.03	8.639
268.40	7.311
268.77	11.765
269.14	11.271
269.51	8.740
269.88	7.980
270.25	6.122
270.62	7.805
270.99	8.184
271.36	6.357
271.73	10.563
272.10	7.786
272.47	10.638
272.84	10.891
273.21	7.657
273.58	10.843
273.95	10.984
274.32	5.312
274.69	9.050
275.06	10.714
275.43	9.070
275.80	9.934
276.17	6.207
276.54	6.638
276.91	8.991
277.28	6.987
277.65	10.744
278.02	8.298
278.39	6.783
278.76	7.547
279.13	6.432
279.50	10.504
279.87	8.639
280.23	8.602
280.60	9.357
280.97	10.101
281.34	5.962
281.71	10.883
282.08	6.339
282.45	7.436
282.82	6.757
283.19	8.897
283.56	8.863
283.92	8.729
284.29	9.231
284.66	8.527
285.03	5.894
285.40	8.885
285.77	5.975
286.14	7.581
286.51	10.701
286.87	7.495
287.24	7.919
287.61	7.231
287.98	10.526
288.35	7.279
288.72	9.807
289.08	8.507
289.45	7.733
289.82	5.944
290.19	6.485
290.56	7.376
290.93	4.377
291.29	6.317
291.66	8.031
292.03	8.612
292.40	7.903
292.77	7.177
293.13	5.844
293.50	5.463
293.87	7.786
294.24	7.573
294.60	7.452
294.97	7.440
295.34	6.595
295.71	6.855
296.08	6.278
296.44	4.836
296.81	6.806
297.18	6.087
297.55	7.995
297.91	7.397
298.28	7.388
298.65	7.598
299.02	7.008
299.38	3.420
299.75	6.483
300.12	4.712
300.48	6.456
300.85	6.844
301.22	5.584
301.59	4.737
301.95	6.329
302.32	7.004
302.69	6.468
303.05	6.312
303.42	6.600
303.79	6.192
304.15	8.363
304.52	3.686
304.89	5.848
305.25	5.690
305.62	6.301
305.99	4.795
306.35	5.202
306.72	6.412
307.09	6.043
307.45	5.396
307.82	5.671
308.19	7.201
308.55	5.671
308.92	7.407
309.29	4.358
309.65	6.674
310.02	5.281
310.38	5.269
310.75	5.683
311.12	5.382
311.48	5.620
311.85	6.073
312.22	4.641
312.58	6.051
312.95	4.909
313.31	5.072
313.68	5.340
314.05	6.327
314.41	6.082
314.78	6.495
315.14	5.858
315.51	6.211
315.87	6.045
316.24	7.887
316.61	6.594
316.97	5.754
317.34	5.859
317.70	6.692
318.07	6.250
318.43	7.647
318.80	5.303
319.16	7.422
319.53	8.262
319.89	5.807
320.26	7.692
320.62	8.526
320.99	7.933
321.35	7.297
321.72	8.723
322.08	7.956
322.45	8.934
322.81	8.743
323.18	6.869
323.54	8.301
323.91	8.569
324.27	9.961
324.64	8.895
325.00	10.036
325.37	10.468
325.73	10.154
326.10	10.082
326.46	11.390
326.83	12.248
327.19	11.160
327.56	12.685
327.92	14.349
328.29	11.964
328.65	12.170
329.01	12.960
329.38	13.733
329.74	13.126
330.11	13.624
330.47	13.358
330.84	14.519
331.20	15.494
331.56	14.537
331.93	14.612
332.29	16.040
332.66	14.842
333.02	16.264
333.38	15.124
333.75	17.308
334.11	15.756
334.48	17.498
334.84	16.575
335.20	17.292
335.57	17.316
335.93	17.254
336.29	19.061
336.66	17.620
337.02	16.729
337.38	17.222
337.75	17.273
338.11	19.387
338.47	17.792
338.84	17.190
339.20	18.647
339.56	17.798
339.93	20.143
340.29	19.174
340.65	19.086
341.02	19.681
341.38	19.912
341.74	18.463
342.11	17.851
342.47	18.505
342.83	18.599
343.20	18.206
343.56	19.478
343.92	19.132
344.28	19.129
344.65	18.653
345.01	18.237
345.37	20.269
345.73	19.582
346.10	19.672
346.46	19.092
346.82	18.985
347.19	17.207
347.55	18.881
347.91	18.932
348.27	18.998
348.63	19.676
349.00	19.934
349.36	19.368
349.72	19.818
350.08	20.164
350.45	19.473
350.81	19.352
351.17	20.277
351.53	19.184
351.89	19.240
352.26	19.440
352.62	19.758
352.98	20.080
353.34	20.370
353.70	20.550
354.07	19.839
354.43	20.256
354.79	20.149
355.15	21.270
355.51	20.253
355.87	19.984
356.24	19.250
356.60	20.776
356.96	20.476
357.32	19.649
357.68	19.390
358.04	21.002
358.40	20.096
358.77	20.734
359.13	20.737
359.49	20.108
359.85	21.061
360.21	20.734
360.57	20.428
360.93	21.634
361.29	19.637
361.66	21.473
362.02	20.530
362.38	20.716
362.74	20.666
363.10	21.445
363.46	20.979
363.82	21.187
364.18	21.402
364.54	20.000
364.90	21.075
365.26	20.597
365.62	22.482
365.98	21.114
366.35	20.830
366.71	21.508
367.07	21.843
367.43	21.999
367.79	22.968
368.15	21.177
368.51	21.340
368.87	21.393
369.23	21.011
369.59	21.064
369.95	22.507
370.31	22.254
370.67	21.642
371.03	21.882
371.39	21.590
371.75	22.198
372.11	21.612
372.47	22.707
372.83	22.214
373.19	21.897
373.55	20.650
373.91	22.462
374.27	22.395
374.63	22.828
374.99	22.199
375.35	23.189
375.71	22.657
376.07	22.121
376.42	23.946
376.78	23.221
377.14	22.681
377.50	22.576
377.86	22.624
378.22	22.017
378.58	22.115
378.94	22.999
379.30	23.019
379.66	24.013
380.02	22.808
380.38	22.702
380.74	23.040
381.09	23.926
381.45	23.486
381.81	23.874
382.17	24.683
382.53	23.485
382.89	23.478
383.25	24.518
383.61	24.390
383.97	23.746
384.32	23.702
384.68	23.653
385.04	24.142
385.40	23.335
385.76	24.151
386.12	25.291
386.48	25.223
386.83	23.526
387.19	24.359
387.55	24.655
387.91	24.450
388.27	24.054
388.62	24.795
388.98	24.739
389.34	25.109
389.70	25.606
390.06	23.411
390.42	24.611
390.77	24.591
391.13	24.968
391.49	24.386
391.85	25.146
392.20	24.231
392.56	24.539
392.92	24.545
393.28	25.590
393.64	24.324
393.99	26.520
394.35	24.921
394.71	25.543
395.07	24.073
395.42	24.469
395.78	25.016
396.14	24.842
396.50	25.555
396.85	25.499
397.21	25.000
397.57	25.455
397.92	24.865
398.28	25.575
398.64	24.578
399.00	25.000
399.35	24.774
399.71	25.560
400.07	25.393
400.42	24.847
400.78	26.087
401.14	25.227
401.49	25.432
401.85	24.436
402.21	25.723
402.57	26.063
402.92	24.216
403.28	26.065
403.63	25.032
403.99	25.446
404.35	25.671
404.70	23.988
405.06	24.971
405.42	24.487
405.77	24.753
406.13	24.854
406.49	25.340
406.84	25.122
407.20	25.527
407.55	24.920
407.91	24.733
408.27	25.430
408.62	24.492
408.98	25.015
409.34	25.279
409.69	23.966
410.05	24.815
410.40	25.432
410.76	25.935
411.11	25.187
411.47	24.852
411.83	24.105
412.18	25.997
412.54	25.780
412.89	24.200
413.25	25.271
413.60	24.907
413.96	24.356
414.31	25.549
414.67	24.567
415.03	25.766
415.38	25.131
415.74	25.668
416.09	26.323
416.45	24.781
416.80	24.124
417.16	26.036
417.51	25.849
417.87	24.250
418.22	25.648
418.58	25.686
418.93	26.771
419.29	24.456
419.64	24.692
420.00	25.567
420.35	25.612
420.71	25.516
421.06	24.800
421.42	24.760
421.77	24.971
422.12	24.631
422.48	25.338
422.83	25.116
423.19	25.113
423.54	24.633
423.90	25.559
424.25	24.742
424.61	26.193
424.96	25.610
425.31	26.228
425.67	26.585
426.02	26.207
426.38	26.111
426.73	25.847
427.09	26.329
427.44	26.000
427.79	26.400
428.15	25.607
428.50	25.500
428.85	24.877
429.21	26.599
429.56	26.469
429.92	26.656
430.27	25.965
430.62	25.719
430.98	26.168
431.33	26.498
431.68	26.374
432.04	26.439
432.39	25.556
432.74	25.676
433.10	26.609
433.45	26.225
433.80	26.698
434.16	25.873
434.51	26.452
434.86	26.713
435.22	26.865
435.57	27.199
435.92	26.587
436.28	25.760
436.63	26.298
436.98	25.203
437.34	26.860
437.69	27.072
438.04	27.179
438.39	26.145
438.75	27.201
439.10	26.938
439.45	26.719
439.81	25.566
440.16	26.306
440.51	27.463
440.86	28.761
441.22	26.471
441.57	26.545
441.92	26.600
442.27	26.774
442.63	26.981
442.98	27.455
443.33	27.435
443.68	26.897
444.03	27.521
444.39	27.054
444.74	27.592
445.09	26.949
445.44	27.692
445.79	28.107
446.15	26.817
446.50	26.678
446.85	27.471
447.20	26.642
447.55	28.516
447.91	27.919
448.26	28.059
448.61	27.634
448.96	27.653
449.31	28.266
449.66	27.062
450.02	27.153
450.37	28.631
450.72	27.663
451.07	28.291
451.42	28.277
451.77	27.728
452.12	27.452
452.47	27.366
452.83	26.678
453.18	27.894
453.53	27.813
453.88	28.051
454.23	28.334
454.58	28.652
454.93	28.737
455.28	27.175
455.63	27.588
455.98	28.382
456.34	28.161
456.69	29.288
457.04	28.544
457.39	26.610
457.74	27.570
458.09	26.780
458.44	27.853
458.79	28.011
459.14	28.547
459.49	27.701
459.84	28.032
460.19	28.034
460.54	28.606
460.89	27.784
461.24	28.261
461.59	27.910
461.94	28.176
462.29	28.166
462.64	28.239
462.99	28.301
463.34	28.720
463.69	28.507
464.04	27.906
464.39	27.592
464.74	28.282
465.09	28.571
465.44	28.794
465.79	28.458
466.14	28.392
466.49	27.372
466.84	28.316
467.19	29.349
467.54	28.544
467.89	28.301
468.24	28.041
468.59	28.635
468.94	28.000
469.29	28.721
469.64	29.597
469.99	29.573
470.34	29.010
470.68	30.425
471.03	29.087
471.38	29.743
471.73	29.062
472.08	29.647
472.43	29.799
472.78	28.787
473.13	28.844
473.48	29.186
473.83	28.954
474.17	29.210
474.52	28.973
474.87	28.303
475.22	28.615
475.57	27.724
475.92	29.457
476.27	29.395
476.61	28.588
476.96	28.277
477.31	29.584
477.66	28.876
478.01	29.085
478.36	29.139
478.70	29.581
479.05	29.725
479.40	29.518
479.75	28.676
480.10	27.650
480.45	28.900
480.79	29.809
481.14	29.150
481.49	28.571
481.84	28.523
482.19	28.391
482.53	29.736
482.88	29.165
483.23	29.079
483.58	28.019
483.92	28.945
484.27	27.849
484.62	28.507
484.97	29.022
485.31	28.071
485.66	26.867
486.01	27.323
486.36	27.391
486.70	27.640
487.05	28.055
487.40	28.309
487.75	28.507
488.09	28.430
488.44	29.161
488.79	29.473
489.13	29.447
489.48	29.115
489.83	29.731
490.17	29.393
490.52	29.145
490.87	28.598
491.22	29.608
491.56	30.408
491.91	29.493
492.26	29.849
492.60	29.559
492.95	30.300
493.30	30.288
493.64	30.206
493.99	30.145
494.34	30.243
494.68	30.190
495.03	29.392
495.37	30.079
495.72	29.833
496.07	30.195
496.41	29.575
496.76	29.940
497.11	29.110
497.45	29.785
497.80	30.626
498.14	30.104
498.49	30.117
498.84	30.140
499.18	31.024
499.53	29.663
499.87	29.475
500.22	29.575
500.56	30.711
500.91	30.221
501.26	29.659
501.60	29.611
501.95	30.325
502.29	30.702
502.64	30.936
502.98	30.340
503.33	29.827
503.67	30.699
504.02	30.694
504.36	30.332
504.71	30.556
505.06	29.341
505.40	30.102
505.75	30.206
506.09	30.664
506.44	30.185
506.78	30.408
507.13	30.869
507.47	29.608
507.82	30.288
508.16	30.164
508.51	31.322
508.85	30.769
509.19	30.708
509.54	30.617
509.88	30.313
510.23	31.307
510.57	30.893
510.92	29.478
511.26	31.097
511.61	31.463
511.95	30.740
512.30	30.654
512.64	30.384
512.98	31.387
513.33	31.337
513.67	31.325
514.02	31.979
514.36	32.457
514.70	32.576
515.05	30.964
515.39	32.054
515.74	33.114
516.08	32.636
516.42	33.039
516.77	32.124
517.11	31.810
517.46	32.496
517.80	32.122
518.14	33.190
518.49	30.950
518.83	32.139
519.17	32.626
519.52	32.978
519.86	31.393
520.20	33.536
520.55	31.520
520.89	32.622
521.23	32.996
521.58	32.366
521.92	33.590
522.26	33.051
522.61	34.156
522.95	33.841
523.29	32.973
523.64	33.482
523.98	33.895
524.32	32.539
524.66	32.586
525.01	33.442
525.35	33.377
525.69	33.333
526.04	32.738
526.38	33.658
526.72	32.112
527.06	34.436
527.41	33.047
527.75	32.373
528.09	32.757
528.43	34.369
528.78	32.541
529.12	32.968
529.46	34.503
529.80	33.439
530.15	33.201
530.49	34.141
530.83	33.789
531.17	34.385
531.51	34.063
531.86	33.787
532.20	34.099
532.54	33.901
532.88	34.360
533.22	34.140
533.57	33.355
533.91	33.355
534.25	34.635
534.59	33.291
534.93	32.851
535.27	33.629
535.62	33.052
535.96	32.420
536.30	33.575
536.64	33.287
536.98	33.171
537.32	33.713
537.66	34.011
538.01	33.287
538.35	33.703
538.69	34.288
539.03	33.014
539.37	33.782
539.71	33.810
540.05	33.876
540.39	34.072
540.73	34.240
541.07	34.530
541.42	34.274
541.76	34.067
542.10	33.379
542.44	33.009
542.78	33.448
543.12	33.929
543.46	33.866
543.80	34.004
544.14	33.378
544.48	33.511
544.82	34.518
545.16	34.495
545.50	33.979
545.84	34.065
546.18	34.539
546.52	34.247
546.86	33.789
547.20	34.621
547.54	33.498
547.88	33.764
548.22	33.202
548.56	32.850
548.90	33.760
549.24	33.953
549.58	35.472
549.92	34.024
550.26	34.945
550.60	35.316
550.94	35.176
551.28	34.776
551.62	35.231
551.96	35.338
552.30	34.430
552.64	34.062
552.98	34.248
553.32	34.308
553.66	33.745
554.00	34.015
554.34	34.417
554.68	35.324
555.02	35.417
555.36	35.303
555.69	32.601
556.03	33.904
556.37	33.310
556.71	35.162
557.05	35.198
557.39	34.424
557.73	34.633
558.07	34.992
558.41	33.997
558.75	35.620
559.08	34.279
559.42	35.079
559.76	35.308
560.10	35.780
560.44	35.071
560.78	35.175
561.12	35.755
561.45	34.505
561.79	35.364
562.13	33.925
562.47	34.460
562.81	34.870
563.15	35.614
563.48	35.007
563.82	34.454
564.16	34.401
564.50	34.730
564.84	34.605
565.17	33.937
565.51	36.544
565.85	35.802
566.19	34.549
566.52	35.121
566.86	35.540
567.20	33.998
567.54	34.854
567.88	33.802
568.21	34.050
568.55	33.641
568.89	34.138
569.23	33.558
569.56	32.356
569.90	33.009
570.24	32.080
570.57	32.036
570.91	31.997
571.25	31.963
571.59	31.143
571.92	30.904
572.26	31.039
572.60	30.636
572.93	31.628
573.27	31.034
573.61	31.205
573.95	30.939
574.28	30.456
574.62	30.231
574.96	29.793
575.29	30.212
575.63	29.256
575.97	30.361
576.30	30.841
576.64	30.013
576.98	29.987
577.31	30.671
577.65	30.642
577.98	30.664
578.32	29.927
578.66	29.422
578.99	29.878
579.33	30.127
579.67	29.826
580.00	30.253
580.34	30.423
580.67	30.168
581.01	30.500
581.35	29.587
581.68	29.227
582.02	29.528
582.35	30.121
582.69	30.035
583.02	29.908
583.36	30.234
583.70	31.438
584.03	31.610
584.37	31.621
584.70	31.099
585.04	30.596
585.37	29.975
585.71	29.795
586.04	30.635
586.38	30.408
586.72	31.076
587.05	31.138
587.39	31.311
587.72	32.149
588.06	31.387
588.39	31.074
588.73	31.105
589.06	32.159
589.40	31.939
589.73	32.165
590.07	32.137
590.40	32.779
590.73	33.402
591.07	32.358
591.40	32.502
591.74	32.308
592.07	33.627
592.41	32.862
592.74	31.780
593.08	31.436
593.41	31.367
593.75	30.815
594.08	30.999
594.41	31.914
594.75	31.679
595.08	31.858
595.42	31.763
595.75	31.844
596.09	33.307
596.42	32.989
596.75	32.771
597.09	32.756
597.42	32.430
597.75	33.394
598.09	32.413
598.42	32.491
598.76	31.875
599.09	31.530
599.42	30.959
599.76	30.850
600.09	31.825
600.42	31.653
600.76	30.721
601.09	31.412
601.42	31.688
601.76	31.878
602.09	32.715
602.42	32.013
602.76	32.088
603.09	33.015
603.42	33.069
603.76	32.218
604.09	31.673
604.42	32.487
604.76	32.310
605.09	32.998
605.42	32.641
605.75	32.618
606.09	31.592
606.42	31.985
606.75	32.035
607.09	32.747
607.42	32.078
607.75	31.350
608.08	31.896
608.42	32.344
608.75	33.060
609.08	33.084
609.41	33.604
609.75	33.417
610.08	33.200
610.41	32.367
610.74	33.447
611.07	33.230
611.41	33.212
611.74	33.689
612.07	32.816
612.40	33.370
612.73	33.672
613.07	33.521
613.40	33.425
613.73	33.856
614.06	33.389
614.39	33.333
614.72	33.445
615.06	34.078
615.39	32.806
615.72	33.154
616.05	32.737
616.38	32.422
616.71	34.190
617.05	35.207
617.38	34.821
617.71	34.403
618.04	34.413
618.37	35.498
618.70	34.521
619.03	35.417
619.36	33.864
619.69	35.102
620.03	36.523
620.36	35.765
620.69	35.046
621.02	35.168
621.35	37.012
621.68	35.544
622.01	36.583
622.34	35.595
622.67	36.120
623.00	35.452
623.33	35.290
623.66	35.378
623.99	35.930
624.32	35.741
624.65	36.015
624.99	35.440
625.32	34.420
625.65	36.214
625.98	37.389
626.31	35.079
626.64	37.782
626.97	37.347
627.30	37.215
627.63	36.828
627.96	37.197
628.29	37.928
628.62	40.118
628.95	38.477
629.28	38.206
629.61	38.285
629.94	40.274
630.26	37.846
630.59	39.126
630.92	39.282
631.25	38.051
631.58	39.097
631.91	39.145
632.24	40.367
632.57	40.682
632.90	39.858
633.23	39.059
633.56	41.688
633.89	41.184
634.22	42.099
634.55	41.042
634.88	41.124
635.20	40.128
635.53	40.533
635.86	38.882
636.19	41.268
636.52	40.306
636.85	40.323
637.18	39.119
637.51	39.119
637.83	41.393
638.16	42.838
638.49	40.736
638.82	40.658
639.15	38.535
639.48	40.165
639.81	41.283
640.13	41.126
640.46	42.274
640.79	43.299
641.12	39.586
641.45	40.841
641.77	40.889
642.10	42.970
642.43	42.444
642.76	42.904
643.09	41.680
643.41	42.880
643.74	43.822
644.07	44.007
644.40	43.750
644.73	44.658
645.05	43.456
645.38	43.739
645.71	42.553
646.04	45.242
646.36	44.326
646.69	42.986
647.02	46.314
647.35	42.724
647.67	44.790
648.00	46.642
648.33	41.468
648.66	42.373
648.98	39.698
649.31	40.992
649.64	41.444
649.96	40.681
650.29	42.930
650.62	42.393
650.94	41.667
651.27	45.438
651.60	44.324
651.92	44.056
652.25	43.517
652.58	40.667
652.90	44.425
653.23	41.008
653.56	41.963
653.88	42.096
654.21	42.557
654.54	41.087
654.86	42.784
655.19	38.743
655.52	35.991
655.84	29.145
656.17	31.610
656.49	42.821
656.82	44.284
657.15	34.455
657.47	26.292
657.80	19.393
658.13	19.719
658.45	30.973
658.78	31.491
659.10	31.958
659.43	32.007
659.75	33.547
660.08	34.345
660.41	36.977
660.73	39.227
661.06	42.288
661.38	39.139
661.71	42.916
662.03	46.781
662.36	45.275
662.68	44.912
663.01	43.013
663.33	44.780
663.66	41.163
663.98	44.186
664.31	43.710
664.63	44.240
664.96	42.609
665.28	43.267
665.61	42.857
665.93	44.348
666.26	45.119
666.58	42.953
666.91	43.059
667.23	44.811
667.56	47.867
667.88	46.043
668.21	44.153
668.53	47.281
668.86	44.811
669.18	44.811
669.50	44.794
669.83	40.465
670.15	44.289
670.48	44.976
670.80	44.470
671.13	44.295
671.45	42.009
671.77	43.133
672.10	39.604
672.42	40.824
672.75	40.675
673.07	42.397
673.39	42.569
673.72	37.475
674.04	42.083
674.37	40.678
674.69	43.897
675.01	43.778
675.34	43.468
675.66	43.750
675.98	44.346
676.31	42.202
676.63	42.518
676.95	40.682
677.28	42.118
677.60	42.169
677.92	41.055
678.25	45.514
678.57	42.641
678.89	40.966
679.22	45.190
679.54	38.956
679.86	39.960
680.18	41.165
680.51	39.773
680.83	41.948
681.15	41.600
681.48	43.033
681.80	42.562
682.12	38.306
682.44	39.121
682.77	45.254
683.09	41.190
683.41	40.455
683.73	40.323
684.06	43.805
684.38	39.140
684.70	40.523
685.02	39.834
685.34	39.328
685.67	39.400
685.99	41.049
686.31	38.053
686.63	38.590
686.96	39.544
687.28	41.212
687.60	36.692
687.92	42.828
688.24	39.919
688.56	40.393
688.89	42.188
689.21	39.556
689.53	43.155
689.85	40.930
690.17	41.071
690.49	40.898
690.82	38.350
691.14	39.524
691.46	43.692
691.78	41.216
692.10	41.505
692.42	39.177
692.74	41.453
693.06	41.667
693.39	39.819
693.71	38.914
694.03	40.647
694.35	40.187
694.67	42.677
694.99	39.164
695.31	41.775
695.63	40.500
695.95	40.909
696.27	41.969
696.59	40.278
696.91	41.457
697.23	40.874
697.56	43.317
697.88	41.720
698.20	43.052
698.52	39.059
698.84	37.081
699.16	41.750
699.48	40.351
699.80	37.965
700.12	40.701
700.44	39.216
700.76	41.279
701.08	37.273
701.40	43.373
701.72	44.136
702.04	41.254
702.36	45.485
702.68	43.544
703.00	40.606
703.32	38.416
703.64	39.548
703.96	40.870
704.28	46.319
704.60	41.587
704.91	37.224
705.23	46.844
705.55	43.816
705.87	44.043
706.19	44.074
706.51	43.299
706.83	41.158
707.15	39.252
707.47	41.176
707.79	36.719
708.11	40.500
708.43	39.500
708.74	39.793
709.06	45.634
709.38	42.508
709.70	41.716
710.02	45.223
710.34	44.582
710.66	39.744
710.98	38.411
711.29	39.672
711.61	37.627
711.93	45.603
712.25	45.017
712.57	46.520
712.89	45.149
713.20	42.215
713.52	43.554
713.84	41.980
714.16	41.924
714.48	39.355
714.80	39.744
715.11	37.994
715.43	37.931
715.75	36.667
716.07	38.206
716.39	43.289
716.70	44.649
717.02	41.985
717.34	40.486
717.66	42.478
717.97	37.826
718.29	41.004
718.61	44.488
718.93	39.922
719.24	47.148
719.56	43.373
719.88	40.550
720.20	39.015
720.51	35.632
720.83	40.154
721.15	42.017
721.46	40.726
721.78	36.364
722.10	39.033
722.42	41.909
722.73	41.224
723.05	44.082
723.37	47.034
723.68	45.045
724.00	41.453
724.32	36.444
724.63	45.909
724.95	39.738
725.27	45.161
725.58	40.254
725.90	40.476
726.22	41.699
726.53	41.356
726.85	45.318
727.16	44.151
727.48	42.105
727.80	39.271
728.11	41.949
728.43	39.608
728.74	38.710
729.06	43.600
729.38	40.977
729.69	38.645
730.01	39.615
730.32	38.060
730.64	38.516
730.96	38.113
731.27	37.333
731.59	38.644
731.90	37.580
732.22	43.218
732.53	40.532
732.85	36.170
733.16	38.721
733.48	38.489
733.80	39.855
734.11	36.271
734.43	39.519
734.74	37.879
735.06	37.785
735.37	36.858
735.69	39.394
736.00	35.889
736.32	37.919
736.63	37.324
736.95	38.567
737.26	33.808
737.58	34.228
737.89	38.828
738.21	40.977
738.52	43.621
738.83	44.105
739.15	36.245
739.46	36.220
739.78	36.264
740.09	33.007
740.41	38.043
740.72	40.157
741.04	36.437
741.35	36.596
741.66	42.180
741.98	42.857
742.29	41.089
742.61	44.503
742.92	30.806
743.23	35.648
743.55	41.176
743.86	38.278
744.18	41.148
744.49	40.957
744.80	36.957
745.12	49.733
745.43	39.512
745.74	43.229
746.06	43.415
746.37	42.408
746.68	43.128
747.00	38.830
747.31	41.294
747.62	42.233
747.94	42.584
748.25	42.079
748.56	48.087
748.88	46.597
749.19	50.532
749.50	46.798
749.82	35.849
750.13	31.651
750.44	40.602
750.75	35.821
751.07	41.241
751.38	40.996
751.69	34.902
752.01	39.147
752.32	38.645
752.63	34.387
752.94	41.379
753.26	45.607
753.57	42.534
753.88	42.920
754.19	37.917
754.51	35.124
754.82	39.676
755.13	43.333
755.44	37.903
755.75	36.328
756.07	42.023
756.38	36.604
756.69	36.782
757.00	39.667
757.31	34.967
757.63	34.756
757.94	34.444
758.25	29.041
758.56	36.436
758.87	34.278
759.18	34.891
759.50	34.182
759.81	37.458
760.12	32.258
760.43	33.333
760.74	35.802
761.05	34.462
761.36	33.523
761.67	37.576
761.99	36.395
762.30	35.636
762.61	35.968
762.92	38.462
763.23	39.640
763.54	36.916
763.85	36.441
764.16	37.759
764.47	37.097
764.78	35.531
765.10	37.037
765.41	27.445
765.72	33.968
766.03	29.699
766.34	36.131
766.65	40.239
766.96	41.919
767.27	37.234
767.58	43.678
767.89	39.007
768.20	40.909
768.51	37.912
768.82	34.483
769.13	35.023
769.44	36.481
769.75	41.096
770.06	37.069
770.37	36.058
770.68	32.995
770.99	33.484
771.30	38.725
771.61	35.747
771.92	40.517
772.23	40.887
772.54	39.785
772.85	35.802
773.16	43.258
773.47	45.752
773.78	43.137
774.09	41.916
774.39	38.667
774.70	38.217
775.01	45.517
775.32	43.571
775.63	42.975
775.94	43.511
776.25	44.882
776.56	43.333
776.87	29.808
777.18	44.444
777.48	37.069
777.79	40.870
778.10	24.762
778.41	44.144
778.72	32.540
779.03	30.827
779.34	34.752
779.65	36.986
779.95	33.562
780.26	36.552
780.57	34.959
780.88	39.370
781.19	35.345
781.50	38.760
781.80	37.278
782.11	28.302
782.42	35.385
782.73	35.252
783.04	34.074
783.34	24.306
783.65	25.641
783.96	41.803
784.27	41.379
784.57	25.203
784.88	39.063
785.19	46.000
785.50	50.000
785.81	40.517
786.11	29.310
786.42	25.243
786.73	42.727
787.04	28.571
787.34	37.500
787.65	39.048
787.96	31.858
788.26	38.182
788.57	41.880
788.88	46.094
789.19	29.365
789.49	34.783
789.80	34.694
790.11	38.384
790.41	27.273
790.72	45.652
791.03	34.091
791.33	36.250
791.64	31.250
791.95	51.163
792.25	44.681
792.56	50.562
792.87	49.315
793.17	20.290
793.48	45.333
793.79	53.750
794.09	38.750
794.40	37.736
794.70	30.097
795.01	21.951
795.32	29.060
795.62	35.238
795.93	33.333
796.23	34.906
796.54	35.417
796.85	36.765
797.15	42.254
797.46	51.389
797.76	51.515
798.07	44.186
798.37	32.895
798.68	25.758
798.99	22.222
799.29	34.286
799.60	21.739
799.90	41.333
800.21	57.377
800.51	33.846
800.82	30.508
801.12	44.928
801.43	44.262
801.73	52.381
802.04	38.000
802.34	26.866
802.65	57.692
802.95	39.286
803.26	36.538
803.56	68.627
803.87	47.826
804.17	52.000
804.48	55.556
804.78	40.741
805.09	30.435
805.39	31.111
805.70	53.704
806.00	24.561
806.30	35.211
806.61	35.714
806.91	31.944
807.22	47.368
807.52	33.333
807.83	36.364
808.13	40.278
808.43	33.824
808.74	25.373
809.04	35.593
809.35	13.462
809.65	48.438
809.95	27.027
810.26	22.727
810.56	32.877
810.86	40.476
811.17	36.000
811.47	20.408
811.77	39.474
812.08	18.182
812.38	30.189
812.69	27.500
812.99	30.303
813.29	50.000
813.59	34.286
813.90	36.364
814.20	25.641
814.50	42.308
814.81	41.509
815.11	27.660
815.41	40.678
815.72	52.381
816.02	41.176
816.32	50.000
816.62	43.902
816.93	35.135
817.23	34.286
817.53	43.750
817.84	36.957
818.14	25.000
818.44	7.895
818.74	34.783
819.04	10.000
819.35	43.243
819.65	41.176
819.95	58.333
820.25	16.667
820.56	47.500
820.86	-34.483
821.16	55.000
821.46	31.915
821.76	35.000
822.07	51.163
822.37	-13.514
822.67	15.625
822.97	50.000
823.27	32.143
823.57	28.000
823.88	29.630
824.18	57.143
824.48	50.000
824.78	45.161
825.08	43.478
825.38	12.121
825.69	-12.500
825.99	13.158
826.29	36.111
826.59	0.000
826.89	-33.333
827.19	36.957
827.49	20.000
827.79	34.286
828.09	32.143
828.39	45.455
828.70	75.676
829.00	25.000
829.30	9.524
829.60	33.333
829.90	40.625
830.20	26.316
830.50	18.519
830.80	34.783
831.10	31.818
831.40	48.485
831.70	45.161
832.00	38.095
832.30	-4.762
832.60	-41.667
832.90	44.828
833.20	-40.000
833.50	24.242
833.80	33.333
834.10	23.077
834.40	50.000
834.70	-33.333
835.00	47.368
835.30	53.846
835.60	100.000
835.90	0.000
836.20	45.455
836.50	21.429
836.80	-11.538
837.10	14.286
837.40	33.333
837.70	63.636
838.00	54.545
838.30	47.826
838.60	-7.692
838.90	45.455
839.19	39.286
839.49	16.667
839.79	76.923
840.09	-25.000
840.39	28.571
840.69	25.000
840.99	30.769
841.29	-15.789
841.59	-90.000
841.88	0.000
842.18	-20.000
842.48	31.250
842.78	0.000
843.08	37.037
843.38	-60.000
843.68	56.522
843.97	46.667
844.27	6.667
844.57	30.000
844.87	38.889
845.17	52.381
845.47	53.333
845.76	-4.762
846.06	-17.647
846.36	-10.000
846.66	42.857
846.96	26.667
847.25	-37.500
847.55	71.429
847.85	12.500
848.15	-18.182
848.44	-433.333
848.74	20.000
849.04	25.926
849.34	90.909
849.63	0.000
849.93	-60.000
850.23	11.111
850.53	120.000
850.82	-15.385
851.12	55.556
851.42	0.000
851.71	-7.692
852.01	50.000
852.31	100.000
852.61	18.182
852.90	0.000
853.20	31.579
853.50	-83.333
853.79	78.261
854.09	62.500
854.39	5.263
854.68	33.333
854.98	58.065
855.28	34.615
855.57	35.000
855.87	33.333
856.17	66.667
856.46	-28.571
856.76	6.667
857.05	55.556
857.35	24.000
857.65	-44.444
857.94	-7.692
858.24	34.483
858.53	66.667
858.83	62.963
859.13	40.909
859.42	-17.391
859.72	-175.000
860.01	-433.333
860.31	44.000
860.60	14.286
860.90	100.000
861.20	-140.000
861.49	-250.000
861.79	20.000
862.08	-15.000
862.38	80.000
862.67	20.000
862.97	0.000
863.26	66.667
863.56	11.111
863.85	-166.667
864.15	44.444
864.44	-40.000
864.74	57.143
865.03	150.000
865.33	-200.000
865.62	66.667
865.92	58.333
866.21	-183.333
866.51	56.250
866.80	-54.545
867.10	250.000
867.39	25.000
867.69	0.000
867.98	-7.692
868.27	66.667
868.57	-26.667
868.86	11.111
869.16	-23.077
869.45	80.000
869.75	-1000.000
870.04	0.000
870.33	-185.714
870.63	19.048
870.92	200.000
871.22	-100.000
871.51	-700.000
871.80	88.889
872.10	333.333
>>>>>End Processed Spectral Data<<<<<
