SpectraSuite Data File
++++++++++++++++++++++++++++++++++++
Date: Fri May 15 17:07:38 PDT 2015
User: schluterlab
Dark Spectrum Present: Yes
Reference Spectrum Present: Yes
Number of Sampled Component Spectra: 1
Spectrometers: USB2E3373
Integration Time (usec): 3000 (USB2E3373)
Spectra Averaged: 3 (USB2E3373)
Boxcar Smoothing: 0 (USB2E3373)
Correct for Electrical Dark: No (USB2E3373)
Strobe/Lamp Enabled: No (USB2E3373)
Correct for Detector Non-linearity: No (USB2E3373)
Correct for Stray Light: No (USB2E3373)
Number of Pixels in Processed Spectrum: 2048
>>>>>Begin Processed Spectral Data<<<<<
178.53	0.000
178.91	0.000
179.29	125.000
179.67	550.000
180.04	-100.000
180.42	225.000
180.80	300.000
181.18	-33.333
181.56	-200.000
181.94	0.000
182.31	1200.000
182.69	140.000
183.07	0.000
183.45	20.000
183.83	-0.000
184.20	118.182
184.58	44.444
184.96	-125.000
185.34	-133.333
185.72	-100.000
186.09	-30.769
186.47	300.000
186.85	-66.667
187.23	-66.667
187.61	-900.000
187.98	-66.667
188.36	88.889
188.74	0.000
189.12	64.706
189.49	55.556
189.87	0.000
190.25	142.857
190.63	850.000
191.00	0.000
191.38	26.316
191.76	250.000
192.14	-75.000
192.51	650.000
192.89	66.667
193.27	128.571
193.65	-50.000
194.02	54.545
194.40	140.000
194.78	-25.000
195.15	83.333
195.53	100.000
195.91	-125.000
196.29	100.000
196.66	15.385
197.04	-71.429
197.42	100.000
197.79	133.333
198.17	-69.231
198.55	-200.000
198.92	0.000
199.30	1000.000
199.68	220.000
200.05	-66.667
200.43	0.000
200.81	233.333
201.18	233.333
201.56	1000.000
201.94	200.000
202.31	-166.667
202.69	-20.000
203.07	-100.000
203.44	1100.000
203.82	0.000
204.19	150.000
204.57	33.333
204.95	-62.500
205.32	50.000
205.70	128.571
206.08	25.000
206.45	277.778
206.83	92.857
207.20	42.857
207.58	-0.000
207.96	233.333
208.33	10.000
208.71	75.000
209.08	-66.667
209.46	-400.000
209.84	20.000
210.21	400.000
210.59	42.857
210.96	116.667
211.34	225.000
211.71	73.333
212.09	142.857
212.46	-600.000
212.84	0.000
213.22	80.000
213.59	-300.000
213.97	92.308
214.34	36.364
214.72	16.667
215.09	-0.000
215.47	130.769
215.84	18.182
216.22	33.333
216.59	150.000
216.97	400.000
217.34	75.000
217.72	80.000
218.09	100.000
218.47	-50.000
218.84	-300.000
219.22	122.222
219.59	200.000
219.97	-233.333
220.34	-275.000
220.72	85.714
221.09	75.000
221.47	250.000
221.84	-200.000
222.22	50.000
222.59	54.545
222.97	50.000
223.34	200.000
223.72	35.714
224.09	19.048
224.46	60.714
224.84	-33.333
225.21	20.000
225.59	60.000
225.96	100.000
226.34	325.000
226.71	157.143
227.08	33.333
227.46	187.500
227.83	-350.000
228.21	-11.111
228.58	154.545
228.95	37.500
229.33	-100.000
229.70	18.750
230.08	162.500
230.45	-100.000
230.82	185.714
231.20	46.667
231.57	64.286
231.95	171.429
232.32	-40.000
232.69	71.429
233.07	233.333
233.44	60.000
233.81	80.000
234.19	100.000
234.56	29.412
234.93	-150.000
235.31	175.000
235.68	60.000
236.05	-15.385
236.43	15.000
236.80	41.176
237.17	25.000
237.55	40.000
237.92	-7.407
238.29	33.333
238.67	13.333
239.04	23.529
239.41	12.195
239.79	0.000
240.16	31.707
240.53	10.526
240.91	4.348
241.28	1.587
241.65	32.143
242.02	21.918
242.40	3.333
242.77	6.780
243.14	7.576
243.51	12.500
243.89	20.690
244.26	6.897
244.63	4.762
245.00	10.309
245.38	11.340
245.75	6.742
246.12	4.310
246.49	12.397
246.87	13.462
247.24	5.042
247.61	-3.509
247.98	4.878
248.36	15.000
248.73	10.526
249.10	1.948
249.47	12.025
249.84	1.307
250.22	9.412
250.59	9.150
250.96	11.737
251.33	4.070
251.70	8.235
252.08	9.645
252.45	2.475
252.82	8.040
253.19	7.373
253.56	2.804
253.94	6.306
254.31	8.261
254.68	9.211
255.05	4.331
255.42	7.424
255.79	4.633
256.16	7.004
256.54	11.567
256.91	9.886
257.28	7.435
257.65	3.371
258.02	3.901
258.39	8.081
258.76	8.059
259.14	6.977
259.51	6.796
259.88	3.780
260.25	4.902
260.62	7.986
260.99	1.695
261.36	4.795
261.73	2.215
262.10	5.167
262.47	0.920
262.85	4.702
263.22	7.077
263.59	4.050
263.96	5.280
264.33	6.667
264.70	5.357
265.07	6.250
265.44	6.799
265.81	5.085
266.18	6.011
266.55	8.740
266.92	6.477
267.29	4.178
267.66	3.581
268.03	3.403
268.40	2.089
268.77	6.417
269.14	5.755
269.51	6.427
269.88	3.741
270.25	5.357
270.62	3.902
270.99	3.581
271.36	4.401
271.73	6.103
272.10	4.623
272.47	4.255
272.84	4.455
273.21	7.889
273.58	3.373
273.95	4.577
274.32	5.081
274.69	3.394
275.06	6.473
275.43	4.535
275.80	1.987
276.17	3.218
276.54	7.066
276.91	3.509
277.28	4.367
277.65	4.132
278.02	3.617
278.39	4.158
278.76	2.725
279.13	2.490
279.50	5.042
279.87	6.911
280.23	4.301
280.60	6.823
280.97	5.253
281.34	2.885
281.71	5.955
282.08	2.658
282.45	6.067
282.82	4.247
283.19	5.803
283.56	4.817
283.92	2.846
284.29	1.538
284.66	3.488
285.03	4.519
285.40	4.348
285.77	3.339
286.14	3.249
286.51	6.273
286.87	4.753
287.24	1.657
287.61	4.056
287.98	5.614
288.35	2.773
288.72	5.429
289.08	4.167
289.45	3.515
289.82	4.021
290.19	4.096
290.56	3.087
290.93	2.020
291.29	4.468
291.66	5.827
292.03	4.785
292.40	4.032
292.77	2.392
293.13	1.461
293.50	2.124
293.87	3.817
294.24	3.709
294.60	3.279
294.97	4.167
295.34	1.840
295.71	4.322
296.08	3.587
296.44	1.707
296.81	2.361
297.18	2.609
297.55	5.556
297.91	4.247
298.28	5.541
298.65	2.985
299.02	2.830
299.38	1.778
299.75	2.483
300.12	2.356
300.48	3.162
300.85	4.689
301.22	2.727
301.59	3.289
301.95	3.924
302.32	3.632
302.69	3.234
303.05	3.465
303.42	4.234
303.79	4.439
304.15	4.779
304.52	2.616
304.89	1.637
305.25	3.390
305.62	2.684
305.99	2.807
306.35	1.850
306.72	1.912
307.09	3.649
307.45	3.904
307.82	2.662
308.19	3.252
308.55	3.053
308.92	4.031
309.29	3.464
309.65	3.337
310.02	3.520
310.38	3.074
310.75	4.590
311.12	2.583
311.48	4.348
311.85	2.932
312.22	3.270
312.58	2.760
312.95	2.988
313.31	2.484
313.68	3.246
314.05	4.082
314.41	3.505
314.78	3.196
315.14	4.419
315.51	4.141
315.87	3.074
316.24	4.752
316.61	4.528
316.97	4.663
317.34	3.809
317.70	4.015
318.07	4.712
318.43	4.020
318.80	5.019
319.16	4.785
319.53	6.363
319.89	5.020
320.26	6.377
320.62	6.620
320.99	4.384
321.35	5.139
321.72	6.334
322.08	5.740
322.45	6.701
322.81	6.876
323.18	6.673
323.54	6.660
323.91	7.205
324.27	9.277
324.64	10.019
325.00	8.759
325.37	10.560
325.73	9.519
326.10	10.445
326.46	11.659
326.83	11.899
327.19	12.206
327.56	12.511
327.92	13.204
328.29	13.214
328.65	14.151
329.01	14.338
329.38	15.392
329.74	13.881
330.11	16.126
330.47	14.378
330.84	15.385
331.20	18.726
331.56	16.019
331.93	16.712
332.29	18.332
332.66	19.276
333.02	18.216
333.38	17.965
333.75	18.773
334.11	19.338
334.48	19.674
334.84	20.055
335.20	19.488
335.57	19.130
335.93	19.783
336.29	20.902
336.66	21.163
337.02	19.610
337.38	20.556
337.75	21.273
338.11	19.838
338.47	21.077
338.84	21.442
339.20	21.938
339.56	21.743
339.93	22.292
340.29	21.651
340.65	20.520
341.02	22.074
341.38	21.593
341.74	20.848
342.11	20.884
342.47	22.687
342.83	23.097
343.20	22.474
343.56	21.826
343.92	21.612
344.28	22.374
344.65	21.675
345.01	21.348
345.37	22.372
345.73	22.929
346.10	23.210
346.46	22.035
346.82	21.440
347.19	21.696
347.55	22.723
347.91	22.816
348.27	22.393
348.63	22.658
349.00	21.493
349.36	21.696
349.72	23.383
350.08	22.213
350.45	23.384
350.81	21.927
351.17	22.231
351.53	23.020
351.89	22.296
352.26	21.840
352.62	22.177
352.98	22.008
353.34	21.498
353.70	22.573
354.07	22.500
354.43	21.777
354.79	22.213
355.15	23.889
355.51	22.468
355.87	23.382
356.24	22.186
356.60	23.525
356.96	22.619
357.32	23.722
357.68	22.596
358.04	22.617
358.40	22.428
358.77	22.967
359.13	23.219
359.49	23.112
359.85	24.103
360.21	23.764
360.57	23.030
360.93	24.281
361.29	23.036
361.66	23.981
362.02	23.939
362.38	24.067
362.74	22.861
363.10	24.605
363.46	23.721
363.82	24.418
364.18	23.985
364.54	23.824
364.90	23.871
365.26	22.999
365.62	23.942
365.98	24.560
366.35	24.181
366.71	23.873
367.07	23.948
367.43	25.306
367.79	24.664
368.15	25.341
368.51	23.889
368.87	24.336
369.23	25.704
369.59	24.781
369.95	24.780
370.31	24.855
370.67	25.224
371.03	25.616
371.39	24.143
371.75	24.762
372.11	24.893
372.47	25.148
372.83	25.621
373.19	25.678
373.55	25.415
373.91	25.918
374.27	25.514
374.63	26.490
374.99	25.674
375.35	26.323
375.71	27.343
376.07	25.562
376.42	26.259
376.78	27.517
377.14	26.743
377.50	26.959
377.86	26.305
378.22	26.356
378.58	26.154
378.94	25.961
379.30	27.698
379.66	26.771
380.02	27.284
380.38	26.598
380.74	26.691
381.09	27.791
381.45	27.278
381.81	27.946
382.17	27.665
382.53	27.171
382.89	27.558
383.25	28.376
383.61	27.744
383.97	26.921
384.32	27.955
384.68	27.121
385.04	27.145
385.40	27.505
385.76	28.868
386.12	28.719
386.48	28.544
386.83	28.408
387.19	28.755
387.55	29.423
387.91	29.829
388.27	28.632
388.62	29.830
388.98	28.361
389.34	28.232
389.70	29.832
390.06	28.508
390.42	28.756
390.77	28.777
391.13	29.382
391.49	29.043
391.85	29.630
392.20	29.630
392.56	28.290
392.92	28.714
393.28	28.656
393.64	27.988
393.99	29.969
394.35	29.222
394.71	28.799
395.07	28.913
395.42	27.747
395.78	29.186
396.14	29.256
396.50	28.979
396.85	30.071
397.21	29.574
397.57	28.840
397.92	28.999
398.28	29.598
398.64	29.277
399.00	29.458
399.35	29.289
399.71	29.351
400.07	29.686
400.42	28.703
400.78	30.557
401.14	29.401
401.49	29.363
401.85	29.799
402.21	29.518
402.57	29.688
402.92	28.294
403.28	30.075
403.63	28.499
403.99	29.209
404.35	29.794
404.70	28.512
405.06	28.790
405.42	29.024
405.77	28.298
406.13	28.405
406.49	28.478
406.84	29.279
407.20	29.801
407.55	27.882
407.91	30.080
408.27	28.681
408.62	28.738
408.98	28.897
409.34	29.182
409.69	29.264
410.05	29.741
410.40	27.901
410.76	28.890
411.11	29.062
411.47	29.520
411.83	29.316
412.18	28.443
412.54	28.090
412.89	28.448
413.25	28.941
413.60	28.944
413.96	28.405
414.31	30.183
414.67	28.865
415.03	29.095
415.38	28.525
415.74	30.358
416.09	29.719
416.45	29.575
416.80	28.288
417.16	29.558
417.51	29.714
417.87	29.531
418.22	30.181
418.58	29.231
418.93	29.781
419.29	28.809
419.64	29.618
420.00	30.982
420.35	29.672
420.71	30.316
421.06	29.773
421.42	30.349
421.77	29.538
422.12	29.455
422.48	30.157
422.83	30.394
423.19	29.345
423.54	28.983
423.90	29.859
424.25	29.793
424.61	30.722
424.96	30.372
425.31	30.445
425.67	30.986
426.02	30.919
426.38	29.430
426.73	31.053
427.09	30.886
427.44	31.118
427.79	30.937
428.15	30.825
428.50	30.406
428.85	30.713
429.21	31.353
429.56	31.159
429.92	32.049
430.27	31.378
430.62	31.051
430.98	31.051
431.33	30.810
431.68	30.769
432.04	31.805
432.39	30.918
432.74	31.028
433.10	33.103
433.45	31.840
433.80	32.095
434.16	31.357
434.51	32.258
434.86	31.649
435.22	31.913
435.57	32.190
435.92	32.395
436.28	31.664
436.63	32.630
436.98	31.866
437.34	32.305
437.69	33.333
438.04	31.966
438.39	32.376
438.75	33.090
439.10	32.201
439.45	32.928
439.81	32.783
440.16	33.610
440.51	33.731
440.86	33.958
441.22	33.428
441.57	34.106
441.92	34.155
442.27	33.925
442.63	34.904
442.98	33.314
443.33	33.389
443.68	34.642
444.03	34.128
444.39	33.596
444.74	34.727
445.09	34.744
445.44	34.017
445.79	34.760
446.15	33.700
446.50	33.722
446.85	34.803
447.20	33.994
447.55	33.929
447.91	33.954
448.26	34.035
448.61	34.254
448.96	34.538
449.31	34.855
449.66	34.437
450.02	33.542
450.37	34.203
450.72	33.562
451.07	35.759
451.42	34.082
451.77	34.237
452.12	33.014
452.47	33.870
452.83	34.747
453.18	34.788
453.53	35.461
453.88	34.366
454.23	34.604
454.58	35.705
454.93	35.760
455.28	33.651
455.63	34.222
455.98	34.336
456.34	35.313
456.69	35.451
457.04	35.728
457.39	34.751
457.74	34.281
458.09	34.020
458.44	35.401
458.79	34.286
459.14	35.469
459.49	34.925
459.84	34.349
460.19	34.648
460.54	35.330
460.89	35.739
461.24	35.466
461.59	35.214
461.94	34.906
462.29	35.585
462.64	35.415
462.99	35.477
463.34	34.423
463.69	34.556
464.04	35.533
464.39	35.052
464.74	34.847
465.09	35.309
465.44	35.892
465.79	34.977
466.14	35.462
466.49	35.078
466.84	34.384
467.19	35.294
467.54	34.930
467.89	35.502
468.24	35.158
468.59	35.556
468.94	35.492
469.29	36.000
469.64	36.227
469.99	36.230
470.34	34.061
470.68	36.540
471.03	36.235
471.38	35.592
471.73	35.574
472.08	35.414
472.43	37.047
472.78	34.955
473.13	36.190
473.48	34.788
473.83	35.990
474.17	35.816
474.52	36.056
474.87	36.242
475.22	35.570
475.57	36.025
475.92	36.588
476.27	36.205
476.61	36.053
476.96	35.527
477.31	35.587
477.66	35.337
478.01	35.149
478.36	36.329
478.70	35.672
479.05	35.934
479.40	36.142
479.75	35.245
480.10	35.125
480.45	35.800
480.79	37.412
481.14	37.090
481.49	36.207
481.84	36.438
482.19	35.734
482.53	35.492
482.88	35.084
483.23	35.509
483.58	35.472
483.92	35.334
484.27	35.005
484.62	35.186
484.97	36.028
485.31	36.163
485.66	35.330
486.01	35.533
486.36	35.103
486.70	35.081
487.05	35.157
487.40	34.824
487.75	35.634
488.09	35.229
488.44	35.591
488.79	35.450
489.13	35.657
489.48	36.255
489.83	35.964
490.17	34.966
490.52	34.642
490.87	35.354
491.22	36.676
491.56	36.338
491.91	35.182
492.26	36.412
492.60	35.365
492.95	37.039
493.30	36.053
493.64	36.788
493.99	36.812
494.34	36.748
494.68	35.714
495.03	35.620
495.37	35.918
495.72	36.901
496.07	36.634
496.41	36.745
496.76	36.389
497.11	36.330
497.45	36.754
497.80	36.327
498.14	36.562
498.49	36.059
498.84	35.529
499.18	36.195
499.53	37.202
499.87	36.089
500.22	36.152
500.56	36.409
500.91	36.697
501.26	35.887
501.60	36.252
501.95	36.293
502.29	36.174
502.64	37.403
502.98	35.964
503.33	36.023
503.67	36.434
504.02	35.924
504.36	36.517
504.71	36.162
505.06	36.185
505.40	36.853
505.75	37.268
506.09	36.695
506.44	37.012
506.78	36.837
507.13	37.642
507.47	36.084
507.82	36.966
508.16	36.186
508.51	37.303
508.85	37.049
509.19	36.189
509.54	38.445
509.88	35.761
510.23	37.816
510.57	37.413
510.92	36.247
511.26	36.825
511.61	37.459
511.95	38.411
512.30	38.470
512.64	36.784
512.98	36.946
513.33	37.381
513.67	37.180
514.02	38.730
514.36	37.886
514.70	38.054
515.05	37.955
515.39	35.832
515.74	38.802
516.08	37.657
516.42	38.398
516.77	38.385
517.11	39.228
517.46	38.540
517.80	37.723
518.14	38.334
518.49	37.200
518.83	37.789
519.17	39.297
519.52	37.004
519.86	37.095
520.20	38.092
520.55	38.024
520.89	38.206
521.23	38.062
521.58	39.243
521.92	37.885
522.26	37.085
522.61	38.701
522.95	39.735
523.29	38.945
523.64	37.166
523.98	38.432
524.32	38.273
524.66	39.052
525.01	39.351
525.35	37.719
525.69	38.653
526.04	39.352
526.38	39.170
526.72	37.018
527.06	39.105
527.41	39.182
527.75	38.606
528.09	39.601
528.43	40.986
528.78	38.218
529.12	38.000
529.46	38.596
529.80	37.999
530.15	40.198
530.49	39.327
530.83	39.603
531.17	37.475
531.51	40.082
531.86	39.157
532.20	39.248
532.54	37.781
532.88	40.178
533.22	39.583
533.57	38.663
533.91	39.164
534.25	39.714
534.59	39.320
534.93	38.704
535.27	37.690
535.62	38.496
535.96	38.552
536.30	38.325
536.64	39.145
536.98	38.746
537.32	39.972
537.66	40.252
538.01	40.070
538.35	39.459
538.69	37.883
539.03	38.619
539.37	38.291
539.71	38.923
540.05	37.610
540.39	40.305
540.73	39.261
541.07	39.088
541.42	39.919
541.76	38.885
542.10	39.917
542.44	40.445
542.78	37.784
543.12	38.462
543.46	40.056
543.80	40.805
544.14	38.117
544.48	38.641
544.82	38.209
545.16	39.891
545.50	39.853
545.84	39.873
546.18	40.284
546.52	40.231
546.86	39.684
547.20	39.199
547.54	38.163
547.88	39.946
548.22	38.593
548.56	39.050
548.90	39.555
549.24	38.636
549.58	38.928
549.92	38.313
550.26	40.293
550.60	40.000
550.94	39.059
551.28	40.726
551.62	41.154
551.96	40.150
552.30	39.839
552.64	37.659
552.98	40.295
553.32	39.230
553.66	38.970
554.00	40.438
554.34	40.399
554.68	39.602
555.02	39.360
555.36	39.491
555.69	39.414
556.03	39.615
556.37	39.359
556.71	39.567
557.05	40.045
557.39	39.554
557.73	40.030
558.07	40.271
558.41	40.046
558.75	39.361
559.08	40.583
559.42	40.635
559.76	39.712
560.10	39.908
560.44	40.581
560.78	39.860
561.12	40.056
561.45	41.040
561.79	39.706
562.13	40.667
562.47	40.072
562.81	38.833
563.15	40.127
563.48	40.028
563.82	40.426
564.16	40.251
564.50	39.324
564.84	39.826
565.17	40.309
565.51	41.325
565.85	40.055
566.19	40.053
566.52	41.689
566.86	40.810
567.20	39.228
567.54	40.937
567.88	41.476
568.21	40.158
568.55	39.891
568.89	40.298
569.23	40.106
569.56	40.105
569.90	40.641
570.24	39.040
570.57	40.109
570.91	39.770
571.25	39.000
571.59	38.711
571.92	38.607
572.26	38.315
572.60	39.194
572.93	39.128
573.27	38.652
573.61	39.171
573.95	38.613
574.28	38.374
574.62	38.342
574.96	38.270
575.29	38.264
575.63	37.937
575.97	37.978
576.30	37.925
576.64	37.987
576.98	39.125
577.31	39.002
577.65	38.761
577.98	38.694
578.32	38.978
578.66	37.589
578.99	38.395
579.33	37.872
579.67	37.951
580.00	38.354
580.34	38.856
580.67	38.798
581.01	38.064
581.35	39.018
581.68	39.028
582.02	38.594
582.35	38.440
582.69	38.547
583.02	38.496
583.36	39.058
583.70	39.434
584.03	39.700
584.37	39.921
584.70	39.505
585.04	37.927
585.37	39.214
585.71	38.632
586.04	38.628
586.38	39.184
586.72	39.627
587.05	39.024
587.39	40.788
587.72	40.186
588.06	39.745
588.39	39.590
588.73	40.263
589.06	40.183
589.40	39.889
589.73	39.759
590.07	40.295
590.40	40.093
590.73	40.733
591.07	39.992
591.40	40.383
591.74	40.271
592.07	40.955
592.41	40.945
592.74	40.143
593.08	39.225
593.41	40.000
593.75	39.745
594.08	39.444
594.41	39.884
594.75	40.611
595.08	40.257
595.42	40.265
595.75	40.668
596.09	40.696
596.42	40.306
596.75	40.808
597.09	40.683
597.42	40.425
597.75	41.182
598.09	39.928
598.42	40.072
598.76	40.669
599.09	40.184
599.42	39.826
599.76	40.557
600.09	40.121
600.42	40.296
600.76	39.413
601.09	40.458
601.42	40.306
601.76	40.850
602.09	40.759
602.42	41.196
602.76	40.705
603.09	41.154
603.42	40.552
603.76	41.089
604.09	40.583
604.42	40.059
604.76	42.012
605.09	41.819
605.42	40.045
605.75	40.674
606.09	40.255
606.42	40.534
606.75	41.342
607.09	40.703
607.42	41.161
607.75	40.320
608.08	40.386
608.42	39.927
608.75	41.446
609.08	41.256
609.41	41.777
609.75	41.482
610.08	42.237
610.41	40.338
610.74	41.833
611.07	42.067
611.41	41.515
611.74	41.471
612.07	40.792
612.40	41.466
612.73	41.186
613.07	41.170
613.40	40.646
613.73	41.578
614.06	40.623
614.39	41.624
614.72	39.776
615.06	41.229
615.39	40.229
615.72	40.366
616.05	41.117
616.38	40.399
616.71	42.080
617.05	41.816
617.38	42.300
617.71	42.201
618.04	43.302
618.37	41.425
618.70	42.112
619.03	42.431
619.36	40.883
619.69	43.821
620.03	43.097
620.36	41.917
620.69	42.041
621.02	42.278
621.35	42.158
621.68	43.367
622.01	42.917
622.34	41.979
622.67	42.666
623.00	42.802
623.33	41.311
623.66	40.464
623.99	42.360
624.32	43.042
624.65	41.128
624.99	42.889
625.32	41.243
625.65	43.205
625.98	42.546
626.31	42.145
626.64	43.934
626.97	41.972
627.30	42.207
627.63	42.981
627.96	43.845
628.29	44.218
628.62	42.773
628.95	43.487
629.28	44.758
629.61	44.267
629.94	43.206
630.26	42.984
630.59	44.953
630.92	42.462
631.25	41.538
631.58	42.841
631.91	43.640
632.24	43.463
632.57	43.409
632.90	44.009
633.23	44.118
633.56	44.458
633.89	44.513
634.22	45.309
634.55	42.948
634.88	45.466
635.20	42.564
635.53	46.267
635.86	42.003
636.19	45.666
636.52	45.663
636.85	43.797
637.18	44.151
637.51	43.774
637.83	44.021
638.16	45.703
638.49	44.959
638.82	45.395
639.15	45.455
639.48	44.429
639.81	43.515
640.13	45.310
640.46	45.481
640.79	46.686
641.12	45.347
641.45	44.595
641.77	45.333
642.10	45.182
642.43	46.302
642.76	46.535
643.09	44.265
643.41	43.366
643.74	43.987
644.07	46.305
644.40	47.297
644.73	45.884
645.05	45.134
645.38	46.737
645.71	44.681
646.04	45.601
646.36	45.567
646.69	47.122
647.02	45.180
647.35	46.642
647.67	44.790
648.00	48.321
648.33	45.051
648.66	44.746
648.98	42.714
649.31	43.471
649.64	45.997
649.96	46.840
650.29	46.678
650.62	45.983
650.94	45.926
651.27	44.320
651.60	42.342
651.92	45.804
652.25	46.892
652.58	45.833
652.90	48.542
653.23	44.874
653.56	44.501
653.88	43.471
654.21	45.009
654.54	43.463
654.86	45.840
655.19	44.444
655.52	44.195
655.84	40.816
656.17	45.312
656.49	61.963
656.82	64.821
657.15	49.246
657.47	36.573
657.80	27.437
658.13	26.943
658.45	42.212
658.78	41.756
659.10	41.667
659.43	42.206
659.75	43.118
660.08	43.448
660.41	44.229
660.73	45.166
661.06	47.487
661.38	46.575
661.71	42.505
662.03	46.352
662.36	44.835
662.68	47.345
663.01	47.598
663.33	45.708
663.66	45.814
663.98	45.116
664.31	46.695
664.63	48.848
664.96	41.739
665.28	44.371
665.61	46.753
665.93	46.739
666.26	46.204
666.58	44.072
666.91	48.235
667.23	48.113
667.56	47.156
667.88	47.722
668.21	47.494
668.53	45.390
668.86	46.462
669.18	46.698
669.50	44.310
669.83	45.116
670.15	44.522
670.48	46.890
670.80	47.005
671.13	45.414
671.45	48.630
671.77	48.498
672.10	46.733
672.42	44.195
672.75	46.181
673.07	43.649
673.39	46.055
673.72	44.576
674.04	46.042
674.37	45.763
674.69	44.325
675.01	48.000
675.34	45.045
675.66	46.759
675.98	48.337
676.31	46.789
676.63	46.318
676.95	48.864
677.28	46.353
677.60	46.024
677.92	47.018
678.25	45.733
678.57	49.351
678.89	47.899
679.22	46.980
679.54	44.177
679.86	42.545
680.18	47.184
680.51	48.485
680.83	45.328
681.15	46.200
681.48	46.311
681.80	45.455
682.12	46.371
682.44	45.397
682.77	46.358
683.09	48.284
683.41	47.273
683.73	47.235
684.06	47.788
684.38	43.656
684.70	48.802
685.02	45.643
685.34	47.233
685.67	43.902
685.99	46.293
686.31	45.487
686.63	46.939
686.96	44.297
687.28	45.051
687.60	43.726
687.92	47.475
688.24	45.161
688.56	44.760
688.89	49.107
689.21	47.333
689.53	47.332
689.85	46.977
690.17	46.429
690.49	47.754
690.82	46.845
691.14	48.333
691.46	47.897
691.78	47.297
692.10	46.667
692.42	44.805
692.74	44.872
693.06	45.045
693.39	43.439
693.71	46.833
694.03	46.420
694.35	46.028
694.67	47.727
694.99	46.736
695.31	47.520
695.63	50.750
695.95	42.929
696.27	45.855
696.59	49.167
696.91	45.938
697.23	43.959
697.56	46.040
697.88	46.452
698.20	45.330
698.52	45.882
698.84	47.368
699.16	43.750
699.48	47.368
699.80	43.424
700.12	46.361
700.44	49.300
700.76	48.256
701.08	48.788
701.40	44.880
701.72	50.926
702.04	51.485
702.36	51.839
702.68	47.147
703.00	50.303
703.32	49.853
703.64	42.373
703.96	46.667
704.28	48.466
704.60	43.810
704.91	44.164
705.23	46.844
705.55	53.710
705.87	45.848
706.19	47.778
706.51	49.485
706.83	46.624
707.15	43.302
707.47	50.700
707.79	45.573
708.11	47.750
708.43	45.750
708.74	48.579
709.06	46.761
709.38	49.847
709.70	47.337
710.02	47.134
710.34	49.536
710.66	43.590
710.98	45.364
711.29	50.492
711.61	50.169
711.93	47.231
712.25	50.172
712.57	49.084
712.89	47.015
713.20	51.211
713.52	45.993
713.84	47.099
714.16	50.859
714.48	46.129
714.80	48.718
715.11	45.897
715.43	42.947
715.75	50.667
716.07	49.502
716.39	43.624
716.70	46.863
717.02	46.183
717.34	53.441
717.66	49.558
717.97	44.348
718.29	51.046
718.61	48.031
718.93	46.512
719.24	49.810
719.56	49.398
719.88	46.735
720.20	50.000
720.51	47.126
720.83	47.490
721.15	50.420
721.46	50.000
721.78	45.059
722.10	43.866
722.42	44.813
722.73	45.306
723.05	51.020
723.37	49.153
723.68	50.901
724.00	46.154
724.32	48.000
724.63	51.364
724.95	52.838
725.27	52.074
725.58	49.576
725.90	42.460
726.22	49.421
726.53	42.373
726.85	51.685
727.16	48.679
727.48	44.534
727.80	48.178
728.11	47.458
728.43	46.667
728.74	48.790
729.06	49.200
729.38	52.256
729.69	49.004
730.01	45.000
730.32	55.224
730.64	46.643
730.96	53.585
731.27	48.667
731.59	46.780
731.90	48.408
732.22	49.842
732.53	50.166
732.85	48.582
733.16	50.842
733.48	45.683
733.80	48.551
734.11	47.458
734.43	46.048
734.74	49.697
735.06	43.974
735.37	50.453
735.69	52.525
736.00	48.432
736.32	44.295
736.63	50.000
736.95	47.782
737.26	44.128
737.58	48.322
737.89	43.956
738.21	51.128
738.52	48.560
738.83	50.655
739.15	47.162
739.46	47.244
739.78	41.758
740.09	44.771
740.41	49.275
740.72	43.307
741.04	47.773
741.35	45.106
741.66	46.445
741.98	50.000
742.29	49.505
742.61	48.168
742.92	40.758
743.23	46.759
743.55	48.416
743.86	53.110
744.18	46.890
744.49	44.681
744.80	48.913
745.12	54.011
745.43	44.878
745.74	52.604
746.06	51.707
746.37	52.356
746.68	53.081
747.00	51.064
747.31	49.751
747.62	51.942
747.94	45.933
748.25	53.960
748.56	55.191
748.88	48.691
749.19	55.319
749.50	45.320
749.82	46.226
750.13	47.248
750.44	51.128
750.75	48.881
751.07	47.810
751.38	48.276
751.69	47.843
752.01	51.550
752.32	45.817
752.63	46.245
752.94	47.414
753.26	54.812
753.57	44.344
753.88	53.097
754.19	45.833
754.51	45.041
754.82	48.988
755.13	52.500
755.44	49.597
755.75	49.219
756.07	46.304
756.38	45.283
756.69	47.510
757.00	45.000
757.31	46.078
757.63	41.159
757.94	42.222
758.25	45.205
758.56	43.351
758.87	43.343
759.18	46.106
759.50	44.000
759.81	45.819
760.12	45.161
760.43	46.061
760.74	50.926
761.05	45.538
761.36	44.886
761.67	50.606
761.99	48.299
762.30	42.545
762.61	45.850
762.92	45.701
763.23	43.243
763.54	48.131
763.85	48.729
764.16	49.378
764.47	46.371
764.78	43.223
765.10	46.801
765.41	45.426
765.72	44.762
766.03	46.617
766.34	45.620
766.65	47.809
766.96	49.495
767.27	52.660
767.58	49.425
767.89	48.936
768.20	43.750
768.51	50.000
768.82	46.305
769.13	44.240
769.44	45.494
769.75	45.205
770.06	42.672
770.37	49.519
770.68	52.284
770.99	45.701
771.30	52.941
771.61	42.534
771.92	48.276
772.23	56.650
772.54	51.613
772.85	51.235
773.16	42.697
773.47	58.824
773.78	56.863
774.09	46.707
774.39	50.000
774.70	45.860
775.01	59.310
775.32	55.000
775.63	50.413
775.94	45.038
776.25	53.543
776.56	43.333
776.87	43.269
777.18	41.880
777.48	55.172
777.79	49.565
778.10	45.714
778.41	57.658
778.72	50.794
779.03	51.880
779.34	48.227
779.65	52.740
779.95	54.110
780.26	38.621
780.57	43.089
780.88	44.882
781.19	46.552
781.50	52.713
781.80	40.237
782.11	38.365
782.42	55.385
782.73	51.079
783.04	43.704
783.34	40.278
783.65	39.316
783.96	50.820
784.27	46.897
784.57	50.407
784.88	41.406
785.19	64.000
785.50	56.000
785.81	46.552
786.11	37.931
786.42	47.573
786.73	52.727
787.04	56.122
787.34	45.536
787.65	43.810
787.96	45.133
788.26	52.727
788.57	49.573
788.88	58.594
789.19	49.206
789.49	46.957
789.80	50.000
790.11	49.495
790.41	43.636
790.72	48.913
791.03	59.091
791.33	68.750
791.64	66.250
791.95	54.651
792.25	56.383
792.56	49.438
792.87	54.795
793.17	49.275
793.48	53.333
793.79	36.250
794.09	62.500
794.40	44.340
794.70	52.427
795.01	47.154
795.32	47.863
795.62	47.619
795.93	63.725
796.23	50.000
796.54	47.917
796.85	50.000
797.15	47.887
797.46	51.389
797.76	72.727
798.07	40.698
798.37	30.263
798.68	45.455
798.99	43.210
799.29	51.429
799.60	55.072
799.90	61.333
800.21	72.131
800.51	41.538
800.82	66.102
801.12	50.725
801.43	67.213
801.73	57.143
802.04	48.000
802.34	44.776
802.65	75.000
802.95	32.143
803.26	59.615
803.56	52.941
803.87	36.957
804.17	50.667
804.48	68.254
804.78	50.000
805.09	56.522
805.39	55.556
805.70	53.704
806.00	35.088
806.30	43.662
806.61	57.143
806.91	36.111
807.22	57.895
807.52	60.000
807.83	32.727
808.13	31.944
808.43	64.706
808.74	43.284
809.04	44.068
809.35	55.769
809.65	53.125
809.95	51.351
810.26	31.818
810.56	27.397
810.86	78.571
811.17	28.000
811.47	48.980
811.77	36.842
812.08	36.364
812.38	60.377
812.69	50.000
812.99	69.697
813.29	65.789
813.59	37.143
813.90	56.818
814.20	48.718
814.50	50.000
814.81	64.151
815.11	42.553
815.41	59.322
815.72	66.667
816.02	56.863
816.32	66.667
816.62	73.171
816.93	54.054
817.23	71.429
817.53	64.583
817.84	23.913
818.14	44.231
818.44	36.842
818.74	69.565
819.04	25.000
819.35	83.784
819.65	35.294
819.95	50.000
820.25	42.857
820.56	37.500
820.86	3.448
821.16	70.000
821.46	55.319
821.76	52.500
822.07	58.140
822.37	5.405
822.67	56.250
822.97	57.143
823.27	78.571
823.57	64.000
823.88	29.630
824.18	67.857
824.48	50.000
824.78	38.710
825.08	60.870
825.38	45.455
825.69	29.167
825.99	50.000
826.29	38.889
826.59	93.333
826.89	-9.524
827.19	50.000
827.49	65.000
827.79	68.571
828.09	57.143
828.39	54.545
828.70	72.973
829.00	92.857
829.30	9.524
829.60	0.000
829.90	93.750
830.20	31.579
830.50	48.148
830.80	73.913
831.10	59.091
831.40	87.879
831.70	87.097
832.00	119.048
832.30	66.667
832.60	50.000
832.90	17.241
833.20	50.000
833.50	33.333
833.80	74.074
834.10	53.846
834.40	68.750
834.70	122.222
835.00	15.789
835.30	123.077
835.60	93.333
835.90	48.387
836.20	81.818
836.50	71.429
836.80	38.462
837.10	17.857
837.40	-33.333
837.70	63.636
838.00	136.364
838.30	69.565
838.60	69.231
838.90	104.545
839.19	42.857
839.49	43.333
839.79	123.077
840.09	-8.333
840.39	57.143
840.69	25.000
840.99	-3.846
841.29	26.316
841.59	-10.000
841.88	63.636
842.18	150.000
842.48	106.250
842.78	73.333
843.08	40.741
843.38	-20.000
843.68	108.696
843.97	140.000
844.27	20.000
844.57	65.000
844.87	44.444
845.17	47.619
845.47	40.000
845.76	19.048
846.06	41.176
846.36	130.000
846.66	64.286
846.96	146.667
847.25	50.000
847.55	128.571
847.85	212.500
848.15	22.727
848.44	-333.333
848.74	45.000
849.04	70.370
849.34	-81.818
849.63	-16.667
849.93	-40.000
850.23	11.111
850.53	150.000
850.82	-7.692
851.12	122.222
851.42	26.667
851.71	69.231
852.01	107.143
852.31	-50.000
852.61	36.364
852.90	85.000
853.20	0.000
853.50	108.333
853.79	52.174
854.09	79.167
854.39	89.474
854.68	75.000
854.98	74.194
855.28	92.308
855.57	65.000
855.87	88.889
856.17	92.593
856.46	64.286
856.76	53.333
857.05	188.889
857.35	60.000
857.65	44.444
857.94	30.769
858.24	55.172
858.53	88.889
858.83	66.667
859.13	63.636
859.42	26.087
859.72	125.000
860.01	66.667
860.31	68.000
860.60	38.095
860.90	400.000
861.20	33.333
861.49	350.000
861.79	60.000
862.08	55.000
862.38	166.667
862.67	80.000
862.97	100.000
863.26	-66.667
863.56	133.333
863.85	0.000
864.15	100.000
864.44	200.000
864.74	57.143
865.03	-75.000
865.33	160.000
865.62	166.667
865.92	66.667
866.21	183.333
866.51	93.750
866.80	9.091
867.10	250.000
867.39	150.000
867.69	0.000
867.98	100.000
868.27	0.000
868.57	53.333
868.86	50.000
869.16	23.077
869.45	73.333
869.75	-500.000
870.04	0.000
870.33	57.143
870.63	66.667
870.92	166.667
871.22	-20.000
871.51	500.000
871.80	166.667
872.10	-0.000
>>>>>End Processed Spectral Data<<<<<
