SpectraSuite Data File
++++++++++++++++++++++++++++++++++++
Date: Fri May 15 20:16:11 PDT 2015
User: schluterlab
Dark Spectrum Present: Yes
Reference Spectrum Present: Yes
Number of Sampled Component Spectra: 1
Spectrometers: USB2E3373
Integration Time (usec): 3000 (USB2E3373)
Spectra Averaged: 3 (USB2E3373)
Boxcar Smoothing: 0 (USB2E3373)
Correct for Electrical Dark: No (USB2E3373)
Strobe/Lamp Enabled: No (USB2E3373)
Correct for Detector Non-linearity: No (USB2E3373)
Correct for Stray Light: No (USB2E3373)
Number of Pixels in Processed Spectrum: 2048
>>>>>Begin Processed Spectral Data<<<<<
178.53	0.000
178.91	0.000
179.29	50.000
179.67	0.000
180.04	14.286
180.42	150.000
180.80	-500.000
181.18	33.333
181.56	-200.000
181.94	50.000
182.31	200.000
182.69	-100.000
183.07	-333.333
183.45	-200.000
183.83	50.000
184.20	0.000
184.58	111.111
184.96	-125.000
185.34	133.333
185.72	-200.000
186.09	15.385
186.47	-400.000
186.85	16.667
187.23	55.556
187.61	-300.000
187.98	-133.333
188.36	0.000
188.74	-166.667
189.12	52.941
189.49	88.889
189.87	0.000
190.25	135.714
190.63	50.000
191.00	33.333
191.38	10.526
191.76	200.000
192.14	-100.000
192.51	350.000
192.89	-11.111
193.27	-142.857
193.65	150.000
194.02	181.818
194.40	40.000
194.78	-12.500
195.15	8.333
195.53	12.500
195.91	50.000
196.29	0.000
196.66	138.462
197.04	85.714
197.42	-22.222
197.79	-300.000
198.17	-23.077
198.55	400.000
198.92	-433.333
199.30	-400.000
199.68	100.000
200.05	100.000
200.43	0.000
200.81	-166.667
201.18	33.333
201.56	500.000
201.94	-550.000
202.31	-133.333
202.69	-240.000
203.07	300.000
203.44	300.000
203.82	0.000
204.19	35.714
204.57	-300.000
204.95	50.000
205.32	120.000
205.70	28.571
206.08	-175.000
206.45	144.444
206.83	7.143
207.20	14.286
207.58	-200.000
207.96	66.667
208.33	-10.000
208.71	125.000
209.08	33.333
209.46	100.000
209.84	-120.000
210.21	-1100.000
210.59	85.714
210.96	83.333
211.34	-225.000
211.71	-6.667
212.09	-200.000
212.46	-1400.000
212.84	0.000
213.22	40.000
213.59	300.000
213.97	23.077
214.34	36.364
214.72	-116.667
215.09	450.000
215.47	-69.231
215.84	45.455
216.22	66.667
216.59	-62.500
216.97	250.000
217.34	250.000
217.72	80.000
218.09	0.000
218.47	112.500
218.84	-800.000
219.22	33.333
219.59	-60.000
219.97	233.333
220.34	175.000
220.72	171.429
221.09	-50.000
221.47	0.000
221.84	-600.000
222.22	-300.000
222.59	36.364
222.97	16.667
223.34	100.000
223.72	-50.000
224.09	80.952
224.46	14.286
224.84	433.333
225.21	60.000
225.59	-46.667
225.96	100.000
226.34	200.000
226.71	-71.429
227.08	83.333
227.46	50.000
227.83	-250.000
228.21	133.333
228.58	36.364
228.95	62.500
229.33	120.000
229.70	18.750
230.08	-137.500
230.45	-114.286
230.82	42.857
231.20	-93.333
231.57	57.143
231.95	114.286
232.32	-10.000
232.69	78.571
233.07	-66.667
233.44	0.000
233.81	-30.000
234.19	-66.667
234.56	47.059
234.93	-200.000
235.31	100.000
235.68	-200.000
236.05	-53.846
236.43	-30.000
236.80	47.059
237.17	18.750
237.55	-10.000
237.92	11.111
238.29	52.778
238.67	56.667
239.04	11.765
239.41	-2.439
239.79	-10.000
240.16	29.268
240.53	23.684
240.91	10.870
241.28	14.286
241.65	23.214
242.02	34.247
242.40	28.333
242.77	25.424
243.14	15.152
243.51	27.500
243.89	35.632
244.26	34.483
244.63	25.000
245.00	29.897
245.38	41.237
245.75	28.090
246.12	25.000
246.49	33.058
246.87	33.654
247.24	25.210
247.61	28.070
247.98	31.707
248.36	24.375
248.73	27.632
249.10	25.325
249.47	32.911
249.84	30.719
250.22	32.941
250.59	35.294
250.96	30.986
251.33	25.000
251.70	36.471
252.08	29.442
252.45	30.198
252.82	30.653
253.19	28.571
253.56	29.439
253.94	38.739
254.31	31.304
254.68	35.088
255.05	28.740
255.42	31.441
255.79	35.521
256.16	27.237
256.54	33.955
256.91	29.278
257.28	31.599
257.65	27.715
258.02	27.305
258.39	32.323
258.76	30.769
259.14	34.884
259.51	28.155
259.88	28.866
260.25	31.046
260.62	35.764
260.99	32.542
261.36	28.082
261.73	29.430
262.10	33.739
262.47	31.288
262.85	29.467
263.22	31.077
263.59	30.841
263.96	32.298
264.33	34.242
264.70	28.571
265.07	29.762
265.44	34.561
265.81	34.181
266.18	33.333
266.55	33.676
266.92	29.016
267.29	34.465
267.66	30.946
268.03	34.031
268.40	30.026
268.77	32.888
269.14	31.894
269.51	33.162
269.88	29.676
270.25	27.806
270.62	29.512
270.99	30.435
271.36	30.562
271.73	30.516
272.10	32.117
272.47	30.260
272.84	31.683
273.21	28.770
273.58	33.253
273.95	29.748
274.32	28.406
274.69	29.186
275.06	30.357
275.43	30.385
275.80	30.022
276.17	30.345
276.54	31.049
276.91	30.044
277.28	30.131
277.65	31.198
278.02	28.723
278.39	31.729
278.76	29.979
279.13	25.726
279.50	30.882
279.87	31.102
280.23	31.183
280.60	30.799
280.97	29.899
281.34	28.462
281.71	32.033
282.08	28.630
282.45	27.397
282.82	27.606
283.19	30.561
283.56	29.287
283.92	29.981
284.29	29.615
284.66	28.682
285.03	30.452
285.40	28.166
285.77	28.471
286.14	29.061
286.51	29.705
286.87	25.594
287.24	28.729
287.61	28.219
287.98	28.246
288.35	26.516
288.72	29.072
289.08	26.215
289.45	27.241
289.82	26.224
290.19	26.280
290.56	25.386
290.93	26.094
291.29	23.421
291.66	25.039
292.03	26.475
292.40	23.548
292.77	24.721
293.13	21.753
293.50	22.458
293.87	25.191
294.24	24.266
294.60	25.335
294.97	23.512
295.34	24.387
295.71	23.696
296.08	23.169
296.44	22.333
296.81	23.889
297.18	22.319
297.55	24.661
297.91	21.507
298.28	23.615
298.65	22.117
299.02	22.372
299.38	19.836
299.75	21.379
300.12	21.204
300.48	19.499
300.85	21.546
301.22	21.429
301.59	20.263
301.95	22.405
302.32	21.401
302.69	20.522
303.05	21.040
303.42	19.552
303.79	20.794
304.15	21.147
304.52	19.501
304.89	20.585
305.25	20.460
305.62	18.320
305.99	19.883
306.35	20.116
306.72	20.135
307.09	20.182
307.45	21.470
307.82	20.370
308.19	21.022
308.55	18.975
308.92	22.004
309.29	20.335
309.65	18.730
310.02	19.912
310.38	20.746
310.75	20.874
311.12	20.667
311.48	20.467
311.85	20.733
312.22	19.409
312.58	19.745
312.95	18.997
313.31	20.290
313.68	19.162
314.05	19.694
314.41	22.062
314.78	21.443
315.14	22.097
315.51	21.118
315.87	21.414
316.24	23.559
316.61	21.555
316.97	23.214
317.34	20.996
317.70	22.658
318.07	22.692
318.43	24.118
318.80	23.958
319.16	25.391
319.53	26.021
319.89	24.705
320.26	26.316
320.62	25.878
320.99	24.113
321.35	26.002
321.72	26.895
322.08	26.385
322.45	26.701
322.81	26.523
323.18	26.006
323.54	27.317
323.91	28.822
324.27	29.590
324.64	30.431
325.00	30.018
325.37	30.946
325.73	30.825
326.10	31.608
326.46	33.184
326.83	33.508
327.19	33.217
327.56	34.492
327.92	36.444
328.29	35.536
328.65	37.925
329.01	38.143
329.38	37.604
329.74	37.583
330.11	38.462
330.47	39.332
330.84	41.827
331.20	42.395
331.56	41.389
331.93	42.283
332.29	40.972
332.66	41.448
333.02	43.030
333.38	42.988
333.75	44.689
334.11	42.793
334.48	45.784
334.84	45.147
335.20	46.478
335.57	45.240
335.93	45.167
336.29	45.580
336.66	45.050
337.02	46.747
337.38	45.463
337.75	46.455
338.11	47.610
338.47	46.989
338.84	48.336
339.20	47.075
339.56	48.440
339.93	47.717
340.29	48.073
340.65	48.387
341.02	47.429
341.38	46.195
341.74	48.057
342.11	46.534
342.47	48.488
342.83	47.664
343.20	47.648
343.56	47.217
343.92	49.336
344.28	48.335
344.65	48.791
345.01	47.623
345.37	47.603
345.73	48.954
346.10	48.404
346.46	46.930
346.82	48.200
347.19	47.215
347.55	48.454
347.91	48.948
348.27	46.160
348.63	47.871
349.00	47.662
349.36	47.963
349.72	48.590
350.08	47.951
350.45	47.805
350.81	47.425
351.17	47.313
351.53	47.918
351.89	47.812
352.26	48.400
352.62	49.194
352.98	46.988
353.34	47.101
353.70	50.000
354.07	48.790
354.43	46.677
354.79	50.041
355.15	49.127
355.51	49.288
355.87	49.353
356.24	49.266
356.60	49.555
356.96	49.921
357.32	48.562
357.68	50.117
358.04	50.162
358.40	49.277
358.77	49.442
359.13	50.200
359.49	48.921
359.85	48.986
360.21	51.196
360.57	50.191
360.93	48.260
361.29	48.792
361.66	49.687
362.02	50.606
362.38	49.810
362.74	51.098
363.10	50.790
363.46	49.741
363.82	51.315
364.18	49.446
364.54	50.809
364.90	50.824
365.26	49.636
365.62	50.584
365.98	52.199
366.35	51.129
366.71	52.476
367.07	52.830
367.43	51.186
367.79	51.378
368.15	51.759
368.51	51.784
368.87	51.687
369.23	50.686
369.59	53.426
369.95	52.933
370.31	53.251
370.67	53.060
371.03	52.651
371.39	51.349
371.75	53.480
372.11	53.210
372.47	52.885
372.83	52.590
373.19	54.208
373.55	52.347
373.91	54.140
374.27	54.642
374.63	54.846
374.99	53.333
375.35	53.621
375.71	54.336
376.07	54.213
376.42	54.626
376.78	55.436
377.14	54.841
377.50	54.648
377.86	54.351
378.22	55.073
378.58	54.936
378.94	55.577
379.30	55.022
379.66	56.489
380.02	55.487
380.38	55.995
380.74	56.314
381.09	57.117
381.45	55.902
381.81	56.323
382.17	56.155
382.53	56.402
382.89	57.376
383.25	58.432
383.61	57.195
383.97	58.286
384.32	57.661
384.68	57.028
385.04	57.721
385.40	57.685
385.76	60.943
386.12	57.439
386.48	60.345
386.83	57.705
387.19	58.852
387.55	59.034
387.91	59.169
388.27	58.486
388.62	59.471
388.98	59.300
389.34	59.400
389.70	59.416
390.06	58.716
390.42	59.132
390.77	61.543
391.13	59.584
391.49	60.543
391.85	60.949
392.20	59.510
392.56	60.267
392.92	60.129
393.28	60.377
393.64	59.339
393.99	62.320
394.35	61.543
394.71	60.920
395.07	60.151
395.42	59.563
395.78	60.521
396.14	60.151
396.50	61.256
396.85	61.301
397.21	60.652
397.57	61.379
397.92	59.557
398.28	61.609
398.64	60.181
399.00	62.302
399.35	59.989
399.71	59.908
400.07	61.064
400.42	60.526
400.78	60.625
401.14	60.315
401.49	62.001
401.85	61.731
402.21	61.205
402.57	62.812
402.92	60.916
403.28	60.840
403.63	60.530
403.99	60.459
404.35	61.587
404.70	60.833
405.06	60.870
405.42	61.840
405.77	60.953
406.13	62.631
406.49	60.568
406.84	62.164
407.20	63.275
407.55	60.270
407.91	60.695
408.27	60.038
408.62	62.277
408.98	59.643
409.34	61.276
409.69	60.465
410.05	61.268
410.40	60.247
410.76	61.942
411.11	62.187
411.47	62.196
411.83	61.770
412.18	61.969
412.54	61.298
412.89	59.729
413.25	61.071
413.60	60.807
413.96	59.264
414.31	60.793
414.67	60.872
415.03	59.854
415.38	61.031
415.74	62.345
416.09	62.900
416.45	61.175
416.80	61.732
417.16	62.569
417.51	61.959
417.87	61.147
418.22	62.241
418.58	62.475
418.93	61.567
419.29	60.819
419.64	62.800
420.00	62.783
420.35	62.209
420.71	61.847
421.06	61.387
421.42	63.462
421.77	63.931
422.12	61.918
422.48	61.397
422.83	63.863
423.19	61.682
423.54	62.728
423.90	61.955
424.25	63.720
424.61	63.464
424.96	61.789
425.31	64.240
425.67	63.674
426.02	64.370
426.38	64.058
426.73	64.044
427.09	65.570
427.44	64.176
427.79	64.290
428.15	64.138
428.50	63.356
428.85	64.189
429.21	65.761
429.56	64.906
429.92	64.099
430.27	63.659
430.62	63.617
430.98	65.127
431.33	64.564
431.68	64.417
432.04	65.679
432.39	64.746
432.74	62.959
433.10	65.517
433.45	63.560
433.80	65.757
434.16	64.211
434.51	65.484
434.86	65.041
435.22	65.339
435.57	67.311
435.92	64.551
436.28	64.818
436.63	64.404
436.98	64.426
437.34	66.062
437.69	67.442
438.04	65.413
438.39	64.997
438.75	67.881
439.10	65.252
439.45	67.438
439.81	65.627
440.16	67.696
440.51	67.045
440.86	68.580
441.22	66.855
441.57	67.163
441.92	68.730
442.27	67.683
442.63	68.201
442.98	67.892
443.33	66.555
443.68	67.427
444.03	65.872
444.39	67.339
444.74	68.283
445.09	68.151
445.44	68.490
445.79	68.901
446.15	67.291
446.50	66.389
446.85	68.491
447.20	67.623
447.55	67.522
447.91	68.246
448.26	68.241
448.61	68.221
448.96	69.822
449.31	69.133
449.66	67.422
450.02	67.541
450.37	67.694
450.72	66.838
451.07	68.987
451.42	67.541
451.77	67.691
452.12	67.943
452.47	67.225
452.83	68.610
453.18	68.691
453.53	68.774
453.88	70.006
454.23	68.961
454.58	69.710
454.93	67.784
455.28	65.968
455.63	67.886
455.98	68.791
456.34	68.135
456.69	69.060
457.04	70.762
457.39	68.894
457.74	69.407
458.09	67.863
458.44	69.163
458.79	67.731
459.14	68.707
459.49	68.418
459.84	69.430
460.19	69.417
460.54	70.049
460.89	70.114
461.24	69.503
461.59	70.071
461.94	69.371
462.29	68.577
462.64	70.033
462.99	68.788
463.34	68.220
463.69	68.790
464.04	70.097
464.39	68.830
464.74	68.773
465.09	68.746
465.44	70.052
465.79	69.388
466.14	68.073
466.49	69.120
466.84	68.590
467.19	69.775
467.54	69.923
467.89	70.120
468.24	68.491
468.59	70.095
468.94	69.905
469.29	70.754
469.64	69.378
469.99	70.638
470.34	69.352
470.68	69.724
471.03	68.790
471.38	69.757
471.73	68.838
472.08	69.132
472.43	69.933
472.78	69.020
473.13	69.796
473.48	70.619
473.83	69.614
474.17	71.114
474.52	70.070
474.87	70.061
475.22	70.287
475.57	70.299
475.92	69.830
476.27	70.955
476.61	71.817
476.96	68.210
477.31	69.984
477.66	69.775
478.01	69.624
478.36	69.935
478.70	70.092
479.05	71.099
479.40	71.012
479.75	68.926
480.10	68.664
480.45	69.950
480.79	71.601
481.14	71.004
481.49	68.818
481.84	71.187
482.19	70.861
482.53	72.134
482.88	68.687
483.23	70.058
483.58	69.387
483.92	69.409
484.27	68.095
484.62	70.641
484.97	70.730
485.31	69.798
485.66	69.721
486.01	70.615
486.36	70.522
486.70	70.414
487.05	70.002
487.40	70.502
487.75	69.268
488.09	68.696
488.44	68.741
488.79	69.742
489.13	70.593
489.48	68.961
489.83	70.179
490.17	69.393
490.52	69.977
490.87	68.718
491.22	70.344
491.56	71.537
491.91	69.407
492.26	70.880
492.60	70.345
492.95	71.225
493.30	69.614
493.64	71.709
493.99	70.531
494.34	71.505
494.68	69.905
495.03	70.462
495.37	70.461
495.72	71.277
496.07	70.390
496.41	71.557
496.76	70.935
497.11	68.887
497.45	70.740
497.80	71.090
498.14	70.194
498.49	70.950
498.84	70.409
499.18	72.239
499.53	70.040
499.87	69.990
500.22	70.920
500.56	71.810
500.91	69.679
501.26	70.984
501.60	70.339
501.95	70.403
502.29	71.186
502.64	70.705
502.98	71.929
503.33	70.221
503.67	69.639
504.02	71.310
504.36	70.856
504.71	69.343
505.06	69.703
505.40	71.777
505.75	71.443
506.09	70.350
506.44	72.177
506.78	70.612
507.13	70.941
507.47	68.930
507.82	70.780
508.16	70.523
508.51	71.354
508.85	71.533
509.19	71.102
509.54	71.689
509.88	69.849
510.23	70.898
510.57	71.459
510.92	69.723
511.26	70.595
511.61	71.452
511.95	71.342
512.30	70.288
512.64	70.173
512.98	70.354
513.33	72.076
513.67	70.722
514.02	72.597
514.36	72.971
514.70	72.261
515.05	72.679
515.39	71.133
515.74	72.395
516.08	71.608
516.42	71.614
516.77	71.211
517.11	71.513
517.46	71.454
517.80	70.262
518.14	71.341
518.49	71.334
518.83	71.081
519.17	71.862
519.52	70.989
519.86	70.828
520.20	72.296
520.55	71.420
520.89	70.514
521.23	70.804
521.58	72.744
521.92	71.282
522.26	70.917
522.61	71.948
522.95	73.377
523.29	71.156
523.64	71.601
523.98	71.743
524.32	70.554
524.66	71.767
525.01	71.558
525.35	73.104
525.69	73.333
526.04	71.892
526.38	71.725
526.72	72.204
527.06	72.633
527.41	71.438
527.75	71.783
528.09	72.027
528.43	72.384
528.78	72.013
529.12	72.258
529.46	72.580
529.80	70.551
530.15	72.079
530.49	72.525
530.83	73.803
531.17	71.256
531.51	72.982
531.86	71.992
532.20	72.443
532.54	71.273
532.88	72.758
533.22	73.253
533.57	71.887
533.91	72.258
534.25	73.307
534.59	72.033
534.93	70.610
535.27	70.812
535.62	72.003
535.96	71.624
536.30	71.834
536.64	72.915
536.98	71.916
537.32	72.831
537.66	73.422
538.01	72.308
538.35	73.024
538.69	72.304
539.03	71.292
539.37	73.822
539.71	73.279
540.05	70.944
540.39	72.299
540.73	73.013
541.07	72.652
541.42	72.245
541.76	74.329
542.10	71.025
542.44	72.481
542.78	71.025
543.12	72.527
543.46	72.879
543.80	73.699
544.14	70.828
544.48	70.753
544.82	72.727
545.16	73.156
545.50	71.295
545.84	74.079
546.18	73.688
546.52	71.810
546.86	72.035
547.20	72.031
547.54	70.601
547.88	73.438
548.22	70.940
548.56	70.580
548.90	72.776
549.24	70.730
549.58	71.298
549.92	70.836
550.26	72.527
550.60	72.045
550.94	73.637
551.28	73.184
551.62	72.231
551.96	73.609
552.30	73.611
552.64	70.451
552.98	72.433
553.32	71.255
553.66	71.626
554.00	73.942
554.34	71.861
554.68	70.575
555.02	73.289
555.36	72.401
555.69	72.527
556.03	72.020
556.37	71.815
556.71	72.563
557.05	72.483
557.39	71.524
557.73	72.189
558.07	72.549
558.41	72.588
558.75	73.110
559.08	74.074
559.42	72.698
559.76	75.100
560.10	71.713
560.44	70.514
560.78	72.308
561.12	73.202
561.45	73.999
561.79	73.739
562.13	72.534
562.47	71.079
562.81	71.686
563.15	72.073
563.48	71.429
563.82	73.370
564.16	72.423
564.50	72.703
564.84	71.486
565.17	73.172
565.51	74.385
565.85	72.977
566.19	71.552
566.52	73.592
566.86	72.365
567.20	74.284
567.54	74.513
567.88	74.692
568.21	73.416
568.55	73.370
568.89	73.511
569.23	74.001
569.56	73.074
569.90	73.975
570.24	71.865
570.57	73.636
570.91	74.068
571.25	72.509
571.59	71.535
571.92	70.993
572.26	70.652
572.60	71.628
572.93	70.850
573.27	71.191
573.61	71.629
573.95	72.474
574.28	71.319
574.62	70.811
574.96	71.179
575.29	69.914
575.63	69.008
575.97	70.398
576.30	70.340
576.64	70.146
576.98	70.631
577.31	71.934
577.65	71.445
577.98	71.344
578.32	71.095
578.66	70.600
578.99	70.051
579.33	69.223
579.67	69.240
580.00	70.658
580.34	69.478
580.67	70.104
581.01	71.326
581.35	70.370
581.68	71.069
582.02	71.463
582.35	71.272
582.69	71.231
583.02	70.540
583.36	70.239
583.70	70.587
584.03	71.838
584.37	71.005
584.70	71.374
585.04	69.249
585.37	69.877
585.71	69.686
586.04	70.625
586.38	69.912
586.72	70.560
587.05	72.097
587.39	71.484
587.72	72.143
588.06	70.938
588.39	70.749
588.73	70.757
589.06	71.885
589.40	70.722
589.73	70.756
590.07	70.770
590.40	72.523
590.73	72.776
591.07	70.780
591.40	71.327
591.74	72.081
592.07	71.985
592.41	72.615
592.74	71.884
593.08	71.254
593.41	71.301
593.75	70.494
594.08	70.168
594.41	70.160
594.75	71.107
595.08	70.904
595.42	69.856
595.75	72.662
596.09	71.892
596.42	70.401
596.75	70.782
597.09	70.979
597.42	71.138
597.75	70.866
598.09	70.439
598.42	71.661
598.76	70.528
599.09	70.994
599.42	70.292
599.76	70.278
600.09	69.683
600.42	69.826
600.76	69.948
601.09	70.496
601.42	69.526
601.76	70.385
602.09	70.503
602.42	71.230
602.76	71.053
603.09	71.346
603.42	71.865
603.76	70.444
604.09	71.851
604.42	71.616
604.76	71.696
605.09	70.293
605.42	69.887
605.75	70.709
606.09	70.276
606.42	69.683
606.75	70.519
607.09	71.165
607.42	69.251
607.75	69.494
608.08	69.272
608.42	68.844
608.75	71.952
609.08	71.300
609.41	69.898
609.75	71.169
610.08	70.694
610.41	69.710
610.74	70.697
611.07	71.059
611.41	71.095
611.74	71.908
612.07	70.503
612.40	69.639
612.73	72.260
613.07	71.485
613.40	70.897
613.73	70.677
614.06	69.226
614.39	71.461
614.72	69.580
615.06	71.173
615.39	70.633
615.72	70.452
616.05	69.050
616.38	69.801
616.71	71.437
617.05	71.526
617.38	70.836
617.71	71.698
618.04	74.730
618.37	72.320
618.70	70.825
619.03	72.639
619.36	70.405
619.69	72.100
620.03	71.293
620.36	72.103
620.69	71.021
621.02	71.713
621.35	72.780
621.68	73.214
622.01	73.167
622.34	71.987
622.67	72.319
623.00	70.827
623.33	70.503
623.66	71.204
623.99	70.499
624.32	71.863
624.65	71.579
624.99	73.439
625.32	70.432
625.65	71.642
625.98	72.200
626.31	71.737
626.64	73.484
626.97	73.909
627.30	72.592
627.63	72.530
627.96	73.046
628.29	71.045
628.62	72.468
628.95	72.445
629.28	75.403
629.61	73.380
629.94	73.705
630.26	73.123
630.59	75.026
630.92	71.897
631.25	72.923
631.58	73.789
631.91	71.601
632.24	74.771
632.57	72.614
632.90	73.547
633.23	73.176
633.56	74.685
633.89	73.983
634.22	74.815
634.55	75.222
634.88	71.903
635.20	74.359
635.53	73.467
635.86	71.912
636.19	73.739
636.52	73.724
636.85	72.208
637.18	71.572
637.51	72.579
637.83	74.244
638.16	74.488
638.49	72.207
638.82	70.658
639.15	74.763
639.48	74.003
639.81	70.572
640.13	74.459
640.46	74.344
640.79	73.196
641.12	72.969
641.45	72.973
641.77	71.407
642.10	74.724
642.43	72.186
642.76	73.267
643.09	76.252
643.41	72.168
643.74	73.641
644.07	73.399
644.40	74.324
644.73	74.431
645.05	73.826
645.38	74.250
645.71	75.887
646.04	73.429
646.36	76.773
646.69	75.899
647.02	76.371
647.35	72.948
647.67	74.954
648.00	77.052
648.33	72.526
648.66	74.407
648.98	74.037
649.31	74.711
649.64	71.743
649.96	71.637
650.29	74.617
650.62	74.359
650.94	72.407
651.27	76.350
651.60	75.676
651.92	71.853
652.25	73.357
652.58	72.833
652.90	74.271
653.23	72.437
653.56	70.558
653.88	70.962
654.21	70.403
654.54	70.628
654.86	76.740
655.19	70.468
655.52	77.012
655.84	72.794
656.17	78.557
656.49	100.000
656.82	100.000
657.15	84.758
657.47	58.922
657.80	43.814
658.13	42.649
658.45	65.128
658.78	64.282
659.10	62.458
659.43	61.989
659.75	63.444
660.08	62.483
660.41	63.739
660.73	66.851
661.06	69.324
661.38	71.429
661.71	68.994
662.03	72.532
662.36	70.549
662.68	71.018
663.01	72.489
663.33	74.014
663.66	73.721
663.98	71.860
664.31	73.987
664.63	72.350
664.96	69.348
665.28	72.406
665.61	74.026
665.93	74.783
666.26	70.282
666.58	71.812
666.91	70.588
667.23	71.226
667.56	72.749
667.88	73.861
668.21	74.702
668.53	72.104
668.86	74.528
669.18	69.811
669.50	72.155
669.83	70.465
670.15	72.494
670.48	74.641
670.80	73.733
671.13	68.904
671.45	66.438
671.77	74.893
672.10	73.069
672.42	70.225
672.75	71.581
673.07	68.157
673.39	69.908
673.72	68.836
674.04	70.000
674.37	69.703
674.69	69.807
675.01	71.778
675.34	70.045
675.66	73.380
675.98	74.058
676.31	69.037
676.63	71.021
676.95	65.000
677.28	70.118
677.60	69.398
677.92	69.954
678.25	71.772
678.57	71.212
678.89	71.008
679.22	72.260
679.54	68.273
679.86	67.992
680.18	71.650
680.51	68.182
680.83	65.010
681.15	70.000
681.48	70.287
681.80	71.694
682.12	66.532
682.44	68.619
682.77	71.302
683.09	69.336
683.41	67.045
683.73	68.203
684.06	70.133
684.38	70.323
684.70	71.460
685.02	69.295
685.34	70.553
685.67	69.043
685.99	68.174
686.31	67.965
686.63	68.460
686.96	66.160
687.28	67.273
687.60	67.871
687.92	73.333
688.24	68.347
688.56	69.432
688.89	69.643
689.21	67.333
689.53	70.302
689.85	70.930
690.17	67.188
690.49	67.139
690.82	71.602
691.14	70.714
691.46	70.093
691.78	71.622
692.10	70.323
692.42	68.831
692.74	67.094
693.06	68.919
693.39	65.385
693.71	65.385
694.03	67.206
694.35	68.925
694.67	68.434
694.99	68.146
695.31	70.757
695.63	67.250
695.95	68.687
696.27	70.207
696.59	70.000
696.91	66.106
697.23	68.895
697.56	71.782
697.88	67.742
698.20	65.604
698.52	64.471
698.84	62.201
699.16	66.000
699.48	66.917
699.80	63.275
700.12	70.350
700.44	68.908
700.76	67.151
701.08	63.939
701.40	65.361
701.72	74.074
702.04	71.947
702.36	69.900
702.68	68.769
703.00	72.424
703.32	66.862
703.64	61.299
703.96	63.768
704.28	66.871
704.60	66.984
704.91	64.984
705.23	69.767
705.55	71.025
705.87	71.841
706.19	68.519
706.51	68.041
706.83	67.524
707.15	64.486
707.47	67.507
707.79	68.229
708.11	65.000
708.43	66.750
708.74	64.858
709.06	67.324
709.38	69.113
709.70	68.343
710.02	67.834
710.34	70.898
710.66	61.218
710.98	68.543
711.29	66.885
711.61	65.763
711.93	65.472
712.25	70.103
712.57	73.993
712.89	66.418
713.20	65.398
713.52	63.066
713.84	67.577
714.16	68.385
714.48	67.419
714.80	67.308
715.11	63.526
715.43	64.577
715.75	65.667
716.07	62.791
716.39	66.779
716.70	69.004
717.02	58.015
717.34	68.421
717.66	67.257
717.97	70.870
718.29	68.619
718.61	68.898
718.93	68.217
719.24	67.681
719.56	70.281
719.88	61.512
720.20	66.667
720.51	63.602
720.83	67.954
721.15	69.748
721.46	68.952
721.78	62.846
722.10	61.338
722.42	64.730
722.73	63.673
723.05	69.796
723.37	69.068
723.68	72.973
724.00	65.385
724.32	70.667
724.63	72.273
724.95	66.376
725.27	71.429
725.58	66.102
725.90	67.460
726.22	65.251
726.53	65.085
726.85	66.667
727.16	67.170
727.48	62.753
727.80	65.992
728.11	66.949
728.43	61.176
728.74	61.694
729.06	66.400
729.38	68.045
729.69	63.347
730.01	60.385
730.32	67.537
730.64	60.777
730.96	69.811
731.27	60.667
731.59	67.458
731.90	63.376
732.22	62.145
732.53	65.781
732.85	66.667
733.16	64.646
733.48	61.511
733.80	63.406
734.11	61.356
734.43	64.605
734.74	69.091
735.06	61.889
735.37	63.444
735.69	61.616
736.00	64.111
736.32	64.430
736.63	66.197
736.95	63.481
737.26	63.345
737.58	60.738
737.89	67.399
738.21	65.414
738.52	65.432
738.83	62.882
739.15	66.376
739.46	67.323
739.78	63.736
740.09	58.170
740.41	63.768
740.72	63.386
741.04	62.348
741.35	60.851
741.66	62.085
741.98	58.163
742.29	64.356
742.61	62.304
742.92	55.450
743.23	54.630
743.55	66.063
743.86	64.115
744.18	58.373
744.49	64.362
744.80	63.587
745.12	73.262
745.43	56.098
745.74	71.875
746.06	64.878
746.37	67.016
746.68	65.403
747.00	57.447
747.31	70.149
747.62	66.990
747.94	66.029
748.25	66.337
748.56	61.202
748.88	65.445
749.19	68.085
749.50	62.069
749.82	63.679
750.13	71.101
750.44	65.414
750.75	67.910
751.07	61.314
751.38	65.900
751.69	60.392
752.01	63.178
752.32	65.737
752.63	62.451
752.94	60.776
753.26	66.527
753.57	60.633
753.88	64.602
754.19	63.333
754.51	61.983
754.82	64.372
755.13	68.333
755.44	68.952
755.75	61.328
756.07	62.646
756.38	58.868
756.69	63.218
757.00	62.333
757.31	62.092
757.63	60.976
757.94	58.056
758.25	52.877
758.56	54.255
758.87	53.541
759.18	56.386
759.50	60.000
759.81	62.207
760.12	60.323
760.43	59.091
760.74	61.420
761.05	60.000
761.36	57.102
761.67	61.818
761.99	61.565
762.30	54.545
762.61	54.941
762.92	60.633
763.23	63.964
763.54	60.748
763.85	60.593
764.16	58.921
764.47	58.468
764.78	56.777
765.10	61.279
765.41	59.621
765.72	58.730
766.03	56.767
766.34	60.949
766.65	60.159
766.96	62.626
767.27	62.766
767.58	62.069
767.89	64.539
768.20	59.091
768.51	54.945
768.82	55.172
769.13	57.604
769.44	55.365
769.75	60.274
770.06	61.638
770.37	53.846
770.68	59.391
770.99	53.394
771.30	66.667
771.61	56.561
771.92	59.483
772.23	63.547
772.54	60.215
772.85	60.494
773.16	60.112
773.47	66.013
773.78	60.784
774.09	59.880
774.39	58.667
774.70	54.140
775.01	60.000
775.32	59.286
775.63	64.463
775.94	59.542
776.25	64.567
776.56	65.833
776.87	62.500
777.18	58.120
777.48	62.069
777.79	49.565
778.10	56.190
778.41	60.360
778.72	58.730
779.03	62.406
779.34	57.447
779.65	54.795
779.95	58.219
780.26	64.138
780.57	55.285
780.88	49.606
781.19	59.483
781.50	61.240
781.80	52.071
782.11	56.604
782.42	57.692
782.73	64.029
783.04	56.296
783.34	55.556
783.65	52.991
783.96	57.377
784.27	53.103
784.57	62.602
784.88	53.125
785.19	68.000
785.50	64.000
785.81	66.379
786.11	55.172
786.42	61.165
786.73	61.818
787.04	57.143
787.34	47.321
787.65	61.905
787.96	55.752
788.26	50.000
788.57	59.829
788.88	60.938
789.19	50.794
789.49	57.391
789.80	51.020
790.11	54.545
790.41	53.636
790.72	69.565
791.03	64.773
791.33	72.500
791.64	53.750
791.95	51.163
792.25	48.936
792.56	71.910
792.87	53.425
793.17	57.971
793.48	40.000
793.79	48.750
794.09	73.750
794.40	50.943
794.70	59.223
795.01	49.593
795.32	51.282
795.62	57.143
795.93	53.922
796.23	60.377
796.54	57.292
796.85	66.176
797.15	39.437
797.46	73.611
797.76	66.667
798.07	38.372
798.37	57.895
798.68	36.364
798.99	44.444
799.29	54.286
799.60	49.275
799.90	62.667
800.21	52.459
800.51	52.308
800.82	57.627
801.12	53.623
801.43	60.656
801.73	49.206
802.04	48.000
802.34	55.224
802.65	65.385
802.95	60.714
803.26	57.692
803.56	60.784
803.87	50.000
804.17	50.667
804.48	53.968
804.78	31.481
805.09	67.391
805.39	53.333
805.70	46.296
806.00	43.860
806.30	50.704
806.61	71.429
806.91	45.833
807.22	65.789
807.52	61.333
807.83	38.182
808.13	44.444
808.43	45.588
808.74	41.791
809.04	40.678
809.35	59.615
809.65	50.000
809.95	24.324
810.26	47.727
810.56	30.137
810.86	21.429
811.17	54.000
811.47	36.735
811.77	55.263
812.08	50.000
812.38	56.604
812.69	42.500
812.99	72.727
813.29	50.000
813.59	34.286
813.90	59.091
814.20	38.462
814.50	48.077
814.81	56.604
815.11	51.064
815.41	40.678
815.72	59.524
816.02	50.980
816.32	31.250
816.62	46.341
816.93	37.838
817.23	51.429
817.53	39.583
817.84	23.913
818.14	46.154
818.44	68.421
818.74	43.478
819.04	7.500
819.35	40.541
819.65	41.176
819.95	27.778
820.25	64.286
820.56	72.500
820.86	27.586
821.16	77.500
821.46	44.681
821.76	50.000
822.07	32.558
822.37	29.730
822.67	6.250
822.97	73.810
823.27	57.143
823.57	32.000
823.88	62.963
824.18	64.286
824.48	67.647
824.78	25.806
825.08	13.043
825.38	66.667
825.69	62.500
825.99	47.368
826.29	22.222
826.59	140.000
826.89	-14.286
827.19	26.087
827.49	52.500
827.79	71.429
828.09	89.286
828.39	42.424
828.70	54.054
829.00	53.571
829.30	76.190
829.60	53.333
829.90	37.500
830.20	44.737
830.50	25.926
830.80	39.130
831.10	50.000
831.40	51.515
831.70	64.516
832.00	80.952
832.30	19.048
832.60	0.000
832.90	41.379
833.20	40.000
833.50	9.091
833.80	44.444
834.10	26.923
834.40	53.125
834.70	11.111
835.00	78.947
835.30	115.385
835.60	93.333
835.90	38.710
836.20	45.455
836.50	64.286
836.80	-7.692
837.10	35.714
837.40	466.667
837.70	72.727
838.00	36.364
838.30	30.435
838.60	-7.692
838.90	68.182
839.19	35.714
839.49	46.667
839.79	53.846
840.09	-8.333
840.39	64.286
840.69	53.571
840.99	3.846
841.29	42.105
841.59	-50.000
841.88	118.182
842.18	-40.000
842.48	62.500
842.78	73.333
843.08	18.519
843.38	-60.000
843.68	43.478
843.97	113.333
844.27	20.000
844.57	-5.000
844.87	38.889
845.17	19.048
845.47	80.000
845.76	19.048
846.06	23.529
846.36	0.000
846.66	42.857
846.96	53.333
847.25	-137.500
847.55	14.286
847.85	50.000
848.15	18.182
848.44	-433.333
848.74	15.000
849.04	70.370
849.34	18.182
849.63	-33.333
849.93	-20.000
850.23	11.111
850.53	130.000
850.82	38.462
851.12	33.333
851.42	-6.667
851.71	11.538
852.01	71.429
852.31	-25.000
852.61	45.455
852.90	10.000
853.20	42.105
853.50	0.000
853.79	34.783
854.09	66.667
854.39	47.368
854.68	79.167
854.98	90.323
855.28	61.538
855.57	10.000
855.87	44.444
856.17	96.296
856.46	78.571
856.76	26.667
857.05	66.667
857.35	40.000
857.65	83.333
857.94	-23.077
858.24	37.931
858.53	83.333
858.83	11.111
859.13	45.455
859.42	39.130
859.72	0.000
860.01	-466.667
860.31	40.000
860.60	19.048
860.90	-300.000
861.20	-13.333
861.49	-200.000
861.79	20.000
862.08	20.000
862.38	13.333
862.67	-60.000
862.97	83.333
863.26	25.000
863.56	22.222
863.85	-433.333
864.15	16.667
864.44	40.000
864.74	-14.286
865.03	50.000
865.33	-60.000
865.62	-33.333
865.92	8.333
866.21	0.000
866.51	6.250
866.80	0.000
867.10	100.000
867.39	16.667
867.69	0.000
867.98	0.000
868.27	-233.333
868.57	60.000
868.86	55.556
869.16	-7.692
869.45	46.667
869.75	-800.000
870.04	0.000
870.33	42.857
870.63	28.571
870.92	533.333
871.22	-180.000
871.51	-700.000
871.80	100.000
872.10	200.000
>>>>>End Processed Spectral Data<<<<<
