SpectraSuite Data File
++++++++++++++++++++++++++++++++++++
Date: Fri May 15 17:15:38 PDT 2015
User: schluterlab
Dark Spectrum Present: Yes
Reference Spectrum Present: Yes
Number of Sampled Component Spectra: 1
Spectrometers: USB2E3373
Integration Time (usec): 3000 (USB2E3373)
Spectra Averaged: 3 (USB2E3373)
Boxcar Smoothing: 0 (USB2E3373)
Correct for Electrical Dark: No (USB2E3373)
Strobe/Lamp Enabled: No (USB2E3373)
Correct for Detector Non-linearity: No (USB2E3373)
Correct for Stray Light: No (USB2E3373)
Number of Pixels in Processed Spectrum: 2048
>>>>>Begin Processed Spectral Data<<<<<
178.53	0.000
178.91	0.000
179.29	187.500
179.67	-250.000
180.04	-85.714
180.42	25.000
180.80	-500.000
181.18	-100.000
181.56	-50.000
181.94	-250.000
182.31	500.000
182.69	0.000
183.07	33.333
183.45	60.000
183.83	33.333
184.20	90.909
184.58	155.556
184.96	-100.000
185.34	66.667
185.72	-150.000
186.09	15.385
186.47	800.000
186.85	16.667
187.23	100.000
187.61	200.000
187.98	-100.000
188.36	55.556
188.74	200.000
189.12	11.765
189.49	66.667
189.87	0.000
190.25	21.429
190.63	700.000
191.00	233.333
191.38	47.368
191.76	600.000
192.14	25.000
192.51	450.000
192.89	55.556
193.27	42.857
193.65	50.000
194.02	72.727
194.40	130.000
194.78	-25.000
195.15	91.667
195.53	0.000
195.91	50.000
196.29	0.000
196.66	38.462
197.04	-0.000
197.42	66.667
197.79	0.000
198.17	-23.077
198.55	-0.000
198.92	-100.000
199.30	1100.000
199.68	80.000
200.05	-166.667
200.43	0.000
200.81	100.000
201.18	166.667
201.56	800.000
201.94	450.000
202.31	-300.000
202.69	160.000
203.07	100.000
203.44	300.000
203.82	0.000
204.19	114.286
204.57	-66.667
204.95	12.500
205.32	10.000
205.70	114.286
206.08	0.000
206.45	155.556
206.83	121.429
207.20	-57.143
207.58	-1200.000
207.96	166.667
208.33	-30.000
208.71	25.000
209.08	-233.333
209.46	500.000
209.84	-240.000
210.21	-600.000
210.59	100.000
210.96	-66.667
211.34	100.000
211.71	140.000
212.09	-42.857
212.46	-700.000
212.84	0.000
213.22	110.000
213.59	150.000
213.97	100.000
214.34	118.182
214.72	-66.667
215.09	225.000
215.47	30.769
215.84	81.818
216.22	100.000
216.59	25.000
216.97	350.000
217.34	50.000
217.72	-160.000
218.09	-87.500
218.47	-25.000
218.84	700.000
219.22	-44.444
219.59	100.000
219.97	166.667
220.34	75.000
220.72	85.714
221.09	75.000
221.47	100.000
221.84	-600.000
222.22	50.000
222.59	63.636
222.97	75.000
223.34	100.000
223.72	78.571
224.09	23.810
224.46	42.857
224.84	200.000
225.21	50.000
225.59	86.667
225.96	-100.000
226.34	50.000
226.71	42.857
227.08	-16.667
227.46	100.000
227.83	200.000
228.21	-11.111
228.58	81.818
228.95	125.000
229.33	60.000
229.70	37.500
230.08	-112.500
230.45	128.571
230.82	128.571
231.20	53.333
231.57	107.143
231.95	42.857
232.32	20.000
232.69	85.714
233.07	333.333
233.44	40.000
233.81	-10.000
234.19	11.111
234.56	17.647
234.93	-600.000
235.31	300.000
235.68	60.000
236.05	53.846
236.43	-5.000
236.80	70.588
237.17	9.375
237.55	85.000
237.92	29.630
238.29	41.667
238.67	36.667
239.04	26.471
239.41	19.512
239.79	0.000
240.16	63.415
240.53	34.211
240.91	19.565
241.28	42.857
241.65	44.643
242.02	41.096
242.40	45.000
242.77	38.983
243.14	37.879
243.51	30.000
243.89	43.678
244.26	32.184
244.63	29.762
245.00	36.082
245.38	44.330
245.75	28.090
246.12	26.724
246.49	30.579
246.87	34.615
247.24	26.891
247.61	29.825
247.98	24.390
248.36	22.500
248.73	33.553
249.10	35.065
249.47	32.911
249.84	28.105
250.22	28.824
250.59	37.255
250.96	31.925
251.33	34.302
251.70	34.118
252.08	32.995
252.45	33.663
252.82	38.191
253.19	39.171
253.56	28.972
253.94	36.036
254.31	36.522
254.68	32.456
255.05	29.134
255.42	34.061
255.79	32.046
256.16	30.739
256.54	35.448
256.91	34.221
257.28	34.201
257.65	26.966
258.02	32.624
258.39	35.354
258.76	33.333
259.14	34.551
259.51	33.010
259.88	30.928
260.25	30.719
260.62	34.375
260.99	32.203
261.36	28.082
261.73	32.911
262.10	31.003
262.47	30.675
262.85	33.229
263.22	33.538
263.59	31.153
263.96	32.298
264.33	32.727
264.70	31.250
265.07	29.464
265.44	32.861
265.81	31.921
266.18	34.426
266.55	30.848
266.92	32.902
267.29	31.070
267.66	29.923
268.03	34.031
268.40	31.070
268.77	34.225
269.14	30.695
269.51	32.905
269.88	28.678
270.25	29.592
270.62	27.073
270.99	31.202
271.36	29.095
271.73	32.629
272.10	29.684
272.47	30.969
272.84	30.941
273.21	32.251
273.58	33.494
273.95	29.977
274.32	30.254
274.69	28.733
275.06	29.911
275.43	31.973
275.80	30.243
276.17	31.264
276.54	27.409
276.91	30.702
277.28	32.096
277.65	30.785
278.02	30.851
278.39	27.352
278.76	28.931
279.13	30.498
279.50	30.882
279.87	31.317
280.23	29.462
280.60	29.435
280.97	30.505
281.34	28.846
281.71	30.801
282.08	27.403
282.45	27.397
282.82	29.923
283.19	29.207
283.56	27.938
283.92	28.653
284.29	30.385
284.66	27.132
285.03	28.094
285.40	28.922
285.77	27.417
286.14	26.895
286.51	28.967
286.87	27.788
287.24	27.624
287.61	27.690
287.98	28.246
288.35	27.036
288.72	27.846
289.08	28.299
289.45	28.120
289.82	26.399
290.19	27.474
290.56	28.130
290.93	25.758
291.29	25.578
291.66	24.724
292.03	25.199
292.40	24.516
292.77	24.561
293.13	21.753
293.50	21.851
293.87	23.206
294.24	25.502
294.60	24.441
294.97	23.810
295.34	21.779
295.71	23.249
296.08	22.571
296.44	21.906
296.81	22.917
297.18	22.754
297.55	23.442
297.91	22.329
298.28	23.879
298.65	22.252
299.02	21.024
299.38	20.383
299.75	22.069
300.12	19.634
300.48	20.949
300.85	20.279
301.22	21.039
301.59	20.789
301.95	22.405
302.32	22.568
302.69	20.522
303.05	21.658
303.42	20.050
303.79	21.495
304.15	21.744
304.52	18.549
304.89	21.053
305.25	20.097
305.62	18.086
305.99	19.532
306.35	20.694
306.72	19.348
307.09	19.498
307.45	20.092
307.82	19.560
308.19	20.325
308.55	18.321
308.92	19.935
309.29	19.665
309.65	18.837
310.02	21.232
310.38	19.429
310.75	19.672
311.12	19.699
311.48	19.088
311.85	18.743
312.22	17.405
312.58	19.851
312.95	18.036
313.31	18.841
313.68	18.534
314.05	18.980
314.41	19.175
314.78	19.485
315.14	19.630
315.51	19.565
315.87	18.238
316.24	20.222
316.61	19.291
316.97	19.147
317.34	18.555
317.70	18.260
318.07	18.462
318.43	19.412
318.80	18.277
319.16	18.750
319.53	19.373
319.89	17.815
320.26	19.838
320.62	19.258
320.99	18.580
321.35	19.733
321.72	18.069
322.08	19.839
322.45	20.000
322.81	19.057
323.18	18.940
323.54	18.629
323.91	19.182
324.27	18.066
324.64	18.914
325.00	19.526
325.37	20.110
325.73	17.951
326.10	17.620
326.46	19.193
326.83	19.160
327.19	19.442
327.56	18.332
327.92	19.806
328.29	18.125
328.65	19.528
329.01	18.934
329.38	18.710
329.74	18.036
330.11	18.628
330.47	16.976
330.84	17.308
331.20	19.582
331.56	17.593
331.93	19.726
332.29	18.698
332.66	18.462
333.02	18.680
333.38	18.882
333.75	19.322
334.11	18.621
334.48	18.495
334.84	18.407
335.20	18.939
335.57	18.495
335.93	18.519
336.29	18.969
336.66	18.256
337.02	17.379
337.38	18.241
337.75	17.636
338.11	18.215
338.47	18.613
338.84	17.837
339.20	18.282
339.56	18.532
339.93	18.979
340.29	18.349
340.65	18.996
341.02	17.996
341.38	17.522
341.74	18.198
342.11	17.851
342.47	16.726
342.83	17.993
343.20	16.551
343.56	18.435
343.92	17.715
344.28	19.300
344.65	17.358
345.01	16.681
345.37	17.157
345.73	17.490
346.10	16.911
346.46	18.082
346.82	17.349
347.19	16.708
347.55	17.293
347.91	17.880
348.27	16.896
348.63	18.143
349.00	17.145
349.36	17.290
349.72	17.828
350.08	17.787
350.45	17.478
350.81	16.777
351.17	17.020
351.53	17.306
351.89	15.690
352.26	17.120
352.62	18.145
352.98	16.707
353.34	16.989
353.70	17.799
354.07	16.935
354.43	17.374
354.79	16.185
355.15	17.778
355.51	18.117
355.87	17.071
356.24	16.395
356.60	16.572
356.96	17.778
357.32	17.971
357.68	15.794
358.04	17.044
358.40	16.640
358.77	17.145
359.13	16.013
359.49	16.256
359.85	16.693
360.21	16.268
360.57	17.368
360.93	16.868
361.29	17.372
361.66	17.790
362.02	17.500
362.38	17.898
362.74	16.503
363.10	17.005
363.46	16.679
363.82	17.506
364.18	16.458
364.54	16.765
364.90	17.061
365.26	16.594
365.62	16.934
365.98	15.762
366.35	17.844
366.71	16.186
367.07	16.255
367.43	16.535
367.79	16.396
368.15	17.014
368.51	16.606
368.87	16.368
369.23	16.606
369.59	16.399
369.95	16.642
370.31	16.040
370.67	16.567
371.03	17.401
371.39	15.828
371.75	16.337
372.11	16.120
372.47	16.642
372.83	17.601
373.19	16.904
373.55	16.173
373.91	17.063
374.27	17.151
374.63	17.229
374.99	15.674
375.35	16.156
375.71	16.643
376.07	15.379
376.42	16.054
376.78	16.510
377.14	16.452
377.50	16.467
377.86	16.332
378.22	16.337
378.58	16.346
378.94	16.131
379.30	15.970
379.66	17.492
380.02	16.064
380.38	16.129
380.74	15.978
381.09	16.564
381.45	17.187
381.81	17.027
382.17	16.117
382.53	15.928
382.89	16.384
383.25	16.304
383.61	16.951
383.97	15.937
384.32	16.260
384.68	16.409
385.04	15.135
385.40	16.428
385.76	17.296
386.12	16.300
386.48	16.986
386.83	16.487
387.19	16.056
387.55	17.440
387.91	16.809
388.27	17.033
388.62	16.425
388.98	15.961
389.34	17.052
389.70	17.154
390.06	16.740
390.42	17.228
390.77	17.135
391.13	15.952
391.49	16.041
391.85	16.959
392.20	16.384
392.56	16.275
392.92	17.499
393.28	16.333
393.64	16.877
393.99	18.182
394.35	16.698
394.71	17.241
395.07	16.908
395.42	15.665
395.78	16.221
396.14	17.213
396.50	17.438
396.85	17.257
397.21	16.980
397.57	16.614
397.92	17.256
398.28	17.241
398.64	15.843
399.00	16.986
399.35	16.027
399.71	16.829
400.07	17.352
400.42	16.401
400.78	17.146
401.14	17.181
401.49	17.034
401.85	17.428
402.21	17.651
402.57	17.000
402.92	16.499
403.28	16.980
403.63	16.961
403.99	16.454
404.35	17.427
404.70	16.369
405.06	16.510
405.42	17.029
405.77	15.979
406.13	16.705
406.49	17.525
406.84	16.626
407.20	17.038
407.55	15.969
407.91	17.112
408.27	17.017
408.62	18.215
408.98	17.252
409.34	17.348
409.69	16.279
410.05	16.749
410.40	17.346
410.76	17.129
411.11	17.062
411.47	16.502
411.83	16.196
412.18	17.053
412.54	16.479
412.89	17.303
413.25	17.329
413.60	17.019
413.96	16.626
414.31	16.829
414.67	16.613
415.03	17.244
415.38	16.645
415.74	17.720
416.09	17.701
416.45	17.083
416.80	16.854
417.16	16.920
417.51	17.921
417.87	17.210
418.22	16.645
418.58	17.324
418.93	16.803
419.29	15.941
419.64	16.461
420.00	17.821
420.35	16.657
420.71	17.072
421.06	16.943
421.42	17.007
421.77	17.630
422.12	17.537
422.48	16.946
422.83	17.111
423.19	17.043
423.54	15.638
423.90	17.020
424.25	16.762
424.61	16.585
424.96	17.131
425.31	16.638
425.67	16.960
426.02	17.314
426.38	17.095
426.73	17.373
427.09	18.228
427.44	17.412
427.79	17.796
428.15	17.597
428.50	16.778
428.85	17.076
429.21	17.714
429.56	17.197
429.92	17.771
430.27	17.193
430.62	17.094
430.98	16.773
431.33	17.192
431.68	17.635
432.04	17.496
432.39	15.859
432.74	16.717
433.10	17.816
433.45	16.786
433.80	17.411
434.16	16.787
434.51	18.065
434.86	17.305
435.22	16.938
435.57	18.153
435.92	18.383
436.28	16.935
436.63	17.285
436.98	17.323
437.34	17.423
437.69	17.233
438.04	17.436
438.39	17.410
438.75	17.486
439.10	17.091
439.45	16.494
439.81	17.798
440.16	17.933
440.51	17.672
440.86	18.610
441.22	17.760
441.57	17.660
441.92	17.733
442.27	17.517
442.63	17.719
442.98	17.461
443.33	17.696
443.68	17.560
444.03	17.983
444.39	17.806
444.74	17.670
445.09	17.706
445.44	17.607
445.79	18.205
446.15	17.511
446.50	16.861
446.85	18.385
447.20	17.205
447.55	18.192
447.91	17.654
448.26	17.587
448.61	17.559
448.96	18.244
449.31	18.208
449.66	18.583
450.02	17.228
450.37	17.783
450.72	17.984
451.07	17.595
451.42	17.166
451.77	17.058
452.12	17.524
452.47	17.257
452.83	17.020
453.18	18.469
453.53	17.826
453.88	17.851
454.23	18.316
454.58	18.262
454.93	17.397
455.28	17.714
455.63	18.165
455.98	17.980
456.34	17.816
456.69	18.043
457.04	19.030
457.39	17.072
457.74	17.170
458.09	16.775
458.44	17.379
458.79	17.143
459.14	18.249
459.49	17.731
459.84	18.500
460.19	17.294
460.54	17.848
460.89	18.239
461.24	18.447
461.59	17.993
461.94	18.553
462.29	17.491
462.64	18.605
462.99	18.145
463.34	17.038
463.69	17.246
464.04	18.220
464.39	17.586
464.74	17.607
465.09	17.530
465.44	18.177
465.79	17.914
466.14	18.472
466.49	17.251
466.84	18.977
467.19	18.586
467.54	18.008
467.89	17.814
468.24	17.336
468.59	18.286
468.94	17.778
469.29	18.754
469.64	17.840
469.99	18.220
470.34	16.519
470.68	17.823
471.03	18.684
471.38	17.760
471.73	17.717
472.08	18.792
472.43	17.047
472.78	17.478
473.13	18.163
473.48	17.915
473.83	17.310
474.17	18.070
474.52	18.443
474.87	18.606
475.22	17.877
475.57	17.335
475.92	18.102
476.27	17.811
476.61	17.535
476.96	16.955
477.31	18.172
477.66	18.090
478.01	17.350
478.36	17.593
478.70	17.836
479.05	18.571
479.40	17.753
479.75	17.779
480.10	16.999
480.45	17.550
480.79	18.228
481.14	17.879
481.49	17.438
481.84	17.712
482.19	17.072
482.53	17.794
482.88	17.566
483.23	18.042
483.58	17.830
483.92	17.570
484.27	17.639
484.62	17.033
484.97	17.206
485.31	18.027
485.66	17.356
486.01	17.600
486.36	17.309
486.70	17.874
487.05	17.333
487.40	17.399
487.75	17.380
488.09	17.460
488.44	17.400
488.79	17.632
489.13	17.548
489.48	17.785
489.83	17.803
490.17	16.539
490.52	17.275
490.87	17.492
491.22	17.908
491.56	16.414
491.91	17.400
492.26	18.036
492.60	17.370
492.95	18.249
493.30	17.294
493.64	17.534
493.99	17.874
494.34	16.359
494.68	16.476
495.03	17.372
495.37	16.830
495.72	17.062
496.07	18.049
496.41	17.170
496.76	17.365
497.11	17.420
497.45	17.088
497.80	18.264
498.14	16.841
498.49	17.420
498.84	17.715
499.18	17.470
499.53	17.212
499.87	17.072
500.22	16.815
500.56	17.801
500.91	17.219
501.26	16.411
501.60	17.068
501.95	17.613
502.29	17.046
502.64	17.326
502.98	17.563
503.33	17.099
503.67	16.867
504.02	17.791
504.36	17.516
504.71	17.172
505.06	16.759
505.40	17.005
505.75	17.268
506.09	17.081
506.44	17.916
506.78	17.908
507.13	17.425
507.47	16.501
507.82	16.239
508.16	17.221
508.51	17.576
508.85	16.902
509.19	16.711
509.54	17.426
509.88	17.098
510.23	16.837
510.57	17.958
510.92	16.898
511.26	17.185
511.61	16.942
511.95	16.822
512.30	16.962
512.64	17.529
512.98	17.294
513.33	17.571
513.67	16.657
514.02	18.650
514.36	17.486
514.70	17.832
515.05	18.038
515.39	16.942
515.74	17.964
516.08	17.573
516.42	17.432
516.77	17.496
517.11	16.795
517.46	16.996
517.80	17.521
518.14	17.697
518.49	17.548
518.83	16.160
519.17	16.313
519.52	17.170
519.86	16.086
520.20	17.072
520.55	16.573
520.89	17.440
521.23	17.416
521.58	17.981
521.92	16.667
522.26	16.916
522.61	16.883
522.95	18.411
523.29	16.836
523.64	17.471
523.98	16.721
524.32	16.302
524.66	17.670
525.01	17.532
525.35	17.952
525.69	17.710
526.04	15.542
526.38	17.899
526.72	16.285
527.06	16.407
527.41	17.480
527.75	16.823
528.09	16.744
528.43	18.163
528.78	16.106
529.12	16.968
529.46	16.959
529.80	17.606
530.15	17.690
530.49	17.172
530.83	17.237
531.17	16.924
531.51	16.963
531.86	17.199
532.20	16.980
532.54	18.108
532.88	17.385
533.22	16.801
533.57	17.038
533.91	16.580
534.25	18.620
534.59	17.640
534.93	17.055
535.27	15.990
535.62	16.980
535.96	17.091
536.30	16.887
536.64	16.816
536.98	17.282
537.32	17.141
537.66	18.724
538.01	17.273
538.35	16.297
538.69	17.244
539.03	16.473
539.37	17.564
539.71	17.928
540.05	17.379
540.39	17.659
540.73	17.713
541.07	17.818
541.42	17.944
541.76	16.999
542.10	16.380
542.44	17.582
542.78	16.036
543.12	17.102
543.46	17.733
543.80	17.280
544.14	16.088
544.48	16.656
544.82	17.020
545.16	17.077
545.50	17.490
545.84	17.351
546.18	16.667
546.52	17.664
546.86	16.463
547.20	17.525
547.54	16.042
547.88	17.595
548.22	16.371
548.56	16.953
548.90	17.790
549.24	16.598
549.58	17.630
549.92	16.798
550.26	16.630
550.60	17.993
550.94	16.654
551.28	16.770
551.62	17.692
551.96	17.895
552.30	16.667
552.64	16.502
552.98	16.948
553.32	17.118
553.66	16.255
554.00	17.372
554.34	17.061
554.68	16.962
555.02	17.113
555.36	16.679
555.69	17.509
556.03	16.845
556.37	17.153
556.71	17.834
557.05	17.151
557.39	17.026
557.73	17.466
558.07	17.647
558.41	16.156
558.75	16.602
559.08	17.021
559.42	16.746
559.76	17.454
560.10	16.667
560.44	16.902
560.78	17.343
561.12	17.489
561.45	17.077
561.79	16.457
562.13	16.608
562.47	17.410
562.81	17.291
563.15	18.195
563.48	16.620
563.82	17.914
564.16	16.992
564.50	16.486
564.84	17.938
565.17	17.505
565.51	18.374
565.85	17.215
566.19	17.440
566.52	18.029
566.86	16.774
567.20	17.497
567.54	17.336
567.88	17.633
568.21	17.081
568.55	17.065
568.89	17.556
569.23	17.285
569.56	16.900
569.90	17.418
570.24	16.598
570.57	17.491
570.91	17.741
571.25	17.100
571.59	16.537
571.92	16.889
572.26	16.606
572.60	17.209
572.93	16.693
573.27	16.395
573.61	17.243
573.95	17.668
574.28	16.684
574.62	16.857
574.96	16.953
575.29	17.062
575.63	16.507
575.97	16.509
576.30	16.531
576.64	16.397
576.98	16.808
577.31	16.736
577.65	17.592
577.98	17.287
578.32	16.934
578.66	16.656
578.99	16.752
579.33	16.762
579.67	16.553
580.00	17.367
580.34	17.090
580.67	16.617
581.01	16.859
581.35	16.839
581.68	17.005
582.02	16.994
582.35	16.917
582.69	17.199
583.02	16.984
583.36	16.939
583.70	17.445
584.03	17.570
584.37	17.730
584.70	17.582
585.04	16.606
585.37	16.683
585.71	16.909
586.04	17.020
586.38	17.098
586.72	17.504
587.05	17.735
587.39	17.445
587.72	17.551
588.06	16.994
588.39	17.032
588.73	17.399
589.06	17.123
589.40	17.179
589.73	17.744
590.07	17.636
590.40	16.834
590.73	17.298
591.07	17.133
591.40	17.053
591.74	17.149
592.07	16.929
592.41	17.580
592.74	17.403
593.08	16.591
593.41	16.705
593.75	16.977
594.08	16.821
594.41	17.176
594.75	17.290
595.08	16.913
595.42	17.078
595.75	17.011
596.09	17.318
596.42	16.990
596.75	17.229
597.09	16.948
597.42	17.389
597.75	16.628
598.09	16.931
598.42	16.968
598.76	16.645
599.09	17.228
599.42	16.862
599.76	16.742
600.09	17.195
600.42	17.324
600.76	16.196
601.09	16.641
601.42	16.334
601.76	16.991
602.09	17.244
602.42	17.860
602.76	17.063
603.09	17.027
603.42	17.057
603.76	16.734
604.09	16.768
604.42	17.301
604.76	17.178
605.09	17.367
605.42	17.472
605.75	17.426
606.09	16.603
606.42	16.847
606.75	16.797
607.09	17.231
607.42	16.881
607.75	16.385
608.08	15.948
608.42	17.222
608.75	17.060
609.08	17.339
609.41	16.193
609.75	16.784
610.08	16.725
610.41	16.860
610.74	17.309
611.07	17.003
611.41	16.866
611.74	17.164
612.07	16.060
612.40	16.849
612.73	16.328
613.07	17.435
613.40	17.396
613.73	16.676
614.06	17.028
614.39	16.187
614.72	16.751
615.06	16.760
615.39	17.140
615.72	16.146
616.05	17.654
616.38	16.182
616.71	17.615
617.05	17.418
617.38	16.530
617.71	17.484
618.04	17.397
618.37	17.213
618.70	17.492
619.03	17.431
619.36	16.787
619.69	16.983
620.03	17.531
620.36	16.094
620.69	16.560
621.02	16.896
621.35	17.759
621.68	17.262
622.01	16.917
622.34	16.600
622.67	17.587
623.00	16.692
623.33	17.683
623.66	17.277
623.99	17.020
624.32	17.567
624.65	16.617
624.99	17.306
625.32	17.286
625.65	16.968
625.98	17.325
626.31	16.126
626.64	17.418
626.97	18.237
627.30	15.937
627.63	18.024
627.96	16.891
628.29	17.391
628.62	18.584
628.95	17.535
629.28	16.431
629.61	17.049
629.94	17.595
630.26	17.490
630.59	17.482
630.92	16.410
631.25	17.128
631.58	14.978
631.91	15.241
632.24	16.055
632.57	16.818
632.90	16.133
633.23	17.059
633.56	17.632
633.89	16.276
634.22	17.654
634.55	15.121
634.88	16.475
635.20	15.385
635.53	16.000
635.86	15.605
636.19	16.559
636.52	15.051
636.85	14.764
637.18	14.969
637.51	16.981
637.83	16.163
638.16	17.190
638.49	14.986
638.82	17.895
639.15	16.961
639.48	16.919
639.81	17.713
640.13	17.172
640.46	16.327
640.79	14.433
641.12	16.691
641.45	14.414
641.77	17.778
642.10	18.325
642.43	17.846
642.76	16.172
643.09	16.317
643.41	15.534
643.74	17.133
644.07	15.928
644.40	15.709
644.73	16.287
645.05	15.772
645.38	15.697
645.71	17.021
646.04	16.517
646.36	17.376
646.69	17.986
647.02	14.745
647.35	15.672
647.67	17.002
648.00	17.910
648.33	15.358
648.66	14.576
648.98	14.405
649.31	16.364
649.64	15.542
649.96	14.749
650.29	16.865
650.62	16.581
650.94	15.556
651.27	14.525
651.60	16.216
651.92	18.182
652.25	15.453
652.58	19.500
652.90	16.467
653.23	14.790
653.56	15.736
653.88	17.182
654.21	16.813
654.54	15.280
654.86	16.299
655.19	14.766
655.52	16.873
655.84	16.028
656.17	18.999
656.49	25.895
656.82	27.428
657.15	20.627
657.47	15.297
657.80	11.273
658.13	10.932
658.45	17.366
658.78	16.953
659.10	16.863
659.43	17.468
659.75	17.168
660.08	16.966
660.41	18.284
660.73	16.713
661.06	18.718
661.38	15.068
661.71	15.195
662.03	15.880
662.36	17.802
662.68	16.593
663.01	20.524
663.33	15.081
663.66	14.419
663.98	14.884
664.31	15.352
664.63	17.051
664.96	16.522
665.28	15.232
665.61	17.100
665.93	17.609
666.26	16.703
666.58	14.318
666.91	16.706
667.23	15.802
667.56	17.062
667.88	14.388
668.21	16.229
668.53	16.548
668.86	18.396
669.18	16.274
669.50	15.981
669.83	16.047
670.15	15.618
670.48	13.876
670.80	13.594
671.13	17.673
671.45	12.329
671.77	17.382
672.10	16.238
672.42	16.667
672.75	18.295
673.07	18.426
673.39	16.697
673.72	13.609
674.04	16.042
674.37	16.525
674.69	16.488
675.01	18.000
675.34	14.414
675.66	15.278
675.98	17.960
676.31	17.661
676.63	16.152
676.95	14.318
677.28	18.118
677.60	19.277
677.92	16.743
678.25	18.162
678.57	16.883
678.89	17.437
679.22	18.121
679.54	16.064
679.86	13.718
680.18	16.505
680.51	15.530
680.83	15.706
681.15	16.400
681.48	17.418
681.80	19.008
682.12	18.145
682.44	15.272
682.77	15.673
683.09	17.849
683.41	16.136
683.73	16.359
684.06	15.929
684.38	16.129
684.70	17.865
685.02	15.353
685.34	15.020
685.67	14.447
685.99	15.552
686.31	18.584
686.63	15.399
686.96	16.730
687.28	12.525
687.60	15.019
687.92	17.980
688.24	15.726
688.56	16.594
688.89	15.848
689.21	18.889
689.53	16.241
689.85	15.581
690.17	16.741
690.49	14.894
690.82	16.990
691.14	18.810
691.46	17.757
691.78	16.441
692.10	15.914
692.42	17.316
692.74	15.385
693.06	17.793
693.39	12.443
693.71	14.253
694.03	17.090
694.35	17.056
694.67	14.646
694.99	17.755
695.31	15.927
695.63	17.000
695.95	16.414
696.27	16.839
696.59	14.444
696.91	14.006
697.23	15.938
697.56	15.347
697.88	16.989
698.20	16.401
698.52	16.471
698.84	13.636
699.16	16.500
699.48	15.038
699.80	15.385
700.12	15.633
700.44	17.087
700.76	18.895
701.08	15.152
701.40	17.771
701.72	20.988
702.04	15.512
702.36	16.388
702.68	18.619
703.00	16.970
703.32	15.249
703.64	14.407
703.96	18.551
704.28	17.791
704.60	15.556
704.91	14.826
705.23	19.269
705.55	19.435
705.87	16.606
706.19	14.815
706.51	12.715
706.83	19.293
707.15	14.330
707.47	15.966
707.79	16.667
708.11	16.000
708.43	15.500
708.74	16.796
709.06	17.183
709.38	15.902
709.70	19.527
710.02	15.924
710.34	17.957
710.66	14.423
710.98	15.894
711.29	22.951
711.61	17.627
711.93	19.218
712.25	17.526
712.57	16.117
712.89	15.299
713.20	17.647
713.52	12.892
713.84	17.065
714.16	12.027
714.48	14.839
714.80	18.269
715.11	18.541
715.43	13.480
715.75	15.000
716.07	15.282
716.39	19.128
716.70	13.653
717.02	12.595
717.34	16.599
717.66	13.274
717.97	14.783
718.29	17.992
718.61	15.748
718.93	15.116
719.24	19.011
719.56	15.663
719.88	18.900
720.20	16.667
720.51	15.709
720.83	16.988
721.15	16.807
721.46	18.145
721.78	9.486
722.10	11.152
722.42	13.693
722.73	17.143
723.05	17.143
723.37	22.881
723.68	22.072
724.00	17.949
724.32	9.333
724.63	14.091
724.95	16.594
725.27	19.355
725.58	14.831
725.90	14.683
726.22	18.919
726.53	18.983
726.85	18.352
727.16	18.491
727.48	14.170
727.80	14.170
728.11	16.525
728.43	18.824
728.74	11.694
729.06	19.600
729.38	22.932
729.69	15.538
730.01	13.846
730.32	16.418
730.64	19.081
730.96	22.264
731.27	17.333
731.59	17.627
731.90	17.197
732.22	23.028
732.53	18.937
732.85	19.504
733.16	23.232
733.48	12.950
733.80	16.304
734.11	18.305
734.43	12.715
734.74	19.394
735.06	15.635
735.37	19.335
735.69	22.222
736.00	15.679
736.32	16.443
736.63	19.014
736.95	19.454
737.26	17.794
737.58	16.107
737.89	16.117
738.21	19.173
738.52	19.753
738.83	18.341
739.15	14.410
739.46	20.079
739.78	12.088
740.09	13.072
740.41	22.826
740.72	12.992
741.04	17.004
741.35	13.191
741.66	17.536
741.98	16.327
742.29	15.347
742.61	17.801
742.92	9.953
743.23	12.500
743.55	16.290
743.86	21.531
744.18	21.053
744.49	13.298
744.80	10.870
745.12	21.925
745.43	14.146
745.74	18.750
746.06	14.146
746.37	17.801
746.68	19.431
747.00	10.106
747.31	21.891
747.62	15.534
747.94	16.268
748.25	12.376
748.56	12.022
748.88	16.230
749.19	22.872
749.50	16.256
749.82	7.547
750.13	11.927
750.44	17.669
750.75	17.164
751.07	19.708
751.38	18.774
751.69	12.549
752.01	21.318
752.32	17.131
752.63	16.206
752.94	14.224
753.26	23.013
753.57	14.480
753.88	13.274
754.19	10.000
754.51	15.289
754.82	12.551
755.13	22.917
755.44	16.129
755.75	17.187
756.07	12.451
756.38	14.717
756.69	15.709
757.00	20.667
757.31	18.627
757.63	15.854
757.94	16.111
758.25	17.260
758.56	17.819
758.87	15.864
759.18	15.888
759.50	16.727
759.81	19.064
760.12	19.032
760.43	15.152
760.74	19.136
761.05	15.077
761.36	20.170
761.67	20.303
761.99	16.667
762.30	14.182
762.61	20.158
762.92	13.575
763.23	14.414
763.54	18.692
763.85	16.102
764.16	13.693
764.47	16.935
764.78	13.919
765.10	20.539
765.41	14.196
765.72	18.730
766.03	13.534
766.34	17.518
766.65	17.530
766.96	18.182
767.27	18.085
767.58	13.218
767.89	12.766
768.20	17.614
768.51	17.033
768.82	16.256
769.13	11.060
769.44	17.597
769.75	14.612
770.06	23.707
770.37	14.423
770.68	15.736
770.99	20.362
771.30	18.137
771.61	19.910
771.92	23.276
772.23	20.690
772.54	20.968
772.85	14.815
773.16	19.101
773.47	21.569
773.78	21.569
774.09	10.180
774.39	15.333
774.70	18.471
775.01	22.069
775.32	13.571
775.63	11.570
775.94	16.031
776.25	18.110
776.56	10.000
776.87	15.385
777.18	15.385
777.48	10.345
777.79	13.913
778.10	9.524
778.41	14.414
778.72	16.667
779.03	18.797
779.34	18.440
779.65	24.658
779.95	17.808
780.26	20.690
780.57	12.195
780.88	16.535
781.19	12.931
781.50	23.256
781.80	16.568
782.11	11.950
782.42	26.154
782.73	18.705
783.04	15.556
783.34	15.972
783.65	9.402
783.96	18.852
784.27	20.690
784.57	20.325
784.88	21.094
785.19	22.000
785.50	33.000
785.81	25.000
786.11	25.000
786.42	5.825
786.73	15.455
787.04	20.408
787.34	15.179
787.65	20.952
787.96	14.159
788.26	14.545
788.57	5.983
788.88	17.969
789.19	20.635
789.49	16.522
789.80	12.245
790.11	12.121
790.41	12.727
790.72	29.348
791.03	21.591
791.33	20.000
791.64	15.000
791.95	29.070
792.25	19.149
792.56	25.843
792.87	19.178
793.17	7.246
793.48	9.333
793.79	8.750
794.09	16.250
794.40	22.642
794.70	16.505
795.01	11.382
795.32	13.675
795.62	14.286
795.93	21.569
796.23	20.755
796.54	20.833
796.85	13.235
797.15	15.493
797.46	33.333
797.76	24.242
798.07	18.605
798.37	18.421
798.68	22.727
798.99	16.049
799.29	18.571
799.60	23.188
799.90	20.000
800.21	31.148
800.51	20.000
800.82	11.864
801.12	24.638
801.43	22.951
801.73	17.460
802.04	18.000
802.34	25.373
802.65	28.846
802.95	33.929
803.26	13.462
803.56	21.569
803.87	2.174
804.17	21.333
804.48	23.810
804.78	14.815
805.09	-6.522
805.39	22.222
805.70	27.778
806.00	7.018
806.30	14.085
806.61	24.286
806.91	5.556
807.22	28.947
807.52	16.000
807.83	5.455
808.13	19.444
808.43	32.353
808.74	5.970
809.04	13.559
809.35	25.000
809.65	23.437
809.95	-5.405
810.26	11.364
810.56	16.438
810.86	0.000
811.17	50.000
811.47	18.367
811.77	0.000
812.08	2.273
812.38	16.981
812.69	27.500
812.99	-3.030
813.29	21.053
813.59	17.143
813.90	9.091
814.20	5.128
814.50	30.769
814.81	13.208
815.11	12.766
815.41	16.949
815.72	38.095
816.02	21.569
816.32	31.250
816.62	36.585
816.93	10.811
817.23	2.857
817.53	31.250
817.84	17.391
818.14	25.000
818.44	-18.421
818.74	15.217
819.04	-15.000
819.35	48.649
819.65	8.824
819.95	8.333
820.25	30.952
820.56	42.500
820.86	-24.138
821.16	32.500
821.46	21.277
821.76	15.000
822.07	34.884
822.37	5.405
822.67	12.500
822.97	38.095
823.27	-14.286
823.57	-4.000
823.88	0.000
824.18	35.714
824.48	35.294
824.78	45.161
825.08	21.739
825.38	21.212
825.69	-33.333
825.99	5.263
826.29	8.333
826.59	-6.667
826.89	-9.524
827.19	4.348
827.49	7.500
827.79	34.286
828.09	21.429
828.39	30.303
828.70	32.432
829.00	-7.143
829.30	-19.048
829.60	30.000
829.90	56.250
830.20	2.632
830.50	62.963
830.80	-17.391
831.10	27.273
831.40	9.091
831.70	48.387
832.00	42.857
832.30	-23.810
832.60	-25.000
832.90	41.379
833.20	15.000
833.50	54.545
833.80	-14.815
834.10	26.923
834.40	18.750
834.70	-66.667
835.00	21.053
835.30	61.538
835.60	26.667
835.90	3.226
836.20	22.727
836.50	14.286
836.80	-7.692
837.10	32.143
837.40	333.333
837.70	36.364
838.00	54.545
838.30	26.087
838.60	15.385
838.90	54.545
839.19	57.143
839.49	33.333
839.79	38.462
840.09	-41.667
840.39	50.000
840.69	50.000
840.99	-3.846
841.29	-10.526
841.59	-70.000
841.88	72.727
842.18	20.000
842.48	62.500
842.78	-26.667
843.08	29.630
843.38	-60.000
843.68	34.783
843.97	13.333
844.27	-40.000
844.57	-25.000
844.87	61.111
845.17	9.524
845.47	26.667
845.76	-28.571
846.06	88.235
846.36	30.000
846.66	-50.000
846.96	0.000
847.25	-37.500
847.55	57.143
847.85	-37.500
848.15	9.091
848.44	-433.333
848.74	0.000
849.04	70.370
849.34	27.273
849.63	-133.333
849.93	-200.000
850.23	44.444
850.53	100.000
850.82	61.538
851.12	55.556
851.42	33.333
851.71	19.231
852.01	71.429
852.31	-225.000
852.61	-9.091
852.90	30.000
853.20	36.842
853.50	91.667
853.79	21.739
854.09	4.167
854.39	26.316
854.68	20.833
854.98	29.032
855.28	42.308
855.57	-10.000
855.87	33.333
856.17	29.630
856.46	35.714
856.76	6.667
857.05	111.111
857.35	44.000
857.65	0.000
857.94	-30.769
858.24	27.586
858.53	33.333
858.83	29.630
859.13	9.091
859.42	21.739
859.72	-50.000
860.01	-266.667
860.31	32.000
860.60	23.810
860.90	-233.333
861.20	-20.000
861.49	-400.000
861.79	-40.000
862.08	75.000
862.38	120.000
862.67	-80.000
862.97	33.333
863.26	25.000
863.56	72.222
863.85	-66.667
864.15	55.556
864.44	-80.000
864.74	42.857
865.03	25.000
865.33	-200.000
865.62	66.667
865.92	50.000
866.21	-33.333
866.51	93.750
866.80	27.273
867.10	50.000
867.39	166.667
867.69	0.000
867.98	0.000
868.27	400.000
868.57	20.000
868.86	55.556
869.16	-23.077
869.45	113.333
869.75	-300.000
870.04	0.000
870.33	42.857
870.63	42.857
870.92	333.333
871.22	-100.000
871.51	-200.000
871.80	111.111
872.10	-0.000
>>>>>End Processed Spectral Data<<<<<
