SpectraSuite Data File
++++++++++++++++++++++++++++++++++++
Date: Fri May 15 17:17:08 PDT 2015
User: schluterlab
Dark Spectrum Present: Yes
Reference Spectrum Present: Yes
Number of Sampled Component Spectra: 1
Spectrometers: USB2E3373
Integration Time (usec): 3000 (USB2E3373)
Spectra Averaged: 3 (USB2E3373)
Boxcar Smoothing: 0 (USB2E3373)
Correct for Electrical Dark: No (USB2E3373)
Strobe/Lamp Enabled: No (USB2E3373)
Correct for Detector Non-linearity: No (USB2E3373)
Correct for Stray Light: No (USB2E3373)
Number of Pixels in Processed Spectrum: 2048
>>>>>Begin Processed Spectral Data<<<<<
178.53	0.000
178.91	0.000
179.29	37.500
179.67	-150.000
180.04	-71.429
180.42	100.000
180.80	-100.000
181.18	-366.667
181.56	400.000
181.94	450.000
182.31	-400.000
182.69	100.000
183.07	-133.333
183.45	-120.000
183.83	33.333
184.20	81.818
184.58	77.778
184.96	-225.000
185.34	-100.000
185.72	-400.000
186.09	76.923
186.47	200.000
186.85	133.333
187.23	77.778
187.61	200.000
187.98	33.333
188.36	-77.778
188.74	-66.667
189.12	76.471
189.49	88.889
189.87	0.000
190.25	171.429
190.63	250.000
191.00	400.000
191.38	31.579
191.76	300.000
192.14	-100.000
192.51	300.000
192.89	66.667
193.27	114.286
193.65	-0.000
194.02	136.364
194.40	120.000
194.78	-75.000
195.15	66.667
195.53	-62.500
195.91	75.000
196.29	125.000
196.66	115.385
197.04	-0.000
197.42	166.667
197.79	300.000
198.17	-7.692
198.55	100.000
198.92	66.667
199.30	200.000
199.68	20.000
200.05	-66.667
200.43	0.000
200.81	233.333
201.18	366.667
201.56	100.000
201.94	200.000
202.31	-266.667
202.69	-160.000
203.07	150.000
203.44	600.000
203.82	0.000
204.19	71.429
204.57	-233.333
204.95	25.000
205.32	30.000
205.70	85.714
206.08	100.000
206.45	211.111
206.83	114.286
207.20	-28.571
207.58	1200.000
207.96	0.000
208.33	-110.000
208.71	100.000
209.08	-116.667
209.46	100.000
209.84	20.000
210.21	-400.000
210.59	157.143
210.96	200.000
211.34	150.000
211.71	33.333
212.09	0.000
212.46	-100.000
212.84	0.000
213.22	60.000
213.59	600.000
213.97	115.385
214.34	45.455
214.72	50.000
215.09	-50.000
215.47	92.308
215.84	-9.091
216.22	-100.000
216.59	75.000
216.97	450.000
217.34	300.000
217.72	-200.000
218.09	100.000
218.47	50.000
218.84	500.000
219.22	-88.889
219.59	180.000
219.97	-33.333
220.34	75.000
220.72	85.714
221.09	25.000
221.47	350.000
221.84	-250.000
222.22	-600.000
222.59	81.818
222.97	75.000
223.34	166.667
223.72	35.714
224.09	9.524
224.46	28.571
224.84	-200.000
225.21	40.000
225.59	40.000
225.96	-200.000
226.34	225.000
226.71	71.429
227.08	116.667
227.46	-12.500
227.83	-500.000
228.21	211.111
228.58	45.455
228.95	87.500
229.33	-50.000
229.70	87.500
230.08	-62.500
230.45	-114.286
230.82	228.571
231.20	-20.000
231.57	128.571
231.95	71.429
232.32	110.000
232.69	128.571
233.07	-66.667
233.44	20.000
233.81	90.000
234.19	0.000
234.56	5.882
234.93	250.000
235.31	250.000
235.68	0.000
236.05	-53.846
236.43	0.000
236.80	23.529
237.17	31.250
237.55	-15.000
237.92	-29.630
238.29	33.333
238.67	46.667
239.04	2.941
239.41	2.439
239.79	13.333
240.16	21.951
240.53	28.947
240.91	6.522
241.28	15.873
241.65	32.143
242.02	27.397
242.40	25.000
242.77	16.949
243.14	19.697
243.51	21.250
243.89	17.241
244.26	16.092
244.63	10.714
245.00	18.557
245.38	23.711
245.75	12.360
246.12	5.172
246.49	12.397
246.87	19.231
247.24	17.647
247.61	5.263
247.98	8.943
248.36	14.375
248.73	15.789
249.10	11.688
249.47	18.354
249.84	16.993
250.22	15.882
250.59	16.993
250.96	20.188
251.33	11.047
251.70	14.118
252.08	14.721
252.45	15.842
252.82	19.095
253.19	16.590
253.56	10.748
253.94	18.018
254.31	17.826
254.68	14.035
255.05	11.417
255.42	10.480
255.79	16.988
256.16	17.510
256.54	17.537
256.91	12.167
257.28	14.870
257.65	12.360
258.02	14.184
258.39	14.815
258.76	15.385
259.14	15.947
259.51	14.239
259.88	14.089
260.25	16.013
260.62	17.014
260.99	11.186
261.36	8.219
261.73	16.456
262.10	14.590
262.47	16.564
262.85	15.047
263.22	13.538
263.59	16.199
263.96	17.081
264.33	11.818
264.70	13.095
265.07	13.988
265.44	15.581
265.81	14.972
266.18	15.301
266.55	17.224
266.92	13.212
267.29	14.621
267.66	12.532
268.03	14.660
268.40	12.010
268.77	15.775
269.14	15.588
269.51	14.910
269.88	12.968
270.25	14.031
270.62	10.732
270.99	13.043
271.36	15.403
271.73	12.207
272.10	15.085
272.47	13.948
272.84	15.594
273.21	15.545
273.58	15.422
273.95	16.018
274.32	12.009
274.69	9.729
275.06	15.402
275.43	14.966
275.80	14.790
276.17	11.724
276.54	13.919
276.91	12.719
277.28	12.664
277.65	13.636
278.02	14.255
278.39	11.160
278.76	15.094
279.13	9.544
279.50	14.496
279.87	11.879
280.23	13.978
280.60	16.179
280.97	15.152
281.34	12.308
281.71	14.784
282.08	11.452
282.45	12.133
282.82	11.776
283.19	11.219
283.56	14.451
283.92	11.195
284.29	10.577
284.66	13.953
285.03	12.967
285.40	12.098
285.77	13.533
286.14	12.816
286.51	14.207
286.87	12.980
287.24	12.155
287.61	14.462
287.98	13.333
288.35	12.305
288.72	12.434
289.08	12.847
289.45	12.654
289.82	13.112
290.19	10.922
290.56	13.208
290.93	11.616
291.29	10.940
291.66	10.866
292.03	11.164
292.40	12.742
292.77	11.164
293.13	6.981
293.50	10.622
293.87	12.519
294.24	12.519
294.60	11.326
294.97	11.161
295.34	9.816
295.71	11.028
296.08	8.371
296.44	10.242
296.81	9.444
297.18	9.130
297.55	13.415
297.91	9.589
298.28	11.478
298.65	10.312
299.02	10.377
299.38	8.755
299.75	10.207
300.12	9.162
300.48	8.827
300.85	10.013
301.22	10.130
301.59	8.816
301.95	10.633
302.32	11.933
302.69	10.572
303.05	8.663
303.42	9.465
303.79	10.047
304.15	10.275
304.52	7.729
304.89	9.123
305.25	9.685
305.62	8.751
305.99	9.591
306.35	9.249
306.72	8.661
307.09	9.692
307.45	8.266
307.82	9.259
308.19	9.059
308.55	9.160
308.92	8.715
309.29	8.827
309.65	9.150
310.02	9.351
310.38	9.550
310.75	9.836
311.12	10.549
311.48	9.756
311.85	7.435
312.22	8.544
312.58	9.554
312.95	7.684
313.31	8.696
313.68	9.005
314.05	7.041
314.41	8.247
314.78	8.247
315.14	9.866
315.51	9.110
315.87	8.094
316.24	9.606
316.61	9.154
316.97	9.425
317.34	8.398
317.70	8.795
318.07	8.942
318.43	7.745
318.80	8.523
319.16	9.570
319.53	9.307
319.89	7.677
320.26	8.502
320.62	9.829
320.99	7.516
321.35	7.811
321.72	9.761
322.08	8.661
322.45	8.934
322.81	8.939
323.18	10.108
323.54	8.784
323.91	8.179
324.27	9.082
324.64	8.614
325.00	9.307
325.37	10.101
325.73	9.157
326.10	8.629
326.46	9.865
326.83	9.974
327.19	8.980
327.56	9.123
327.92	10.211
328.29	8.750
328.65	8.302
329.01	9.375
329.38	10.138
329.74	7.932
330.11	9.453
330.47	9.740
330.84	8.750
331.20	10.456
331.56	8.704
331.93	9.680
332.29	9.716
332.66	9.050
333.02	8.829
333.38	8.983
333.75	10.440
334.11	8.505
334.48	10.607
334.84	10.531
335.20	9.881
335.57	8.704
335.93	10.659
336.29	9.853
336.66	9.173
337.02	9.572
337.38	9.444
337.75	9.909
338.11	9.558
338.47	9.763
338.84	10.259
339.20	9.415
339.56	9.266
339.93	9.669
340.29	9.358
340.65	9.677
341.02	8.954
341.38	9.292
341.74	9.187
342.11	8.579
342.47	8.185
342.83	9.689
343.20	8.885
343.56	8.957
343.92	10.009
344.28	9.906
344.65	8.204
345.01	8.902
345.37	10.177
345.73	8.954
346.10	8.887
346.46	9.167
346.82	9.247
347.19	8.063
347.55	9.607
347.91	9.790
348.27	8.569
348.63	8.859
349.00	8.614
349.36	9.892
349.72	10.033
350.08	9.426
350.45	9.497
350.81	9.136
351.17	8.388
351.53	9.959
351.89	8.010
352.26	8.800
352.62	10.887
352.98	8.916
353.34	8.615
353.70	9.871
354.07	8.710
354.43	9.608
354.79	8.340
355.15	10.079
355.51	9.731
355.87	9.628
356.24	8.157
356.60	9.378
356.96	9.841
357.32	8.387
357.68	9.461
358.04	9.208
358.40	8.682
358.77	9.729
359.13	9.367
359.49	8.860
359.85	9.126
360.21	7.496
360.57	8.646
360.93	9.607
361.29	8.384
361.66	10.188
362.02	9.091
362.38	9.292
362.74	8.478
363.10	9.406
363.46	9.340
363.82	9.917
364.18	10.037
364.54	9.632
364.90	8.746
365.26	8.443
365.62	9.124
365.98	10.044
366.35	9.541
366.71	9.608
367.07	9.507
367.43	9.346
367.79	9.682
368.15	9.404
368.51	8.667
368.87	8.040
369.23	9.170
369.59	9.038
369.95	10.044
370.31	9.682
370.67	8.582
371.03	9.037
371.39	9.774
371.75	9.524
372.11	10.200
372.47	9.172
372.83	9.013
373.19	9.272
373.55	8.881
373.91	9.575
374.27	9.922
374.63	10.266
374.99	8.794
375.35	9.749
375.71	9.650
376.07	9.972
376.42	10.272
376.78	9.597
377.14	9.411
377.50	9.960
377.86	8.969
378.22	9.445
378.58	9.872
378.94	9.137
379.30	9.732
379.66	10.658
380.02	9.503
380.38	9.191
380.74	9.276
381.09	10.552
381.45	9.664
381.81	10.056
382.17	9.645
382.53	9.931
382.89	9.981
383.25	10.828
383.61	10.854
383.97	9.270
384.32	11.132
384.68	10.402
385.04	9.559
385.40	9.396
385.76	10.943
386.12	11.125
386.48	11.303
386.83	11.224
387.19	11.111
387.55	11.041
387.91	10.880
388.27	10.562
388.62	11.580
388.98	11.111
389.34	11.305
389.70	12.181
390.06	10.824
390.42	11.205
390.77	11.642
391.13	10.719
391.49	11.255
391.85	11.501
392.20	11.425
392.56	10.617
392.92	12.214
393.28	11.792
393.64	11.772
393.99	12.665
394.35	11.259
394.71	12.835
395.07	12.256
395.42	11.840
395.78	12.378
396.14	12.295
396.50	11.795
396.85	12.299
397.21	12.343
397.57	12.288
397.92	12.522
398.28	11.897
398.64	11.325
399.00	12.528
399.35	10.948
399.71	11.832
400.07	11.971
400.42	11.444
400.78	12.982
401.14	12.160
401.49	12.686
401.85	11.883
402.21	12.530
402.57	12.562
402.92	11.857
403.28	12.594
403.63	12.926
403.99	12.500
404.35	12.555
404.70	12.917
405.06	12.221
405.42	12.181
405.77	12.260
406.13	12.456
406.49	11.901
406.84	12.408
407.20	12.884
407.55	12.234
407.91	12.968
408.27	12.492
408.62	13.169
408.98	13.001
409.34	12.825
409.69	12.403
410.05	12.869
410.40	12.840
410.76	13.028
411.11	13.312
411.47	13.544
411.83	11.927
412.18	12.484
412.54	12.609
412.89	13.239
413.25	12.996
413.60	12.857
413.96	13.436
414.31	13.659
414.67	12.444
415.03	12.916
415.38	13.838
415.74	12.899
416.09	13.129
416.45	13.504
416.80	12.888
417.16	13.674
417.51	13.591
417.87	13.820
418.22	13.472
418.58	13.311
418.93	13.856
419.29	12.868
419.64	13.156
420.00	14.232
420.35	13.313
420.71	14.399
421.06	13.321
421.42	13.281
421.77	13.526
422.12	13.167
422.48	13.698
422.83	13.457
423.19	14.165
423.54	12.816
423.90	13.840
424.25	13.662
424.61	14.198
424.96	13.647
425.31	14.500
425.67	13.263
426.02	14.723
426.38	14.590
426.73	14.467
427.09	14.747
427.44	14.412
427.79	14.732
428.15	14.199
428.50	14.052
428.85	13.821
429.21	14.431
429.56	15.094
429.92	14.381
430.27	14.286
430.62	13.434
430.98	14.278
431.33	14.458
431.68	14.129
432.04	13.583
432.39	14.604
432.74	15.033
433.10	15.402
433.45	14.337
433.80	14.800
434.16	14.294
434.51	14.409
434.86	15.854
435.22	15.311
435.57	15.845
435.92	15.868
436.28	15.683
436.63	14.489
436.98	14.311
437.34	14.701
437.69	15.742
438.04	14.701
438.39	14.478
438.75	15.118
439.10	14.771
439.45	15.825
439.81	15.352
440.16	14.905
440.51	15.463
440.86	16.556
441.22	15.158
441.57	15.728
441.92	16.474
442.27	15.854
442.63	15.953
442.98	16.312
443.33	15.359
443.68	15.491
444.03	16.095
444.39	15.740
444.74	16.165
445.09	16.537
445.44	16.638
445.79	17.483
446.15	15.749
446.50	15.696
446.85	16.419
447.20	15.746
447.55	17.411
447.91	15.736
448.26	16.904
448.61	16.868
448.96	17.040
449.31	16.127
449.66	16.318
450.02	16.258
450.37	16.953
450.72	16.438
451.07	15.949
451.42	16.167
451.77	16.516
452.12	16.388
452.47	16.613
452.83	16.372
453.18	16.445
453.53	16.751
453.88	16.454
454.23	16.472
454.58	17.443
454.93	17.655
455.28	15.810
455.63	16.863
455.98	17.799
456.34	17.114
456.69	17.217
457.04	18.021
457.39	17.011
457.74	17.110
458.09	17.187
458.44	17.028
458.79	16.583
459.14	18.307
459.49	16.896
459.84	17.202
460.19	16.930
460.54	17.359
460.89	17.727
461.24	17.578
461.59	17.280
461.94	15.912
462.29	18.034
462.64	17.807
462.99	17.806
463.34	17.107
463.69	17.825
464.04	17.131
464.39	17.283
464.74	16.871
465.09	17.405
465.44	18.234
465.79	17.460
466.14	16.819
466.49	17.596
466.84	17.311
467.19	18.210
467.54	17.433
467.89	17.562
468.24	16.910
468.59	17.333
468.94	18.159
469.29	18.623
469.64	17.977
469.99	18.220
470.34	17.474
470.68	17.823
471.03	18.259
471.38	18.046
471.73	17.647
472.08	17.707
472.43	17.181
472.78	17.272
473.13	17.483
473.48	18.111
473.83	16.999
474.17	17.876
474.52	17.932
474.87	18.061
475.22	17.389
475.57	17.956
475.92	17.663
476.27	17.870
476.61	17.477
476.96	17.624
477.31	18.713
477.66	17.921
478.01	17.350
478.36	17.429
478.70	18.053
479.05	18.022
479.40	18.071
479.75	18.457
480.10	18.126
480.45	18.200
480.79	18.580
481.14	18.084
481.49	17.488
481.84	17.857
482.19	17.072
482.53	17.506
482.88	18.425
483.23	17.179
483.58	18.302
483.92	17.135
484.27	18.140
484.62	18.602
484.97	17.579
485.31	17.630
485.66	17.303
486.01	17.855
486.36	17.042
486.70	17.333
487.05	17.623
487.40	17.322
487.75	17.521
488.09	17.800
488.44	18.054
488.79	18.080
489.13	18.830
489.48	18.127
489.83	17.803
490.17	17.708
490.52	18.430
490.87	18.001
491.22	17.956
491.56	17.979
491.91	17.256
492.26	18.571
492.60	18.234
492.95	18.396
493.30	18.075
493.64	19.253
493.99	18.792
494.34	17.718
494.68	18.476
495.03	17.178
495.37	17.861
495.72	18.476
496.07	18.390
496.41	18.443
496.76	17.826
497.11	18.258
497.45	18.902
497.80	18.819
498.14	19.175
498.49	18.639
498.84	18.663
499.18	17.369
499.53	18.502
499.87	17.558
500.22	19.189
500.56	19.213
500.91	18.775
501.26	18.191
501.60	18.003
501.95	18.971
502.29	18.692
502.64	18.533
502.98	18.500
503.33	17.819
503.67	18.602
504.02	18.964
504.36	18.753
504.71	18.232
505.06	18.571
505.40	18.477
505.75	19.536
506.09	18.500
506.44	19.148
506.78	18.316
507.13	18.407
507.47	18.329
507.82	18.483
508.16	18.119
508.51	18.730
508.85	18.681
509.19	19.266
509.54	18.820
509.88	18.177
510.23	18.182
510.57	19.134
510.92	18.870
511.26	19.040
511.61	18.977
511.95	18.795
512.30	19.401
512.64	18.976
512.98	18.417
513.33	19.194
513.67	18.818
514.02	19.851
514.36	19.886
514.70	20.047
515.05	19.095
515.39	18.654
515.74	20.479
516.08	19.605
516.42	20.554
516.77	20.421
517.11	19.644
517.46	20.227
517.80	20.501
518.14	20.147
518.49	19.111
518.83	19.988
519.17	19.102
519.52	19.716
519.86	19.328
520.20	19.745
520.55	19.262
520.89	20.514
521.23	20.076
521.58	20.631
521.92	20.064
522.26	19.714
522.61	20.195
522.95	20.132
523.29	20.267
523.64	20.330
523.98	20.156
524.32	19.781
524.66	20.102
525.01	19.675
525.35	21.646
525.69	20.000
526.04	20.370
526.38	20.623
526.72	20.733
527.06	21.012
527.41	20.844
527.75	19.303
528.09	19.402
528.43	21.810
528.78	20.264
529.12	19.935
529.46	20.143
529.80	20.393
530.15	21.056
530.49	20.741
530.83	20.178
531.17	20.215
531.51	21.477
531.86	20.258
532.20	19.833
532.54	19.537
532.88	21.081
533.22	20.296
533.57	20.773
533.91	19.648
534.25	20.182
534.59	20.654
534.93	19.509
535.27	19.099
535.62	19.637
535.96	20.809
536.30	20.515
536.64	21.296
536.98	19.582
537.32	21.622
537.66	20.266
538.01	20.979
538.35	20.943
538.69	21.105
539.03	20.369
539.37	20.256
539.71	20.382
540.05	20.095
540.39	20.845
540.73	21.409
541.07	21.340
541.42	20.901
541.76	21.060
542.10	20.165
542.44	21.126
542.78	20.509
543.12	20.192
543.46	20.654
543.80	20.888
544.14	20.628
544.48	20.253
544.82	20.232
545.16	21.380
545.50	20.694
545.84	20.326
546.18	20.780
546.52	21.269
546.86	20.776
547.20	20.959
547.54	20.565
547.88	21.060
548.22	20.053
548.56	21.240
548.90	21.631
549.24	20.317
549.58	20.592
549.92	19.228
550.26	21.245
550.60	21.636
550.94	21.509
551.28	20.325
551.62	21.385
551.96	20.902
552.30	20.614
552.64	20.592
552.98	20.886
553.32	20.970
553.66	19.956
554.00	20.000
554.34	21.566
554.68	19.838
555.02	20.908
555.36	21.017
555.69	20.147
556.03	20.914
556.37	20.285
556.71	21.733
557.05	20.656
557.39	20.520
557.73	20.990
558.07	22.926
558.41	20.904
558.75	20.187
559.08	21.828
559.42	21.984
559.76	20.416
560.10	20.795
560.44	20.402
560.78	21.678
561.12	21.157
561.45	21.644
561.79	21.779
562.13	21.150
562.47	20.504
562.81	21.830
563.15	20.522
563.48	21.429
563.82	21.002
564.16	20.404
564.50	19.932
564.84	21.151
565.17	21.663
565.51	21.585
565.85	21.811
566.19	20.756
566.52	21.381
566.86	21.401
567.20	20.050
567.54	20.681
567.88	21.617
568.21	21.210
568.55	21.413
568.89	21.304
569.23	20.366
569.56	19.790
569.90	20.625
570.24	20.357
570.57	20.182
570.91	20.774
571.25	20.224
571.59	19.620
571.92	19.733
572.26	20.139
572.60	19.876
572.93	19.893
573.27	20.157
573.61	19.720
573.95	20.180
574.28	19.677
574.62	19.781
574.96	19.471
575.29	19.536
575.63	19.228
575.97	19.978
576.30	19.623
576.64	19.417
576.98	19.949
577.31	19.907
577.65	19.931
577.98	19.717
578.32	19.625
578.66	19.235
578.99	19.303
579.33	19.885
579.67	19.657
580.00	19.519
580.34	19.975
580.67	19.461
581.01	19.693
581.35	19.466
581.68	19.622
582.02	19.692
582.35	19.443
582.69	19.517
583.02	19.526
583.36	19.872
583.70	19.990
584.03	20.517
584.37	20.638
584.70	20.247
585.04	19.819
585.37	19.926
585.71	19.773
586.04	19.743
586.38	19.472
586.72	20.029
587.05	20.075
587.39	20.772
587.72	20.530
588.06	19.817
588.39	20.165
588.73	20.360
589.06	20.874
589.40	20.774
589.73	20.774
590.07	20.506
590.40	20.937
590.73	20.923
591.07	21.162
591.40	20.926
591.74	20.814
592.07	20.918
592.41	21.025
592.74	20.350
593.08	19.420
593.41	20.428
593.75	19.954
594.08	19.808
594.41	21.033
594.75	20.038
595.08	20.507
595.42	21.016
595.75	20.729
596.09	20.680
596.42	21.166
596.75	20.782
597.09	20.820
597.42	21.138
597.75	20.660
598.09	20.462
598.42	19.720
598.76	19.949
599.09	20.513
599.42	20.121
599.76	19.827
600.09	20.513
600.42	20.205
600.76	19.911
601.09	20.229
601.42	20.016
601.76	20.802
602.09	20.297
602.42	20.935
602.76	20.331
603.09	20.930
603.42	21.572
603.76	20.403
604.09	20.049
604.42	21.404
604.76	21.629
605.09	21.572
605.42	20.903
605.75	20.359
606.09	20.340
606.42	20.183
606.75	19.784
607.09	20.923
607.42	19.584
607.75	20.071
608.08	19.766
608.42	20.649
608.75	20.819
609.08	20.678
609.41	20.964
609.75	20.615
610.08	20.769
610.41	20.290
610.74	20.527
611.07	21.757
611.41	21.277
611.74	21.535
612.07	19.914
612.40	21.444
612.73	21.243
613.07	20.416
613.40	21.280
613.73	20.537
614.06	20.979
614.39	20.023
614.72	20.728
615.06	20.726
615.39	19.487
615.72	19.537
616.05	20.615
616.38	20.627
616.71	20.122
617.05	20.321
617.38	20.490
617.71	20.252
618.04	21.206
618.37	20.933
618.70	20.198
619.03	21.458
619.36	20.405
619.69	20.470
620.03	21.768
620.36	20.315
620.69	20.557
621.02	20.107
621.35	21.494
621.68	21.599
622.01	21.750
622.34	21.229
622.67	22.319
623.00	21.516
623.33	20.655
623.66	21.017
623.99	21.029
624.32	21.445
624.65	19.549
624.99	21.144
625.32	20.015
625.65	20.660
625.98	21.273
626.31	20.200
626.64	21.317
626.97	22.862
627.30	21.454
627.63	21.490
627.96	22.462
628.29	21.369
628.62	21.534
628.95	21.242
629.28	22.177
629.61	21.137
629.94	22.678
630.26	21.443
630.59	23.101
630.92	21.846
631.25	21.128
631.58	20.485
631.91	19.956
632.24	21.904
632.57	22.614
632.90	21.352
633.23	22.471
633.56	21.662
633.89	20.592
634.22	22.593
634.55	22.109
634.88	22.095
635.20	20.897
635.53	20.933
635.86	20.156
636.19	22.510
636.52	20.918
636.85	21.464
637.18	20.503
637.51	21.258
637.83	21.945
638.16	23.602
638.49	20.163
638.82	22.500
639.15	21.167
639.48	21.733
639.81	21.060
640.13	20.058
640.46	22.741
640.79	21.649
641.12	23.191
641.45	20.721
641.77	21.481
642.10	22.591
642.43	23.151
642.76	22.442
643.09	21.325
643.41	22.006
643.74	23.064
644.07	20.854
644.40	22.635
644.73	22.242
645.05	23.826
645.38	22.575
645.71	20.567
646.04	22.262
646.36	19.326
646.69	23.022
647.02	23.819
647.35	21.455
647.67	24.132
648.00	23.134
648.33	22.184
648.66	21.864
648.98	19.765
649.31	20.165
649.64	22.449
649.96	19.449
650.29	23.509
650.62	23.077
650.94	22.407
651.27	18.436
651.60	21.802
651.92	22.902
652.25	19.183
652.58	21.667
652.90	23.156
653.23	21.008
653.56	20.643
653.88	20.619
654.21	17.863
654.54	20.713
654.86	20.883
655.19	21.345
655.52	19.582
655.84	17.275
656.17	19.816
656.49	27.046
656.82	28.637
657.15	22.127
657.47	16.557
657.80	12.415
658.13	12.442
658.45	19.276
658.78	19.159
659.10	19.837
659.43	19.819
659.75	21.559
660.08	20.828
660.41	22.880
660.73	21.823
661.06	22.357
661.38	19.374
661.71	20.329
662.03	23.605
662.36	20.659
662.68	22.345
663.01	23.581
663.33	21.810
663.66	20.930
663.98	19.535
664.31	22.388
664.63	19.816
664.96	19.130
665.28	18.322
665.61	19.481
665.93	22.174
666.26	21.692
666.58	20.582
666.91	20.235
667.23	22.877
667.56	22.038
667.88	21.823
668.21	20.525
668.53	20.567
668.86	22.877
669.18	19.575
669.50	18.402
669.83	22.093
670.15	20.513
670.48	22.727
670.80	22.581
671.13	21.029
671.45	19.635
671.77	21.459
672.10	19.406
672.42	19.663
672.75	19.361
673.07	22.898
673.39	23.486
673.72	18.935
674.04	20.000
674.37	22.246
674.69	19.272
675.01	23.333
675.34	21.396
675.66	21.528
675.98	20.399
676.31	20.642
676.63	18.290
676.95	18.864
677.28	23.294
677.60	22.892
677.92	19.954
678.25	19.912
678.57	20.130
678.89	19.538
679.22	19.239
679.54	19.076
679.86	15.905
680.18	20.583
680.51	17.803
680.83	18.290
681.15	19.200
681.48	22.131
681.80	19.215
682.12	21.371
682.44	19.247
682.77	20.088
683.09	18.993
683.41	18.864
683.73	20.737
684.06	21.903
684.38	18.065
684.70	20.697
685.02	18.672
685.34	21.344
685.67	18.762
685.99	20.434
686.31	20.177
686.63	20.408
686.96	16.350
687.28	16.970
687.60	18.821
687.92	21.010
688.24	20.363
688.56	20.742
688.89	21.205
689.21	23.111
689.53	20.882
689.85	19.070
690.17	21.652
690.49	20.095
690.82	17.718
691.14	19.048
691.46	19.626
691.78	18.018
692.10	19.140
692.42	17.532
692.74	19.231
693.06	19.144
693.39	17.873
693.71	19.005
694.03	18.245
694.35	16.822
694.67	22.727
694.99	16.710
695.31	20.366
695.63	20.250
695.95	17.929
696.27	18.135
696.59	19.444
696.91	17.927
697.23	18.509
697.56	15.842
697.88	20.215
698.20	21.640
698.52	19.765
698.84	16.268
699.16	20.500
699.48	18.797
699.80	17.370
700.12	16.712
700.44	22.409
700.76	18.023
701.08	17.576
701.40	22.289
701.72	24.383
702.04	24.752
702.36	20.067
702.68	17.117
703.00	19.091
703.32	19.648
703.64	16.667
703.96	18.551
704.28	20.859
704.60	23.492
704.91	22.397
705.23	16.611
705.55	25.088
705.87	20.939
706.19	19.630
706.51	19.588
706.83	19.614
707.15	11.838
707.47	20.448
707.79	17.448
708.11	17.500
708.43	19.750
708.74	19.638
709.06	19.718
709.38	20.489
709.70	19.527
710.02	21.019
710.34	20.124
710.66	14.744
710.98	16.887
711.29	20.000
711.61	21.356
711.93	25.081
712.25	23.368
712.57	21.245
712.89	15.672
713.20	20.415
713.52	20.557
713.84	17.747
714.16	14.089
714.48	18.065
714.80	18.910
715.11	19.757
715.43	20.063
715.75	17.000
716.07	17.608
716.39	19.128
716.70	16.974
717.02	17.939
717.34	19.838
717.66	19.027
717.97	17.391
718.29	22.594
718.61	18.898
718.93	18.992
719.24	19.772
719.56	17.671
719.88	18.213
720.20	16.667
720.51	16.092
720.83	22.008
721.15	25.210
721.46	15.726
721.78	15.020
722.10	17.100
722.42	14.938
722.73	17.959
723.05	24.490
723.37	20.339
723.68	25.676
724.00	16.667
724.32	15.111
724.63	18.182
724.95	22.271
725.27	18.433
725.58	21.186
725.90	17.460
726.22	17.375
726.53	23.390
726.85	23.221
727.16	23.774
727.48	17.814
727.80	20.648
728.11	18.220
728.43	20.392
728.74	9.677
729.06	19.200
729.38	25.564
729.69	17.530
730.01	17.308
730.32	18.284
730.64	19.081
730.96	18.113
731.27	15.667
731.59	17.966
731.90	17.197
732.22	21.136
732.53	23.920
732.85	20.213
733.16	22.896
733.48	12.950
733.80	17.391
734.11	20.678
734.43	14.777
734.74	19.091
735.06	15.635
735.37	18.429
735.69	22.222
736.00	18.467
736.32	15.436
736.63	18.310
736.95	19.454
737.26	17.082
737.58	15.436
737.89	17.582
738.21	17.293
738.52	19.342
738.83	18.777
739.15	18.777
739.46	21.654
739.78	16.117
740.09	17.974
740.41	17.754
740.72	16.535
741.04	19.838
741.35	16.170
741.66	17.062
741.98	20.408
742.29	15.347
742.61	25.131
742.92	15.166
743.23	10.648
743.55	14.932
743.86	15.789
744.18	13.876
744.49	14.362
744.80	17.935
745.12	21.390
745.43	18.537
745.74	25.000
746.06	16.585
746.37	14.660
746.68	21.327
747.00	15.426
747.31	16.418
747.62	16.505
747.94	19.139
748.25	17.327
748.56	20.765
748.88	16.754
749.19	16.489
749.50	18.719
749.82	14.151
750.13	14.679
750.44	19.549
750.75	21.269
751.07	18.978
751.38	19.157
751.69	16.471
752.01	22.868
752.32	19.522
752.63	17.787
752.94	15.517
753.26	23.013
753.57	11.312
753.88	17.257
754.19	17.500
754.51	14.463
754.82	14.575
755.13	22.500
755.44	14.919
755.75	19.922
756.07	15.564
756.38	15.094
756.69	15.326
757.00	16.667
757.31	17.320
757.63	10.061
757.94	17.778
758.25	15.342
758.56	17.287
758.87	14.448
759.18	15.265
759.50	19.636
759.81	17.057
760.12	15.161
760.43	16.061
760.74	17.593
761.05	15.077
761.36	16.761
761.67	18.485
761.99	18.367
762.30	12.727
762.61	17.787
762.92	14.932
763.23	15.315
763.54	16.822
763.85	15.254
764.16	17.012
764.47	18.145
764.78	12.088
765.10	20.875
765.41	16.719
765.72	15.556
766.03	7.895
766.34	17.153
766.65	22.709
766.96	17.677
767.27	14.362
767.58	15.517
767.89	11.348
768.20	17.045
768.51	14.835
768.82	12.315
769.13	14.286
769.44	14.592
769.75	11.416
770.06	15.086
770.37	12.981
770.68	19.289
770.99	18.552
771.30	17.157
771.61	10.860
771.92	18.103
772.23	17.734
772.54	19.892
772.85	12.963
773.16	21.910
773.47	22.876
773.78	14.379
774.09	12.575
774.39	20.000
774.70	12.102
775.01	20.000
775.32	25.714
775.63	23.140
775.94	22.137
776.25	12.598
776.56	19.167
776.87	11.538
777.18	22.222
777.48	15.517
777.79	15.652
778.10	7.619
778.41	15.315
778.72	18.254
779.03	16.541
779.34	14.894
779.65	18.493
779.95	7.534
780.26	20.000
780.57	4.065
780.88	11.811
781.19	17.241
781.50	14.729
781.80	11.243
782.11	6.918
782.42	20.000
782.73	15.108
783.04	20.000
783.34	20.139
783.65	11.111
783.96	18.033
784.27	24.828
784.57	23.577
784.88	13.281
785.19	22.000
785.50	30.000
785.81	22.414
786.11	12.931
786.42	15.534
786.73	25.455
787.04	12.245
787.34	14.286
787.65	19.048
787.96	8.850
788.26	16.364
788.57	12.821
788.88	18.750
789.19	11.905
789.49	13.913
789.80	15.306
790.11	11.111
790.41	19.091
790.72	30.435
791.03	19.318
791.33	26.250
791.64	17.500
791.95	22.093
792.25	15.957
792.56	16.854
792.87	13.699
793.17	14.493
793.48	18.667
793.79	7.500
794.09	16.250
794.40	23.585
794.70	12.621
795.01	11.382
795.32	13.675
795.62	13.333
795.93	18.627
796.23	14.151
796.54	18.750
796.85	20.588
797.15	9.859
797.46	20.833
797.76	33.333
798.07	24.419
798.37	17.105
798.68	4.545
798.99	24.691
799.29	15.714
799.60	14.493
799.90	18.667
800.21	36.066
800.51	10.769
800.82	15.254
801.12	30.435
801.43	27.869
801.73	26.984
802.04	6.000
802.34	8.955
802.65	9.615
802.95	10.714
803.26	13.462
803.56	19.608
803.87	-17.391
804.17	14.667
804.48	33.333
804.78	14.815
805.09	-10.870
805.39	-8.889
805.70	7.407
806.00	17.544
806.30	21.127
806.61	31.429
806.91	1.389
807.22	31.579
807.52	32.000
807.83	5.455
808.13	33.333
808.43	22.059
808.74	10.448
809.04	23.729
809.35	25.000
809.65	26.563
809.95	-35.135
810.26	15.909
810.56	8.219
810.86	14.286
811.17	26.000
811.47	24.490
811.77	13.158
812.08	22.727
812.38	20.755
812.69	30.000
812.99	12.121
813.29	18.421
813.59	31.429
813.90	20.455
814.20	5.128
814.50	13.462
814.81	26.415
815.11	2.128
815.41	30.508
815.72	26.190
816.02	52.941
816.32	27.083
816.62	34.146
816.93	16.216
817.23	11.429
817.53	18.750
817.84	36.957
818.14	28.846
818.44	-5.263
818.74	41.304
819.04	-12.500
819.35	18.919
819.65	11.765
819.95	8.333
820.25	9.524
820.56	55.000
820.86	0.000
821.16	42.500
821.46	19.149
821.76	40.000
822.07	-2.326
822.37	0.000
822.67	-9.375
822.97	28.571
823.27	-10.714
823.57	40.000
823.88	7.407
824.18	21.429
824.48	17.647
824.78	9.677
825.08	13.043
825.38	33.333
825.69	-12.500
825.99	15.789
826.29	25.000
826.59	6.667
826.89	-9.524
827.19	36.957
827.49	17.500
827.79	51.429
828.09	14.286
828.39	42.424
828.70	59.459
829.00	21.429
829.30	-9.524
829.60	20.000
829.90	43.750
830.20	13.158
830.50	22.222
830.80	34.783
831.10	27.273
831.40	42.424
831.70	32.258
832.00	42.857
832.30	-4.762
832.60	16.667
832.90	31.034
833.20	-30.000
833.50	33.333
833.80	-3.704
834.10	-7.692
834.40	59.375
834.70	77.778
835.00	15.789
835.30	30.769
835.60	46.667
835.90	38.710
836.20	27.273
836.50	32.143
836.80	11.538
837.10	50.000
837.40	166.667
837.70	59.091
838.00	45.455
838.30	26.087
838.60	-23.077
838.90	45.455
839.19	17.857
839.49	26.667
839.79	23.077
840.09	16.667
840.39	25.000
840.69	17.857
840.99	-11.538
841.29	68.421
841.59	-60.000
841.88	100.000
842.18	40.000
842.48	68.750
842.78	106.667
843.08	-3.704
843.38	-40.000
843.68	34.783
843.97	80.000
844.27	0.000
844.57	0.000
844.87	61.111
845.17	71.429
845.47	46.667
845.76	33.333
846.06	52.941
846.36	-30.000
846.66	-7.143
846.96	40.000
847.25	-75.000
847.55	35.714
847.85	75.000
848.15	18.182
848.44	0.000
848.74	25.000
849.04	62.963
849.34	27.273
849.63	-16.667
849.93	-160.000
850.23	33.333
850.53	70.000
850.82	-7.692
851.12	11.111
851.42	93.333
851.71	11.538
852.01	35.714
852.31	175.000
852.61	45.455
852.90	5.000
853.20	68.421
853.50	-8.333
853.79	17.391
854.09	62.500
854.39	10.526
854.68	12.500
854.98	22.581
855.28	26.923
855.57	-30.000
855.87	44.444
856.17	44.444
856.46	21.429
856.76	20.000
857.05	77.778
857.35	44.000
857.65	44.444
857.94	61.538
858.24	17.241
858.53	33.333
858.83	33.333
859.13	54.545
859.42	26.087
859.72	175.000
860.01	-266.667
860.31	32.000
860.60	14.286
860.90	-200.000
861.20	40.000
861.49	300.000
861.79	120.000
862.08	60.000
862.38	80.000
862.67	-60.000
862.97	133.333
863.26	50.000
863.56	44.444
863.85	-66.667
864.15	55.556
864.44	80.000
864.74	42.857
865.03	200.000
865.33	-120.000
865.62	166.667
865.92	-33.333
866.21	0.000
866.51	50.000
866.80	-9.091
867.10	100.000
867.39	175.000
867.69	0.000
867.98	23.077
868.27	66.667
868.57	13.333
868.86	61.111
869.16	30.769
869.45	53.333
869.75	300.000
870.04	0.000
870.33	128.571
870.63	66.667
870.92	333.333
871.22	-140.000
871.51	1500.000
871.80	100.000
872.10	300.000
>>>>>End Processed Spectral Data<<<<<
