SpectraSuite Data File
++++++++++++++++++++++++++++++++++++
Date: Fri May 15 17:23:31 PDT 2015
User: schluterlab
Dark Spectrum Present: Yes
Reference Spectrum Present: Yes
Number of Sampled Component Spectra: 1
Spectrometers: USB2E3373
Integration Time (usec): 3000 (USB2E3373)
Spectra Averaged: 3 (USB2E3373)
Boxcar Smoothing: 0 (USB2E3373)
Correct for Electrical Dark: No (USB2E3373)
Strobe/Lamp Enabled: No (USB2E3373)
Correct for Detector Non-linearity: No (USB2E3373)
Correct for Stray Light: No (USB2E3373)
Number of Pixels in Processed Spectrum: 2048
>>>>>Begin Processed Spectral Data<<<<<
178.53	0.000
178.91	0.000
179.29	112.500
179.67	-600.000
180.04	-100.000
180.42	250.000
180.80	300.000
181.18	133.333
181.56	400.000
181.94	850.000
182.31	-400.000
182.69	100.000
183.07	66.667
183.45	140.000
183.83	233.333
184.20	81.818
184.58	22.222
184.96	-200.000
185.34	-266.667
185.72	-200.000
186.09	53.846
186.47	0.000
186.85	-100.000
187.23	-33.333
187.61	-800.000
187.98	200.000
188.36	0.000
188.74	-266.667
189.12	47.059
189.49	55.556
189.87	0.000
190.25	50.000
190.63	200.000
191.00	366.667
191.38	31.579
191.76	850.000
192.14	-75.000
192.51	300.000
192.89	-100.000
193.27	-14.286
193.65	100.000
194.02	100.000
194.40	0.000
194.78	50.000
195.15	41.667
195.53	12.500
195.91	100.000
196.29	-150.000
196.66	38.462
197.04	100.000
197.42	22.222
197.79	-200.000
198.17	-53.846
198.55	600.000
198.92	-66.667
199.30	-100.000
199.68	-140.000
200.05	-333.333
200.43	0.000
200.81	66.667
201.18	66.667
201.56	500.000
201.94	300.000
202.31	-333.333
202.69	-120.000
203.07	-150.000
203.44	700.000
203.82	0.000
204.19	42.857
204.57	-233.333
204.95	175.000
205.32	-30.000
205.70	14.286
206.08	-75.000
206.45	188.889
206.83	50.000
207.20	42.857
207.58	-500.000
207.96	66.667
208.33	-50.000
208.71	50.000
209.08	-16.667
209.46	700.000
209.84	80.000
210.21	-300.000
210.59	71.429
210.96	0.000
211.34	225.000
211.71	33.333
212.09	0.000
212.46	-500.000
212.84	0.000
213.22	70.000
213.59	-150.000
213.97	53.846
214.34	100.000
214.72	83.333
215.09	225.000
215.47	-23.077
215.84	-18.182
216.22	-66.667
216.59	62.500
216.97	300.000
217.34	-25.000
217.72	-120.000
218.09	-137.500
218.47	175.000
218.84	300.000
219.22	-111.111
219.59	160.000
219.97	-66.667
220.34	-150.000
220.72	-14.286
221.09	-25.000
221.47	100.000
221.84	-350.000
222.22	-350.000
222.59	18.182
222.97	150.000
223.34	100.000
223.72	14.286
224.09	19.048
224.46	64.286
224.84	66.667
225.21	120.000
225.59	6.667
225.96	-400.000
226.34	150.000
226.71	28.571
227.08	33.333
227.46	37.500
227.83	-300.000
228.21	77.778
228.58	45.455
228.95	37.500
229.33	40.000
229.70	87.500
230.08	-100.000
230.45	-57.143
230.82	42.857
231.20	-60.000
231.57	78.571
231.95	185.714
232.32	-20.000
232.69	28.571
233.07	100.000
233.44	40.000
233.81	-10.000
234.19	100.000
234.56	5.882
234.93	-400.000
235.31	250.000
235.68	-140.000
236.05	-76.923
236.43	-30.000
236.80	47.059
237.17	43.750
237.55	60.000
237.92	25.926
238.29	30.556
238.67	40.000
239.04	23.529
239.41	4.878
239.79	20.000
240.16	51.220
240.53	23.684
240.91	23.913
241.28	41.270
241.65	44.643
242.02	56.164
242.40	43.333
242.77	33.898
243.14	30.303
243.51	26.250
243.89	34.483
244.26	18.391
244.63	32.143
245.00	37.113
245.38	38.144
245.75	23.596
246.12	28.448
246.49	26.446
246.87	50.000
247.24	30.252
247.61	28.070
247.98	34.959
248.36	29.375
248.73	30.921
249.10	33.766
249.47	37.342
249.84	30.719
250.22	30.000
250.59	38.562
250.96	34.272
251.33	29.651
251.70	33.529
252.08	36.548
252.45	30.198
252.82	40.201
253.19	35.484
253.56	28.505
253.94	34.685
254.31	35.217
254.68	39.912
255.05	31.102
255.42	35.371
255.79	36.293
256.16	36.187
256.54	37.687
256.91	32.700
257.28	32.342
257.65	37.079
258.02	32.979
258.39	35.690
258.76	35.897
259.14	34.884
259.51	33.981
259.88	37.457
260.25	34.314
260.62	35.764
260.99	34.237
261.36	30.137
261.73	35.443
262.10	31.307
262.47	35.583
262.85	32.915
263.22	36.308
263.59	34.579
263.96	34.783
264.33	36.667
264.70	31.250
265.07	35.417
265.44	35.694
265.81	37.288
266.18	33.060
266.55	32.134
266.92	34.456
267.29	33.681
267.66	34.271
268.03	31.937
268.40	32.637
268.77	38.770
269.14	33.094
269.51	33.419
269.88	33.167
270.25	31.888
270.62	31.707
270.99	32.992
271.36	33.007
271.73	34.038
272.10	33.333
272.47	33.570
272.84	33.911
273.21	38.283
273.58	34.940
273.95	35.240
274.32	32.794
274.69	29.638
275.06	33.929
275.43	31.519
275.80	32.892
276.17	32.414
276.54	32.120
276.91	32.675
277.28	31.004
277.65	31.198
278.02	33.191
278.39	31.072
278.76	33.124
279.13	29.461
279.50	31.723
279.87	33.909
280.23	28.817
280.60	31.384
280.97	31.313
281.34	28.462
281.71	32.854
282.08	30.879
282.45	32.877
282.82	30.309
283.19	32.495
283.56	30.058
283.92	29.981
284.29	27.500
284.66	30.814
285.03	31.238
285.40	28.922
285.77	30.756
286.14	31.227
286.51	30.627
286.87	28.336
287.24	31.123
287.61	29.453
287.98	31.228
288.35	29.983
288.72	30.298
289.08	27.604
289.45	29.525
289.82	28.497
290.19	28.669
290.56	27.616
290.93	27.273
291.29	26.656
291.66	28.819
292.03	26.635
292.40	26.290
292.77	27.751
293.13	25.000
293.50	25.190
293.87	26.412
294.24	26.739
294.60	23.994
294.97	26.488
295.34	24.233
295.71	24.888
296.08	25.112
296.44	23.186
296.81	25.972
297.18	24.348
297.55	25.474
297.91	24.521
298.28	22.691
298.65	23.745
299.02	24.798
299.38	24.213
299.75	21.793
300.12	22.644
300.48	23.452
300.85	22.180
301.22	22.338
301.59	23.421
301.95	22.911
302.32	24.643
302.69	22.512
303.05	22.277
303.42	20.922
303.79	21.379
304.15	22.700
304.52	21.165
304.89	21.637
305.25	21.186
305.62	21.237
305.99	21.520
306.35	20.231
306.72	20.247
307.09	20.753
307.45	20.321
307.82	21.991
308.19	22.067
308.55	20.174
308.92	21.133
309.29	21.229
309.65	20.022
310.02	20.792
310.38	21.625
310.75	21.530
311.12	21.851
311.48	19.830
311.85	21.047
312.22	20.148
312.58	19.958
312.95	19.637
313.31	22.050
313.68	21.047
314.05	20.204
314.41	20.825
314.78	19.897
315.14	19.836
315.51	20.600
315.87	20.902
316.24	20.728
316.61	19.980
316.97	20.635
317.34	19.141
317.70	19.790
318.07	20.096
318.43	20.588
318.80	18.561
319.16	20.117
319.53	20.038
319.89	19.291
320.26	20.547
320.62	21.063
320.99	20.251
321.35	20.349
321.72	20.561
322.08	19.839
322.45	20.203
322.81	19.057
323.18	18.351
323.54	19.402
323.91	20.156
324.27	19.043
324.64	20.225
325.00	20.255
325.37	20.018
325.73	20.036
326.10	19.346
326.46	20.717
326.83	19.773
327.19	19.442
327.56	20.070
327.92	19.718
328.29	18.661
328.65	20.000
329.01	19.118
329.38	20.000
329.74	19.358
330.11	19.926
330.47	19.109
330.84	19.135
331.20	20.722
331.56	18.796
331.93	19.635
332.29	19.432
332.66	18.100
333.02	18.401
333.38	18.148
333.75	19.689
334.11	18.890
334.48	19.402
334.84	18.590
335.20	18.664
335.57	17.316
335.93	19.783
336.29	19.061
336.66	18.165
337.02	16.450
337.38	18.333
337.75	18.455
338.11	18.124
338.47	19.708
338.84	19.501
339.20	18.921
339.56	18.073
339.93	19.964
340.29	18.073
340.65	18.459
341.02	18.883
341.38	18.142
341.74	17.580
342.11	18.198
342.47	18.416
342.83	19.031
343.20	18.118
343.56	18.261
343.92	17.715
344.28	19.300
344.65	18.739
345.01	18.583
345.37	18.587
345.73	18.661
346.10	19.413
346.46	17.998
346.82	18.576
347.19	17.789
347.55	18.045
347.91	19.013
348.27	18.674
348.63	17.717
349.00	18.540
349.36	18.204
349.72	19.735
350.08	19.016
350.45	19.393
350.81	18.023
351.17	16.694
351.53	18.776
351.89	16.763
352.26	18.400
352.62	17.984
352.98	17.831
353.34	16.828
353.70	18.689
354.07	17.903
354.43	18.014
354.79	18.002
355.15	18.810
355.51	18.513
355.87	18.042
356.24	17.292
356.60	17.542
356.96	18.175
357.32	19.409
357.68	18.686
358.04	18.174
358.40	17.846
358.77	18.660
359.13	18.175
359.49	17.797
359.85	17.785
360.21	17.384
360.57	17.062
360.93	17.171
361.29	17.069
361.66	18.182
362.02	18.788
362.38	17.289
362.74	18.168
363.10	17.381
363.46	17.939
363.82	18.557
364.18	17.417
364.54	17.279
364.90	17.348
365.26	17.977
365.62	17.591
365.98	17.449
366.35	17.771
366.71	17.664
367.07	17.925
367.43	17.398
367.79	17.314
368.15	17.875
368.51	18.281
368.87	16.726
369.23	17.690
369.59	18.149
369.95	17.889
370.31	17.775
370.67	17.164
371.03	16.953
371.39	16.849
371.75	17.289
372.11	18.188
372.47	17.234
372.83	17.530
373.19	17.974
373.55	17.329
373.91	17.495
374.27	17.434
374.63	17.516
374.99	17.021
375.35	17.688
375.71	17.203
376.07	17.205
376.42	17.347
376.78	17.517
377.14	16.926
377.50	17.995
377.86	18.005
378.22	17.358
378.58	17.308
378.94	17.391
379.30	17.779
379.66	17.367
380.02	17.781
380.38	16.190
380.74	16.577
381.09	17.669
381.45	16.942
381.81	16.533
382.17	17.322
382.53	16.927
382.89	16.824
383.25	17.237
383.61	17.500
383.97	17.016
384.32	17.198
384.68	16.904
385.04	17.218
385.40	16.739
385.76	18.428
386.12	17.400
386.48	17.561
386.83	16.931
387.19	18.559
387.55	17.754
387.91	17.115
388.27	16.911
388.62	17.369
388.98	17.864
389.34	18.301
389.70	17.589
390.06	17.118
390.42	17.034
390.77	17.005
391.13	16.898
391.49	16.882
391.85	16.504
392.20	17.828
392.56	16.720
392.92	16.676
393.28	17.925
393.64	17.417
393.99	18.683
394.35	17.710
394.71	17.305
395.07	17.473
395.42	16.758
395.78	17.524
396.14	18.096
396.50	17.438
396.85	17.965
397.21	16.604
397.57	17.806
397.92	18.214
398.28	17.529
398.64	16.506
399.00	16.930
399.35	16.986
399.71	17.921
400.07	17.715
400.42	16.830
400.78	18.004
401.14	18.088
401.49	17.927
401.85	18.160
402.21	17.651
402.57	17.438
402.92	17.629
403.28	17.732
403.63	17.844
403.99	16.709
404.35	17.989
404.70	17.619
405.06	17.391
405.42	16.905
405.77	17.257
406.13	17.579
406.49	17.466
406.84	17.604
407.20	18.061
407.55	17.321
407.91	18.048
408.27	17.846
408.62	18.954
408.98	17.190
409.34	18.216
409.69	17.829
410.05	17.611
410.40	17.407
410.76	18.396
411.11	17.563
411.47	18.014
411.83	16.949
412.18	17.889
412.54	16.292
412.89	16.933
413.25	18.231
413.60	17.764
413.96	16.933
414.31	17.744
414.67	17.640
415.03	17.577
415.38	17.689
415.74	18.046
416.09	17.636
416.45	18.433
416.80	17.184
417.16	18.646
417.51	18.388
417.87	18.774
418.22	17.293
418.58	18.395
418.93	18.746
419.29	16.901
419.64	18.146
420.00	18.199
420.35	18.090
420.71	18.348
421.06	17.741
421.42	19.111
421.77	18.902
422.12	17.764
422.48	17.380
422.83	18.155
423.19	18.284
423.54	17.519
423.90	18.021
424.25	18.083
424.61	18.360
424.96	17.480
425.31	18.313
425.67	18.427
426.02	18.257
426.38	18.096
426.73	18.341
427.09	18.924
427.44	18.941
427.79	19.446
428.15	18.993
428.50	18.110
428.85	18.305
429.21	18.166
429.56	19.030
429.92	19.569
430.27	18.947
430.62	17.564
430.98	17.622
431.33	18.980
431.68	18.629
432.04	18.558
432.39	18.711
432.74	18.400
433.10	19.310
433.45	18.399
433.80	18.572
434.16	19.280
434.51	19.247
434.86	19.919
435.22	19.181
435.57	18.902
435.92	18.623
436.28	18.962
436.63	19.966
436.98	18.830
437.34	18.391
437.69	19.261
438.04	19.145
438.39	18.754
438.75	19.126
439.10	18.959
439.45	19.537
439.81	19.205
440.16	19.121
440.51	19.940
440.86	19.819
441.22	19.061
441.57	18.764
441.92	19.780
442.27	19.845
442.63	19.647
442.98	19.299
443.33	19.421
443.68	19.045
444.03	20.368
444.39	20.069
444.74	20.067
445.09	19.989
445.44	20.456
445.79	20.526
446.15	19.604
446.50	19.246
446.85	20.351
447.20	19.708
447.55	20.424
447.91	19.797
448.26	20.262
448.61	20.495
448.96	20.425
449.31	19.422
449.66	21.312
450.02	20.536
450.37	20.273
450.72	19.989
451.07	20.443
451.42	19.850
451.77	20.735
452.12	20.335
452.47	20.155
452.83	20.612
453.18	20.936
453.53	21.113
453.88	20.886
454.23	21.143
454.58	20.718
454.93	21.198
455.28	19.492
455.63	20.707
455.98	21.106
456.34	20.754
456.69	21.665
457.04	20.416
457.39	20.535
457.74	19.226
458.09	19.835
458.44	20.187
458.79	20.336
459.14	21.110
459.49	20.955
459.84	20.756
460.19	20.752
460.54	21.210
460.89	20.625
461.24	20.186
461.59	21.556
461.94	20.314
462.29	20.627
462.64	20.797
462.99	21.259
463.34	20.167
463.69	20.399
464.04	20.642
464.39	21.043
464.74	20.736
465.09	21.834
465.44	21.985
465.79	19.955
466.14	20.182
466.49	20.184
466.84	21.178
467.19	21.402
467.54	20.945
467.89	20.467
468.24	20.620
468.59	21.524
468.94	20.444
469.29	20.918
469.64	21.736
469.99	21.934
470.34	20.000
470.68	22.222
471.03	21.868
471.38	21.969
471.73	22.129
472.08	20.896
472.43	21.342
472.78	22.070
473.13	21.293
473.48	21.564
473.83	21.046
474.17	22.798
474.52	21.634
474.87	21.879
475.22	21.293
475.57	20.723
475.92	21.558
476.27	21.420
476.61	22.222
476.96	21.584
477.31	21.850
477.66	21.292
478.01	21.673
478.36	21.187
478.70	21.316
479.05	22.582
479.40	22.523
479.75	20.699
480.10	21.505
480.45	21.500
480.79	21.903
481.14	21.465
481.49	21.478
481.84	21.766
482.19	21.328
482.53	20.815
482.88	21.575
483.23	21.401
483.58	21.226
483.92	21.200
484.27	21.057
484.62	20.708
484.97	21.227
485.31	21.134
485.66	20.688
486.01	21.234
486.36	20.664
486.70	20.144
487.05	19.634
487.40	20.631
487.75	20.056
488.09	19.901
488.44	20.323
488.79	20.247
489.13	21.595
489.48	21.462
489.83	21.031
490.17	21.573
490.52	22.079
490.87	22.490
491.22	21.968
491.56	21.679
491.91	21.750
492.26	22.120
492.60	21.833
492.95	23.119
493.30	22.228
493.64	22.790
493.99	22.995
494.34	21.408
494.68	21.810
495.03	21.655
495.37	22.375
495.72	22.463
496.07	22.634
496.41	21.981
496.76	22.018
497.11	22.310
497.45	22.768
497.80	22.957
498.14	22.057
498.49	22.194
498.84	22.705
499.18	22.590
499.53	22.619
499.87	22.033
500.22	22.107
500.56	22.189
500.91	22.139
501.26	22.195
501.60	22.577
501.95	22.416
502.29	22.373
502.64	22.346
502.98	22.792
503.33	21.278
503.67	22.313
504.02	23.021
504.36	23.107
504.71	21.414
505.06	22.194
505.40	22.690
505.75	22.526
506.09	22.808
506.44	23.152
506.78	22.704
507.13	23.009
507.47	22.611
507.82	22.756
508.16	22.293
508.51	23.033
508.85	22.972
509.19	21.927
509.54	22.627
509.88	22.276
510.23	22.700
510.57	23.784
510.92	22.281
511.26	23.295
511.61	22.772
511.95	22.849
512.30	22.506
512.64	23.372
512.98	22.459
513.33	23.559
513.67	22.854
514.02	23.970
514.36	23.257
514.70	24.301
515.05	24.266
515.39	22.845
515.74	23.952
516.08	23.551
516.42	24.441
516.77	23.757
517.11	23.798
517.46	25.254
517.80	23.957
518.14	24.189
518.49	22.837
518.83	23.998
519.17	22.741
519.52	23.505
519.86	24.010
520.20	24.666
520.55	24.265
520.89	24.529
521.23	24.509
521.58	24.606
521.92	24.167
522.26	24.333
522.61	24.221
522.95	25.563
523.29	25.540
523.64	24.651
523.98	25.340
524.32	23.905
524.66	25.224
525.01	25.649
525.35	25.405
525.69	25.118
526.04	24.934
526.38	25.292
526.72	23.806
527.06	24.060
527.41	24.736
527.75	24.464
528.09	25.116
528.43	25.861
528.78	25.017
529.12	24.903
529.46	24.172
529.80	24.763
530.15	25.677
530.49	24.512
530.83	25.308
531.17	25.789
531.51	25.513
531.86	25.289
532.20	24.217
532.54	25.255
532.88	26.146
533.22	25.403
533.57	24.771
533.91	23.695
534.25	25.846
534.59	24.824
534.93	24.733
535.27	23.794
535.62	24.368
535.96	24.853
536.30	25.330
536.64	25.569
536.98	24.878
537.32	25.605
537.66	25.386
538.01	24.895
538.35	25.312
538.69	24.967
539.03	24.334
539.37	25.034
539.71	24.131
540.05	25.458
540.39	24.584
540.73	24.477
541.07	25.691
541.42	25.605
541.76	25.258
542.10	25.189
542.44	25.017
542.78	24.226
543.12	24.794
543.46	25.800
543.80	25.538
544.14	23.632
544.48	25.516
544.82	24.880
545.16	25.205
545.50	25.033
545.84	25.779
546.18	25.745
546.52	24.730
546.86	25.665
547.20	25.465
547.54	25.583
547.88	25.611
548.22	24.392
548.56	24.077
548.90	26.078
549.24	25.138
549.58	24.612
549.92	25.447
550.26	24.908
550.60	26.171
550.94	26.064
551.28	25.039
551.62	25.615
551.96	25.489
552.30	25.950
552.64	24.683
552.98	25.738
553.32	25.749
553.66	25.181
554.00	25.328
554.34	26.662
554.68	25.295
555.02	26.414
555.36	25.430
555.69	26.593
556.03	25.981
556.37	24.840
556.71	24.982
557.05	25.727
557.39	25.279
557.73	25.787
558.07	26.848
558.41	26.034
558.75	25.253
559.08	24.823
559.42	25.635
559.76	25.781
560.10	25.382
560.44	26.284
560.78	25.804
561.12	24.753
561.45	26.072
561.79	26.331
562.13	26.473
562.47	25.899
562.81	26.225
563.15	24.894
563.48	25.672
563.82	26.012
564.16	26.045
564.50	24.392
564.84	26.238
565.17	25.017
565.51	27.049
565.85	25.377
566.19	25.928
566.52	26.340
566.86	26.221
567.20	25.529
567.54	25.791
567.88	24.956
568.21	24.830
568.55	24.130
568.89	24.641
569.23	24.169
569.56	24.518
569.90	23.833
570.24	23.781
570.57	23.455
570.91	23.771
571.25	23.249
571.59	22.579
571.92	22.222
572.26	21.528
572.60	22.450
572.93	21.964
573.27	22.665
573.61	22.345
573.95	22.802
574.28	22.007
574.62	21.917
574.96	22.039
575.29	22.287
575.63	21.119
575.97	21.876
576.30	22.154
576.64	21.669
576.98	22.059
577.31	22.512
577.65	22.431
577.98	21.957
578.32	21.502
578.66	21.277
578.99	21.175
579.33	21.234
579.67	21.625
580.00	21.696
580.34	21.965
580.67	21.390
581.01	21.758
581.35	21.705
581.68	21.512
582.02	21.637
582.35	21.188
582.69	21.757
583.02	21.491
583.36	21.647
583.70	22.170
584.03	22.324
584.37	22.558
584.70	21.593
585.04	21.710
585.37	21.916
585.71	21.846
586.04	22.037
586.38	21.819
586.72	22.410
587.05	22.646
587.39	22.896
587.72	22.608
588.06	22.032
588.39	22.301
588.73	23.016
589.06	23.157
589.40	22.295
589.73	23.366
590.07	23.452
590.40	23.878
590.73	23.806
591.07	23.537
591.40	23.375
591.74	23.891
592.07	24.722
592.41	24.072
592.74	24.094
593.08	23.472
593.41	23.624
593.75	22.440
594.08	23.103
594.41	23.544
594.75	23.053
595.08	23.156
595.42	23.666
595.75	23.620
596.09	23.143
596.42	23.109
596.75	23.446
597.09	24.191
597.42	24.164
597.75	23.912
598.09	22.861
598.42	23.601
598.76	23.166
599.09	23.397
599.42	23.039
599.76	22.573
600.09	23.718
600.42	22.934
600.76	23.180
601.09	22.328
601.42	23.188
601.76	22.906
602.09	22.814
602.42	23.631
602.76	23.939
603.09	23.380
603.42	24.164
603.76	23.226
604.09	24.139
604.42	23.139
604.76	24.388
605.09	23.263
605.42	24.018
605.75	23.292
606.09	23.057
606.42	23.603
606.75	23.506
607.09	24.264
607.42	22.818
607.75	23.490
608.08	22.956
608.42	24.029
608.75	24.193
609.08	23.617
609.41	23.858
609.75	25.101
610.08	24.513
610.41	23.768
610.74	24.135
611.07	24.703
611.41	24.546
611.74	24.467
612.07	24.143
612.40	24.398
612.73	24.576
613.07	24.128
613.40	24.672
613.73	23.335
614.06	24.374
614.39	25.268
614.72	24.706
615.06	24.190
615.39	23.690
615.72	24.543
616.05	25.028
616.38	23.875
616.71	25.015
617.05	25.077
617.38	25.079
617.71	24.780
618.04	25.587
618.37	26.103
618.70	24.488
619.03	25.625
619.36	25.181
619.69	26.687
620.03	27.611
620.36	25.823
620.69	26.053
621.02	25.841
621.35	26.307
621.68	27.551
622.01	27.417
622.34	27.135
622.67	26.814
623.00	27.335
623.33	25.838
623.66	25.879
623.99	25.567
624.32	26.388
624.65	25.865
624.99	26.411
625.32	25.550
625.65	27.573
625.98	28.122
626.31	25.935
626.64	27.123
626.97	26.876
627.30	27.145
627.63	29.203
627.96	26.056
628.29	26.920
628.62	28.614
628.95	27.455
629.28	28.730
629.61	28.016
629.94	28.641
630.26	27.668
630.59	29.553
630.92	28.205
631.25	27.487
631.58	28.524
631.91	28.509
632.24	27.752
632.57	30.000
632.90	29.419
633.23	30.000
633.56	29.975
633.89	29.716
634.22	31.358
634.55	30.877
634.88	30.140
635.20	29.231
635.53	28.400
635.86	29.519
636.19	30.789
636.52	28.316
636.85	28.908
637.18	28.679
637.51	27.799
637.83	28.778
638.16	31.514
638.49	28.610
638.82	29.605
639.15	29.444
639.48	29.849
639.81	29.428
640.13	30.303
640.46	28.863
640.79	30.339
641.12	30.428
641.45	30.180
641.77	30.667
642.10	29.542
642.43	31.029
642.76	32.673
643.09	33.441
643.41	32.201
643.74	32.619
644.07	31.527
644.40	33.446
644.73	33.100
645.05	31.879
645.38	32.981
645.71	32.979
646.04	31.777
646.36	31.028
646.69	34.353
647.02	32.514
647.35	32.276
647.67	32.358
648.00	33.022
648.33	32.765
648.66	31.186
648.98	28.978
649.31	32.066
649.64	28.728
649.96	30.794
650.29	30.835
650.62	33.333
650.94	31.852
651.27	31.099
651.60	34.775
651.92	31.993
652.25	30.373
652.58	31.167
652.90	30.875
653.23	32.269
653.56	27.919
653.88	29.897
654.21	30.648
654.54	29.032
654.86	30.730
655.19	28.947
655.52	27.012
655.84	23.449
656.17	25.692
656.49	33.714
656.82	33.731
657.15	24.810
657.47	18.159
657.80	13.557
658.13	13.002
658.45	20.111
658.78	19.345
659.10	19.108
659.43	19.675
659.75	20.276
660.08	22.276
660.41	24.413
660.73	25.829
661.06	32.236
661.38	30.137
661.71	26.899
662.03	30.472
662.36	31.429
662.68	31.416
663.01	32.096
663.33	30.858
663.66	31.395
663.98	30.698
664.31	31.130
664.63	32.719
664.96	31.522
665.28	30.684
665.61	30.952
665.93	33.478
666.26	34.273
666.58	29.978
666.91	34.588
667.23	34.198
667.56	33.412
667.88	32.374
668.21	33.413
668.53	34.043
668.86	33.491
669.18	31.368
669.50	31.961
669.83	33.256
670.15	33.333
670.48	33.493
670.80	29.493
671.13	33.781
671.45	28.995
671.77	32.833
672.10	30.495
672.42	31.086
672.75	30.195
673.07	30.233
673.39	31.376
673.72	27.613
674.04	31.250
674.37	33.051
674.69	29.979
675.01	31.333
675.34	31.081
675.66	35.880
675.98	34.368
676.31	30.734
676.63	30.166
676.95	30.682
677.28	34.353
677.60	35.904
677.92	31.193
678.25	33.042
678.57	30.087
678.89	31.092
679.22	31.991
679.54	29.317
679.86	28.032
680.18	31.456
680.51	28.598
680.83	27.237
681.15	29.800
681.48	32.377
681.80	28.719
682.12	30.444
682.44	29.707
682.77	33.554
683.09	31.121
683.41	29.318
683.73	30.876
684.06	34.292
684.38	29.247
684.70	29.847
685.02	30.498
685.34	30.040
685.67	30.394
685.99	28.752
686.31	26.903
686.63	32.282
686.96	28.517
687.28	27.879
687.60	27.186
687.92	28.889
688.24	27.621
688.56	33.843
688.89	30.357
689.21	29.556
689.53	30.394
689.85	30.930
690.17	29.688
690.49	32.151
690.82	30.825
691.14	29.286
691.46	31.776
691.78	29.730
692.10	32.043
692.42	29.654
692.74	30.983
693.06	30.405
693.39	30.090
693.71	29.638
694.03	28.868
694.35	28.505
694.67	31.566
694.99	31.070
695.31	32.898
695.63	30.750
695.95	29.798
696.27	29.016
696.59	32.222
696.91	33.333
697.23	28.278
697.56	29.455
697.88	32.043
698.20	28.929
698.52	32.706
698.84	26.316
699.16	32.250
699.48	29.574
699.80	29.280
700.12	30.458
700.44	32.213
700.76	30.523
701.08	33.333
701.40	32.530
701.72	38.580
702.04	30.033
702.36	32.441
702.68	31.231
703.00	33.636
703.32	31.672
703.64	30.508
703.96	32.174
704.28	32.515
704.60	30.794
704.91	30.915
705.23	30.233
705.55	37.809
705.87	32.852
706.19	36.667
706.51	29.553
706.83	34.405
707.15	27.414
707.47	27.171
707.79	28.906
708.11	31.250
708.43	28.500
708.74	30.233
709.06	30.986
709.38	33.333
709.70	31.953
710.02	28.981
710.34	35.294
710.66	25.962
710.98	30.464
711.29	34.754
711.61	30.169
711.93	34.853
712.25	34.708
712.57	35.165
712.89	33.209
713.20	36.678
713.52	30.662
713.84	29.010
714.16	31.271
714.48	31.613
714.80	33.654
715.11	36.474
715.43	25.392
715.75	30.000
716.07	29.236
716.39	30.201
716.70	29.889
717.02	27.863
717.34	31.984
717.66	26.991
717.97	29.565
718.29	31.381
718.61	29.134
718.93	28.682
719.24	33.840
719.56	34.137
719.88	28.522
720.20	33.712
720.51	31.034
720.83	25.097
721.15	34.034
721.46	30.242
721.78	27.668
722.10	29.368
722.42	27.801
722.73	32.245
723.05	37.551
723.37	31.780
723.68	35.586
724.00	31.197
724.32	32.000
724.63	30.000
724.95	35.371
725.27	33.641
725.58	32.627
725.90	28.571
726.22	26.255
726.53	31.186
726.85	28.839
727.16	33.962
727.48	27.935
727.80	33.198
728.11	30.508
728.43	27.451
728.74	26.613
729.06	29.600
729.38	30.827
729.69	29.084
730.01	25.769
730.32	28.731
730.64	28.622
730.96	29.434
731.27	30.667
731.59	27.119
731.90	28.025
732.22	29.022
732.53	27.243
732.85	31.206
733.16	33.333
733.48	28.058
733.80	28.986
734.11	28.814
734.43	30.241
734.74	27.879
735.06	25.407
735.37	24.471
735.69	28.956
736.00	27.178
736.32	29.195
736.63	28.873
736.95	32.082
737.26	25.267
737.58	27.517
737.89	29.304
738.21	29.323
738.52	28.807
738.83	28.384
739.15	31.004
739.46	27.953
739.78	26.374
740.09	27.451
740.41	28.986
740.72	27.165
741.04	29.960
741.35	28.511
741.66	30.332
741.98	34.184
742.29	34.653
742.61	28.272
742.92	22.749
743.23	22.685
743.55	35.294
743.86	35.407
744.18	31.579
744.49	32.447
744.80	26.087
745.12	40.642
745.43	29.268
745.74	30.208
746.06	28.293
746.37	32.461
746.68	29.384
747.00	33.511
747.31	34.826
747.62	28.641
747.94	31.579
748.25	27.723
748.56	32.240
748.88	31.937
749.19	37.234
749.50	34.483
749.82	26.415
750.13	21.560
750.44	36.842
750.75	28.731
751.07	32.482
751.38	32.950
751.69	26.667
752.01	30.233
752.32	26.693
752.63	26.482
752.94	21.983
753.26	35.565
753.57	28.054
753.88	34.956
754.19	30.000
754.51	26.446
754.82	26.316
755.13	36.667
755.44	29.435
755.75	33.984
756.07	28.016
756.38	21.887
756.69	27.969
757.00	29.333
757.31	27.451
757.63	28.659
757.94	27.778
758.25	23.836
758.56	24.734
758.87	22.663
759.18	26.791
759.50	26.909
759.81	30.100
760.12	30.645
760.43	27.879
760.74	27.160
761.05	23.077
761.36	26.136
761.67	27.576
761.99	29.592
762.30	25.818
762.61	26.877
762.92	27.602
763.23	27.928
763.54	28.972
763.85	25.000
764.16	24.896
764.47	28.629
764.78	28.205
765.10	31.987
765.41	24.921
765.72	27.619
766.03	25.188
766.34	27.372
766.65	28.685
766.96	29.798
767.27	26.596
767.58	27.011
767.89	27.660
768.20	22.727
768.51	33.516
768.82	24.138
769.13	23.502
769.44	26.180
769.75	23.288
770.06	26.293
770.37	25.000
770.68	27.411
770.99	34.389
771.30	30.392
771.61	33.032
771.92	30.172
772.23	32.020
772.54	28.495
772.85	38.272
773.16	32.022
773.47	37.908
773.78	34.641
774.09	19.760
774.39	30.667
774.70	33.121
775.01	31.034
775.32	25.000
775.63	34.711
775.94	29.008
776.25	31.496
776.56	35.833
776.87	27.885
777.18	23.077
777.48	34.483
777.79	28.696
778.10	18.095
778.41	32.432
778.72	41.270
779.03	30.075
779.34	32.624
779.65	30.137
779.95	23.973
780.26	26.897
780.57	19.512
780.88	22.047
781.19	31.034
781.50	41.860
781.80	19.527
782.11	17.610
782.42	28.462
782.73	28.777
783.04	25.185
783.34	28.472
783.65	17.094
783.96	29.508
784.27	35.862
784.57	30.894
784.88	34.375
785.19	36.000
785.50	38.000
785.81	32.759
786.11	18.103
786.42	35.922
786.73	35.455
787.04	27.551
787.34	28.571
787.65	19.048
787.96	17.699
788.26	35.455
788.57	31.624
788.88	32.813
789.19	25.397
789.49	22.609
789.80	27.551
790.11	28.283
790.41	25.455
790.72	26.087
791.03	47.727
791.33	38.750
791.64	47.500
791.95	30.233
792.25	34.043
792.56	39.326
792.87	42.466
793.17	26.087
793.48	20.000
793.79	36.250
794.09	35.000
794.40	34.906
794.70	33.981
795.01	21.951
795.32	20.513
795.62	17.143
795.93	26.471
796.23	41.509
796.54	19.792
796.85	42.647
797.15	18.310
797.46	41.667
797.76	39.394
798.07	24.419
798.37	18.421
798.68	21.212
798.99	17.284
799.29	32.857
799.60	26.087
799.90	40.000
800.21	45.902
800.51	41.538
800.82	33.898
801.12	34.783
801.43	54.098
801.73	31.746
802.04	42.000
802.34	25.373
802.65	30.769
802.95	23.214
803.26	1.923
803.56	45.098
803.87	30.435
804.17	36.000
804.48	41.270
804.78	29.630
805.09	45.652
805.39	33.333
805.70	12.963
806.00	35.088
806.30	33.803
806.61	25.714
806.91	22.222
807.22	30.263
807.52	45.333
807.83	12.727
808.13	23.611
808.43	41.176
808.74	28.358
809.04	35.593
809.35	36.538
809.65	42.187
809.95	-27.027
810.26	20.455
810.56	28.767
810.86	26.190
811.17	32.000
811.47	32.653
811.77	10.526
812.08	20.455
812.38	15.094
812.69	22.500
812.99	-9.091
813.29	15.789
813.59	11.429
813.90	25.000
814.20	28.205
814.50	26.923
814.81	22.642
815.11	10.638
815.41	45.763
815.72	45.238
816.02	31.373
816.32	31.250
816.62	24.390
816.93	27.027
817.23	25.714
817.53	25.000
817.84	2.174
818.14	19.231
818.44	18.421
818.74	32.609
819.04	0.000
819.35	48.649
819.65	35.294
819.95	19.444
820.25	16.667
820.56	62.500
820.86	3.448
821.16	62.500
821.46	57.447
821.76	30.000
822.07	27.907
822.37	8.108
822.67	37.500
822.97	38.095
823.27	0.000
823.57	-8.000
823.88	25.926
824.18	39.286
824.48	52.941
824.78	29.032
825.08	34.783
825.38	39.394
825.69	4.167
825.99	47.368
826.29	11.111
826.59	53.333
826.89	-23.810
827.19	43.478
827.49	27.500
827.79	28.571
828.09	21.429
828.39	42.424
828.70	67.568
829.00	35.714
829.30	47.619
829.60	43.333
829.90	21.875
830.20	13.158
830.50	22.222
830.80	60.870
831.10	45.455
831.40	72.727
831.70	51.613
832.00	71.429
832.30	19.048
832.60	83.333
832.90	44.828
833.20	15.000
833.50	66.667
833.80	33.333
834.10	42.308
834.40	50.000
834.70	100.000
835.00	36.842
835.30	57.692
835.60	80.000
835.90	58.065
836.20	40.909
836.50	57.143
836.80	-15.385
837.10	28.571
837.40	333.333
837.70	68.182
838.00	-45.455
838.30	52.174
838.60	30.769
838.90	22.727
839.19	46.429
839.49	40.000
839.79	46.154
840.09	41.667
840.39	53.571
840.69	25.000
840.99	26.923
841.29	42.105
841.59	-50.000
841.88	0.000
842.18	100.000
842.48	37.500
842.78	66.667
843.08	40.741
843.38	-40.000
843.68	73.913
843.97	46.667
844.27	0.000
844.57	65.000
844.87	38.889
845.17	19.048
845.47	46.667
845.76	-4.762
846.06	70.588
846.36	50.000
846.66	42.857
846.96	140.000
847.25	-62.500
847.55	50.000
847.85	50.000
848.15	9.091
848.44	-133.333
848.74	65.000
849.04	40.741
849.34	9.091
849.63	-66.667
849.93	60.000
850.23	0.000
850.53	90.000
850.82	38.462
851.12	44.444
851.42	53.333
851.71	23.077
852.01	28.571
852.31	-125.000
852.61	9.091
852.90	25.000
853.20	89.474
853.50	25.000
853.79	73.913
854.09	95.833
854.39	36.842
854.68	20.833
854.98	61.290
855.28	30.769
855.57	45.000
855.87	-11.111
856.17	70.370
856.46	85.714
856.76	0.000
857.05	177.778
857.35	40.000
857.65	50.000
857.94	38.462
858.24	75.862
858.53	72.222
858.83	88.889
859.13	18.182
859.42	26.087
859.72	-75.000
860.01	-300.000
860.31	16.000
860.60	52.381
860.90	-166.667
861.20	13.333
861.49	-150.000
861.79	0.000
862.08	-5.000
862.38	120.000
862.67	-60.000
862.97	150.000
863.26	66.667
863.56	27.778
863.85	-433.333
864.15	5.556
864.44	-10.000
864.74	28.571
865.03	275.000
865.33	-140.000
865.62	216.667
865.92	16.667
866.21	-16.667
866.51	25.000
866.80	27.273
867.10	-100.000
867.39	83.333
867.69	0.000
867.98	84.615
868.27	0.000
868.57	13.333
868.86	16.667
869.16	-92.308
869.45	80.000
869.75	0.000
870.04	0.000
870.33	-14.286
870.63	52.381
870.92	466.667
871.22	20.000
871.51	-500.000
871.80	44.444
872.10	500.000
>>>>>End Processed Spectral Data<<<<<
