SpectraSuite Data File
++++++++++++++++++++++++++++++++++++
Date: Fri May 15 17:29:44 PDT 2015
User: schluterlab
Dark Spectrum Present: Yes
Reference Spectrum Present: Yes
Number of Sampled Component Spectra: 1
Spectrometers: USB2E3373
Integration Time (usec): 3000 (USB2E3373)
Spectra Averaged: 3 (USB2E3373)
Boxcar Smoothing: 0 (USB2E3373)
Correct for Electrical Dark: No (USB2E3373)
Strobe/Lamp Enabled: No (USB2E3373)
Correct for Detector Non-linearity: No (USB2E3373)
Correct for Stray Light: No (USB2E3373)
Number of Pixels in Processed Spectrum: 2048
>>>>>Begin Processed Spectral Data<<<<<
178.53	0.000
178.91	0.000
179.29	62.500
179.67	100.000
180.04	-85.714
180.42	325.000
180.80	700.000
181.18	-166.667
181.56	-0.000
181.94	-250.000
182.31	200.000
182.69	20.000
183.07	-400.000
183.45	-40.000
183.83	100.000
184.20	63.636
184.58	11.111
184.96	-225.000
185.34	-233.333
185.72	100.000
186.09	84.615
186.47	600.000
186.85	33.333
187.23	177.778
187.61	-400.000
187.98	-266.667
188.36	122.222
188.74	33.333
189.12	11.765
189.49	50.000
189.87	0.000
190.25	107.143
190.63	100.000
191.00	100.000
191.38	-5.263
191.76	-50.000
192.14	-25.000
192.51	-50.000
192.89	-66.667
193.27	28.571
193.65	83.333
194.02	72.727
194.40	60.000
194.78	50.000
195.15	-16.667
195.53	-12.500
195.91	-25.000
196.29	-275.000
196.66	23.077
197.04	-28.571
197.42	-88.889
197.79	-266.667
198.17	0.000
198.55	800.000
198.92	-233.333
199.30	0.000
199.68	-80.000
200.05	-200.000
200.43	0.000
200.81	-66.667
201.18	266.667
201.56	1100.000
201.94	150.000
202.31	66.667
202.69	-160.000
203.07	250.000
203.44	600.000
203.82	0.000
204.19	135.714
204.57	-500.000
204.95	25.000
205.32	30.000
205.70	42.857
206.08	25.000
206.45	155.556
206.83	42.857
207.20	-42.857
207.58	500.000
207.96	-100.000
208.33	-40.000
208.71	150.000
209.08	-233.333
209.46	-500.000
209.84	-100.000
210.21	500.000
210.59	42.857
210.96	-116.667
211.34	25.000
211.71	13.333
212.09	114.286
212.46	-600.000
212.84	0.000
213.22	50.000
213.59	350.000
213.97	53.846
214.34	27.273
214.72	-83.333
215.09	75.000
215.47	0.000
215.84	-9.091
216.22	-266.667
216.59	25.000
216.97	0.000
217.34	-225.000
217.72	-40.000
218.09	162.500
218.47	12.500
218.84	300.000
219.22	0.000
219.59	-40.000
219.97	-33.333
220.34	125.000
220.72	142.857
221.09	-50.000
221.47	150.000
221.84	-450.000
222.22	-550.000
222.59	27.273
222.97	116.667
223.34	300.000
223.72	35.714
224.09	23.810
224.46	17.857
224.84	366.667
225.21	-60.000
225.59	93.333
225.96	300.000
226.34	200.000
226.71	-14.286
227.08	33.333
227.46	0.000
227.83	-500.000
228.21	77.778
228.58	63.636
228.95	-37.500
229.33	10.000
229.70	-31.250
230.08	-25.000
230.45	-14.286
230.82	-14.286
231.20	-13.333
231.57	85.714
231.95	100.000
232.32	-60.000
232.69	-14.286
233.07	-200.000
233.44	40.000
233.81	-60.000
234.19	11.111
234.56	-41.176
234.93	450.000
235.31	50.000
235.68	-140.000
236.05	-46.154
236.43	-30.000
236.80	35.294
237.17	50.000
237.55	-5.000
237.92	-7.407
238.29	25.000
238.67	13.333
239.04	52.941
239.41	-26.829
239.79	-36.667
240.16	-2.439
240.53	34.211
240.91	8.696
241.28	12.698
241.65	7.143
242.02	21.918
242.40	5.000
242.77	-10.169
243.14	-4.545
243.51	1.250
243.89	10.345
244.26	-14.943
244.63	15.476
245.00	-3.093
245.38	1.031
245.75	-11.236
246.12	-2.586
246.49	11.570
246.87	2.885
247.24	2.521
247.61	-10.526
247.98	0.813
248.36	10.000
248.73	0.000
249.10	11.688
249.47	2.532
249.84	8.497
250.22	5.882
250.59	3.922
250.96	8.451
251.33	-2.326
251.70	-1.765
252.08	5.076
252.45	0.000
252.82	8.040
253.19	2.765
253.56	0.935
253.94	6.757
254.31	9.130
254.68	9.211
255.05	0.394
255.42	2.183
255.79	3.861
256.16	5.058
256.54	8.209
256.91	6.464
257.28	1.487
257.65	2.622
258.02	1.773
258.39	3.030
258.76	6.227
259.14	3.987
259.51	2.265
259.88	1.718
260.25	4.902
260.62	4.514
260.99	-2.712
261.36	-2.397
261.73	1.899
262.10	3.040
262.47	2.147
262.85	0.940
263.22	3.077
263.59	1.869
263.96	5.280
264.33	5.152
264.70	2.083
265.07	3.274
265.44	4.533
265.81	0.282
266.18	4.098
266.55	4.627
266.92	4.663
267.29	3.394
267.66	3.836
268.03	0.524
268.40	3.133
268.77	2.139
269.14	3.118
269.51	0.514
269.88	0.998
270.25	1.531
270.62	0.976
270.99	0.512
271.36	1.222
271.73	2.347
272.10	5.109
272.47	3.546
272.84	3.465
273.21	5.800
273.58	3.614
273.95	3.432
274.32	1.617
274.69	-0.679
275.06	3.125
275.43	1.814
275.80	1.987
276.17	0.690
276.54	2.784
276.91	3.070
277.28	1.965
277.65	2.686
278.02	1.064
278.39	1.969
278.76	2.516
279.13	0.622
279.50	2.311
279.87	2.160
280.23	1.935
280.60	3.899
280.97	4.646
281.34	1.538
281.71	6.571
282.08	0.204
282.45	3.327
282.82	2.703
283.19	1.354
283.56	3.661
283.92	0.569
284.29	0.192
284.66	2.132
285.03	2.750
285.40	2.836
285.77	2.460
286.14	3.249
286.51	4.059
286.87	1.280
287.24	0.552
287.61	3.175
287.98	4.386
288.35	1.906
288.72	3.152
289.08	1.910
289.45	3.866
289.82	3.147
290.19	0.171
290.56	1.372
290.93	1.684
291.29	2.003
291.66	3.150
292.03	1.435
292.40	1.290
292.77	1.595
293.13	1.461
293.50	0.910
293.87	3.359
294.24	2.318
294.60	3.130
294.97	3.274
295.34	2.301
295.71	1.937
296.08	1.943
296.44	1.849
296.81	1.806
297.18	2.609
297.55	3.523
297.91	2.055
298.28	4.354
298.65	1.493
299.02	3.639
299.38	1.231
299.75	0.414
300.12	2.225
300.48	3.426
300.85	3.295
301.22	1.948
301.59	1.579
301.95	2.152
302.32	4.799
302.69	1.493
303.05	3.960
303.42	2.366
303.79	2.103
304.15	2.987
304.52	1.784
304.89	1.520
305.25	2.906
305.62	2.450
305.99	3.158
306.35	2.081
306.72	1.575
307.09	2.965
307.45	3.330
307.82	0.463
308.19	2.439
308.55	3.162
308.92	2.505
309.29	1.341
309.65	1.722
310.02	2.750
310.38	3.183
310.75	1.639
311.12	1.830
311.48	2.863
311.85	2.827
312.22	1.899
312.58	1.592
312.95	1.921
313.31	1.449
313.68	1.990
314.05	2.755
314.41	2.680
314.78	2.062
315.14	2.775
315.51	2.899
315.87	2.357
316.24	3.741
316.61	4.134
316.97	3.869
317.34	3.906
317.70	4.015
318.07	4.135
318.43	2.647
318.80	4.451
319.16	3.418
319.53	4.748
319.89	3.937
320.26	4.049
320.62	5.316
320.99	2.714
321.35	5.961
321.72	5.192
322.08	4.935
322.45	5.076
322.81	5.010
323.18	5.201
323.54	6.081
323.91	4.966
324.27	6.836
324.64	7.303
325.00	8.394
325.37	8.173
325.73	6.890
326.10	7.629
326.46	8.700
326.83	8.924
327.19	8.457
327.56	9.296
327.92	9.419
328.29	9.732
328.65	9.245
329.01	10.018
329.38	11.336
329.74	9.821
330.11	11.029
330.47	10.575
330.84	10.865
331.20	12.357
331.56	11.759
331.93	13.790
332.29	12.282
332.66	11.855
333.02	13.011
333.38	12.924
333.75	13.370
334.11	13.339
334.48	13.781
334.84	13.919
335.20	13.541
335.57	13.146
335.93	12.827
336.29	13.628
336.66	13.351
337.02	12.546
337.38	13.519
337.75	13.818
338.11	14.427
338.47	14.142
338.84	15.527
339.20	14.534
339.56	14.587
339.93	14.235
340.29	14.862
340.65	15.054
341.02	14.539
341.38	15.487
341.74	14.753
342.11	15.078
342.47	14.146
342.83	16.090
343.20	14.721
343.56	15.826
343.92	14.969
344.28	15.628
344.65	15.285
345.01	14.088
345.37	15.559
345.73	15.983
346.10	15.013
346.46	15.307
346.82	15.712
347.19	14.630
347.55	15.121
347.91	16.343
348.27	15.521
348.63	15.503
349.00	14.766
349.36	17.041
349.72	16.833
350.08	14.016
350.45	16.042
350.81	16.445
351.17	15.228
351.53	16.000
351.89	16.680
352.26	15.520
352.62	16.935
352.98	16.305
353.34	15.942
353.70	16.828
354.07	16.048
354.43	17.054
354.79	16.350
355.15	17.302
355.51	18.038
355.87	16.667
356.24	15.905
356.60	16.734
356.96	16.984
357.32	16.853
357.68	16.497
358.04	16.801
358.40	16.801
358.77	17.464
359.13	17.854
359.49	16.256
359.85	17.083
360.21	15.869
360.57	16.985
360.93	18.003
361.29	17.523
361.66	17.320
362.02	18.106
362.38	18.812
362.74	17.865
363.10	18.585
363.46	17.717
363.82	19.384
364.18	18.672
364.54	17.574
364.90	18.495
365.26	17.467
365.62	20.511
365.98	18.475
366.35	19.811
366.71	18.995
367.07	19.013
367.43	18.907
367.79	19.152
368.15	18.952
368.51	19.519
368.87	18.952
369.23	19.639
369.59	19.679
369.95	20.015
370.31	20.448
370.67	19.701
371.03	19.940
371.39	19.475
371.75	20.440
372.11	21.041
372.47	20.562
372.83	21.079
373.19	22.111
373.55	20.000
373.91	20.374
374.27	21.758
374.63	22.398
374.99	21.135
375.35	21.309
375.71	22.168
376.07	22.121
376.42	21.973
376.78	22.013
377.14	22.681
377.50	22.643
377.86	23.427
378.22	22.272
378.58	22.885
378.94	22.243
379.30	23.955
379.66	23.887
380.02	22.808
380.38	22.642
380.74	23.399
381.09	24.785
381.45	24.159
381.81	24.183
382.17	25.190
382.53	23.985
382.89	25.361
383.25	25.202
383.61	25.854
383.97	24.825
384.32	24.891
384.68	25.635
385.04	25.000
385.40	24.953
385.76	27.107
386.12	26.132
386.48	26.756
386.83	26.252
387.19	26.679
387.55	27.290
387.91	26.956
388.27	26.801
388.62	27.439
388.98	27.072
389.34	27.733
389.70	27.408
390.06	26.746
390.42	26.684
390.77	27.731
391.13	26.923
391.49	27.167
391.85	28.005
392.20	27.181
392.56	28.417
392.92	29.008
393.28	27.889
393.64	28.288
393.99	29.091
394.35	28.653
394.71	29.183
395.07	27.970
395.42	28.172
395.78	28.664
396.14	29.445
396.50	28.916
396.85	28.847
397.21	29.887
397.57	28.777
397.92	29.359
398.28	29.713
398.64	28.313
399.00	29.402
399.35	28.668
399.71	29.581
400.07	30.230
400.42	29.498
400.78	29.516
401.14	29.159
401.49	29.720
401.85	28.641
402.21	29.819
402.57	30.312
402.92	28.858
403.28	30.075
403.63	29.887
403.99	29.464
404.35	30.356
404.70	29.405
405.06	30.376
405.42	29.894
405.77	29.053
406.13	29.802
406.49	28.893
406.84	29.645
407.20	30.163
407.55	29.684
407.91	29.345
408.27	30.083
408.62	30.400
408.98	29.390
409.34	29.740
409.69	30.233
410.05	28.879
410.40	29.630
410.76	28.528
411.11	29.188
411.47	30.440
411.83	29.379
412.18	29.794
412.54	29.650
412.89	29.433
413.25	30.927
413.60	30.248
413.96	30.123
414.31	31.280
414.67	29.955
415.03	31.092
415.38	29.765
415.74	30.228
416.09	30.242
416.45	30.790
416.80	30.403
417.16	30.732
417.51	30.713
417.87	30.574
418.22	31.606
418.58	31.037
418.93	31.348
419.29	29.962
419.64	31.108
420.00	32.997
420.35	30.687
420.71	32.260
421.06	32.228
421.42	32.332
421.77	31.676
422.12	32.350
422.48	31.944
422.83	32.309
423.19	32.393
423.54	30.688
423.90	31.213
424.25	32.951
424.61	33.354
424.96	32.172
425.31	33.622
425.67	33.509
426.02	33.510
426.38	33.500
426.73	33.172
427.09	33.671
427.44	33.647
427.79	33.648
428.15	33.010
428.50	32.889
428.85	33.538
429.21	33.164
429.56	34.178
429.92	33.590
430.27	33.333
430.62	33.194
430.98	33.970
431.33	34.700
431.68	34.380
432.04	34.544
432.39	33.542
432.74	34.095
433.10	34.310
433.45	33.154
433.80	34.707
434.16	33.463
434.51	35.914
434.86	34.959
435.22	35.782
435.57	35.122
435.92	34.910
436.28	35.063
436.63	35.026
436.98	34.994
437.34	35.088
437.69	34.705
438.04	35.499
438.39	34.575
438.75	36.066
439.10	34.861
439.45	36.032
439.81	34.801
440.16	35.689
440.51	34.866
440.86	36.798
441.22	35.690
441.57	35.210
441.92	37.828
442.27	35.643
442.63	36.403
442.98	36.646
443.33	35.615
443.68	35.650
444.03	36.066
444.39	36.153
444.74	36.511
445.09	37.361
445.44	38.348
445.79	37.029
446.15	36.123
446.50	35.219
446.85	35.919
447.20	35.714
447.55	36.217
447.91	36.999
448.26	35.800
448.61	36.845
448.96	36.661
449.31	37.399
449.66	35.947
450.02	36.509
450.37	36.574
450.72	35.395
451.07	36.582
451.42	36.205
451.77	35.986
452.12	35.287
452.47	35.415
452.83	34.982
453.18	36.306
453.53	35.714
453.88	36.187
454.23	36.017
454.58	36.335
454.93	36.727
455.28	35.810
455.63	36.330
455.98	36.861
456.34	35.377
456.69	35.578
457.04	37.240
457.39	36.148
457.74	35.550
458.09	35.845
458.44	35.459
458.79	35.630
459.14	35.812
459.49	36.478
459.84	36.210
460.19	35.680
460.54	36.369
460.89	35.739
461.24	35.963
461.59	35.986
461.94	34.843
462.29	36.248
462.64	35.814
462.99	35.884
463.34	35.675
463.69	35.006
464.04	35.896
464.39	35.901
464.74	35.337
465.09	35.933
465.44	35.834
465.79	34.580
466.14	35.804
466.49	35.538
466.84	36.466
467.19	35.920
467.54	35.568
467.89	36.134
468.24	35.036
468.59	36.254
468.94	35.048
469.29	35.738
469.64	35.407
469.99	36.160
470.34	34.949
470.68	37.136
471.03	35.103
471.38	34.807
471.73	34.244
472.08	33.989
472.43	33.826
472.78	34.818
473.13	35.238
473.48	35.244
473.83	34.496
474.17	35.687
474.52	35.354
474.87	35.879
475.22	34.716
475.57	35.291
475.92	35.546
476.27	34.633
476.61	35.590
476.96	34.412
477.31	34.451
477.66	35.056
478.01	34.643
478.36	35.458
478.70	35.672
479.05	35.275
479.40	34.711
479.75	34.411
480.10	34.972
480.45	35.650
480.79	35.347
481.14	36.783
481.49	34.039
481.84	36.438
482.19	35.220
482.53	35.252
482.88	34.558
483.23	34.837
483.58	34.717
483.92	34.076
484.27	34.184
484.62	34.514
484.97	34.038
485.31	35.332
485.66	36.217
486.01	37.615
486.36	37.406
486.70	36.847
487.05	36.163
487.40	35.445
487.75	35.803
488.09	34.487
488.44	34.663
488.79	34.367
489.13	34.295
489.48	34.630
489.83	34.081
490.17	33.483
490.52	33.903
490.87	33.364
491.22	34.909
491.56	33.539
491.91	33.461
492.26	35.002
492.60	33.157
492.95	34.678
493.30	33.903
493.64	35.020
493.99	34.155
494.34	33.592
494.68	33.381
495.03	32.895
495.37	32.875
495.72	32.862
496.07	34.878
496.41	33.915
496.76	33.763
497.11	33.163
497.45	33.270
497.80	34.359
498.14	33.135
498.49	33.367
498.84	33.733
499.18	34.086
499.53	33.581
499.87	32.539
500.22	34.520
500.56	33.333
500.91	32.831
501.26	33.663
501.60	34.432
501.95	33.673
502.29	33.801
502.64	33.736
502.98	33.695
503.33	33.189
503.67	33.349
504.02	33.627
504.36	34.389
504.71	33.131
505.06	33.920
505.40	32.843
505.75	34.072
506.09	33.705
506.44	34.035
506.78	34.337
507.13	34.230
507.47	32.794
507.82	33.494
508.16	34.020
508.51	33.578
508.85	34.066
509.19	32.943
509.54	34.102
509.88	33.333
510.23	32.760
510.57	33.725
510.92	31.610
511.26	34.315
511.61	33.333
511.95	32.712
512.30	33.758
512.64	33.667
512.98	33.127
513.33	33.856
513.67	33.485
514.02	34.325
514.36	34.343
514.70	34.615
515.05	34.019
515.39	33.530
515.74	33.653
516.08	33.951
516.42	33.333
516.77	33.704
517.11	33.769
517.46	33.513
517.80	33.254
518.14	33.435
518.49	33.293
518.83	33.840
519.17	32.929
519.52	32.623
519.86	33.553
520.20	34.386
520.55	32.708
520.89	33.250
521.23	32.172
521.58	34.322
521.92	33.141
522.26	32.466
522.61	33.117
522.95	34.636
523.29	33.227
523.64	33.736
523.98	34.673
524.32	33.312
524.66	35.211
525.01	33.831
525.35	33.830
525.69	33.401
526.04	33.796
526.38	35.344
526.72	33.355
527.06	32.944
527.41	33.905
527.75	33.378
528.09	32.226
528.43	35.314
528.78	33.927
529.12	34.194
529.46	33.983
529.80	34.642
530.15	33.993
530.49	34.949
530.83	34.200
531.17	33.983
531.51	35.157
531.86	35.146
532.20	33.681
532.54	34.309
532.88	34.908
533.22	35.148
533.57	34.469
533.91	34.334
534.25	35.547
534.59	34.573
534.93	34.487
535.27	33.693
535.62	34.478
535.96	33.920
536.30	34.631
536.64	36.182
536.98	34.564
537.32	36.415
537.66	35.484
538.01	34.965
538.35	35.229
538.69	34.487
539.03	34.723
539.37	34.791
539.71	35.106
540.05	34.963
540.39	35.111
540.73	36.332
541.07	35.014
541.42	35.887
541.76	35.857
542.10	35.444
542.44	35.094
542.78	33.655
543.12	35.508
543.46	34.840
543.80	35.739
544.14	34.379
544.48	36.043
544.82	34.655
545.16	35.861
545.50	36.515
545.84	34.632
546.18	34.894
546.52	35.616
546.86	34.076
547.20	35.050
547.54	34.488
547.88	34.986
548.22	35.634
548.56	34.763
548.90	37.264
549.24	34.917
549.58	35.120
549.92	35.025
550.26	35.165
550.60	35.019
550.94	34.653
551.28	34.544
551.62	35.231
551.96	35.414
552.30	34.795
552.64	34.697
552.98	35.865
553.32	35.378
553.66	34.761
554.00	35.328
554.34	35.672
554.68	35.619
555.02	35.417
555.36	35.901
555.69	34.286
556.03	34.261
556.37	33.381
556.71	36.173
557.05	35.048
557.39	35.688
557.73	36.282
558.07	37.104
558.41	35.375
558.75	34.840
559.08	34.515
559.42	34.048
559.76	36.189
560.10	35.703
560.44	35.592
560.78	35.944
561.12	37.377
561.45	37.316
561.79	35.224
562.13	36.338
562.47	35.468
562.81	36.239
563.15	35.049
563.48	35.573
563.82	36.513
564.16	37.047
564.50	36.689
564.84	37.216
565.17	37.357
565.51	37.637
565.85	36.694
566.19	37.732
566.52	37.869
566.86	37.339
567.20	36.862
567.54	39.112
567.88	39.426
568.21	38.744
568.55	38.207
568.89	39.784
569.23	39.576
569.56	40.543
569.90	41.129
570.24	40.417
570.57	40.873
570.91	41.164
571.25	40.908
571.59	40.953
571.92	41.096
572.26	40.972
572.60	40.527
572.93	40.257
573.27	40.313
573.61	41.110
573.95	41.043
574.28	41.075
574.62	40.758
574.96	41.137
575.29	40.787
575.63	39.570
575.97	40.092
576.30	40.877
576.64	40.848
576.98	41.313
577.31	42.000
577.65	41.881
577.98	42.265
578.32	42.044
578.66	41.092
578.99	41.086
579.33	40.919
579.67	40.802
580.00	41.063
580.34	41.667
580.67	40.307
581.01	41.883
581.35	42.227
581.68	43.161
582.02	42.522
582.35	42.358
582.69	42.657
583.02	41.914
583.36	42.725
583.70	42.549
584.03	42.035
584.37	42.377
584.70	42.335
585.04	42.021
585.37	42.334
585.71	43.199
586.04	41.629
586.38	41.744
586.72	42.209
587.05	42.750
587.39	42.578
587.72	43.248
588.06	42.956
588.39	42.723
588.73	42.216
589.06	42.825
589.40	42.136
589.73	42.059
590.07	42.334
590.40	42.221
590.73	42.545
591.07	41.942
591.40	43.010
591.74	41.719
592.07	41.883
592.41	42.535
592.74	42.652
593.08	42.438
593.41	43.163
593.75	43.245
594.08	42.396
594.41	41.376
594.75	43.168
595.08	42.565
595.42	43.504
595.75	43.147
596.09	42.494
596.42	43.282
596.75	42.806
597.09	42.825
597.42	41.554
597.75	42.785
598.09	41.693
598.42	41.561
598.76	42.128
599.09	42.869
599.42	43.426
599.76	42.927
600.09	42.685
600.42	42.418
600.76	42.571
601.09	42.557
601.42	42.538
601.76	43.231
602.09	43.523
602.42	44.313
602.76	43.761
603.09	43.812
603.42	44.649
603.76	43.185
604.09	43.459
604.42	44.332
604.76	44.059
605.09	43.647
605.42	42.393
605.75	43.170
606.09	42.887
606.42	43.578
606.75	43.203
607.09	43.692
607.42	43.465
607.75	42.984
608.08	42.543
608.42	42.257
608.75	43.181
609.08	43.049
609.41	43.350
609.75	42.591
610.08	44.433
610.41	43.188
610.74	43.052
611.07	44.548
611.41	43.228
611.74	44.243
612.07	43.522
612.40	42.888
612.73	42.881
613.07	41.789
613.40	43.326
613.73	42.921
614.06	43.350
614.39	43.711
614.72	42.577
615.06	43.408
615.39	43.122
615.72	42.626
616.05	43.352
616.38	43.020
616.71	42.936
617.05	42.928
617.38	43.809
617.71	42.642
618.04	43.873
618.37	44.578
618.70	43.432
619.03	42.639
619.36	40.955
619.69	43.442
620.03	43.755
620.36	43.491
620.69	42.398
621.02	42.966
621.35	41.328
621.68	42.347
622.01	41.000
622.34	42.139
622.67	42.035
623.00	42.113
623.33	42.759
623.66	41.660
623.99	42.663
624.32	41.825
624.65	41.429
624.99	43.115
625.32	41.850
625.65	42.812
625.98	43.513
626.31	41.064
626.64	42.114
626.97	40.401
627.30	41.068
627.63	41.854
627.96	41.420
628.29	40.888
628.62	41.691
628.95	41.283
629.28	41.230
629.61	40.678
629.94	41.935
630.26	41.403
630.59	41.935
630.92	41.128
631.25	39.692
631.58	40.639
631.91	40.022
632.24	39.679
632.57	39.659
632.90	39.027
633.23	40.941
633.56	40.050
633.89	38.964
634.22	40.370
634.55	40.534
634.88	37.548
635.20	38.718
635.53	40.800
635.86	38.101
636.19	39.974
636.52	39.541
636.85	39.702
637.18	39.497
637.51	39.371
637.83	39.159
638.16	43.111
638.49	38.420
638.82	40.526
639.15	38.942
639.48	39.752
639.81	38.633
640.13	40.404
640.46	39.650
640.79	40.353
641.12	40.325
641.45	39.640
641.77	39.111
642.10	40.126
642.43	38.907
642.76	37.789
643.09	37.803
643.41	39.320
643.74	38.056
644.07	39.737
644.40	39.696
644.73	37.128
645.05	38.591
645.38	40.564
645.71	36.170
646.04	42.011
646.36	39.539
646.69	40.468
647.02	39.509
647.35	39.366
647.67	36.380
648.00	39.739
648.33	38.908
648.66	41.356
648.98	40.034
649.31	40.331
649.64	40.345
649.96	41.005
650.29	39.182
650.62	38.462
650.94	39.630
651.27	36.685
651.60	39.640
651.92	41.259
652.25	39.787
652.58	39.333
652.90	44.254
653.23	40.504
653.56	38.579
653.88	39.175
654.21	38.354
654.54	40.917
654.86	40.747
655.19	42.690
655.52	50.155
655.84	54.026
656.17	61.296
656.49	83.117
656.82	85.307
657.15	63.687
657.47	46.836
657.80	34.560
658.13	33.502
658.45	51.144
658.78	49.350
659.10	47.980
659.43	47.269
659.75	47.163
660.08	45.241
660.41	44.842
660.73	41.575
661.06	41.941
661.38	38.552
661.71	36.756
662.03	37.554
662.36	38.242
662.68	37.611
663.01	38.865
663.33	38.283
663.66	36.512
663.98	40.930
664.31	38.380
664.63	37.558
664.96	34.348
665.28	38.190
665.61	39.610
665.93	41.087
666.26	39.696
666.58	38.031
666.91	39.529
667.23	40.802
667.56	39.810
667.88	39.089
668.21	40.095
668.53	40.898
668.86	41.274
669.18	36.792
669.50	38.257
669.83	36.279
670.15	40.793
670.48	39.713
670.80	40.323
671.13	39.597
671.45	38.813
671.77	40.773
672.10	41.188
672.42	44.195
672.75	45.115
673.07	43.470
673.39	43.303
673.72	38.659
674.04	39.375
674.37	43.008
674.69	39.829
675.01	39.333
675.34	36.937
675.66	41.435
675.98	40.576
676.31	38.532
676.63	41.568
676.95	41.591
677.28	41.882
677.60	40.964
677.92	42.202
678.25	43.107
678.57	43.506
678.89	41.807
679.22	45.638
679.54	41.968
679.86	42.545
680.18	44.272
680.51	46.591
680.83	41.750
681.15	42.600
681.48	42.828
681.80	44.421
682.12	42.944
682.44	41.841
682.77	43.709
683.09	42.105
683.41	42.500
683.73	41.014
684.06	42.035
684.38	41.720
684.70	44.880
685.02	45.851
685.34	43.676
685.67	45.028
685.99	45.750
686.31	44.602
686.63	43.228
686.96	43.346
687.28	44.040
687.60	42.205
687.92	49.697
688.24	44.960
688.56	43.668
688.89	43.973
689.21	42.222
689.53	44.780
689.85	45.116
690.17	43.304
690.49	44.444
690.82	39.563
691.14	42.143
691.46	46.729
691.78	42.568
692.10	45.376
692.42	44.156
692.74	42.735
693.06	45.495
693.39	43.439
693.71	42.760
694.03	45.035
694.35	44.860
694.67	46.717
694.99	42.298
695.31	47.520
695.63	43.750
695.95	43.687
696.27	39.119
696.59	41.667
696.91	39.216
697.23	41.131
697.56	45.792
697.88	49.032
698.20	46.925
698.52	46.824
698.84	41.388
699.16	44.500
699.48	44.612
699.80	44.417
700.12	43.666
700.44	47.059
700.76	39.244
701.08	46.667
701.40	43.976
701.72	49.074
702.04	44.884
702.36	45.151
702.68	40.240
703.00	45.455
703.32	46.334
703.64	43.503
703.96	45.217
704.28	43.865
704.60	42.540
704.91	39.432
705.23	38.538
705.55	48.057
705.87	42.599
706.19	35.556
706.51	42.955
706.83	45.338
707.15	43.614
707.47	49.580
707.79	45.573
708.11	46.750
708.43	48.000
708.74	44.703
709.06	44.789
709.38	47.401
709.70	45.562
710.02	45.541
710.34	43.653
710.66	43.590
710.98	44.702
711.29	45.902
711.61	47.458
711.93	42.997
712.25	48.797
712.57	42.491
712.89	44.030
713.20	44.983
713.52	42.509
713.84	44.369
714.16	45.017
714.48	48.710
714.80	47.756
715.11	46.201
715.43	44.201
715.75	44.667
716.07	47.508
716.39	44.631
716.70	38.376
717.02	40.840
717.34	46.964
717.66	42.478
717.97	42.174
718.29	43.096
718.61	42.126
718.93	47.287
719.24	47.148
719.56	48.996
719.88	47.423
720.20	45.455
720.51	42.529
720.83	43.243
721.15	49.160
721.46	46.371
721.78	41.502
722.10	43.123
722.42	41.494
722.73	44.082
723.05	48.163
723.37	47.458
723.68	54.505
724.00	45.299
724.32	44.889
724.63	44.091
724.95	44.541
725.27	41.935
725.58	50.847
725.90	42.460
726.22	45.946
726.53	50.847
726.85	48.689
727.16	49.434
727.48	44.534
727.80	48.583
728.11	48.305
728.43	46.667
728.74	44.355
729.06	48.400
729.38	53.383
729.69	47.410
730.01	45.769
730.32	50.000
730.64	51.237
730.96	50.943
731.27	52.667
731.59	48.136
731.90	50.637
732.22	50.473
732.53	53.821
732.85	51.418
733.16	51.515
733.48	48.561
733.80	49.275
734.11	51.525
734.43	53.952
734.74	53.030
735.06	51.140
735.37	52.870
735.69	54.545
736.00	47.038
736.32	51.342
736.63	53.521
736.95	52.901
737.26	48.399
737.58	47.651
737.89	52.381
738.21	52.256
738.52	53.909
738.83	48.908
739.15	44.541
739.46	53.937
739.78	46.886
740.09	49.346
740.41	56.159
740.72	52.756
741.04	52.632
741.35	45.532
741.66	50.237
741.98	45.918
742.29	48.020
742.61	51.832
742.92	39.336
743.23	43.981
743.55	49.774
743.86	50.718
744.18	45.933
744.49	45.213
744.80	48.370
745.12	56.150
745.43	46.829
745.74	53.646
746.06	53.659
746.37	55.497
746.68	46.919
747.00	50.532
747.31	54.726
747.62	48.058
747.94	51.196
748.25	53.465
748.56	52.459
748.88	51.309
749.19	53.191
749.50	46.798
749.82	44.340
750.13	49.541
750.44	54.887
750.75	54.851
751.07	54.380
751.38	52.874
751.69	52.549
752.01	53.101
752.32	47.809
752.63	49.802
752.94	53.448
753.26	56.904
753.57	49.321
753.88	52.655
754.19	47.083
754.51	52.893
754.82	50.607
755.13	53.333
755.44	55.242
755.75	53.516
756.07	55.642
756.38	51.698
756.69	53.640
757.00	50.333
757.31	54.902
757.63	51.829
757.94	50.000
758.25	52.877
758.56	50.798
758.87	50.142
759.18	52.025
759.50	53.455
759.81	55.853
760.12	52.903
760.43	51.818
760.74	61.728
761.05	59.077
761.36	57.102
761.67	57.273
761.99	59.184
762.30	49.455
762.61	52.569
762.92	50.679
763.23	54.505
763.54	51.869
763.85	58.051
764.16	57.676
764.47	50.403
764.78	53.480
765.10	56.566
765.41	54.890
765.72	53.968
766.03	53.383
766.34	52.920
766.65	54.582
766.96	56.061
767.27	51.064
767.58	54.598
767.89	48.227
768.20	49.432
768.51	53.846
768.82	51.724
769.13	55.760
769.44	52.361
769.75	50.685
770.06	50.000
770.37	48.077
770.68	53.299
770.99	52.036
771.30	61.275
771.61	59.276
771.92	56.466
772.23	55.172
772.54	53.763
772.85	49.383
773.16	52.809
773.47	63.399
773.78	56.863
774.09	54.491
774.39	49.333
774.70	40.764
775.01	55.862
775.32	47.143
775.63	47.934
775.94	55.725
776.25	54.331
776.56	47.500
776.87	54.808
777.18	45.299
777.48	48.276
777.79	44.348
778.10	49.524
778.41	50.450
778.72	46.825
779.03	53.383
779.34	58.865
779.65	58.219
779.95	50.685
780.26	54.483
780.57	50.407
780.88	39.370
781.19	51.724
781.50	57.364
781.80	51.479
782.11	51.572
782.42	57.692
782.73	56.115
783.04	58.519
783.34	43.056
783.65	38.462
783.96	59.836
784.27	51.724
784.57	61.789
784.88	54.688
785.19	66.000
785.50	71.000
785.81	54.310
786.11	45.690
786.42	39.806
786.73	48.182
787.04	51.020
787.34	48.214
787.65	55.238
787.96	48.673
788.26	56.364
788.57	56.410
788.88	54.688
789.19	50.000
789.49	59.130
789.80	54.082
790.11	63.636
790.41	38.182
790.72	47.826
791.03	53.409
791.33	47.500
791.64	51.250
791.95	50.000
792.25	46.809
792.56	50.562
792.87	41.096
793.17	44.928
793.48	57.333
793.79	40.000
794.09	58.750
794.40	53.774
794.70	60.194
795.01	45.528
795.32	56.410
795.62	56.190
795.93	50.980
796.23	51.887
796.54	45.833
796.85	45.588
797.15	47.887
797.46	56.944
797.76	65.152
798.07	38.372
798.37	50.000
798.68	37.879
798.99	37.037
799.29	50.000
799.60	49.275
799.90	56.000
800.21	45.902
800.51	55.385
800.82	44.068
801.12	47.826
801.43	62.295
801.73	61.905
802.04	44.000
802.34	38.806
802.65	55.769
802.95	33.929
803.26	23.077
803.56	72.549
803.87	45.652
804.17	45.333
804.48	60.317
804.78	35.185
805.09	54.348
805.39	57.778
805.70	59.259
806.00	19.298
806.30	52.113
806.61	35.714
806.91	47.222
807.22	61.842
807.52	44.000
807.83	36.364
808.13	38.889
808.43	51.471
808.74	55.224
809.04	50.847
809.35	34.615
809.65	32.812
809.95	-10.811
810.26	68.182
810.56	35.616
810.86	59.524
811.17	36.000
811.47	38.776
811.77	23.684
812.08	45.455
812.38	49.057
812.69	47.500
812.99	51.515
813.29	42.105
813.59	37.143
813.90	38.636
814.20	30.769
814.50	67.308
814.81	37.736
815.11	23.404
815.41	49.153
815.72	57.143
816.02	58.824
816.32	31.250
816.62	46.341
816.93	45.946
817.23	20.000
817.53	52.083
817.84	23.913
818.14	55.769
818.44	26.316
818.74	41.304
819.04	20.000
819.35	37.838
819.65	52.941
819.95	19.444
820.25	33.333
820.56	55.000
820.86	-10.345
821.16	75.000
821.46	42.553
821.76	75.000
822.07	41.860
822.37	29.730
822.67	31.250
822.97	54.762
823.27	35.714
823.57	56.000
823.88	-18.519
824.18	28.571
824.48	44.118
824.78	25.806
825.08	65.217
825.38	42.424
825.69	50.000
825.99	39.474
826.29	36.111
826.59	53.333
826.89	28.571
827.19	45.652
827.49	20.000
827.79	77.143
828.09	64.286
828.39	48.485
828.70	64.865
829.00	32.143
829.30	52.381
829.60	36.667
829.90	31.250
830.20	28.947
830.50	25.926
830.80	69.565
831.10	36.364
831.40	96.970
831.70	38.710
832.00	52.381
832.30	0.000
832.60	33.333
832.90	27.586
833.20	-5.000
833.50	60.606
833.80	37.037
834.10	53.846
834.40	53.125
834.70	55.556
835.00	52.632
835.30	88.462
835.60	53.333
835.90	51.613
836.20	45.455
836.50	64.286
836.80	0.000
837.10	17.857
837.40	-100.000
837.70	86.364
838.00	-27.273
838.30	17.391
838.60	69.231
838.90	50.000
839.19	50.000
839.49	43.333
839.79	7.692
840.09	-8.333
840.39	42.857
840.69	10.714
840.99	0.000
841.29	57.895
841.59	0.000
841.88	136.364
842.18	140.000
842.48	18.750
842.78	46.667
843.08	33.333
843.38	-110.000
843.68	65.217
843.97	60.000
844.27	33.333
844.57	45.000
844.87	11.111
845.17	4.762
845.47	46.667
845.76	-4.762
846.06	23.529
846.36	50.000
846.66	14.286
846.96	-13.333
847.25	-25.000
847.55	-14.286
847.85	-100.000
848.15	40.909
848.44	-600.000
848.74	5.000
849.04	44.444
849.34	36.364
849.63	83.333
849.93	-160.000
850.23	33.333
850.53	50.000
850.82	7.692
851.12	33.333
851.42	100.000
851.71	0.000
852.01	21.429
852.31	-275.000
852.61	36.364
852.90	45.000
853.20	73.684
853.50	-8.333
853.79	4.348
854.09	87.500
854.39	57.895
854.68	20.833
854.98	48.387
855.28	100.000
855.57	0.000
855.87	61.111
856.17	44.444
856.46	35.714
856.76	46.667
857.05	77.778
857.35	48.000
857.65	72.222
857.94	76.923
858.24	51.724
858.53	61.111
858.83	96.296
859.13	36.364
859.42	26.087
859.72	-250.000
860.01	-466.667
860.31	28.000
860.60	-38.095
860.90	133.333
861.20	0.000
861.49	-200.000
861.79	20.000
862.08	45.000
862.38	80.000
862.67	0.000
862.97	16.667
863.26	16.667
863.56	50.000
863.85	-200.000
864.15	22.222
864.44	40.000
864.74	85.714
865.03	125.000
865.33	160.000
865.62	150.000
865.92	16.667
866.21	-283.333
866.51	68.750
866.80	18.182
867.10	-400.000
867.39	133.333
867.69	0.000
867.98	38.462
868.27	0.000
868.57	46.667
868.86	-16.667
869.16	-69.231
869.45	73.333
869.75	-700.000
870.04	0.000
870.33	0.000
870.63	0.000
870.92	33.333
871.22	-140.000
871.51	300.000
871.80	122.222
872.10	300.000
>>>>>End Processed Spectral Data<<<<<
