SpectraSuite Data File
++++++++++++++++++++++++++++++++++++
Date: Fri May 15 20:11:56 PDT 2015
User: schluterlab
Dark Spectrum Present: Yes
Reference Spectrum Present: Yes
Number of Sampled Component Spectra: 1
Spectrometers: USB2E3373
Integration Time (usec): 3000 (USB2E3373)
Spectra Averaged: 3 (USB2E3373)
Boxcar Smoothing: 0 (USB2E3373)
Correct for Electrical Dark: No (USB2E3373)
Strobe/Lamp Enabled: No (USB2E3373)
Correct for Detector Non-linearity: No (USB2E3373)
Correct for Stray Light: No (USB2E3373)
Number of Pixels in Processed Spectrum: 2048
>>>>>Begin Processed Spectral Data<<<<<
178.53	0.000
178.91	0.000
179.29	12.500
179.67	-100.000
180.04	-85.714
180.42	0.000
180.80	-500.000
181.18	-100.000
181.56	100.000
181.94	0.000
182.31	-400.000
182.69	-20.000
183.07	-233.333
183.45	100.000
183.83	116.667
184.20	27.273
184.58	100.000
184.96	-100.000
185.34	-166.667
185.72	-150.000
186.09	30.769
186.47	-600.000
186.85	-16.667
187.23	144.444
187.61	-800.000
187.98	-266.667
188.36	88.889
188.74	-200.000
189.12	29.412
189.49	66.667
189.87	0.000
190.25	21.429
190.63	600.000
191.00	-100.000
191.38	21.053
191.76	-500.000
192.14	-0.000
192.51	350.000
192.89	0.000
193.27	-100.000
193.65	-0.000
194.02	45.455
194.40	80.000
194.78	-62.500
195.15	16.667
195.53	-50.000
195.91	325.000
196.29	-125.000
196.66	76.923
197.04	-28.571
197.42	-77.778
197.79	-366.667
198.17	-61.538
198.55	100.000
198.92	33.333
199.30	1100.000
199.68	40.000
200.05	-133.333
200.43	0.000
200.81	33.333
201.18	-66.667
201.56	400.000
201.94	200.000
202.31	100.000
202.69	-160.000
203.07	-0.000
203.44	-400.000
203.82	0.000
204.19	57.143
204.57	-500.000
204.95	25.000
205.32	80.000
205.70	-42.857
206.08	0.000
206.45	200.000
206.83	128.571
207.20	-28.571
207.58	100.000
207.96	-133.333
208.33	-40.000
208.71	-25.000
209.08	-50.000
209.46	-1400.000
209.84	40.000
210.21	-400.000
210.59	114.286
210.96	166.667
211.34	-100.000
211.71	20.000
212.09	-42.857
212.46	-800.000
212.84	0.000
213.22	120.000
213.59	100.000
213.97	53.846
214.34	127.273
214.72	16.667
215.09	200.000
215.47	46.154
215.84	9.091
216.22	0.000
216.59	0.000
216.97	50.000
217.34	-150.000
217.72	-140.000
218.09	100.000
218.47	100.000
218.84	-1000.000
219.22	-88.889
219.59	20.000
219.97	100.000
220.34	200.000
220.72	-57.143
221.09	-125.000
221.47	0.000
221.84	-250.000
222.22	-500.000
222.59	81.818
222.97	58.333
223.34	33.333
223.72	35.714
224.09	23.810
224.46	53.571
224.84	100.000
225.21	-60.000
225.59	86.667
225.96	600.000
226.34	175.000
226.71	0.000
227.08	16.667
227.46	-37.500
227.83	-750.000
228.21	122.222
228.58	72.727
228.95	-50.000
229.33	70.000
229.70	25.000
230.08	-25.000
230.45	71.429
230.82	114.286
231.20	-66.667
231.57	35.714
231.95	57.143
232.32	40.000
232.69	28.571
233.07	133.333
233.44	140.000
233.81	-10.000
234.19	33.333
234.56	23.529
234.93	400.000
235.31	325.000
235.68	-140.000
236.05	-38.462
236.43	-55.000
236.80	-17.647
237.17	3.125
237.55	20.000
237.92	7.407
238.29	0.000
238.67	6.667
239.04	8.824
239.41	-4.878
239.79	3.333
240.16	24.390
240.53	10.526
240.91	2.174
241.28	15.873
241.65	35.714
242.02	15.068
242.40	10.000
242.77	25.424
243.14	12.121
243.51	1.250
243.89	13.793
244.26	8.046
244.63	4.762
245.00	13.402
245.38	11.340
245.75	0.000
246.12	5.172
246.49	9.091
246.87	10.577
247.24	-0.840
247.61	-8.772
247.98	1.626
248.36	6.250
248.73	12.500
249.10	6.494
249.47	6.329
249.84	12.418
250.22	0.000
250.59	2.614
250.96	10.329
251.33	1.163
251.70	4.118
252.08	5.584
252.45	8.416
252.82	7.035
253.19	5.991
253.56	1.402
253.94	8.559
254.31	8.696
254.68	8.333
255.05	4.724
255.42	3.057
255.79	7.336
256.16	7.393
256.54	6.716
256.91	3.422
257.28	3.346
257.65	2.996
258.02	3.901
258.39	9.764
258.76	8.059
259.14	4.983
259.51	7.443
259.88	8.247
260.25	8.824
260.62	8.681
260.99	5.085
261.36	2.740
261.73	6.013
262.10	5.167
262.47	3.681
262.85	2.821
263.22	4.308
263.59	4.984
263.96	7.143
264.33	5.758
264.70	3.571
265.07	4.167
265.44	4.816
265.81	6.780
266.18	7.377
266.55	8.226
266.92	6.218
267.29	3.916
267.66	7.417
268.03	4.450
268.40	4.961
268.77	5.615
269.14	3.597
269.51	5.913
269.88	4.738
270.25	3.571
270.62	4.146
270.99	1.279
271.36	5.623
271.73	4.930
272.10	4.623
272.47	4.728
272.84	5.693
273.21	6.265
273.58	6.747
273.95	6.178
274.32	4.850
274.69	3.167
275.06	7.589
275.43	2.721
275.80	4.415
276.17	4.828
276.54	7.495
276.91	4.825
277.28	5.022
277.65	7.231
278.02	4.681
278.39	5.252
278.76	3.564
279.13	2.905
279.50	6.513
279.87	2.592
280.23	3.656
280.60	6.628
280.97	5.859
281.34	4.231
281.71	6.366
282.08	3.272
282.45	3.327
282.82	3.668
283.19	4.255
283.56	4.624
283.92	3.416
284.29	2.885
284.66	3.488
285.03	5.501
285.40	4.726
285.77	2.636
286.14	4.874
286.51	4.982
286.87	5.302
287.24	5.525
287.61	5.467
287.98	5.965
288.35	5.893
288.72	5.429
289.08	3.472
289.45	4.745
289.82	4.021
290.19	2.389
290.56	4.803
290.93	5.051
291.29	5.393
291.66	4.724
292.03	4.306
292.40	4.677
292.77	2.871
293.13	2.273
293.50	2.731
293.87	4.885
294.24	3.400
294.60	3.577
294.97	4.167
295.34	3.221
295.71	4.471
296.08	4.335
296.44	2.987
296.81	2.917
297.18	3.043
297.55	5.827
297.91	4.658
298.28	5.145
298.65	5.020
299.02	3.369
299.38	1.642
299.75	3.310
300.12	2.618
300.48	3.821
300.85	4.309
301.22	3.636
301.59	3.816
301.95	4.810
302.32	4.021
302.69	5.100
303.05	3.342
303.42	5.230
303.79	4.439
304.15	4.421
304.52	3.092
304.89	4.678
305.25	3.269
305.62	2.917
305.99	4.327
306.35	4.624
306.72	1.912
307.09	3.079
307.45	4.707
307.82	3.241
308.19	5.575
308.55	4.471
308.92	4.793
309.29	3.128
309.65	3.767
310.02	3.850
310.38	4.171
310.75	4.699
311.12	4.844
311.48	4.560
311.85	5.445
312.22	3.797
312.58	4.989
312.95	4.696
313.31	4.555
313.68	4.712
314.05	5.000
314.41	5.876
314.78	5.876
315.14	7.297
315.51	6.004
315.87	6.455
316.24	8.291
316.61	7.972
316.97	8.234
317.34	7.422
317.70	7.935
318.07	9.135
318.43	9.706
318.80	8.807
319.16	10.840
319.53	11.301
319.89	10.433
320.26	11.943
320.62	12.939
320.99	12.630
321.35	13.052
321.72	14.123
322.08	15.005
322.45	17.157
322.81	17.191
323.18	17.664
323.54	18.533
323.91	17.819
324.27	21.289
324.64	22.191
325.00	23.814
325.37	25.895
325.73	25.657
326.10	27.157
326.46	29.417
326.83	30.096
327.19	31.997
327.56	33.102
327.92	34.419
328.29	34.464
328.65	37.642
329.01	37.316
329.38	40.369
329.74	39.377
330.11	40.871
330.47	41.651
330.84	43.365
331.20	45.057
331.56	41.852
331.93	45.205
332.29	46.196
332.66	46.244
333.02	46.190
333.38	46.838
333.75	48.535
334.11	46.285
334.48	50.136
334.84	49.267
335.20	50.595
335.57	48.776
335.93	50.768
336.29	50.737
336.66	50.409
337.02	51.394
337.38	49.074
337.75	51.364
338.11	53.291
338.47	52.372
338.84	53.050
339.20	53.656
339.56	51.651
339.93	51.298
340.29	53.853
340.65	53.763
341.02	54.876
341.38	53.628
341.74	52.915
342.11	52.513
342.47	54.004
342.83	54.498
343.20	53.223
343.56	55.130
343.92	55.182
344.28	54.569
344.65	53.972
345.01	55.488
345.37	53.070
345.73	54.310
346.10	56.255
346.46	54.500
346.82	53.682
347.19	54.697
347.55	54.637
347.91	53.074
348.27	53.274
348.63	55.451
349.00	54.553
349.36	56.276
349.72	55.887
350.08	54.262
350.45	54.669
350.81	54.817
351.17	55.130
351.53	56.000
351.89	54.253
352.26	55.280
352.62	55.403
352.98	54.779
353.34	54.670
353.70	55.825
354.07	55.968
354.43	55.404
354.79	55.244
355.15	55.635
355.51	55.142
355.87	56.311
356.24	55.383
356.60	56.184
356.96	56.508
357.32	55.351
357.68	55.278
358.04	56.543
358.40	56.592
358.77	57.018
359.13	57.486
359.49	55.162
359.85	55.304
360.21	56.619
360.57	55.164
360.93	56.051
361.29	55.891
361.66	58.072
362.02	58.485
362.38	56.740
362.74	57.154
363.10	57.111
363.46	58.191
363.82	58.152
364.18	56.458
364.54	57.206
364.90	58.638
365.26	58.734
365.62	59.927
365.98	59.604
366.35	59.650
366.71	59.128
367.07	59.434
367.43	57.513
367.79	58.799
368.15	58.579
368.51	59.141
368.87	59.153
369.23	58.339
369.59	60.350
369.95	60.997
370.31	59.465
370.67	60.522
371.03	60.119
371.39	60.832
371.75	61.392
372.11	59.344
372.47	60.281
372.83	60.752
373.19	60.057
373.55	60.578
373.91	60.187
374.27	62.013
374.63	61.019
374.99	60.851
375.35	61.769
375.71	62.517
376.07	62.149
376.42	61.633
376.78	63.020
377.14	61.408
377.50	63.347
377.86	62.249
378.22	62.476
378.58	63.269
378.94	62.256
379.30	62.570
379.66	64.639
380.02	62.293
380.38	62.325
380.74	63.734
381.09	64.110
381.45	64.159
381.81	62.739
382.17	63.832
382.53	65.209
382.89	64.909
383.25	65.401
383.61	64.207
383.97	65.714
384.32	64.415
384.68	65.139
385.04	64.461
385.40	64.779
385.76	66.855
386.12	68.241
386.48	67.241
386.83	66.265
387.19	64.957
387.55	66.688
387.91	66.320
388.27	66.300
388.62	66.331
388.98	65.991
389.34	65.522
389.70	68.055
390.06	65.953
390.42	66.451
390.77	67.299
391.13	65.385
391.49	66.300
391.85	67.381
392.20	66.855
392.56	66.942
392.92	67.704
393.28	67.276
393.64	67.147
393.99	68.652
394.35	68.121
394.71	67.880
395.07	66.310
395.42	65.999
395.78	68.078
396.14	68.033
396.50	68.928
396.85	67.804
397.21	68.421
397.57	66.332
397.92	66.327
398.28	68.333
398.64	66.325
399.00	67.212
399.35	67.720
399.71	66.456
400.07	68.682
400.42	65.545
400.78	67.361
401.14	66.485
401.49	66.468
401.85	68.434
402.21	66.506
402.57	67.625
402.92	67.315
403.28	67.481
403.63	68.916
403.99	66.135
404.35	66.896
404.70	66.131
405.06	67.626
405.42	66.439
405.77	66.938
406.13	67.520
406.49	66.489
406.84	67.971
407.20	67.610
407.55	67.032
407.91	67.380
408.27	67.368
408.62	66.523
408.98	66.667
409.34	67.906
409.69	65.310
410.05	65.456
410.40	66.975
410.76	67.973
411.11	66.687
411.47	67.061
411.83	66.729
412.18	68.211
412.54	66.167
412.89	66.318
413.25	65.945
413.60	68.323
413.96	66.626
414.31	66.159
414.67	64.336
415.03	67.377
415.38	65.339
415.74	67.622
416.09	67.080
416.45	66.239
416.80	67.019
417.16	69.337
417.51	67.488
417.87	67.275
418.22	68.005
418.58	66.890
418.93	68.339
419.29	66.581
419.64	67.077
420.00	68.199
420.35	67.343
420.71	68.955
421.06	68.201
421.42	68.690
421.77	69.249
422.12	67.196
422.48	68.273
422.83	67.749
423.19	68.059
423.54	68.901
423.90	67.256
424.25	67.681
424.61	69.033
424.96	68.177
425.31	69.786
425.67	70.540
426.02	69.670
426.38	71.697
426.73	70.763
427.09	70.696
427.44	71.176
427.79	69.534
428.15	69.296
428.50	69.897
428.85	69.717
429.21	69.553
429.56	70.782
429.92	69.492
430.27	70.376
430.62	69.890
430.98	70.170
431.33	70.347
431.68	69.283
432.04	70.542
432.39	70.508
432.74	68.010
433.10	70.632
433.45	70.848
433.80	72.200
434.16	71.967
434.51	71.613
434.86	70.209
435.22	71.228
435.57	72.988
435.92	71.796
436.28	70.066
436.63	71.078
436.98	70.510
437.34	71.083
437.69	71.974
438.04	71.282
438.39	71.839
438.75	72.435
439.10	70.968
439.45	72.855
439.81	71.437
440.16	72.565
440.51	72.119
440.86	74.502
441.22	70.871
441.57	73.510
441.92	74.082
442.27	73.226
442.63	72.056
442.98	72.659
443.33	71.619
443.68	71.512
444.03	73.224
444.39	71.667
444.74	74.693
445.09	73.330
445.44	73.390
445.79	74.420
446.15	71.806
446.50	71.825
446.85	74.017
447.20	72.054
447.55	72.824
447.91	72.702
448.26	73.478
448.61	73.345
448.96	73.896
449.31	74.162
449.66	73.926
450.02	73.360
450.37	73.681
450.72	72.852
451.07	73.165
451.42	73.346
451.77	71.851
452.12	71.531
452.47	72.118
452.83	71.614
453.18	72.612
453.53	73.767
453.88	73.710
454.23	73.387
454.58	74.118
454.93	73.905
455.28	72.889
455.63	74.458
455.98	73.903
456.34	73.819
456.69	72.236
457.04	72.653
457.39	73.208
457.74	73.216
458.09	71.572
458.44	72.323
458.79	73.557
459.14	72.712
459.49	73.254
459.84	72.927
460.19	73.483
460.54	73.839
460.89	73.466
461.24	72.671
461.59	73.990
461.94	72.767
462.29	73.221
462.64	73.688
462.99	73.460
463.34	72.392
463.69	72.716
464.04	73.668
464.39	73.196
464.74	72.270
465.09	73.986
465.44	73.918
465.79	72.052
466.14	73.603
466.49	72.398
466.84	73.885
467.19	71.965
467.54	72.669
467.89	73.342
468.24	72.384
468.59	74.032
468.94	72.317
469.29	73.246
469.64	74.231
469.99	72.810
470.34	72.696
470.68	73.154
471.03	73.319
471.38	71.969
471.73	72.059
472.08	71.777
472.43	73.154
472.78	71.693
473.13	74.490
473.48	71.401
473.83	71.731
474.17	73.057
474.52	72.431
474.87	73.030
475.22	73.826
475.57	72.897
475.92	72.353
476.27	72.817
476.61	73.206
476.96	71.946
477.31	72.904
477.66	72.247
478.01	72.993
478.36	71.569
478.70	74.171
479.05	71.923
479.40	74.139
479.75	71.741
480.10	71.992
480.45	73.800
480.79	73.313
481.14	73.514
481.49	71.429
481.84	73.263
482.19	72.357
482.53	71.415
482.88	72.411
483.23	72.217
483.58	71.509
483.92	71.975
484.27	71.240
484.62	72.075
484.97	71.808
485.31	71.604
485.66	72.703
486.01	72.500
486.36	72.659
486.70	72.036
487.05	72.080
487.40	72.156
487.75	71.070
488.09	71.570
488.44	70.495
488.79	70.788
489.13	71.194
489.48	71.655
489.83	71.256
490.17	71.640
490.52	71.594
490.87	69.875
491.22	72.636
491.56	72.011
491.91	69.981
492.26	72.825
492.60	70.873
492.95	72.602
493.30	71.764
493.64	72.692
493.99	72.126
494.34	72.233
494.68	70.857
495.03	72.944
495.37	72.130
495.72	71.479
496.07	72.293
496.41	72.028
496.76	71.442
497.11	70.703
497.45	73.222
497.80	72.301
498.14	71.684
498.49	72.575
498.84	71.008
499.18	72.892
499.53	72.073
499.87	72.033
500.22	70.673
500.56	72.769
500.91	72.440
501.26	71.923
501.60	71.913
501.95	71.179
502.29	71.622
502.64	72.442
502.98	71.288
503.33	71.326
503.67	70.265
504.02	71.994
504.36	72.439
504.71	71.566
505.06	72.974
505.40	71.218
505.75	72.680
506.09	70.907
506.44	71.458
506.78	71.786
507.13	71.923
507.47	69.765
507.82	71.528
508.16	70.259
508.51	72.770
508.85	72.475
509.19	72.432
509.54	71.903
509.88	70.928
510.23	72.351
510.57	71.726
510.92	69.723
511.26	71.959
511.61	72.332
511.95	71.014
512.30	72.062
512.64	71.508
512.98	72.150
513.33	72.244
513.67	70.893
514.02	72.883
514.36	72.686
514.70	73.893
515.05	73.502
515.39	72.314
515.74	74.251
516.08	72.923
516.42	72.556
516.77	73.084
517.11	72.997
517.46	73.369
517.80	72.229
518.14	73.974
518.49	71.815
518.83	72.418
519.17	71.255
519.52	71.048
519.86	71.729
520.20	73.329
520.55	71.357
520.89	72.836
521.23	71.691
521.58	74.069
521.92	73.205
522.26	72.869
522.61	74.156
522.95	75.364
523.29	72.554
523.64	73.189
523.98	73.688
524.32	73.518
524.66	72.919
525.01	71.753
525.35	73.882
525.69	73.603
526.04	72.751
526.38	73.930
526.72	71.942
527.06	72.114
527.41	71.504
527.75	73.190
528.09	72.625
528.43	73.464
528.78	73.729
529.12	73.613
529.46	74.204
529.80	70.741
530.15	74.389
530.49	72.727
530.83	73.529
531.17	73.069
531.51	73.324
531.86	72.604
532.20	73.069
532.54	72.634
532.88	73.169
533.22	73.656
533.57	72.674
533.91	73.564
534.25	73.633
534.59	71.456
534.93	70.925
535.27	71.954
535.62	73.428
535.96	73.320
536.30	72.164
536.64	72.502
536.98	71.080
537.32	73.400
537.66	73.072
538.01	72.448
538.35	73.440
538.69	71.305
539.03	72.044
539.37	72.409
539.71	72.597
540.05	72.166
540.39	72.992
540.73	71.897
541.07	73.412
541.42	72.110
541.76	73.572
542.10	70.819
542.44	73.662
542.78	69.993
543.12	70.879
543.46	73.435
543.80	72.311
544.14	71.696
544.48	72.685
544.82	73.684
545.16	73.839
545.50	72.029
545.84	72.946
546.18	73.262
546.52	72.314
546.86	71.891
547.20	71.602
547.54	72.721
547.88	72.351
548.22	72.124
548.56	72.691
548.90	73.585
549.24	72.796
549.58	72.355
549.92	71.408
550.26	71.355
550.60	73.457
550.94	70.948
551.28	72.952
551.62	73.846
551.96	72.331
552.30	73.538
552.64	73.131
552.98	71.800
553.32	72.896
553.66	71.843
554.00	73.650
554.34	73.117
554.68	71.460
555.02	72.396
555.36	72.550
555.69	71.136
556.03	72.591
556.37	72.100
556.71	72.708
557.05	73.229
557.39	71.896
557.73	72.939
558.07	73.831
558.41	72.052
558.75	74.045
559.08	73.759
559.42	72.778
559.76	73.739
560.10	73.930
560.44	73.864
560.78	72.448
561.12	73.343
561.45	74.842
561.79	73.459
562.13	73.811
562.47	72.374
562.81	73.127
563.15	73.131
563.48	73.550
563.82	73.164
564.16	72.911
564.50	73.176
564.84	72.155
565.17	71.898
565.51	75.205
565.85	73.594
566.19	73.077
566.52	73.324
566.86	73.586
567.20	72.478
567.54	74.878
567.88	73.404
568.21	74.491
568.55	74.130
568.89	72.998
569.23	72.942
569.56	74.168
569.90	74.381
570.24	72.646
570.57	72.691
570.91	74.695
571.25	72.706
571.59	72.470
571.92	70.933
572.26	72.192
572.60	71.070
572.93	71.698
573.27	71.944
573.61	72.136
573.95	72.174
574.28	71.716
574.62	71.065
574.96	70.855
575.29	71.100
575.63	70.070
575.97	70.453
576.30	71.071
576.64	70.781
576.98	71.506
577.31	72.303
577.65	71.904
577.98	72.210
578.32	70.824
578.66	70.170
578.99	69.911
579.33	70.822
579.67	70.502
580.00	70.506
580.34	71.020
580.67	70.846
581.01	71.854
581.35	71.059
581.68	71.403
582.02	71.518
582.35	71.588
582.69	72.166
583.02	71.203
583.36	71.162
583.70	70.145
584.03	72.255
584.37	71.824
584.70	70.742
585.04	70.466
585.37	70.934
585.71	70.921
586.04	71.281
586.38	70.926
586.72	72.023
587.05	72.675
587.39	72.211
587.72	73.592
588.06	71.243
588.39	71.176
588.73	71.886
589.06	72.570
589.40	71.137
589.73	71.961
590.07	71.903
590.40	71.633
590.73	73.888
591.07	72.519
591.40	71.995
591.74	71.855
592.07	71.707
592.41	71.378
592.74	71.963
593.08	71.359
593.41	72.718
593.75	71.868
594.08	70.683
594.41	70.852
594.75	71.221
595.08	72.153
595.42	71.513
595.75	72.212
596.09	72.361
596.42	72.179
596.75	70.737
597.09	71.754
597.42	71.906
597.75	73.110
598.09	70.937
598.42	70.578
598.76	72.287
599.09	72.035
599.42	70.784
599.76	71.633
600.09	70.965
600.42	71.911
600.76	70.914
601.09	71.565
601.42	70.819
601.76	71.894
602.09	71.328
602.42	73.252
602.76	72.199
603.09	72.965
603.42	73.202
603.76	72.056
604.09	71.891
604.42	70.643
604.76	72.897
605.09	72.121
605.42	70.700
605.75	71.673
606.09	71.168
606.42	70.767
606.75	71.472
607.09	71.253
607.42	71.555
607.75	72.247
608.08	70.665
608.42	71.540
608.75	73.735
609.08	73.543
609.41	72.437
609.75	71.069
610.08	72.841
610.41	71.884
610.74	72.843
611.07	73.385
611.41	71.977
611.74	72.388
612.07	72.216
612.40	72.812
612.73	74.124
613.07	72.441
613.40	71.772
613.73	73.419
614.06	72.120
614.39	72.532
614.72	72.885
615.06	73.464
615.39	70.742
615.72	71.044
616.05	72.793
616.38	71.339
616.71	73.272
617.05	72.946
617.38	73.287
617.71	73.082
618.04	74.286
618.37	74.590
618.70	74.191
619.03	74.861
619.36	72.793
619.69	74.526
620.03	75.383
620.36	73.605
620.69	73.876
621.02	74.083
621.35	75.851
621.68	75.425
622.01	76.417
622.34	74.222
622.67	73.817
623.00	74.426
623.33	73.933
623.66	75.318
623.99	75.113
624.32	75.513
624.65	73.684
624.99	74.868
625.32	73.237
625.65	74.470
625.98	74.940
626.31	73.400
626.64	75.477
626.97	74.869
627.30	76.007
627.63	74.437
627.96	75.202
628.29	72.895
628.62	75.418
628.95	75.050
629.28	75.806
629.61	76.869
629.94	74.487
630.26	75.000
630.59	76.275
630.92	75.897
631.25	72.103
631.58	76.652
631.91	76.425
632.24	75.459
632.57	77.500
632.90	76.038
633.23	75.529
633.56	77.834
633.89	75.832
634.22	78.025
634.55	77.764
634.88	77.267
635.20	80.000
635.53	77.333
635.86	76.853
636.19	79.690
636.52	76.403
636.85	76.303
637.18	76.101
637.51	75.220
637.83	74.639
638.16	78.035
638.49	72.752
638.82	76.711
639.15	77.069
639.48	78.680
639.81	77.266
640.13	75.613
640.46	78.426
640.79	77.172
641.12	77.400
641.45	78.679
641.77	75.704
642.10	78.515
642.43	80.386
642.76	79.868
643.09	74.960
643.41	77.346
643.74	76.606
644.07	78.818
644.40	76.351
644.73	77.583
645.05	78.020
645.38	79.012
645.71	76.596
646.04	82.406
646.36	77.482
646.69	80.755
647.02	80.340
647.35	79.104
647.67	78.245
648.00	78.545
648.33	75.597
648.66	79.831
648.98	76.884
649.31	77.686
649.64	75.981
649.96	76.661
650.29	75.980
650.62	75.556
650.94	77.593
651.27	77.467
651.60	79.279
651.92	77.622
652.25	78.330
652.58	75.333
652.90	78.731
653.23	75.126
653.56	75.465
653.88	79.381
654.21	76.357
654.54	74.533
654.86	79.117
655.19	76.608
655.52	79.334
655.84	74.981
656.17	82.279
656.49	100.000
656.82	100.000
657.15	98.466
657.47	62.712
657.80	46.285
658.13	45.617
658.45	69.883
658.78	68.323
659.10	67.116
659.43	67.342
659.75	68.081
660.08	67.379
660.41	72.319
660.73	74.309
661.06	75.043
661.38	75.734
661.71	75.770
662.03	80.043
662.36	76.044
662.68	77.434
663.01	80.349
663.33	79.582
663.66	80.930
663.98	79.767
664.31	74.627
664.63	79.954
664.96	75.435
665.28	77.042
665.61	79.870
665.93	81.087
666.26	78.525
666.58	79.866
666.91	75.765
667.23	81.368
667.56	82.701
667.88	81.055
668.21	77.088
668.53	81.797
668.86	78.538
669.18	77.358
669.50	77.240
669.83	78.837
670.15	82.051
670.48	80.861
670.80	76.959
671.13	74.944
671.45	73.288
671.77	78.326
672.10	77.426
672.42	76.592
672.75	76.554
673.07	75.134
673.39	76.147
673.72	74.556
674.04	77.083
674.37	79.237
674.69	76.017
675.01	75.333
675.34	76.126
675.66	81.250
675.98	77.384
676.31	77.523
676.63	80.760
676.95	76.364
677.28	77.647
677.60	78.795
677.92	78.670
678.25	78.337
678.57	75.541
678.89	75.840
679.22	82.774
679.54	74.297
679.86	75.944
680.18	78.252
680.51	75.000
680.83	76.541
681.15	75.600
681.48	77.254
681.80	76.653
682.12	75.000
682.44	76.778
682.77	79.912
683.09	77.346
683.41	76.364
683.73	76.037
684.06	76.770
684.38	74.624
684.70	79.739
685.02	74.481
685.34	76.087
685.67	75.422
685.99	73.418
686.31	73.805
686.63	74.583
686.96	73.954
687.28	72.929
687.60	72.243
687.92	75.758
688.24	75.806
688.56	77.293
688.89	77.232
689.21	76.000
689.53	77.958
689.85	77.209
690.17	75.000
690.49	74.468
690.82	77.427
691.14	77.381
691.46	76.402
691.78	78.829
692.10	77.204
692.42	74.459
692.74	72.222
693.06	75.450
693.39	75.566
693.71	74.887
694.03	74.827
694.35	76.168
694.67	77.273
694.99	74.674
695.31	77.807
695.63	75.500
695.95	76.768
696.27	76.684
696.59	75.000
696.91	72.549
697.23	75.064
697.56	81.931
697.88	74.624
698.20	77.221
698.52	77.176
698.84	71.770
699.16	74.500
699.48	76.942
699.80	73.201
700.12	78.167
700.44	73.950
700.76	73.547
701.08	76.667
701.40	78.012
701.72	79.630
702.04	81.518
702.36	84.281
702.68	75.075
703.00	80.606
703.32	74.194
703.64	72.316
703.96	76.232
704.28	75.153
704.60	78.413
704.91	72.871
705.23	72.425
705.55	79.859
705.87	78.700
706.19	81.111
706.51	70.790
706.83	73.633
707.15	71.963
707.47	78.151
707.79	71.354
708.11	73.250
708.43	73.500
708.74	71.576
709.06	74.366
709.38	81.651
709.70	70.118
710.02	72.930
710.34	76.161
710.66	71.795
710.98	74.172
711.29	80.328
711.61	78.983
711.93	74.267
712.25	75.601
712.57	77.289
712.89	77.239
713.20	74.394
713.52	73.868
713.84	73.379
714.16	80.412
714.48	76.129
714.80	78.205
715.11	78.723
715.43	72.414
715.75	75.000
716.07	76.080
716.39	71.141
716.70	71.956
717.02	75.954
717.34	74.899
717.66	81.858
717.97	83.043
718.29	78.661
718.61	73.622
718.93	73.643
719.24	79.087
719.56	77.108
719.88	69.759
720.20	77.273
720.51	71.264
720.83	71.429
721.15	81.513
721.46	73.790
721.78	71.937
722.10	72.119
722.42	76.349
722.73	75.510
723.05	75.102
723.37	73.305
723.68	75.676
724.00	76.923
724.32	75.556
724.63	73.636
724.95	76.856
725.27	78.802
725.58	79.661
725.90	68.254
726.22	80.309
726.53	71.186
726.85	79.026
727.16	76.226
727.48	74.089
727.80	74.899
728.11	75.000
728.43	72.549
728.74	71.774
729.06	71.200
729.38	75.188
729.69	74.502
730.01	71.538
730.32	71.642
730.64	74.558
730.96	76.981
731.27	71.667
731.59	70.847
731.90	71.019
732.22	71.609
732.53	76.080
732.85	74.468
733.16	75.084
733.48	67.986
733.80	74.638
734.11	66.441
734.43	75.258
734.74	73.030
735.06	69.055
735.37	73.414
735.69	75.084
736.00	70.732
736.32	71.477
736.63	71.127
736.95	71.672
737.26	75.801
737.58	70.805
737.89	70.696
738.21	70.301
738.52	74.486
738.83	72.926
739.15	68.559
739.46	72.835
739.78	65.201
740.09	68.627
740.41	73.551
740.72	71.260
741.04	67.206
741.35	71.489
741.66	70.142
741.98	73.469
742.29	68.812
742.61	76.963
742.92	68.246
743.23	65.741
743.55	74.208
743.86	73.206
744.18	69.856
744.49	69.149
744.80	73.913
745.12	82.353
745.43	69.268
745.74	81.771
746.06	73.171
746.37	76.440
746.68	66.825
747.00	70.213
747.31	74.129
747.62	63.107
747.94	79.426
748.25	79.208
748.56	79.781
748.88	73.822
749.19	79.787
749.50	73.892
749.82	67.453
750.13	75.229
750.44	74.060
750.75	74.627
751.07	75.547
751.38	70.881
751.69	69.804
752.01	72.481
752.32	73.705
752.63	68.379
752.94	68.966
753.26	71.967
753.57	75.566
753.88	73.894
754.19	73.750
754.51	73.554
754.82	70.040
755.13	72.917
755.44	69.355
755.75	62.891
756.07	70.039
756.38	67.547
756.69	70.115
757.00	67.333
757.31	67.320
757.63	66.768
757.94	67.778
758.25	63.836
758.56	65.691
758.87	60.907
759.18	63.551
759.50	71.636
759.81	70.234
760.12	69.677
760.43	64.848
760.74	70.679
761.05	72.000
761.36	63.068
761.67	69.091
761.99	71.769
762.30	65.818
762.61	64.822
762.92	62.896
763.23	67.117
763.54	67.757
763.85	71.186
764.16	68.050
764.47	68.145
764.78	65.201
765.10	66.667
765.41	67.508
765.72	63.492
766.03	71.429
766.34	65.693
766.65	70.120
766.96	71.717
767.27	65.957
767.58	61.494
767.89	67.376
768.20	73.295
768.51	63.736
768.82	68.966
769.13	65.438
769.44	64.807
769.75	70.776
770.06	59.052
770.37	66.346
770.68	71.066
770.99	66.968
771.30	70.588
771.61	69.231
771.92	69.828
772.23	69.951
772.54	73.656
772.85	76.543
773.16	64.045
773.47	83.007
773.78	74.510
774.09	70.659
774.39	70.000
774.70	64.968
775.01	71.724
775.32	72.857
775.63	71.901
775.94	70.229
776.25	71.654
776.56	63.333
776.87	78.846
777.18	75.214
777.48	72.414
777.79	71.304
778.10	53.333
778.41	68.468
778.72	59.524
779.03	71.429
779.34	65.957
779.65	71.918
779.95	66.438
780.26	66.207
780.57	69.106
780.88	66.929
781.19	65.517
781.50	68.217
781.80	64.497
782.11	63.522
782.42	72.308
782.73	74.820
783.04	68.889
783.34	63.889
783.65	64.957
783.96	63.934
784.27	62.759
784.57	60.163
784.88	62.500
785.19	82.000
785.50	78.000
785.81	64.655
786.11	68.103
786.42	62.136
786.73	69.091
787.04	71.429
787.34	58.929
787.65	72.381
787.96	69.027
788.26	71.818
788.57	64.103
788.88	59.375
789.19	65.079
789.49	66.087
789.80	67.347
790.11	75.758
790.41	48.182
790.72	76.087
791.03	77.273
791.33	81.250
791.64	68.750
791.95	69.767
792.25	68.085
792.56	69.663
792.87	68.493
793.17	73.913
793.48	57.333
793.79	75.000
794.09	60.000
794.40	60.377
794.70	71.845
795.01	61.789
795.32	62.393
795.62	68.571
795.93	69.608
796.23	65.094
796.54	52.083
796.85	69.118
797.15	70.423
797.46	59.722
797.76	59.091
798.07	53.488
798.37	59.211
798.68	46.970
798.99	56.790
799.29	84.286
799.60	57.971
799.90	68.000
800.21	75.410
800.51	73.846
800.82	69.492
801.12	62.319
801.43	62.295
801.73	66.667
802.04	76.000
802.34	37.313
802.65	88.462
802.95	51.786
803.26	46.154
803.56	62.745
803.87	67.391
804.17	60.000
804.48	73.016
804.78	38.889
805.09	73.913
805.39	80.000
805.70	74.074
806.00	28.070
806.30	56.338
806.61	67.143
806.91	51.389
807.22	69.737
807.52	61.333
807.83	69.091
808.13	52.778
808.43	55.882
808.74	50.746
809.04	71.186
809.35	65.385
809.65	60.937
809.95	59.459
810.26	61.364
810.56	52.055
810.86	85.714
811.17	68.000
811.47	67.347
811.77	57.895
812.08	61.364
812.38	41.509
812.69	50.000
812.99	54.545
813.29	50.000
813.59	28.571
813.90	65.909
814.20	48.718
814.50	63.462
814.81	54.717
815.11	46.809
815.41	64.407
815.72	54.762
816.02	54.902
816.32	58.333
816.62	60.976
816.93	51.351
817.23	65.714
817.53	95.833
817.84	30.435
818.14	67.308
818.44	50.000
818.74	54.348
819.04	42.500
819.35	37.838
819.65	52.941
819.95	72.222
820.25	38.095
820.56	77.500
820.86	31.034
821.16	85.000
821.46	61.702
821.76	55.000
822.07	58.140
822.37	45.946
822.67	81.250
822.97	66.667
823.27	17.857
823.57	80.000
823.88	37.037
824.18	53.571
824.48	38.235
824.78	67.742
825.08	73.913
825.38	54.545
825.69	25.000
825.99	60.526
826.29	75.000
826.59	93.333
826.89	47.619
827.19	63.043
827.49	55.000
827.79	62.857
828.09	78.571
828.39	84.848
828.70	83.784
829.00	57.143
829.30	100.000
829.60	23.333
829.90	78.125
830.20	55.263
830.50	74.074
830.80	91.304
831.10	59.091
831.40	45.455
831.70	61.290
832.00	100.000
832.30	14.286
832.60	91.667
832.90	27.586
833.20	20.000
833.50	42.424
833.80	51.852
834.10	61.538
834.40	65.625
834.70	111.111
835.00	73.684
835.30	103.846
835.60	126.667
835.90	48.387
836.20	9.091
836.50	57.143
836.80	23.077
837.10	60.714
837.40	333.333
837.70	95.455
838.00	36.364
838.30	52.174
838.60	30.769
838.90	86.364
839.19	39.286
839.49	70.000
839.79	46.154
840.09	108.333
840.39	92.857
840.69	17.857
840.99	26.923
841.29	47.368
841.59	90.000
841.88	109.091
842.18	90.000
842.48	43.750
842.78	60.000
843.08	66.667
843.38	10.000
843.68	91.304
843.97	46.667
844.27	-6.667
844.57	70.000
844.87	38.889
845.17	-4.762
845.47	40.000
845.76	57.143
846.06	70.588
846.36	40.000
846.66	-28.571
846.96	6.667
847.25	-12.500
847.55	64.286
847.85	100.000
848.15	54.545
848.44	-333.333
848.74	65.000
849.04	55.556
849.34	72.727
849.63	-50.000
849.93	0.000
850.23	11.111
850.53	80.000
850.82	15.385
851.12	66.667
851.42	113.333
851.71	11.538
852.01	92.857
852.31	25.000
852.61	18.182
852.90	10.000
853.20	-21.053
853.50	66.667
853.79	39.130
854.09	66.667
854.39	89.474
854.68	41.667
854.98	45.161
855.28	53.846
855.57	50.000
855.87	66.667
856.17	14.815
856.46	100.000
856.76	73.333
857.05	111.111
857.35	64.000
857.65	83.333
857.94	61.538
858.24	51.724
858.53	105.556
858.83	29.630
859.13	45.455
859.42	34.783
859.72	225.000
860.01	66.667
860.31	72.000
860.60	33.333
860.90	100.000
861.20	-40.000
861.49	450.000
861.79	-13.333
862.08	65.000
862.38	180.000
862.67	-120.000
862.97	-83.333
863.26	83.333
863.56	50.000
863.85	-100.000
864.15	27.778
864.44	-60.000
864.74	121.429
865.03	75.000
865.33	0.000
865.62	66.667
865.92	75.000
866.21	-83.333
866.51	87.500
866.80	63.636
867.10	250.000
867.39	50.000
867.69	0.000
867.98	15.385
868.27	33.333
868.57	33.333
868.86	100.000
869.16	15.385
869.45	73.333
869.75	-1200.000
870.04	0.000
870.33	128.571
870.63	61.905
870.92	66.667
871.22	-80.000
871.51	-500.000
871.80	144.444
872.10	-100.000
>>>>>End Processed Spectral Data<<<<<
