SpectraSuite Data File
++++++++++++++++++++++++++++++++++++
Date: Fri May 15 17:03:43 PDT 2015
User: schluterlab
Dark Spectrum Present: Yes
Reference Spectrum Present: Yes
Number of Sampled Component Spectra: 1
Spectrometers: USB2E3373
Integration Time (usec): 3000 (USB2E3373)
Spectra Averaged: 3 (USB2E3373)
Boxcar Smoothing: 0 (USB2E3373)
Correct for Electrical Dark: No (USB2E3373)
Strobe/Lamp Enabled: No (USB2E3373)
Correct for Detector Non-linearity: No (USB2E3373)
Correct for Stray Light: No (USB2E3373)
Number of Pixels in Processed Spectrum: 2048
>>>>>Begin Processed Spectral Data<<<<<
178.53	0.000
178.91	0.000
179.29	112.500
179.67	-150.000
180.04	-128.571
180.42	300.000
180.80	1200.000
181.18	-33.333
181.56	-350.000
181.94	250.000
182.31	100.000
182.69	-20.000
183.07	66.667
183.45	0.000
183.83	-50.000
184.20	45.455
184.58	155.556
184.96	-250.000
185.34	-200.000
185.72	-100.000
186.09	23.077
186.47	0.000
186.85	16.667
187.23	55.556
187.61	100.000
187.98	-33.333
188.36	55.556
188.74	33.333
189.12	23.529
189.49	77.778
189.87	0.000
190.25	50.000
190.63	600.000
191.00	133.333
191.38	52.632
191.76	450.000
192.14	-100.000
192.51	0.000
192.89	33.333
193.27	0.000
193.65	-50.000
194.02	54.545
194.40	-40.000
194.78	-87.500
195.15	16.667
195.53	-12.500
195.91	50.000
196.29	50.000
196.66	30.769
197.04	-14.286
197.42	66.667
197.79	-133.333
198.17	-38.462
198.55	1300.000
198.92	-166.667
199.30	500.000
199.68	-20.000
200.05	-233.333
200.43	0.000
200.81	133.333
201.18	266.667
201.56	800.000
201.94	-50.000
202.31	-100.000
202.69	-20.000
203.07	50.000
203.44	1200.000
203.82	0.000
204.19	71.429
204.57	-100.000
204.95	25.000
205.32	140.000
205.70	142.857
206.08	100.000
206.45	222.222
206.83	100.000
207.20	-28.571
207.58	400.000
207.96	100.000
208.33	-10.000
208.71	75.000
209.08	16.667
209.46	200.000
209.84	60.000
210.21	100.000
210.59	214.286
210.96	-16.667
211.34	200.000
211.71	80.000
212.09	0.000
212.46	-500.000
212.84	0.000
213.22	140.000
213.59	-100.000
213.97	161.538
214.34	63.636
214.72	66.667
215.09	100.000
215.47	53.846
215.84	0.000
216.22	166.667
216.59	75.000
216.97	600.000
217.34	175.000
217.72	-100.000
218.09	100.000
218.47	50.000
218.84	0.000
219.22	22.222
219.59	-80.000
219.97	66.667
220.34	150.000
220.72	57.143
221.09	125.000
221.47	-200.000
221.84	-100.000
222.22	-550.000
222.59	100.000
222.97	50.000
223.34	100.000
223.72	-14.286
224.09	0.000
224.46	21.429
224.84	166.667
225.21	-10.000
225.59	20.000
225.96	150.000
226.34	350.000
226.71	-28.571
227.08	100.000
227.46	75.000
227.83	-300.000
228.21	100.000
228.58	45.455
228.95	12.500
229.33	70.000
229.70	87.500
230.08	0.000
230.45	-85.714
230.82	128.571
231.20	26.667
231.57	92.857
231.95	28.571
232.32	60.000
232.69	57.143
233.07	133.333
233.44	-40.000
233.81	-40.000
234.19	55.556
234.56	23.529
234.93	50.000
235.31	300.000
235.68	-60.000
236.05	7.692
236.43	0.000
236.80	82.353
237.17	40.625
237.55	-20.000
237.92	11.111
238.29	22.222
238.67	23.333
239.04	26.471
239.41	7.317
239.79	30.000
240.16	4.878
240.53	5.263
240.91	-4.348
241.28	20.635
241.65	16.071
242.02	27.397
242.40	10.000
242.77	-1.695
243.14	16.667
243.51	20.000
243.89	22.989
244.26	20.690
244.63	7.143
245.00	-3.093
245.38	9.278
245.75	14.607
246.12	6.034
246.49	19.008
246.87	5.769
247.24	4.202
247.61	-4.386
247.98	11.382
248.36	5.625
248.73	7.237
249.10	6.494
249.47	8.861
249.84	9.150
250.22	6.471
250.59	11.765
250.96	11.737
251.33	4.070
251.70	5.294
252.08	9.645
252.45	7.426
252.82	8.543
253.19	9.677
253.56	5.607
253.94	9.459
254.31	6.522
254.68	7.018
255.05	4.724
255.42	8.734
255.79	7.722
256.16	7.004
256.54	8.955
256.91	7.605
257.28	7.435
257.65	4.120
258.02	2.837
258.39	6.397
258.76	9.524
259.14	8.306
259.51	7.443
259.88	5.155
260.25	7.516
260.62	8.681
260.99	5.763
261.36	4.110
261.73	3.797
262.10	6.687
262.47	3.681
262.85	4.702
263.22	7.692
263.59	4.984
263.96	6.211
264.33	7.273
264.70	7.143
265.07	6.250
265.44	8.782
265.81	6.497
266.18	8.743
266.55	5.656
266.92	6.736
267.29	7.050
267.66	4.604
268.03	10.209
268.40	3.394
268.77	9.358
269.14	8.393
269.51	6.941
269.88	7.481
270.25	4.082
270.62	4.634
270.99	3.581
271.36	6.601
271.73	7.746
272.10	4.623
272.47	5.437
272.84	7.673
273.21	6.032
273.58	7.470
273.95	7.551
274.32	4.619
274.69	5.656
275.06	8.036
275.43	5.215
275.80	5.519
276.17	6.897
276.54	7.066
276.91	5.921
277.28	4.367
277.65	6.612
278.02	7.021
278.39	6.127
278.76	7.128
279.13	2.282
279.50	6.723
279.87	7.991
280.23	4.086
280.60	7.212
280.97	4.444
281.34	4.231
281.71	7.598
282.08	5.930
282.45	6.458
282.82	4.633
283.19	4.836
283.56	7.707
283.92	4.364
284.29	4.423
284.66	2.519
285.03	3.929
285.40	5.860
285.77	4.921
286.14	5.957
286.51	7.011
286.87	5.119
287.24	4.236
287.61	3.880
287.98	7.193
288.35	4.159
288.72	8.056
289.08	5.729
289.45	4.921
289.82	6.818
290.19	4.096
290.56	2.916
290.93	4.882
291.29	5.239
291.66	4.567
292.03	5.104
292.40	4.355
292.77	5.104
293.13	2.110
293.50	3.945
293.87	5.038
294.24	5.255
294.60	5.067
294.97	7.143
295.34	4.141
295.71	4.173
296.08	3.288
296.44	2.560
296.81	3.750
297.18	4.638
297.55	4.878
297.91	4.795
298.28	5.277
298.65	5.292
299.02	4.043
299.38	2.052
299.75	4.000
300.12	2.225
300.48	3.162
300.85	5.196
301.22	5.974
301.59	3.947
301.95	4.430
302.32	5.058
302.69	3.358
303.05	3.218
303.42	4.359
303.79	5.023
304.15	5.018
304.52	3.686
304.89	2.456
305.25	3.269
305.62	4.551
305.99	3.509
306.35	4.855
306.72	4.499
307.09	3.763
307.45	4.363
307.82	4.282
308.19	4.181
308.55	3.708
308.92	5.991
309.29	3.687
309.65	4.521
310.02	4.840
310.38	3.952
310.75	4.481
311.12	3.875
311.48	3.924
311.85	5.445
312.22	4.008
312.58	5.732
312.95	4.055
313.31	4.969
313.68	4.188
314.05	4.490
314.41	4.330
314.78	4.536
315.14	6.372
315.51	6.418
315.87	5.123
316.24	6.977
316.61	6.791
316.97	6.647
317.34	6.055
317.70	6.979
318.07	6.154
318.43	8.333
318.80	7.008
319.16	7.812
319.53	9.307
319.89	8.760
320.26	7.389
320.62	8.024
320.99	8.142
321.35	8.839
321.72	9.346
322.08	10.373
322.45	9.036
322.81	10.904
323.18	10.206
323.54	11.776
323.91	10.127
324.27	11.621
324.64	12.734
325.00	12.226
325.37	14.601
325.73	13.871
326.10	13.806
326.46	15.336
326.83	15.048
327.19	14.385
327.56	15.552
327.92	14.789
328.29	15.625
328.65	15.755
329.01	16.820
329.38	17.327
329.74	17.941
330.11	18.443
330.47	18.275
330.84	18.462
331.20	20.437
331.56	19.815
331.93	21.553
332.29	20.440
332.66	19.548
333.02	20.074
333.38	20.898
333.75	22.070
334.11	22.202
334.48	22.575
334.84	23.260
335.20	22.598
335.57	21.850
335.93	23.758
336.29	23.389
336.66	22.616
337.02	22.398
337.38	23.148
337.75	23.364
338.11	23.805
338.47	23.540
338.84	23.013
339.20	23.492
339.56	23.486
339.93	24.620
340.29	24.679
340.65	24.642
341.02	23.936
341.38	23.717
341.74	23.057
342.11	22.444
342.47	23.665
342.83	24.394
343.20	22.909
343.56	25.391
343.92	24.801
344.28	24.509
344.65	24.093
345.01	22.904
345.37	23.129
345.73	23.013
346.10	24.159
346.46	23.886
346.82	23.650
347.19	22.444
347.55	23.642
347.91	24.272
348.27	22.635
348.63	22.828
349.00	23.544
349.36	23.774
349.72	23.798
350.08	23.934
350.45	23.783
350.81	24.086
351.17	24.267
351.53	24.735
351.89	22.791
352.26	22.720
352.62	23.548
352.98	23.534
353.34	22.705
353.70	24.353
354.07	21.855
354.43	23.299
354.79	23.534
355.15	24.524
355.51	23.418
355.87	23.706
356.24	23.165
356.60	22.878
356.96	23.889
357.32	23.083
357.68	22.596
358.04	24.717
358.40	23.473
358.77	23.604
359.13	23.539
359.49	23.344
359.85	24.025
360.21	23.525
360.57	24.024
360.93	23.601
361.29	22.961
361.66	24.295
362.02	24.318
362.38	24.219
362.74	23.694
363.10	23.853
363.46	24.166
363.82	25.244
364.18	24.871
364.54	24.265
364.90	23.728
365.26	25.182
365.62	24.380
365.98	24.340
366.35	24.472
366.71	24.538
367.07	25.980
367.43	24.083
367.79	24.099
368.15	23.833
368.51	24.181
368.87	23.690
369.23	24.043
369.59	25.656
369.95	25.000
370.31	25.723
370.67	24.925
371.03	24.869
371.39	24.945
371.75	25.275
372.11	24.251
372.47	25.518
372.83	25.195
373.19	25.250
373.55	23.610
373.91	24.910
374.27	24.805
374.63	25.485
374.99	25.461
375.35	24.582
375.71	25.734
376.07	25.421
376.42	25.986
376.78	25.570
377.14	24.374
377.50	25.365
377.86	25.837
378.22	25.846
378.58	24.872
378.94	25.520
379.30	26.076
379.66	26.583
380.02	25.567
380.38	25.685
380.74	25.194
381.09	27.485
381.45	27.339
381.81	26.465
382.17	26.459
382.53	25.984
382.89	26.616
383.25	26.322
383.61	26.890
383.97	26.476
384.32	25.641
384.68	26.378
385.04	26.225
385.40	25.638
385.76	27.107
386.12	27.296
386.48	27.969
386.83	27.140
387.19	27.167
387.55	27.478
387.91	27.445
388.27	27.045
388.62	26.621
388.98	26.826
389.34	27.233
389.70	27.533
390.06	25.865
390.42	26.943
390.77	27.142
391.13	27.238
391.49	27.232
391.85	27.420
392.20	26.993
392.56	27.463
392.92	27.598
393.28	26.887
393.64	26.547
393.99	27.649
394.35	26.502
394.71	27.203
395.07	27.278
395.42	27.080
395.78	27.166
396.14	27.617
396.50	27.140
396.85	27.753
397.21	26.754
397.57	27.649
397.92	26.423
398.28	26.897
398.64	26.506
399.00	26.975
399.35	25.734
399.71	26.536
400.07	27.086
400.42	26.499
400.78	26.026
401.14	27.284
401.49	27.635
401.85	26.143
402.21	25.843
402.57	26.500
402.92	25.094
403.28	26.190
403.63	26.545
403.99	25.829
404.35	26.608
404.70	25.417
405.06	25.676
405.42	26.414
405.77	24.695
406.13	24.854
406.49	24.571
406.84	26.284
407.20	25.406
407.55	25.241
407.91	25.201
408.27	24.857
408.62	25.477
408.98	25.139
409.34	25.403
409.69	23.708
410.05	25.185
410.40	25.494
410.76	24.970
411.11	25.312
411.47	25.838
411.83	24.608
412.18	25.611
412.54	24.657
412.89	24.200
413.25	26.173
413.60	23.540
413.96	25.276
414.31	25.854
414.67	24.695
415.03	24.834
415.38	24.217
415.74	25.342
416.09	25.016
416.45	25.861
416.80	25.644
417.16	25.691
417.51	26.116
417.87	24.902
418.22	25.194
418.58	25.686
418.93	25.956
419.29	25.032
419.64	25.405
420.00	27.204
420.35	25.970
420.71	26.853
421.06	25.414
421.42	26.142
421.77	26.127
422.12	25.653
422.48	26.151
422.83	26.566
423.19	27.201
423.54	26.867
423.90	26.678
424.25	27.440
424.61	26.377
424.96	25.610
425.31	27.383
425.67	26.937
426.02	27.032
426.38	27.740
426.73	27.906
427.09	27.975
427.44	26.647
427.79	27.932
428.15	27.973
428.50	28.346
428.85	27.150
429.21	28.014
429.56	28.194
429.92	28.557
430.27	28.722
430.62	27.705
430.98	28.556
431.33	28.549
431.68	28.205
432.04	29.011
432.39	28.237
432.74	28.863
433.10	29.425
433.45	29.928
433.80	28.555
434.16	29.030
434.51	29.247
434.86	29.675
435.22	29.613
435.57	30.131
435.92	30.479
436.28	29.934
436.63	30.576
436.98	29.548
437.34	30.369
437.69	30.650
438.04	30.541
438.39	30.055
438.75	31.208
439.10	31.013
439.45	30.858
439.81	30.642
440.16	31.888
440.51	32.239
440.86	32.810
441.22	31.561
441.57	31.015
441.92	32.529
442.27	32.650
442.63	33.405
442.98	32.223
443.33	31.386
443.68	32.414
444.03	32.588
444.39	32.858
444.74	32.999
445.09	33.909
445.44	33.390
445.79	33.935
446.15	33.205
446.50	32.612
446.85	33.847
447.20	34.359
447.55	33.538
447.91	33.446
448.26	34.775
448.61	34.370
448.96	35.055
449.31	34.509
449.66	34.088
450.02	34.683
450.37	34.025
450.72	34.078
451.07	35.886
451.42	34.644
451.77	35.202
452.12	33.373
452.47	35.029
452.83	34.511
453.18	35.737
453.53	35.651
453.88	35.458
454.23	34.972
454.58	35.894
454.93	35.567
455.28	34.159
455.63	35.834
455.98	36.621
456.34	34.930
456.69	35.832
457.04	36.295
457.39	35.844
457.74	36.215
458.09	35.374
458.44	35.401
458.79	35.182
459.14	35.755
459.49	36.537
459.84	35.815
460.19	35.437
460.54	36.430
460.89	35.739
461.24	36.025
461.59	36.045
461.94	35.157
462.29	36.429
462.64	37.276
462.99	37.305
463.34	36.996
463.69	36.229
464.04	36.259
464.39	35.961
464.74	36.748
465.09	37.492
465.44	38.027
465.79	35.658
466.14	37.457
466.49	36.228
466.84	37.061
467.19	37.109
467.54	37.037
467.89	37.840
468.24	37.348
468.59	38.286
468.94	37.841
469.29	37.770
469.64	37.867
469.99	39.103
470.34	36.928
470.68	38.628
471.03	37.863
471.38	37.375
471.73	38.305
472.08	36.635
472.43	37.785
472.78	36.669
473.13	38.503
473.48	38.241
473.83	36.986
474.17	38.795
474.52	37.715
474.87	38.303
475.22	38.560
475.57	38.001
475.92	37.575
476.27	39.115
476.61	38.484
476.96	37.981
477.31	37.804
477.66	38.258
478.01	37.563
478.36	38.181
478.70	39.043
479.05	39.451
479.40	38.951
479.75	37.539
480.10	37.583
480.45	38.300
480.79	39.124
481.14	39.652
481.49	37.241
481.84	38.224
482.19	39.196
482.53	38.561
482.88	38.663
483.23	38.292
483.58	38.962
483.92	38.141
484.27	38.560
484.62	38.010
484.97	38.101
485.31	37.572
485.66	36.996
486.01	37.556
486.36	37.206
486.70	37.441
487.05	37.570
487.40	37.849
487.75	38.085
488.09	37.855
488.44	37.999
488.79	38.476
489.13	39.583
489.48	38.863
489.83	39.013
490.17	38.247
490.52	38.891
490.87	38.640
491.22	39.828
491.56	38.567
491.91	38.815
492.26	38.989
492.60	38.340
492.95	39.547
493.30	38.495
493.64	39.931
493.99	39.034
494.34	38.155
494.68	39.143
495.03	38.929
495.37	39.058
495.72	39.525
496.07	39.463
496.41	39.151
496.76	39.475
497.11	39.218
497.45	39.666
497.80	38.951
498.14	39.245
498.49	40.071
498.84	39.621
499.18	39.056
499.53	39.831
499.87	39.105
500.22	38.823
500.56	39.738
500.91	39.157
501.26	38.705
501.60	39.252
501.95	39.544
502.29	38.741
502.64	38.948
502.98	39.467
503.33	38.665
503.67	39.229
504.02	39.736
504.36	39.733
504.71	40.000
505.06	38.702
505.40	39.340
505.75	40.567
506.09	38.723
506.44	39.733
506.78	38.724
507.13	40.383
507.47	38.538
507.82	39.049
508.16	39.778
508.51	39.402
508.85	38.828
509.19	39.117
509.54	39.249
509.88	38.943
510.23	39.537
510.57	39.017
510.92	38.326
511.26	39.935
511.61	40.099
511.95	38.575
512.30	38.858
512.64	39.455
512.98	39.135
513.33	39.508
513.67	39.397
514.02	40.789
514.36	40.457
514.70	40.793
515.05	40.306
515.39	39.847
515.74	40.240
516.08	40.526
516.42	40.813
516.77	40.784
517.11	39.585
517.46	40.395
517.80	38.498
518.14	39.437
518.49	40.385
518.83	39.915
519.17	38.690
519.52	40.261
519.86	39.796
520.20	40.644
520.55	39.712
520.89	39.649
521.23	40.279
521.58	40.946
521.92	38.654
522.26	39.688
522.61	40.519
522.95	41.325
523.29	40.152
523.64	40.280
523.98	40.570
524.32	40.013
524.66	40.333
525.01	39.870
525.35	39.663
525.69	41.212
526.04	39.683
526.38	39.040
526.72	38.849
527.06	39.364
527.41	40.369
527.75	39.745
528.09	39.003
528.43	40.648
528.78	40.330
529.12	38.968
529.46	39.311
529.80	38.695
530.15	38.614
530.49	39.731
530.83	39.398
531.17	39.825
531.51	38.646
531.86	38.409
532.20	38.135
532.54	38.462
532.88	38.877
533.22	39.315
533.57	38.598
533.91	38.773
534.25	39.909
534.59	39.320
534.93	38.515
535.27	37.754
535.62	39.209
535.96	38.748
536.30	38.522
536.64	39.490
536.98	37.631
537.32	39.972
537.66	38.990
538.01	38.112
538.35	37.656
538.69	38.149
539.03	38.141
539.37	38.829
539.71	37.764
540.05	37.542
540.39	38.504
540.73	38.006
541.07	39.503
541.42	38.038
541.76	39.367
542.10	38.954
542.44	38.916
542.78	37.096
543.12	39.148
543.46	38.595
543.80	37.960
544.14	37.784
544.48	38.108
544.82	38.209
545.16	39.549
545.50	38.585
545.84	37.890
546.18	38.440
546.52	39.293
546.86	38.605
547.20	39.914
547.54	37.314
547.88	38.995
548.22	36.686
548.56	37.797
548.90	39.084
549.24	36.915
549.58	36.953
549.92	37.098
550.26	38.168
550.60	38.364
550.94	38.835
551.28	38.022
551.62	39.615
551.96	39.398
552.30	38.304
552.64	36.601
552.98	38.045
553.32	38.802
553.66	38.534
554.00	39.124
554.34	38.996
554.68	38.127
555.02	38.021
555.36	37.696
555.69	38.242
556.03	38.044
556.37	38.221
556.71	38.556
557.05	38.031
557.39	38.141
557.73	39.055
558.07	40.196
558.41	39.893
558.75	38.348
559.08	38.534
559.42	39.127
559.76	39.712
560.10	38.838
560.44	38.347
560.78	38.322
561.12	38.505
561.45	39.002
561.79	38.515
562.13	39.248
562.47	36.906
562.81	38.256
563.15	37.165
563.48	38.048
563.82	37.680
564.16	38.092
564.50	37.973
564.84	39.290
565.17	38.833
565.51	38.661
565.85	38.409
566.19	37.732
566.52	37.735
566.86	37.725
567.20	38.418
567.54	37.895
567.88	38.079
568.21	38.348
568.55	36.467
568.89	37.166
569.23	36.832
569.56	36.690
569.90	37.596
570.24	36.472
570.57	36.218
570.91	37.260
571.25	35.219
571.59	35.534
571.92	34.667
572.26	35.356
572.60	35.845
572.93	35.676
573.27	35.235
573.61	34.875
573.95	35.527
574.28	35.143
574.62	34.655
574.96	35.079
575.29	34.705
575.63	34.076
575.97	35.023
576.30	35.142
576.64	34.331
576.98	35.058
577.31	34.800
577.65	35.206
577.98	34.869
578.32	34.432
578.66	34.257
578.99	33.903
579.33	34.099
579.67	34.393
580.00	34.658
580.34	34.328
580.67	35.040
581.01	34.558
581.35	34.819
581.68	34.344
582.02	34.502
582.35	34.540
582.69	34.905
583.02	34.672
583.36	35.321
583.70	35.722
584.03	35.613
584.37	35.997
584.70	34.780
585.04	34.948
585.37	35.504
585.71	34.782
586.04	34.897
586.38	34.596
586.72	35.725
587.05	35.413
587.39	36.036
587.72	36.987
588.06	35.428
588.39	35.973
588.73	36.050
589.06	36.269
589.40	36.122
589.73	37.240
590.07	37.236
590.40	37.693
590.73	37.315
591.07	36.853
591.40	36.866
591.74	37.511
592.07	37.709
592.41	36.528
592.74	35.763
593.08	35.348
593.41	36.705
593.75	35.623
594.08	35.771
594.41	36.208
594.75	36.183
595.08	36.663
595.42	36.437
595.75	37.364
596.09	36.787
596.42	36.709
596.75	37.655
597.09	36.219
597.42	37.353
597.75	37.380
598.09	36.804
598.42	36.778
598.76	36.122
599.09	36.338
599.42	35.923
599.76	36.155
600.09	36.388
600.42	35.444
600.76	35.624
601.09	36.069
601.42	35.605
601.76	35.689
602.09	36.469
602.42	37.995
602.76	36.630
603.09	36.877
603.42	37.207
603.76	35.968
604.09	36.493
604.42	36.887
604.76	36.716
605.09	36.654
605.42	37.336
605.75	36.471
606.09	35.541
606.42	35.988
606.75	36.450
607.09	37.275
607.42	35.047
607.75	35.702
608.08	35.400
608.42	36.227
608.75	37.012
609.08	37.170
609.41	36.244
609.75	36.643
610.08	36.995
610.41	35.362
610.74	36.568
611.07	37.829
611.41	37.675
611.74	37.313
612.07	35.600
612.40	36.324
612.73	35.989
613.07	36.670
613.40	36.707
613.73	36.486
614.06	37.340
614.39	37.789
614.72	37.087
615.06	36.145
615.39	35.535
615.72	37.352
616.05	36.648
616.38	36.011
616.71	37.003
617.05	37.183
617.38	37.335
617.71	36.855
618.04	37.524
618.37	37.705
618.70	36.700
619.03	37.917
619.36	37.482
619.69	38.438
620.03	38.203
620.36	37.697
620.69	36.331
621.02	36.315
621.35	38.755
621.68	38.265
622.01	38.500
622.34	38.707
622.67	38.013
623.00	38.515
623.33	37.119
623.66	37.248
623.99	37.443
624.32	37.186
624.65	37.293
624.99	38.375
625.32	36.315
625.65	39.120
625.98	38.598
626.31	38.653
626.64	38.562
626.97	38.482
627.30	37.916
627.63	37.868
627.96	38.724
628.29	39.315
628.62	39.135
628.95	37.575
629.28	39.214
629.61	38.983
629.94	39.003
630.26	38.834
630.59	38.710
630.92	39.590
631.25	38.462
631.58	38.767
631.91	39.364
632.24	39.564
632.57	38.182
632.90	38.316
633.23	37.765
633.56	41.562
633.89	38.594
634.22	41.235
634.55	39.009
634.88	40.230
635.20	39.103
635.53	39.467
635.86	37.451
636.19	40.362
636.52	39.796
636.85	39.082
637.18	38.994
637.51	39.623
637.83	40.473
638.16	40.655
638.49	38.556
638.82	40.132
639.15	38.535
639.48	40.028
639.81	40.028
640.13	38.961
640.46	39.359
640.79	40.648
641.12	39.586
641.45	38.739
641.77	40.889
642.10	41.232
642.43	38.585
642.76	39.274
643.09	41.195
643.41	37.540
643.74	38.386
644.07	40.722
644.40	43.412
644.73	37.303
645.05	41.443
645.38	39.153
645.71	41.844
646.04	40.575
646.36	38.652
646.69	42.446
647.02	42.344
647.35	40.485
647.67	40.219
648.00	39.179
648.33	39.761
648.66	41.017
648.98	38.023
649.31	39.174
649.64	39.089
649.96	39.060
650.29	40.716
650.62	39.658
650.94	39.444
651.27	41.341
651.60	39.459
651.92	40.385
652.25	38.544
652.58	39.333
652.90	40.309
653.23	36.975
653.56	37.733
653.88	38.144
654.21	37.653
654.54	35.314
654.86	39.389
655.19	36.696
655.52	34.830
655.84	31.162
656.17	35.476
656.49	47.868
656.82	50.894
657.15	39.073
657.47	29.401
657.80	21.643
658.13	21.567
658.45	33.778
658.78	33.999
659.10	34.007
659.43	34.684
659.75	36.260
660.08	36.414
660.41	39.734
660.73	39.917
661.06	38.475
661.38	38.552
661.71	37.166
662.03	41.416
662.36	40.879
662.68	41.593
663.01	40.175
663.33	40.835
663.66	41.860
663.98	38.605
664.31	39.872
664.63	40.092
664.96	38.043
665.28	37.969
665.61	39.177
665.93	39.783
666.26	39.046
666.58	40.940
666.91	40.000
667.23	42.453
667.56	40.521
667.88	41.007
668.21	40.811
668.53	39.480
668.86	39.858
669.18	37.264
669.50	38.015
669.83	39.070
670.15	37.063
670.48	40.191
670.80	42.396
671.13	37.136
671.45	38.584
671.77	41.416
672.10	39.604
672.42	35.393
672.75	39.076
673.07	37.925
673.39	38.899
673.72	34.320
674.04	37.500
674.37	37.076
674.69	36.188
675.01	40.667
675.34	36.712
675.66	39.815
675.98	41.463
676.31	40.596
676.63	38.717
676.95	37.273
677.28	39.059
677.60	40.241
677.92	39.679
678.25	38.950
678.57	36.580
678.89	37.185
679.22	38.702
679.54	36.546
679.86	37.575
680.18	36.505
680.51	37.879
680.83	34.990
681.15	37.200
681.48	37.500
681.80	37.603
682.12	38.710
682.44	35.983
682.77	37.086
683.09	36.613
683.41	35.909
683.73	39.631
684.06	36.062
684.38	36.559
684.70	36.819
685.02	37.759
685.34	36.364
685.67	37.148
685.99	35.624
686.31	33.628
686.63	35.993
686.96	35.932
687.28	34.141
687.60	34.981
687.92	38.788
688.24	36.694
688.56	39.738
688.89	35.268
689.21	39.333
689.53	35.499
689.85	36.047
690.17	36.161
690.49	35.934
690.82	37.621
691.14	37.143
691.46	37.850
691.78	36.712
692.10	36.344
692.42	35.498
692.74	36.966
693.06	34.009
693.39	34.615
693.71	36.425
694.03	33.949
694.35	36.682
694.67	40.152
694.99	36.815
695.31	38.381
695.63	38.000
695.95	35.354
696.27	36.788
696.59	37.778
696.91	35.014
697.23	33.162
697.56	36.139
697.88	37.204
698.20	34.852
698.52	35.059
698.84	33.014
699.16	31.500
699.48	35.338
699.80	36.725
700.12	35.580
700.44	39.496
700.76	34.884
701.08	33.939
701.40	34.639
701.72	39.815
702.04	37.624
702.36	38.796
702.68	36.637
703.00	35.455
703.32	36.950
703.64	33.898
703.96	35.362
704.28	38.037
704.60	34.286
704.91	35.962
705.23	35.880
705.55	41.343
705.87	37.906
706.19	37.407
706.51	35.395
706.83	39.550
707.15	31.153
707.47	36.415
707.79	32.813
708.11	34.750
708.43	35.250
708.74	33.850
709.06	37.465
709.38	35.780
709.70	35.799
710.02	35.032
710.34	38.700
710.66	31.090
710.98	36.755
711.29	34.098
711.61	40.678
711.93	34.528
712.25	38.832
712.57	34.799
712.89	35.821
713.20	36.332
713.52	36.237
713.84	31.399
714.16	37.113
714.48	34.516
714.80	36.859
715.11	35.866
715.43	31.348
715.75	34.333
716.07	33.555
716.39	33.221
716.70	32.472
717.02	37.786
717.34	34.818
717.66	35.398
717.97	37.826
718.29	33.891
718.61	39.764
718.93	36.822
719.24	38.783
719.56	41.767
719.88	37.801
720.20	39.015
720.51	32.184
720.83	34.363
721.15	38.235
721.46	33.468
721.78	35.968
722.10	30.483
722.42	36.929
722.73	36.327
723.05	36.327
723.37	44.915
723.68	40.541
724.00	32.479
724.32	32.000
724.63	38.636
724.95	32.751
725.27	35.484
725.58	31.780
725.90	34.524
726.22	33.591
726.53	35.254
726.85	37.079
727.16	40.755
727.48	36.437
727.80	34.413
728.11	29.237
728.43	32.941
728.74	28.226
729.06	34.400
729.38	36.466
729.69	31.474
730.01	28.462
730.32	35.821
730.64	35.689
730.96	35.094
731.27	31.000
731.59	29.153
731.90	31.847
732.22	33.123
732.53	36.545
732.85	33.333
733.16	32.997
733.48	32.014
733.80	31.884
734.11	34.915
734.43	35.395
734.74	32.424
735.06	27.687
735.37	34.139
735.69	35.354
736.00	33.101
736.32	32.550
736.63	35.563
736.95	28.328
737.26	30.249
737.58	33.221
737.89	30.403
738.21	31.203
738.52	32.099
738.83	30.568
739.15	31.441
739.46	36.614
739.78	31.136
740.09	32.026
740.41	31.159
740.72	31.102
741.04	32.389
741.35	31.915
741.66	35.545
741.98	36.735
742.29	34.653
742.61	38.220
742.92	27.488
743.23	28.704
743.55	34.842
743.86	35.407
744.18	32.057
744.49	27.128
744.80	32.609
745.12	40.107
745.43	30.244
745.74	39.062
746.06	32.195
746.37	38.220
746.68	34.597
747.00	32.979
747.31	38.308
747.62	31.553
747.94	32.057
748.25	34.158
748.56	33.880
748.88	34.555
749.19	38.830
749.50	32.020
749.82	28.774
750.13	27.523
750.44	30.075
750.75	36.940
751.07	35.401
751.38	33.333
751.69	27.059
752.01	32.171
752.32	37.450
752.63	30.040
752.94	28.879
753.26	37.657
753.57	24.887
753.88	33.186
754.19	30.417
754.51	26.446
754.82	33.603
755.13	35.833
755.44	27.823
755.75	33.203
756.07	30.350
756.38	29.434
756.69	21.456
757.00	29.000
757.31	30.065
757.63	26.829
757.94	27.222
758.25	27.397
758.56	28.457
758.87	29.462
759.18	24.922
759.50	29.818
759.81	33.445
760.12	31.290
760.43	27.273
760.74	31.481
761.05	24.308
761.36	25.000
761.67	30.606
761.99	31.293
762.30	29.455
762.61	26.482
762.92	29.412
763.23	30.631
763.54	27.103
763.85	28.390
764.16	27.801
764.47	31.452
764.78	28.205
765.10	26.599
765.41	29.338
765.72	24.762
766.03	28.947
766.34	29.562
766.65	34.661
766.96	31.818
767.27	30.851
767.58	26.437
767.89	31.206
768.20	31.250
768.51	28.571
768.82	32.512
769.13	20.737
769.44	23.176
769.75	29.224
770.06	29.310
770.37	33.173
770.68	35.025
770.99	27.602
771.30	36.275
771.61	29.864
771.92	28.879
772.23	28.079
772.54	27.957
772.85	29.630
773.16	28.652
773.47	41.830
773.78	35.294
774.09	24.551
774.39	22.000
774.70	26.752
775.01	35.862
775.32	31.429
775.63	24.793
775.94	29.771
776.25	22.835
776.56	33.333
776.87	32.692
777.18	26.496
777.48	30.172
777.79	26.087
778.10	21.905
778.41	29.730
778.72	23.810
779.03	29.323
779.34	28.369
779.65	31.507
779.95	22.603
780.26	24.138
780.57	27.642
780.88	30.709
781.19	29.310
781.50	23.256
781.80	22.485
782.11	23.270
782.42	33.846
782.73	23.741
783.04	24.444
783.34	23.611
783.65	16.239
783.96	31.148
784.27	33.793
784.57	29.268
784.88	28.125
785.19	33.000
785.50	33.000
785.81	31.034
786.11	29.310
786.42	26.214
786.73	33.636
787.04	24.490
787.34	29.464
787.65	24.762
787.96	29.204
788.26	26.364
788.57	18.803
788.88	30.469
789.19	22.222
789.49	26.957
789.80	25.510
790.11	37.374
790.41	21.818
790.72	39.130
791.03	30.682
791.33	35.000
791.64	30.000
791.95	33.721
792.25	32.979
792.56	26.966
792.87	24.658
793.17	20.290
793.48	14.667
793.79	38.750
794.09	33.750
794.40	26.415
794.70	14.563
795.01	15.447
795.32	21.368
795.62	23.810
795.93	37.255
796.23	24.528
796.54	25.000
796.85	25.000
797.15	30.986
797.46	30.556
797.76	48.485
798.07	32.558
798.37	5.263
798.68	24.242
798.99	22.222
799.29	34.286
799.60	24.638
799.90	28.000
800.21	44.262
800.51	30.769
800.82	20.339
801.12	34.783
801.43	36.066
801.73	22.222
802.04	36.000
802.34	26.866
802.65	42.308
802.95	3.571
803.26	28.846
803.56	19.608
803.87	-2.174
804.17	24.000
804.48	57.143
804.78	29.630
805.09	30.435
805.39	13.333
805.70	48.148
806.00	22.807
806.30	23.944
806.61	35.714
806.91	15.278
807.22	47.368
807.52	34.667
807.83	9.091
808.13	33.333
808.43	42.647
808.74	29.851
809.04	11.864
809.35	19.231
809.65	26.563
809.95	16.216
810.26	4.545
810.56	23.288
810.86	30.952
811.17	26.000
811.47	22.449
811.77	7.895
812.08	34.091
812.38	20.755
812.69	25.000
812.99	-18.182
813.29	31.579
813.59	-2.857
813.90	40.909
814.20	5.128
814.50	7.692
814.81	33.962
815.11	23.404
815.41	40.678
815.72	11.905
816.02	50.980
816.32	39.583
816.62	19.512
816.93	21.622
817.23	28.571
817.53	41.667
817.84	26.087
818.14	42.308
818.44	23.684
818.74	32.609
819.04	5.000
819.35	48.649
819.65	5.882
819.95	25.000
820.25	45.238
820.56	57.500
820.86	-3.448
821.16	50.000
821.46	38.298
821.76	25.000
822.07	23.256
822.37	-8.108
822.67	40.625
822.97	28.571
823.27	3.571
823.57	32.000
823.88	22.222
824.18	46.429
824.48	44.118
824.78	12.903
825.08	43.478
825.38	-9.091
825.69	-20.833
825.99	26.316
826.29	30.556
826.59	80.000
826.89	-19.048
827.19	17.391
827.49	27.500
827.79	31.429
828.09	25.000
828.39	63.636
828.70	75.676
829.00	25.000
829.30	9.524
829.60	43.333
829.90	18.750
830.20	26.316
830.50	14.815
830.80	26.087
831.10	0.000
831.40	18.182
831.70	45.161
832.00	47.619
832.30	66.667
832.60	100.000
832.90	58.621
833.20	-10.000
833.50	27.273
833.80	14.815
834.10	7.692
834.40	50.000
834.70	100.000
835.00	36.842
835.30	76.923
835.60	73.333
835.90	22.581
836.20	13.636
836.50	28.571
836.80	-3.846
837.10	32.143
837.40	0.000
837.70	22.727
838.00	-27.273
838.30	4.348
838.60	23.077
838.90	36.364
839.19	25.000
839.49	40.000
839.79	-15.385
840.09	-8.333
840.39	39.286
840.69	-7.143
840.99	3.846
841.29	21.053
841.59	0.000
841.88	18.182
842.18	-70.000
842.48	87.500
842.78	-6.667
843.08	37.037
843.38	-20.000
843.68	17.391
843.97	40.000
844.27	46.667
844.57	45.000
844.87	27.778
845.17	4.762
845.47	120.000
845.76	42.857
846.06	47.059
846.36	50.000
846.66	28.571
846.96	33.333
847.25	-150.000
847.55	42.857
847.85	-37.500
848.15	9.091
848.44	-133.333
848.74	20.000
849.04	62.963
849.34	63.636
849.63	50.000
849.93	20.000
850.23	44.444
850.53	130.000
850.82	76.923
851.12	0.000
851.42	80.000
851.71	42.308
852.01	21.429
852.31	0.000
852.61	45.455
852.90	-35.000
853.20	52.632
853.50	41.667
853.79	56.522
854.09	62.500
854.39	0.000
854.68	54.167
854.98	9.677
855.28	50.000
855.57	15.000
855.87	83.333
856.17	51.852
856.46	-14.286
856.76	33.333
857.05	100.000
857.35	48.000
857.65	0.000
857.94	76.923
858.24	34.483
858.53	50.000
858.83	59.259
859.13	22.727
859.42	43.478
859.72	200.000
860.01	-133.333
860.31	44.000
860.60	66.667
860.90	-333.333
861.20	20.000
861.49	100.000
861.79	-40.000
862.08	50.000
862.38	53.333
862.67	-20.000
862.97	66.667
863.26	-16.667
863.56	44.444
863.85	-366.667
864.15	50.000
864.44	150.000
864.74	71.429
865.03	275.000
865.33	-60.000
865.62	0.000
865.92	83.333
866.21	33.333
866.51	43.750
866.80	0.000
867.10	250.000
867.39	66.667
867.69	0.000
867.98	46.154
868.27	-100.000
868.57	53.333
868.86	-11.111
869.16	-53.846
869.45	86.667
869.75	100.000
870.04	0.000
870.33	42.857
870.63	66.667
870.92	366.667
871.22	-60.000
871.51	200.000
871.80	166.667
872.10	33.333
>>>>>End Processed Spectral Data<<<<<
