SpectraSuite Data File
++++++++++++++++++++++++++++++++++++
Date: Fri May 15 20:07:11 PDT 2015
User: schluterlab
Dark Spectrum Present: Yes
Reference Spectrum Present: Yes
Number of Sampled Component Spectra: 1
Spectrometers: USB2E3373
Integration Time (usec): 3000 (USB2E3373)
Spectra Averaged: 3 (USB2E3373)
Boxcar Smoothing: 0 (USB2E3373)
Correct for Electrical Dark: No (USB2E3373)
Strobe/Lamp Enabled: No (USB2E3373)
Correct for Detector Non-linearity: No (USB2E3373)
Correct for Stray Light: No (USB2E3373)
Number of Pixels in Processed Spectrum: 2048
>>>>>Begin Processed Spectral Data<<<<<
178.53	0.000
178.91	0.000
179.29	37.500
179.67	-400.000
180.04	-0.000
180.42	400.000
180.80	-800.000
181.18	-66.667
181.56	350.000
181.94	350.000
182.31	100.000
182.69	140.000
183.07	-66.667
183.45	40.000
183.83	150.000
184.20	63.636
184.58	77.778
184.96	200.000
185.34	133.333
185.72	-400.000
186.09	69.231
186.47	-300.000
186.85	116.667
187.23	22.222
187.61	300.000
187.98	-433.333
188.36	33.333
188.74	-133.333
189.12	-5.882
189.49	27.778
189.87	0.000
190.25	21.429
190.63	-100.000
191.00	-66.667
191.38	31.579
191.76	500.000
192.14	225.000
192.51	50.000
192.89	-77.778
193.27	85.714
193.65	33.333
194.02	136.364
194.40	-40.000
194.78	-175.000
195.15	8.333
195.53	-87.500
195.91	350.000
196.29	-200.000
196.66	100.000
197.04	85.714
197.42	55.556
197.79	-300.000
198.17	23.077
198.55	500.000
198.92	-166.667
199.30	0.000
199.68	-120.000
200.05	-166.667
200.43	0.000
200.81	333.333
201.18	200.000
201.56	1400.000
201.94	200.000
202.31	233.333
202.69	-100.000
203.07	100.000
203.44	0.000
203.82	0.000
204.19	50.000
204.57	-200.000
204.95	25.000
205.32	-60.000
205.70	14.286
206.08	150.000
206.45	244.444
206.83	57.143
207.20	-57.143
207.58	-800.000
207.96	66.667
208.33	-30.000
208.71	100.000
209.08	-250.000
209.46	-1500.000
209.84	-140.000
210.21	200.000
210.59	-42.857
210.96	116.667
211.34	75.000
211.71	60.000
212.09	-42.857
212.46	-1500.000
212.84	0.000
213.22	210.000
213.59	300.000
213.97	0.000
214.34	45.455
214.72	-50.000
215.09	375.000
215.47	15.385
215.84	-9.091
216.22	266.667
216.59	-112.500
216.97	150.000
217.34	-125.000
217.72	-220.000
218.09	100.000
218.47	87.500
218.84	-800.000
219.22	-22.222
219.59	0.000
219.97	166.667
220.34	125.000
220.72	42.857
221.09	75.000
221.47	-200.000
221.84	-150.000
222.22	-600.000
222.59	72.727
222.97	41.667
223.34	66.667
223.72	50.000
224.09	4.762
224.46	7.143
224.84	66.667
225.21	70.000
225.59	66.667
225.96	0.000
226.34	300.000
226.71	-28.571
227.08	0.000
227.46	-25.000
227.83	-400.000
228.21	22.222
228.58	18.182
228.95	37.500
229.33	120.000
229.70	50.000
230.08	12.500
230.45	14.286
230.82	-57.143
231.20	26.667
231.57	14.286
231.95	-157.143
232.32	-90.000
232.69	50.000
233.07	33.333
233.44	-100.000
233.81	-90.000
234.19	-22.222
234.56	29.412
234.93	-250.000
235.31	75.000
235.68	-200.000
236.05	-46.154
236.43	5.000
236.80	-11.765
237.17	34.375
237.55	15.000
237.92	14.815
238.29	38.889
238.67	16.667
239.04	32.353
239.41	-9.756
239.79	-26.667
240.16	31.707
240.53	-13.158
240.91	-8.696
241.28	14.286
241.65	19.643
242.02	28.767
242.40	31.667
242.77	20.339
243.14	25.758
243.51	23.750
243.89	20.690
244.26	10.345
244.63	26.190
245.00	21.649
245.38	20.619
245.75	13.483
246.12	13.793
246.49	14.876
246.87	19.231
247.24	13.445
247.61	8.772
247.98	26.016
248.36	19.375
248.73	23.684
249.10	20.130
249.47	26.582
249.84	14.379
250.22	21.176
250.59	23.529
250.96	17.840
251.33	20.349
251.70	23.529
252.08	16.751
252.45	18.317
252.82	14.573
253.19	26.267
253.56	15.888
253.94	20.721
254.31	20.870
254.68	23.684
255.05	24.409
255.42	15.721
255.79	23.166
256.16	17.899
256.54	19.776
256.91	19.392
257.28	18.216
257.65	17.603
258.02	17.730
258.39	20.875
258.76	19.780
259.14	21.262
259.51	20.712
259.88	18.213
260.25	17.647
260.62	16.319
260.99	15.932
261.36	18.836
261.73	18.987
262.10	19.453
262.47	18.098
262.85	16.928
263.22	17.538
263.59	22.741
263.96	24.534
264.33	22.424
264.70	19.940
265.07	16.071
265.44	23.796
265.81	18.927
266.18	21.311
266.55	20.566
266.92	21.244
267.29	23.499
267.66	20.460
268.03	21.466
268.40	17.232
268.77	21.925
269.14	19.664
269.51	21.851
269.88	20.449
270.25	18.622
270.62	18.537
270.99	19.182
271.36	18.826
271.73	23.709
272.10	19.708
272.47	19.385
272.84	20.545
273.21	20.418
273.58	21.928
273.95	19.680
274.32	18.938
274.69	18.552
275.06	21.429
275.43	17.460
275.80	20.530
276.17	20.690
276.54	19.058
276.91	18.860
277.28	17.904
277.65	21.488
278.02	18.936
278.39	18.381
278.76	20.755
279.13	17.012
279.50	21.218
279.87	20.734
280.23	19.570
280.60	20.468
280.97	19.394
281.34	18.077
281.71	21.766
282.08	16.769
282.45	17.613
282.82	19.305
283.19	20.116
283.56	19.461
283.92	18.596
284.29	18.846
284.66	18.798
285.03	18.861
285.40	18.147
285.77	17.750
286.14	19.495
286.51	20.295
286.87	18.099
287.24	19.337
287.61	18.871
287.98	20.877
288.35	16.638
288.72	18.914
289.08	16.319
289.45	18.278
289.82	18.357
290.19	16.041
290.56	17.153
290.93	15.657
291.29	16.641
291.66	18.583
292.03	16.587
292.40	18.226
292.77	17.384
293.13	14.610
293.50	16.540
293.87	17.099
294.24	14.529
294.60	15.797
294.97	15.923
295.34	16.564
295.71	15.499
296.08	13.752
296.44	15.363
296.81	13.194
297.18	16.087
297.55	15.718
297.91	16.575
298.28	16.491
298.65	14.518
299.02	14.420
299.38	12.996
299.75	13.793
300.12	13.482
300.48	13.834
300.85	14.956
301.22	14.675
301.59	13.553
301.95	14.430
302.32	14.656
302.69	12.438
303.05	13.243
303.42	13.823
303.79	14.603
304.15	14.337
304.52	12.366
304.89	12.164
305.25	15.012
305.62	13.186
305.99	14.971
306.35	12.254
306.72	12.823
307.09	11.973
307.45	13.548
307.82	13.310
308.19	14.170
308.55	12.650
308.92	14.597
309.29	13.520
309.65	13.348
310.02	13.751
310.38	12.843
310.75	14.754
311.12	13.994
311.48	13.256
311.85	12.880
312.22	12.975
312.58	13.694
312.95	12.487
313.31	11.180
313.68	13.298
314.05	13.061
314.41	13.608
314.78	13.196
315.14	14.594
315.51	14.596
315.87	13.832
316.24	15.066
316.61	14.272
316.97	15.476
317.34	14.063
317.70	13.384
318.07	15.000
318.43	15.392
318.80	14.489
319.16	15.820
319.53	16.334
319.89	16.240
320.26	16.296
320.62	17.051
320.99	16.806
321.35	16.444
321.72	16.511
322.08	18.731
322.45	17.462
322.81	17.780
323.18	18.351
323.54	16.409
323.91	18.890
324.27	17.871
324.64	19.476
325.00	19.252
325.37	20.845
325.73	19.583
326.10	19.891
326.46	20.807
326.83	20.122
327.19	22.668
327.56	21.720
327.92	22.535
328.29	21.696
328.65	22.453
329.01	23.254
329.38	21.751
329.74	23.324
330.11	23.262
330.47	21.336
330.84	22.500
331.20	25.000
331.56	22.315
331.93	24.292
332.29	24.290
332.66	24.072
333.02	24.814
333.38	23.923
333.75	25.366
334.11	24.440
334.48	26.292
334.84	25.366
335.20	25.618
335.57	24.479
335.93	24.210
336.29	24.770
336.66	24.796
337.02	25.093
337.38	25.741
337.75	24.455
338.11	24.887
338.47	26.825
338.84	25.046
339.20	26.325
339.56	26.697
339.93	25.604
340.29	25.505
340.65	26.613
341.02	27.039
341.38	25.575
341.74	25.000
342.11	25.737
342.47	25.623
342.83	25.692
343.20	26.132
343.56	26.609
343.92	24.801
344.28	26.558
344.65	25.648
345.01	25.583
345.37	26.156
345.73	26.444
346.10	25.194
346.46	26.745
346.82	25.859
347.19	27.016
347.55	26.650
347.91	26.375
348.27	26.516
348.63	27.768
349.00	25.759
349.36	26.351
349.72	27.695
350.08	26.557
350.45	27.215
350.81	26.827
351.17	25.814
351.53	27.673
351.89	26.755
352.26	25.760
352.62	26.855
352.98	26.747
353.34	24.557
353.70	28.074
354.07	26.532
354.43	26.181
354.79	26.342
355.15	27.381
355.51	27.532
355.87	27.265
356.24	25.530
356.60	25.950
356.96	26.667
357.32	27.396
357.68	27.522
358.04	26.333
358.40	27.090
358.77	29.187
359.13	27.542
359.49	27.273
359.85	26.755
360.21	26.715
360.57	26.932
360.93	28.215
361.29	25.906
361.66	28.448
362.02	27.955
362.38	28.256
362.74	28.463
363.10	28.819
363.46	28.169
363.82	29.301
364.18	27.380
364.54	28.088
364.90	29.247
365.26	28.675
365.62	29.124
365.98	28.739
366.35	29.206
366.71	29.120
367.07	29.898
367.43	28.900
367.79	28.693
368.15	28.930
368.51	28.332
368.87	28.500
369.23	28.231
369.59	29.665
369.95	29.326
370.31	28.902
370.67	30.448
371.03	28.678
371.39	28.592
371.75	29.744
372.11	29.601
372.47	29.512
372.83	30.376
373.19	30.599
373.55	28.881
373.91	29.734
374.27	30.191
374.63	30.007
374.99	29.929
375.35	30.223
375.71	29.231
376.07	30.478
376.42	30.612
376.78	31.208
377.14	30.941
377.50	30.080
377.86	31.258
378.22	30.696
378.58	31.859
378.94	31.065
379.30	30.755
379.66	31.787
380.02	31.147
380.38	31.223
380.74	31.299
381.09	32.515
381.45	31.927
381.81	31.894
382.17	31.472
382.53	32.105
382.89	32.454
383.25	33.105
383.61	32.988
383.97	33.524
384.32	31.770
384.68	33.684
385.04	31.495
385.40	33.230
385.76	34.340
386.12	34.541
386.48	33.972
386.83	32.594
387.19	33.639
387.55	34.630
387.91	34.658
388.27	33.394
388.62	34.991
388.98	34.561
389.34	33.604
389.70	34.121
390.06	33.732
390.42	35.557
390.77	34.402
391.13	34.363
391.49	34.347
391.85	35.153
392.20	35.028
392.56	34.329
392.92	35.232
393.28	34.788
393.64	34.535
393.99	35.549
394.35	34.598
394.71	36.526
395.07	34.884
395.42	35.823
395.78	35.831
396.14	36.003
396.50	36.018
396.85	35.866
397.21	36.905
397.57	34.984
397.92	36.429
398.28	35.230
398.64	34.398
399.00	36.625
399.35	35.271
399.71	35.497
400.07	36.397
400.42	36.965
400.78	36.742
401.14	36.056
401.49	36.510
401.85	35.893
402.21	36.084
402.57	36.312
402.92	35.822
403.28	37.406
403.63	36.696
403.99	37.054
404.35	36.540
404.70	36.369
405.06	36.193
405.42	37.228
405.77	35.328
406.13	35.565
406.49	36.116
406.84	35.758
407.20	38.170
407.55	36.059
407.91	35.963
408.27	36.648
408.62	36.492
408.98	37.338
409.34	36.617
409.69	36.499
410.05	35.899
410.40	37.593
410.76	38.299
411.11	37.125
411.47	37.278
411.83	36.535
412.18	37.066
412.54	37.953
412.89	36.823
413.25	36.703
413.60	37.329
413.96	36.135
414.31	36.524
414.67	35.920
415.03	37.150
415.38	37.794
415.74	36.808
416.09	37.818
416.45	37.745
416.80	37.673
417.16	38.674
417.51	38.041
417.87	36.962
418.22	38.212
418.58	38.060
418.93	38.433
419.29	36.172
419.64	37.330
420.00	38.350
420.35	38.090
420.71	38.275
421.06	37.630
421.42	38.462
421.77	38.208
422.12	38.309
422.48	38.657
422.83	38.341
423.19	37.754
423.54	38.272
423.90	37.633
424.25	38.404
424.61	38.188
424.96	38.734
425.31	40.324
425.67	39.847
426.02	40.047
426.38	38.698
426.73	39.528
427.09	40.000
427.44	39.118
427.79	39.776
428.15	39.563
428.50	39.370
428.85	37.715
429.21	39.672
429.56	38.598
429.92	39.599
430.27	39.148
430.62	39.467
430.98	39.703
431.33	40.589
431.68	39.299
432.04	39.966
432.39	40.103
432.74	39.567
433.10	41.207
433.45	39.367
433.80	39.814
434.16	38.892
434.51	40.376
434.86	40.825
435.22	39.877
435.57	41.422
435.92	40.659
436.28	39.296
436.63	40.616
436.98	39.571
437.34	40.109
437.69	41.145
438.04	41.766
438.39	39.768
438.75	41.834
439.10	40.181
439.45	41.570
439.81	41.774
440.16	42.162
440.51	41.493
440.86	42.961
441.22	41.176
441.57	41.115
441.92	40.661
442.27	42.184
442.63	40.953
442.98	41.470
443.33	41.068
443.68	41.432
444.03	41.232
444.39	41.712
444.74	41.862
445.09	42.038
445.44	42.051
445.79	43.012
446.15	40.694
446.50	41.320
446.85	42.614
447.20	41.606
447.55	41.908
447.91	42.583
448.26	41.946
448.61	42.372
448.96	42.685
449.31	43.006
449.66	41.173
450.02	42.270
450.37	42.916
450.72	42.153
451.07	43.165
451.42	42.697
451.77	42.495
452.12	42.285
452.47	43.142
452.83	41.696
453.18	42.884
453.53	43.679
453.88	42.562
454.23	43.516
454.58	44.018
454.93	43.750
455.28	41.968
455.63	43.087
455.98	42.934
456.34	42.656
456.69	43.520
457.04	44.234
457.39	42.770
457.74	42.805
458.09	41.201
458.44	43.593
458.79	42.521
459.14	43.993
459.49	43.403
459.84	43.542
460.19	43.083
460.54	43.582
460.89	43.352
461.24	42.795
461.59	44.002
461.94	43.962
462.29	43.546
462.64	43.920
462.99	43.060
463.34	43.533
463.69	44.015
464.04	44.007
464.39	44.087
464.74	42.822
465.09	44.042
465.44	44.662
465.79	42.971
466.14	43.216
466.49	42.726
466.84	43.427
467.19	43.867
467.54	43.742
467.89	43.967
468.24	44.404
468.59	44.952
468.94	43.365
469.29	45.508
469.64	45.865
469.99	47.162
470.34	44.642
470.68	46.309
471.03	45.931
471.38	45.934
471.73	45.728
472.08	45.183
472.43	44.765
472.78	44.414
473.13	44.490
473.48	45.342
473.83	44.707
474.17	44.365
474.52	45.437
474.87	44.545
475.22	45.210
475.57	44.720
475.92	45.584
476.27	45.227
476.61	45.718
476.96	44.897
477.31	45.592
477.66	45.562
478.01	45.255
478.36	44.281
478.70	45.786
479.05	45.220
479.40	44.462
479.75	45.203
480.10	44.752
480.45	45.550
480.79	46.324
481.14	46.260
481.49	45.764
481.84	46.091
482.19	44.949
482.53	44.796
482.88	45.251
483.23	45.537
483.58	46.038
483.92	45.160
484.27	44.850
484.62	45.271
484.97	44.776
485.31	43.136
485.66	41.805
486.01	41.249
486.36	41.045
486.70	41.712
487.05	42.193
487.40	43.459
487.75	43.211
488.09	43.201
488.44	44.670
488.79	45.349
489.13	45.913
489.48	45.532
489.83	45.830
490.17	46.247
490.52	47.067
490.87	45.858
491.22	46.609
491.56	45.636
491.91	46.415
492.26	47.982
492.60	45.825
492.95	46.827
493.30	46.605
493.64	47.593
493.99	47.150
494.34	46.650
494.68	46.286
495.03	46.910
495.37	47.596
495.72	47.855
496.07	47.756
496.41	46.085
496.76	47.213
497.11	46.903
497.45	47.112
497.80	48.184
498.14	47.094
498.49	48.146
498.84	46.457
499.18	48.092
499.53	46.230
499.87	46.790
500.22	45.598
500.56	47.907
500.91	47.289
501.26	46.565
501.60	47.270
501.95	47.792
502.29	47.700
502.64	47.828
502.98	47.459
503.33	46.830
503.67	47.663
504.02	48.289
504.36	47.650
504.71	47.727
505.06	46.905
505.40	48.629
505.75	48.557
506.09	48.555
506.44	48.871
506.78	49.133
507.13	49.535
507.47	46.789
507.82	48.985
508.16	49.392
508.51	49.843
508.85	48.613
509.19	48.909
509.54	50.188
509.88	48.652
510.23	48.790
510.57	49.759
510.92	47.655
511.26	50.245
511.61	50.495
511.95	50.466
512.30	48.836
512.64	49.360
512.98	50.702
513.33	50.811
513.67	50.199
514.02	51.430
514.36	50.686
514.70	51.632
515.05	51.645
515.39	51.063
515.74	51.796
516.08	52.301
516.42	52.650
516.77	52.428
517.11	53.056
517.46	52.184
517.80	50.596
518.14	51.562
518.49	50.962
518.83	50.243
519.17	51.001
519.52	51.806
519.86	51.981
520.20	52.552
520.55	51.532
520.89	53.262
521.23	52.692
521.58	53.123
521.92	54.295
522.26	52.635
522.61	54.091
522.95	54.702
523.29	53.685
523.64	52.922
523.98	54.180
524.32	52.771
524.66	55.122
525.01	54.286
525.35	53.791
525.69	53.333
526.04	53.373
526.38	55.447
526.72	53.826
527.06	53.048
527.41	54.881
527.75	54.692
528.09	54.219
528.43	55.503
528.78	55.380
529.12	54.968
529.46	54.776
529.80	54.085
530.15	55.974
530.49	55.152
530.83	55.198
531.17	54.265
531.51	56.430
531.86	54.317
532.20	54.976
532.54	55.208
532.88	55.647
533.22	54.906
533.57	53.473
533.91	53.460
534.25	54.622
534.59	54.394
534.93	53.367
535.27	52.855
535.62	53.532
535.96	53.751
536.30	54.354
536.64	56.513
536.98	54.983
537.32	56.259
537.66	55.330
538.01	55.734
538.35	54.369
538.69	53.862
539.03	53.110
539.37	54.105
539.71	54.601
540.05	54.922
540.39	54.778
540.73	54.184
541.07	56.077
541.42	55.914
541.76	55.540
542.10	54.164
542.44	54.969
542.78	53.131
543.12	53.984
543.46	54.381
543.80	56.003
544.14	54.272
544.48	54.031
544.82	53.930
545.16	54.986
545.50	54.740
545.84	56.161
546.18	55.957
546.52	55.588
546.86	54.493
547.20	56.509
547.54	56.113
547.88	55.774
548.22	52.663
548.56	53.892
548.90	54.178
549.24	54.201
549.58	55.360
549.92	53.824
550.26	55.385
550.60	56.283
550.94	55.639
551.28	56.569
551.62	57.615
551.96	56.541
552.30	54.825
552.64	54.795
552.98	55.063
553.32	56.134
553.66	54.644
554.00	56.350
554.34	57.386
554.68	54.941
555.02	57.292
555.36	56.470
555.69	55.165
556.03	54.318
556.37	55.801
556.71	55.884
557.05	56.600
557.39	55.019
557.73	56.672
558.07	57.919
558.41	57.427
558.75	59.002
559.08	58.471
559.42	58.413
559.76	57.486
560.10	56.422
560.44	56.739
560.78	56.224
561.12	57.052
561.45	55.446
561.79	55.742
562.13	56.636
562.47	56.835
562.81	55.692
563.15	55.219
563.48	56.011
563.82	57.515
564.16	57.591
564.50	55.405
564.84	54.953
565.17	54.259
565.51	58.402
565.85	56.104
566.19	54.841
566.52	56.568
566.86	55.077
567.20	54.172
567.54	54.562
567.88	55.185
568.21	53.676
568.55	53.152
568.89	52.721
569.23	52.624
569.56	51.182
569.90	50.832
570.24	48.902
570.57	49.491
570.91	49.983
571.25	48.570
571.59	48.178
571.92	48.030
572.26	48.007
572.60	48.496
572.93	47.568
573.27	48.025
573.61	47.882
573.95	47.843
574.28	46.610
574.62	45.995
574.96	46.323
575.29	47.451
575.63	46.541
575.97	47.005
576.30	47.877
576.64	46.755
576.98	47.490
577.31	47.628
577.65	46.330
577.98	46.534
578.32	46.298
578.66	46.013
578.99	45.952
579.33	46.590
579.67	46.556
580.00	46.886
580.34	47.512
580.67	46.241
581.01	46.926
581.35	46.275
581.68	45.582
582.02	46.100
582.35	45.460
582.69	45.910
583.02	46.400
583.36	47.197
583.70	48.027
584.03	48.040
584.37	48.475
584.70	48.819
585.04	47.824
585.37	47.322
585.71	47.272
586.04	46.646
586.38	47.266
586.72	47.776
587.05	48.354
587.39	48.281
587.72	48.715
588.06	48.104
588.39	48.277
588.73	48.382
589.06	50.294
589.40	49.775
589.73	50.164
590.07	50.642
590.40	50.697
590.73	52.306
591.07	51.018
591.40	50.935
591.74	52.489
592.07	51.763
592.41	51.988
592.74	50.020
593.08	48.830
593.41	48.699
593.75	48.577
594.08	48.301
594.41	49.527
594.75	50.229
595.08	50.132
595.42	49.614
595.75	49.944
596.09	51.056
596.42	49.814
596.75	51.510
597.09	50.752
597.42	51.400
597.75	53.000
598.09	50.702
598.42	50.903
598.76	50.794
599.09	49.479
599.42	49.337
599.76	49.850
600.09	49.133
600.42	49.204
600.76	48.663
601.09	49.313
601.42	49.667
601.76	50.258
602.09	50.124
602.42	51.390
602.76	50.806
603.09	50.291
603.42	52.007
603.76	49.556
604.09	49.737
604.42	50.635
604.76	52.960
605.09	51.874
605.42	51.603
605.75	52.014
606.09	51.380
606.42	50.042
606.75	50.779
607.09	51.516
607.42	51.174
607.75	51.643
608.08	51.123
608.42	50.937
608.75	53.446
609.08	52.666
609.41	54.264
609.75	51.663
610.08	52.771
610.41	50.966
610.74	53.145
611.07	53.798
611.41	53.347
611.74	53.571
612.07	52.837
612.40	54.322
612.73	54.011
613.07	53.206
613.40	54.048
613.73	53.889
614.06	53.979
614.39	54.766
614.72	53.669
615.06	53.911
615.39	52.620
615.72	52.637
616.05	53.184
616.38	53.333
616.71	55.107
617.05	57.072
617.38	55.563
617.71	55.031
618.04	56.825
618.37	56.494
618.70	56.898
619.03	57.708
619.36	57.091
619.69	60.045
620.03	59.240
620.36	56.938
620.69	56.531
621.02	58.486
621.35	61.577
621.68	60.034
622.01	60.500
622.34	59.298
622.67	59.779
623.00	58.270
623.33	58.765
623.66	58.115
623.99	58.321
624.32	59.468
624.65	58.571
624.99	59.669
625.32	58.302
625.65	60.801
625.98	61.966
626.31	60.432
626.64	61.612
626.97	60.733
627.30	61.559
627.63	60.312
627.96	62.803
628.29	62.350
628.62	64.012
628.95	64.128
629.28	65.524
629.61	61.914
629.94	64.027
630.26	63.735
630.59	66.493
630.92	65.949
631.25	63.179
631.58	65.969
631.91	66.228
632.24	68.578
632.57	65.568
632.90	67.853
633.23	67.529
633.56	69.521
633.89	68.434
634.22	69.506
634.55	68.107
634.88	70.626
635.20	67.821
635.53	70.133
635.86	68.921
636.19	70.116
636.52	69.770
636.85	69.107
637.18	67.547
637.51	67.044
637.83	69.120
638.16	71.351
638.49	66.757
638.82	67.895
639.15	68.792
639.48	70.151
639.81	70.711
640.13	69.986
640.46	70.554
640.79	70.398
641.12	70.458
641.45	71.321
641.77	69.630
642.10	76.145
642.43	72.990
642.76	74.422
643.09	74.475
643.41	69.094
643.74	72.817
644.07	75.205
644.40	74.493
644.73	76.357
645.05	73.490
645.38	77.954
645.71	74.113
646.04	78.097
646.36	74.291
646.69	76.079
647.02	77.505
647.35	76.306
647.67	77.331
648.00	78.172
648.33	74.403
648.66	72.712
648.98	73.367
649.31	73.058
649.64	71.429
649.96	72.447
650.29	73.765
650.62	74.017
650.94	76.852
651.27	74.488
651.60	74.054
651.92	72.378
652.25	73.002
652.58	73.667
652.90	74.614
653.23	70.756
653.56	69.374
653.88	71.993
654.21	69.352
654.54	70.628
654.86	73.684
655.19	65.936
655.52	60.217
655.84	47.375
656.17	50.881
656.49	68.537
656.82	71.976
657.15	55.508
657.47	42.168
657.80	31.501
658.13	31.179
658.45	49.552
658.78	50.604
659.10	51.319
659.43	52.767
659.75	56.290
660.08	58.897
660.41	65.066
660.73	68.094
661.06	75.910
661.38	73.386
661.71	73.922
662.03	77.468
662.36	75.824
662.68	78.097
663.01	78.603
663.33	77.958
663.66	78.837
663.98	83.023
664.31	78.252
664.63	78.571
664.96	75.435
665.28	73.289
665.61	80.087
665.93	76.304
666.26	78.308
666.58	80.089
666.91	81.176
667.23	81.840
667.56	82.464
667.88	83.693
668.21	84.726
668.53	81.324
668.86	83.255
669.18	78.302
669.50	78.935
669.83	75.581
670.15	76.457
670.48	80.861
670.80	77.650
671.13	77.405
671.45	74.429
671.77	79.399
672.10	72.277
672.42	72.472
672.75	70.870
673.07	73.166
673.39	72.477
673.72	72.387
674.04	76.667
674.37	77.966
674.69	73.876
675.01	78.000
675.34	76.577
675.66	80.093
675.98	80.044
676.31	76.147
676.63	78.622
676.95	75.227
677.28	82.824
677.60	83.614
677.92	78.670
678.25	77.899
678.57	76.407
678.89	74.370
679.22	80.089
679.54	71.888
679.86	70.179
680.18	73.398
680.51	70.644
680.83	70.378
681.15	72.600
681.48	77.049
681.80	75.000
682.12	75.000
682.44	74.059
682.77	78.808
683.09	79.634
683.41	74.773
683.73	75.115
684.06	75.885
684.38	71.398
684.70	77.560
685.02	72.822
685.34	68.379
685.67	69.981
685.99	71.067
686.31	65.664
686.63	69.759
686.96	69.011
687.28	72.121
687.60	69.202
687.92	74.343
688.24	70.363
688.56	74.017
688.89	76.116
689.21	76.889
689.53	73.782
689.85	73.023
690.17	73.661
690.49	77.305
690.82	75.728
691.14	76.429
691.46	74.766
691.78	76.126
692.10	76.559
692.42	71.861
692.74	69.658
693.06	72.973
693.39	72.398
693.71	73.077
694.03	74.596
694.35	73.832
694.67	78.283
694.99	73.629
695.31	78.329
695.63	75.750
695.95	74.495
696.27	76.684
696.59	80.278
696.91	77.031
697.23	74.807
697.56	75.248
697.88	71.398
698.20	71.526
698.52	72.706
698.84	73.445
699.16	74.000
699.48	76.441
699.80	74.690
700.12	77.628
700.44	76.471
700.76	77.326
701.08	79.091
701.40	78.012
701.72	79.630
702.04	84.158
702.36	83.612
702.68	81.682
703.00	80.606
703.32	79.179
703.64	70.621
703.96	74.493
704.28	79.141
704.60	79.683
704.91	75.394
705.23	79.402
705.55	82.686
705.87	86.282
706.19	84.444
706.51	78.007
706.83	82.315
707.15	77.882
707.47	73.109
707.79	74.219
708.11	72.250
708.43	67.500
708.74	73.643
709.06	74.366
709.38	76.453
709.70	74.556
710.02	78.344
710.34	78.947
710.66	74.038
710.98	74.503
711.29	80.000
711.61	76.610
711.93	76.547
712.25	80.069
712.57	78.022
712.89	80.224
713.20	81.661
713.52	76.307
713.84	73.379
714.16	76.632
714.48	76.129
714.80	73.077
715.11	77.204
715.43	70.846
715.75	73.333
716.07	75.748
716.39	77.517
716.70	73.801
717.02	77.099
717.34	89.069
717.66	84.956
717.97	81.304
718.29	82.008
718.61	75.591
718.93	79.070
719.24	77.567
719.56	76.707
719.88	75.945
720.20	73.485
720.51	74.713
720.83	77.220
721.15	84.454
721.46	81.048
721.78	72.332
722.10	70.260
722.42	75.519
722.73	82.041
723.05	81.224
723.37	80.932
723.68	84.234
724.00	82.051
724.32	75.111
724.63	79.091
724.95	74.236
725.27	85.714
725.58	74.576
725.90	76.190
726.22	76.448
726.53	72.203
726.85	76.030
727.16	77.358
727.48	74.899
727.80	77.733
728.11	83.475
728.43	74.510
728.74	77.016
729.06	78.000
729.38	81.203
729.69	75.697
730.01	68.462
730.32	75.000
730.64	71.731
730.96	75.472
731.27	72.333
731.59	69.831
731.90	67.516
732.22	72.240
732.53	71.761
732.85	73.050
733.16	71.380
733.48	70.863
733.80	73.188
734.11	67.797
734.43	73.883
734.74	66.061
735.06	68.078
735.37	66.465
735.69	72.054
736.00	69.686
736.32	69.128
736.63	71.127
736.95	69.966
737.26	71.530
737.58	64.430
737.89	72.894
738.21	73.684
738.52	74.486
738.83	75.983
739.15	70.742
739.46	71.260
739.78	71.429
740.09	64.052
740.41	72.826
740.72	67.323
741.04	75.709
741.35	74.894
741.66	75.829
741.98	77.551
742.29	81.188
742.61	82.199
742.92	71.564
743.23	81.481
743.55	74.661
743.86	72.249
744.18	76.077
744.49	78.723
744.80	82.065
745.12	85.027
745.43	72.683
745.74	75.521
746.06	77.561
746.37	85.864
746.68	72.986
747.00	76.064
747.31	85.075
747.62	76.214
747.94	77.512
748.25	81.683
748.56	84.699
748.88	78.010
749.19	88.298
749.50	77.340
749.82	77.830
750.13	77.064
750.44	71.805
750.75	74.254
751.07	70.073
751.38	76.628
751.69	72.549
752.01	72.868
752.32	71.713
752.63	74.308
752.94	77.155
753.26	78.243
753.57	74.208
753.88	73.894
754.19	68.750
754.51	72.314
754.82	70.850
755.13	78.333
755.44	75.000
755.75	78.906
756.07	73.930
756.38	70.189
756.69	65.900
757.00	63.667
757.31	67.320
757.63	63.110
757.94	61.667
758.25	63.288
758.56	61.702
758.87	61.190
759.18	62.305
759.50	69.091
759.81	69.900
760.12	67.742
760.43	62.424
760.74	67.284
761.05	64.923
761.36	60.511
761.67	71.212
761.99	68.707
762.30	69.455
762.61	68.775
762.92	69.683
763.23	71.622
763.54	72.430
763.85	69.915
764.16	68.050
764.47	68.952
764.78	67.399
765.10	71.717
765.41	65.931
765.72	63.810
766.03	64.662
766.34	66.788
766.65	70.916
766.96	74.242
767.27	75.000
767.58	77.586
767.89	85.816
768.20	72.159
768.51	75.824
768.82	64.532
769.13	64.977
769.44	66.094
769.75	71.233
770.06	66.379
770.37	70.192
770.68	68.020
770.99	65.158
771.30	73.529
771.61	66.516
771.92	65.948
772.23	71.429
772.54	67.742
772.85	83.951
773.16	78.090
773.47	82.353
773.78	83.007
774.09	74.251
774.39	71.333
774.70	73.248
775.01	79.310
775.32	73.571
775.63	76.033
775.94	69.466
776.25	78.740
776.56	69.167
776.87	75.000
777.18	84.615
777.48	83.621
777.79	73.043
778.10	80.000
778.41	75.676
778.72	66.667
779.03	81.955
779.34	77.305
779.65	78.767
779.95	65.753
780.26	73.103
780.57	73.984
780.88	65.354
781.19	83.621
781.50	80.620
781.80	60.947
782.11	61.635
782.42	79.231
782.73	73.381
783.04	73.333
783.34	68.056
783.65	73.504
783.96	73.770
784.27	71.724
784.57	69.106
784.88	66.406
785.19	74.000
785.50	89.000
785.81	70.690
786.11	68.966
786.42	71.845
786.73	74.545
787.04	71.429
787.34	68.750
787.65	63.810
787.96	69.912
788.26	81.818
788.57	69.231
788.88	76.562
789.19	63.492
789.49	69.565
789.80	72.449
790.11	73.737
790.41	65.455
790.72	76.087
791.03	77.273
791.33	80.000
791.64	83.750
791.95	77.907
792.25	73.404
792.56	68.539
792.87	75.342
793.17	82.609
793.48	85.333
793.79	75.000
794.09	76.250
794.40	66.038
794.70	67.961
795.01	62.602
795.32	67.521
795.62	58.095
795.93	72.549
796.23	68.868
796.54	69.792
796.85	92.647
797.15	64.789
797.46	83.333
797.76	84.848
798.07	68.605
798.37	72.368
798.68	74.242
798.99	67.901
799.29	77.143
799.60	78.261
799.90	61.333
800.21	83.607
800.51	55.385
800.82	86.441
801.12	50.725
801.43	91.803
801.73	76.190
802.04	102.000
802.34	74.627
802.65	88.462
802.95	66.071
803.26	61.538
803.56	78.431
803.87	43.478
804.17	61.333
804.48	95.238
804.78	61.111
805.09	91.304
805.39	64.444
805.70	88.889
806.00	57.895
806.30	74.648
806.61	84.286
806.91	50.000
807.22	76.316
807.52	69.333
807.83	72.727
808.13	62.500
808.43	95.588
808.74	61.194
809.04	67.797
809.35	76.923
809.65	76.563
809.95	56.757
810.26	75.000
810.56	50.685
810.86	83.333
811.17	56.000
811.47	91.837
811.77	76.316
812.08	90.909
812.38	73.585
812.69	70.000
812.99	87.879
813.29	92.105
813.59	51.429
813.90	56.818
814.20	66.667
814.50	90.385
814.81	56.604
815.11	74.468
815.41	72.881
815.72	69.048
816.02	64.706
816.32	70.833
816.62	78.049
816.93	100.000
817.23	74.286
817.53	95.833
817.84	56.522
818.14	75.000
818.44	68.421
818.74	86.957
819.04	32.500
819.35	72.973
819.65	64.706
819.95	69.444
820.25	66.667
820.56	60.000
820.86	41.379
821.16	97.500
821.46	72.340
821.76	75.000
822.07	58.140
822.37	29.730
822.67	65.625
822.97	47.619
823.27	67.857
823.57	104.000
823.88	37.037
824.18	67.857
824.48	82.353
824.78	54.839
825.08	43.478
825.38	90.909
825.69	50.000
825.99	52.632
826.29	69.444
826.59	113.333
826.89	66.667
827.19	60.870
827.49	47.500
827.79	57.143
828.09	114.286
828.39	66.667
828.70	81.081
829.00	64.286
829.30	71.429
829.60	70.000
829.90	90.625
830.20	39.474
830.50	37.037
830.80	52.174
831.10	86.364
831.40	69.697
831.70	67.742
832.00	85.714
832.30	33.333
832.60	141.667
832.90	89.655
833.20	45.000
833.50	103.030
833.80	62.963
834.10	73.077
834.40	46.875
834.70	122.222
835.00	136.842
835.30	103.846
835.60	113.333
835.90	70.968
836.20	95.455
836.50	114.286
836.80	46.154
837.10	35.714
837.40	233.333
837.70	90.909
838.00	145.455
838.30	30.435
838.60	138.462
838.90	90.909
839.19	78.571
839.49	53.333
839.79	84.615
840.09	25.000
840.39	67.857
840.69	21.429
840.99	34.615
841.29	-15.789
841.59	150.000
841.88	100.000
842.18	110.000
842.48	50.000
842.78	60.000
843.08	85.185
843.38	-60.000
843.68	113.043
843.97	86.667
844.27	33.333
844.57	45.000
844.87	38.889
845.17	61.905
845.47	66.667
845.76	33.333
846.06	211.765
846.36	30.000
846.66	64.286
846.96	86.667
847.25	-87.500
847.55	157.143
847.85	125.000
848.15	40.909
848.44	-66.667
848.74	75.000
849.04	77.778
849.34	54.545
849.63	-16.667
849.93	-140.000
850.23	33.333
850.53	180.000
850.82	30.769
851.12	-44.444
851.42	133.333
851.71	30.769
852.01	64.286
852.31	325.000
852.61	27.273
852.90	45.000
853.20	47.368
853.50	141.667
853.79	95.652
854.09	112.500
854.39	52.632
854.68	50.000
854.98	87.097
855.28	65.385
855.57	65.000
855.87	94.444
856.17	44.444
856.46	114.286
856.76	20.000
857.05	200.000
857.35	56.000
857.65	72.222
857.94	76.923
858.24	55.172
858.53	88.889
858.83	18.519
859.13	59.091
859.42	82.609
859.72	200.000
860.01	-233.333
860.31	68.000
860.60	61.905
860.90	33.333
861.20	0.000
861.49	-200.000
861.79	20.000
862.08	20.000
862.38	86.667
862.67	-80.000
862.97	33.333
863.26	133.333
863.56	127.778
863.85	-333.333
864.15	100.000
864.44	-50.000
864.74	85.714
865.03	225.000
865.33	-60.000
865.62	150.000
865.92	58.333
866.21	-50.000
866.51	131.250
866.80	-27.273
867.10	0.000
867.39	116.667
867.69	0.000
867.98	46.154
868.27	33.333
868.57	20.000
868.86	66.667
869.16	-30.769
869.45	153.333
869.75	-900.000
870.04	0.000
870.33	14.286
870.63	23.810
870.92	33.333
871.22	-40.000
871.51	100.000
871.80	44.444
872.10	-100.000
>>>>>End Processed Spectral Data<<<<<
