SpectraSuite Data File
++++++++++++++++++++++++++++++++++++
Date: Fri May 15 20:02:09 PDT 2015
User: schluterlab
Dark Spectrum Present: Yes
Reference Spectrum Present: Yes
Number of Sampled Component Spectra: 1
Spectrometers: USB2E3373
Integration Time (usec): 3000 (USB2E3373)
Spectra Averaged: 3 (USB2E3373)
Boxcar Smoothing: 0 (USB2E3373)
Correct for Electrical Dark: No (USB2E3373)
Strobe/Lamp Enabled: No (USB2E3373)
Correct for Detector Non-linearity: No (USB2E3373)
Correct for Stray Light: No (USB2E3373)
Number of Pixels in Processed Spectrum: 2048
>>>>>Begin Processed Spectral Data<<<<<
178.53	0.000
178.91	0.000
179.29	12.500
179.67	-100.000
180.04	-71.429
180.42	125.000
180.80	300.000
181.18	-33.333
181.56	300.000
181.94	150.000
182.31	400.000
182.69	-40.000
183.07	166.667
183.45	-100.000
183.83	200.000
184.20	36.364
184.58	100.000
184.96	75.000
185.34	-100.000
185.72	-150.000
186.09	84.615
186.47	-400.000
186.85	100.000
187.23	22.222
187.61	700.000
187.98	-200.000
188.36	-33.333
188.74	-300.000
189.12	-5.882
189.49	83.333
189.87	0.000
190.25	100.000
190.63	0.000
191.00	-200.000
191.38	26.316
191.76	200.000
192.14	-0.000
192.51	300.000
192.89	11.111
193.27	-42.857
193.65	266.667
194.02	90.909
194.40	-50.000
194.78	-112.500
195.15	66.667
195.53	-50.000
195.91	250.000
196.29	-400.000
196.66	76.923
197.04	57.143
197.42	-66.667
197.79	-133.333
198.17	-123.077
198.55	600.000
198.92	-300.000
199.30	-200.000
199.68	0.000
200.05	-133.333
200.43	0.000
200.81	-166.667
201.18	-100.000
201.56	900.000
201.94	-50.000
202.31	-233.333
202.69	-220.000
203.07	-100.000
203.44	-300.000
203.82	0.000
204.19	71.429
204.57	-566.667
204.95	87.500
205.32	70.000
205.70	-28.571
206.08	150.000
206.45	222.222
206.83	114.286
207.20	-85.714
207.58	-200.000
207.96	0.000
208.33	-20.000
208.71	-150.000
209.08	-50.000
209.46	-700.000
209.84	-40.000
210.21	-400.000
210.59	128.571
210.96	0.000
211.34	-25.000
211.71	106.667
212.09	-142.857
212.46	-1800.000
212.84	0.000
213.22	40.000
213.59	-50.000
213.97	84.615
214.34	54.545
214.72	116.667
215.09	175.000
215.47	15.385
215.84	-27.273
216.22	-166.667
216.59	-12.500
216.97	350.000
217.34	125.000
217.72	-100.000
218.09	100.000
218.47	125.000
218.84	100.000
219.22	11.111
219.59	200.000
219.97	66.667
220.34	100.000
220.72	0.000
221.09	-175.000
221.47	-350.000
221.84	-500.000
222.22	-900.000
222.59	54.545
222.97	8.333
223.34	-266.667
223.72	35.714
224.09	23.810
224.46	75.000
224.84	100.000
225.21	-10.000
225.59	73.333
225.96	250.000
226.34	50.000
226.71	28.571
227.08	-50.000
227.46	112.500
227.83	-350.000
228.21	11.111
228.58	118.182
228.95	-87.500
229.33	70.000
229.70	25.000
230.08	-100.000
230.45	-85.714
230.82	-14.286
231.20	33.333
231.57	42.857
231.95	42.857
232.32	-30.000
232.69	42.857
233.07	200.000
233.44	-180.000
233.81	-10.000
234.19	88.889
234.56	-35.294
234.93	250.000
235.31	125.000
235.68	-320.000
236.05	-38.462
236.43	15.000
236.80	-41.176
237.17	15.625
237.55	0.000
237.92	-14.815
238.29	27.778
238.67	10.000
239.04	20.588
239.41	4.878
239.79	3.333
240.16	19.512
240.53	-7.895
240.91	15.217
241.28	12.698
241.65	21.429
242.02	23.288
242.40	10.000
242.77	20.339
243.14	3.030
243.51	12.500
243.89	31.034
244.26	14.943
244.63	14.286
245.00	20.619
245.38	20.619
245.75	16.854
246.12	7.759
246.49	21.488
246.87	10.577
247.24	17.647
247.61	5.263
247.98	19.512
248.36	8.750
248.73	18.421
249.10	12.987
249.47	11.392
249.84	13.725
250.22	15.882
250.59	18.954
250.96	16.432
251.33	11.628
251.70	13.529
252.08	22.843
252.45	14.356
252.82	12.060
253.19	14.286
253.56	7.944
253.94	13.964
254.31	14.348
254.68	17.982
255.05	13.386
255.42	17.467
255.79	15.444
256.16	12.451
256.54	19.776
256.91	14.068
257.28	17.844
257.65	15.356
258.02	14.894
258.39	17.172
258.76	18.315
259.14	14.618
259.51	15.210
259.88	15.464
260.25	15.359
260.62	16.319
260.99	13.220
261.36	12.329
261.73	14.241
262.10	13.982
262.47	13.804
262.85	18.182
263.22	15.692
263.59	15.265
263.96	17.081
264.33	14.848
264.70	16.071
265.07	13.393
265.44	17.564
265.81	14.407
266.18	15.301
266.55	16.967
266.92	13.731
267.29	14.621
267.66	16.880
268.03	15.969
268.40	14.883
268.77	17.112
269.14	17.746
269.51	16.967
269.88	14.713
270.25	13.520
270.62	15.610
270.99	12.532
271.36	13.692
271.73	14.789
272.10	13.139
272.47	15.366
272.84	11.386
273.21	15.777
273.58	15.904
273.95	15.561
274.32	13.395
274.69	13.348
275.06	13.839
275.43	13.605
275.80	15.894
276.17	15.632
276.54	14.133
276.91	14.035
277.28	13.755
277.65	14.256
278.02	11.702
278.39	13.129
278.76	14.675
279.13	9.336
279.50	15.756
279.87	14.039
280.23	13.763
280.60	14.230
280.97	14.949
281.34	13.462
281.71	15.606
282.08	12.065
282.45	13.112
282.82	13.127
283.19	15.087
283.56	12.139
283.92	12.334
284.29	13.462
284.66	10.659
285.03	14.931
285.40	12.665
285.77	14.060
286.14	11.733
286.51	15.867
286.87	13.163
287.24	14.549
287.61	12.698
287.98	15.789
288.35	13.345
288.72	15.412
289.08	12.674
289.45	12.127
289.82	13.811
290.19	13.311
290.56	11.835
290.93	12.121
291.29	12.018
291.66	13.228
292.03	12.919
292.40	14.194
292.77	10.686
293.13	10.714
293.50	11.684
293.87	13.893
294.24	12.828
294.60	12.668
294.97	11.161
295.34	10.736
295.71	11.923
296.08	12.257
296.44	11.949
296.81	12.500
297.18	12.319
297.55	13.550
297.91	11.507
298.28	13.456
298.65	12.212
299.02	12.534
299.38	11.218
299.75	11.310
300.12	12.304
300.48	13.439
300.85	12.167
301.22	11.299
301.59	11.447
301.95	12.785
302.32	11.543
302.69	11.443
303.05	10.520
303.42	13.450
303.79	12.500
304.15	10.036
304.52	11.177
304.89	11.579
305.25	11.017
305.62	8.751
305.99	9.825
306.35	11.676
306.72	10.574
307.09	11.631
307.45	11.366
307.82	10.880
308.19	10.918
308.55	11.341
308.92	12.418
309.29	10.726
309.65	11.410
310.02	11.551
310.38	12.733
310.75	11.366
311.12	11.948
311.48	9.650
311.85	12.042
312.22	10.654
312.58	11.359
312.95	11.633
313.31	10.663
313.68	10.995
314.05	11.837
314.41	12.165
314.78	10.928
315.14	11.305
315.51	11.387
315.87	10.861
316.24	13.246
316.61	10.925
316.97	11.806
317.34	10.840
317.70	11.759
318.07	11.827
318.43	12.157
318.80	10.417
319.16	12.305
319.53	12.061
319.89	10.925
320.26	11.640
320.62	11.334
320.99	10.230
321.35	11.100
321.72	11.734
322.08	12.185
322.45	12.893
322.81	11.395
323.18	10.500
323.54	11.873
323.91	11.392
324.27	10.840
324.64	11.049
325.00	11.496
325.37	12.397
325.73	10.698
326.10	11.444
326.46	13.094
326.83	13.123
327.19	11.595
327.56	12.424
327.92	12.324
328.29	12.946
328.65	12.736
329.01	13.327
329.38	13.364
329.74	12.653
330.11	13.624
330.47	12.059
330.84	12.404
331.20	14.449
331.56	12.963
331.93	13.790
332.29	13.749
332.66	13.846
333.02	12.546
333.38	13.199
333.75	13.187
334.11	11.817
334.48	14.959
334.84	13.462
335.20	14.364
335.57	12.058
335.93	14.002
336.29	14.917
336.66	12.807
337.02	13.383
337.38	13.519
337.75	14.091
338.11	14.337
338.47	13.504
338.84	13.771
339.20	13.803
339.56	14.312
339.93	14.235
340.29	14.128
340.65	15.143
341.02	14.007
341.38	12.478
341.74	13.516
342.11	13.172
342.47	13.523
342.83	14.533
343.20	13.415
343.56	13.739
343.92	13.818
344.28	14.944
344.65	13.212
345.01	12.532
345.37	13.877
345.73	13.975
346.10	13.891
346.46	13.288
346.82	13.421
347.19	12.386
347.55	12.865
347.91	15.291
348.27	13.339
348.63	14.225
349.00	12.633
349.36	13.965
349.72	13.930
350.08	13.443
350.45	13.567
350.81	12.791
351.17	13.029
351.53	13.143
351.89	13.047
352.26	12.800
352.62	13.710
352.98	14.056
353.34	13.043
353.70	13.916
354.07	13.790
354.43	13.451
354.79	12.552
355.15	14.286
355.51	14.161
355.87	13.269
356.24	11.501
356.60	13.500
356.96	13.492
357.32	12.780
357.68	13.995
358.04	13.247
358.40	13.264
358.77	14.195
359.13	13.611
359.49	12.789
359.85	13.495
360.21	12.360
360.57	13.389
360.93	12.935
361.29	12.613
361.66	14.185
362.02	13.333
362.38	13.176
362.74	13.323
363.10	14.748
363.46	12.898
363.82	14.576
364.18	13.948
364.54	13.162
364.90	13.118
365.26	13.173
365.62	13.869
365.98	14.443
366.35	13.401
366.71	14.191
367.07	14.006
367.43	13.659
367.79	14.134
368.15	13.568
368.51	13.911
368.87	12.778
369.23	12.924
369.59	13.776
369.95	13.636
370.31	13.223
370.67	13.358
371.03	12.621
371.39	13.640
371.75	13.919
372.11	14.337
372.47	14.053
372.83	14.549
373.19	14.836
373.55	13.646
373.91	14.183
374.27	14.103
374.63	13.711
374.99	14.326
375.35	13.649
375.71	14.615
376.07	14.115
376.42	14.286
376.78	14.966
377.14	13.744
377.50	14.409
377.86	14.391
378.22	14.040
378.58	14.679
378.94	14.682
379.30	15.034
379.66	15.172
380.02	14.286
380.38	14.668
380.74	14.602
381.09	16.503
381.45	15.291
381.81	15.608
382.17	15.038
382.53	15.178
382.89	15.003
383.25	16.490
383.61	15.305
383.97	15.683
384.32	16.448
384.68	16.099
385.04	16.299
385.40	15.121
385.76	16.478
386.12	16.688
386.48	17.241
386.83	16.487
387.19	16.850
387.55	16.499
387.91	16.381
388.27	16.606
388.62	16.048
388.98	16.329
389.34	17.177
389.70	17.091
390.06	16.237
390.42	15.738
390.77	17.266
391.13	16.898
391.49	17.206
391.85	17.544
392.20	17.263
392.56	16.910
392.92	17.440
393.28	17.571
393.64	17.117
393.99	17.931
394.35	16.762
394.71	18.710
395.07	17.348
395.42	17.729
395.78	17.524
396.14	17.718
396.50	17.692
396.85	17.321
397.21	17.732
397.57	17.618
397.92	17.975
398.28	17.414
398.64	17.831
399.00	17.156
399.35	17.325
399.71	17.863
400.07	18.803
400.42	17.442
400.78	18.065
401.14	18.270
401.49	17.630
401.85	18.160
402.21	18.373
402.57	18.250
402.92	17.440
403.28	18.609
403.63	18.411
403.99	18.112
404.35	17.926
404.70	17.619
405.06	17.744
405.42	18.397
405.77	17.025
406.13	18.510
406.49	17.821
406.84	17.665
407.20	18.423
407.55	17.193
407.91	17.045
408.27	17.463
408.62	19.200
408.98	18.115
409.34	17.968
409.69	17.442
410.05	17.796
410.40	18.889
410.76	18.154
411.11	18.187
411.47	17.554
411.83	17.012
412.18	18.468
412.54	17.478
412.89	17.672
413.25	18.291
413.60	18.012
413.96	17.975
414.31	18.354
414.67	17.704
415.03	17.643
415.38	17.037
415.74	18.371
416.09	18.354
416.45	17.286
416.80	18.374
417.16	17.749
417.51	18.254
417.87	17.731
418.22	18.588
418.58	18.528
418.93	18.307
419.29	17.414
419.64	18.082
420.00	18.577
420.35	18.030
420.71	18.712
421.06	18.109
421.42	18.029
421.77	17.861
422.12	17.991
422.48	17.975
422.83	18.097
423.19	18.510
423.54	17.813
423.90	17.079
424.25	18.772
424.61	18.543
424.96	18.990
425.31	19.353
425.67	18.251
426.02	18.669
426.38	19.474
426.73	18.462
427.09	19.304
427.44	18.471
427.79	18.444
428.15	18.932
428.50	17.929
428.85	18.428
429.21	18.563
429.56	18.491
429.92	18.593
430.27	18.647
430.62	18.139
430.98	17.887
431.33	18.454
431.68	18.263
432.04	19.340
432.39	18.540
432.74	17.619
433.10	19.310
433.45	18.817
433.80	18.398
434.16	17.230
434.51	18.441
434.86	19.338
435.22	18.957
435.57	19.214
435.92	18.623
436.28	18.903
436.63	18.369
436.98	17.845
437.34	18.209
437.69	19.082
438.04	18.120
438.39	18.143
438.75	18.215
439.10	18.902
439.45	19.294
439.81	18.410
440.16	18.468
440.51	19.821
440.86	20.242
441.22	18.382
441.57	18.433
441.92	19.990
442.27	18.237
442.63	19.379
442.98	19.127
443.33	18.865
443.68	18.833
444.03	18.679
444.39	18.642
444.74	19.175
445.09	19.321
445.44	18.177
445.79	19.752
446.15	19.053
446.50	18.358
446.85	18.385
447.20	19.030
447.55	20.257
447.91	18.556
448.26	19.010
448.61	19.113
448.96	19.564
449.31	18.497
449.66	18.757
450.02	18.996
450.37	18.494
450.72	19.645
451.07	19.177
451.42	19.101
451.77	19.349
452.12	18.660
452.47	18.995
452.83	19.552
453.18	19.355
453.53	19.659
453.88	19.065
454.23	18.500
454.58	19.144
454.93	19.008
455.28	18.159
455.63	18.723
455.98	18.882
456.34	19.029
456.69	19.568
457.04	19.849
457.39	18.894
457.74	19.226
458.09	18.011
458.44	18.666
458.79	17.983
459.14	19.966
459.49	19.284
459.84	19.064
460.19	18.871
460.54	18.643
460.89	19.091
461.24	18.696
461.59	19.537
461.94	17.987
462.29	19.059
462.64	19.934
462.99	18.822
463.34	18.498
463.69	19.176
464.04	19.673
464.39	18.981
464.74	18.773
465.09	18.715
465.44	18.927
465.79	18.141
466.14	19.441
466.49	19.034
466.84	19.631
467.19	19.712
467.54	18.391
467.89	18.446
468.24	18.370
468.59	19.746
468.94	18.667
469.29	19.410
469.64	19.275
469.99	19.341
470.34	17.747
470.68	20.656
471.03	19.887
471.38	19.187
471.73	19.888
472.08	19.471
472.43	19.396
472.78	18.711
473.13	19.456
473.48	18.827
473.83	18.618
474.17	19.948
474.52	19.847
474.87	20.061
475.22	18.853
475.57	19.029
475.92	19.419
476.27	19.849
476.61	19.907
476.96	18.740
477.31	19.470
477.66	19.213
478.01	18.754
478.36	19.009
478.70	19.467
479.05	19.670
479.40	19.184
479.75	19.864
480.10	19.560
480.45	19.500
480.79	19.789
481.14	19.928
481.49	19.360
481.84	19.450
482.19	19.083
482.53	19.281
482.88	19.236
483.23	19.530
483.58	19.151
483.92	19.022
484.27	18.414
484.62	20.036
484.97	19.030
485.31	18.750
485.66	18.592
486.01	18.876
486.36	18.211
486.70	18.468
487.05	18.897
487.40	18.614
487.75	19.211
488.09	18.820
488.44	18.948
488.79	19.387
489.13	19.752
489.48	19.367
489.83	19.507
490.17	19.461
490.52	19.677
490.87	18.788
491.22	19.341
491.56	19.023
491.91	19.551
492.26	19.640
492.60	19.530
492.95	19.479
493.30	19.785
493.64	19.695
493.99	19.662
494.34	18.641
494.68	20.000
495.03	19.173
495.37	18.940
495.72	19.435
496.07	19.610
496.41	19.858
496.76	19.300
497.11	19.655
497.45	20.334
497.80	19.576
498.14	19.672
498.49	20.213
498.84	19.810
499.18	19.629
499.53	19.444
499.87	19.358
500.22	19.189
500.56	19.264
500.91	19.327
501.26	18.932
501.60	18.839
501.95	20.184
502.29	19.613
502.64	20.319
502.98	19.191
503.33	19.308
503.67	19.133
504.02	19.550
504.36	20.287
504.71	19.394
505.06	20.382
505.40	19.594
505.75	19.381
506.09	20.223
506.44	19.969
506.78	20.153
507.13	19.855
507.47	19.426
507.82	19.658
508.16	19.704
508.51	20.199
508.85	19.885
509.19	19.585
509.54	19.625
509.88	19.310
510.23	19.634
510.57	20.363
510.92	18.550
511.26	20.840
511.61	20.462
511.95	19.616
512.30	19.512
512.64	19.922
512.98	20.494
513.33	20.537
513.67	19.386
514.02	20.137
514.36	20.914
514.70	20.338
515.05	20.623
515.39	20.071
515.74	20.659
516.08	20.323
516.42	20.200
516.77	20.363
517.11	19.881
517.46	21.005
517.80	19.309
518.14	20.453
518.49	20.132
518.83	19.563
519.17	19.891
519.52	20.130
519.86	20.168
520.20	20.413
520.55	19.387
520.89	21.205
521.23	19.759
521.58	21.199
521.92	20.385
522.26	20.950
522.61	20.195
522.95	21.987
523.29	20.330
523.64	20.521
523.98	20.868
524.32	19.974
524.66	21.191
525.01	21.364
525.35	20.998
525.69	20.269
526.04	19.841
526.38	21.855
526.72	20.275
527.06	20.233
527.41	21.570
527.75	20.576
528.09	20.731
528.43	20.797
528.78	20.726
529.12	20.323
529.46	20.663
529.80	20.329
530.15	21.650
530.49	21.886
530.83	21.683
531.17	20.484
531.51	22.025
531.86	19.579
532.20	20.529
532.54	21.511
532.88	20.876
533.22	21.909
533.57	20.839
533.91	20.039
534.25	20.833
534.59	20.141
534.93	20.013
535.27	18.845
535.62	19.637
535.96	20.874
536.30	20.580
536.64	20.744
536.98	19.443
537.32	21.408
537.66	21.178
538.01	22.238
538.35	20.735
538.69	21.438
539.03	20.916
539.37	21.400
539.71	20.109
540.05	20.231
540.39	20.845
540.73	20.711
541.07	20.580
541.42	21.707
541.76	20.991
542.10	19.890
542.44	20.917
542.78	19.683
543.12	19.505
543.46	21.140
543.80	20.264
544.14	19.292
544.48	19.987
544.82	21.326
545.16	21.448
545.50	21.562
545.84	21.813
546.18	21.348
546.52	21.053
546.86	20.920
547.20	20.672
547.54	19.647
547.88	20.516
548.22	19.264
548.56	20.119
548.90	20.283
549.24	19.972
549.58	19.535
549.92	18.656
550.26	19.853
550.60	20.149
550.94	21.135
551.28	20.015
551.62	20.615
551.96	20.677
552.30	21.053
552.64	20.804
552.98	20.394
553.32	20.114
553.66	19.956
554.00	20.803
554.34	20.384
554.68	20.649
555.02	21.131
555.36	20.269
555.69	20.293
556.03	19.129
556.37	20.427
556.71	20.866
557.05	21.029
557.39	19.703
557.73	20.090
558.07	21.267
558.41	20.980
558.75	21.278
559.08	20.804
559.42	20.556
559.76	21.217
560.10	21.330
560.44	19.434
560.78	20.839
561.12	21.157
561.45	20.450
561.79	20.308
562.13	20.653
562.47	19.281
562.81	20.245
563.15	19.394
563.48	20.438
563.82	19.698
564.16	19.568
564.50	18.851
564.84	19.746
565.17	19.785
565.51	20.628
565.85	20.713
566.19	20.027
566.52	20.375
566.86	20.180
567.20	19.614
567.54	19.647
567.88	20.152
568.21	20.079
568.55	19.783
568.89	19.918
569.23	19.836
569.56	19.702
569.90	19.407
570.24	18.943
570.57	19.709
570.91	19.868
571.25	18.382
571.59	18.374
571.92	18.311
572.26	18.388
572.60	19.070
572.93	18.670
573.27	18.433
573.61	18.646
573.95	18.569
574.28	18.988
574.62	18.637
574.96	18.175
575.29	18.728
575.63	17.880
575.97	18.596
576.30	18.414
576.64	18.066
576.98	18.507
577.31	18.162
577.65	18.119
577.98	18.238
578.32	17.977
578.66	17.902
578.99	18.250
579.33	17.662
579.67	18.067
580.00	18.506
580.34	18.582
580.67	18.200
581.01	18.252
581.35	17.980
581.68	17.890
582.02	17.820
582.35	17.642
582.69	17.900
583.02	17.902
583.36	18.524
583.70	18.302
584.03	18.766
584.37	19.142
584.70	18.544
585.04	17.383
585.37	17.961
585.71	18.218
586.04	17.978
586.38	17.845
586.72	18.364
587.05	18.862
587.39	18.451
587.72	19.109
588.06	17.935
588.39	18.228
588.73	18.681
589.06	18.917
589.40	18.493
589.73	19.277
590.07	19.335
590.40	18.460
590.73	19.316
591.07	18.575
591.40	18.967
591.74	19.095
592.07	19.063
592.41	19.611
592.74	18.598
593.08	18.198
593.41	18.188
593.75	18.417
594.08	17.954
594.41	18.668
594.75	18.397
595.08	18.502
595.42	18.660
595.75	19.001
596.09	18.647
596.42	18.768
596.75	18.917
597.09	19.089
597.42	18.383
597.75	19.835
598.09	18.696
598.42	18.773
598.76	18.704
599.09	18.510
599.42	17.734
599.76	18.209
600.09	18.175
600.42	18.575
600.76	17.831
601.09	18.130
601.42	17.940
601.76	17.825
602.09	18.193
602.42	18.829
602.76	18.633
603.09	18.812
603.42	18.478
603.76	18.024
604.09	17.659
604.42	18.655
604.76	19.226
605.09	18.830
605.42	18.826
605.75	19.046
606.09	18.259
606.42	18.265
606.75	19.134
607.09	18.593
607.42	18.476
607.75	18.783
608.08	18.149
608.42	17.908
608.75	18.651
609.08	18.984
609.41	19.188
609.75	19.002
610.08	18.922
610.41	18.744
610.74	18.479
611.07	18.295
611.41	18.889
611.74	19.190
612.07	18.041
612.40	18.654
612.73	19.040
613.07	18.166
613.40	19.420
613.73	18.187
614.06	19.421
614.39	18.387
614.72	18.936
615.06	18.715
615.39	18.504
615.72	18.084
616.05	19.665
616.38	17.379
616.71	18.532
617.05	19.271
617.38	19.233
617.71	18.428
618.04	18.794
618.37	20.177
618.70	19.340
619.03	20.347
619.36	18.958
619.69	20.394
620.03	19.942
620.36	19.242
620.69	18.844
621.02	18.349
621.35	19.834
621.68	20.918
622.01	19.583
622.34	19.633
622.67	19.716
623.00	19.066
623.33	19.970
623.66	18.773
623.99	19.062
624.32	20.380
624.65	19.323
624.99	20.316
625.32	18.423
625.65	20.660
625.98	19.500
626.31	19.202
626.64	20.017
626.97	19.895
627.30	20.140
627.63	19.671
627.96	19.766
628.29	19.056
628.62	20.354
628.95	20.541
629.28	20.464
629.61	20.638
629.94	19.257
630.26	20.257
630.59	21.124
630.92	20.513
631.25	19.385
631.58	21.145
631.91	19.079
632.24	19.725
632.57	20.682
632.90	19.929
633.23	20.235
633.56	19.773
633.89	20.962
634.22	19.877
634.55	19.441
634.88	21.073
635.20	21.026
635.53	20.133
635.86	18.205
636.19	21.087
636.52	20.918
636.85	19.975
637.18	19.245
637.51	19.874
637.83	19.711
638.16	22.101
638.49	21.390
638.82	22.105
639.15	20.624
639.48	21.183
639.81	19.107
640.13	21.789
640.46	22.449
640.79	21.649
641.12	20.089
641.45	22.072
641.77	20.444
642.10	22.275
642.43	19.614
642.76	20.627
643.09	19.871
643.41	20.874
643.74	20.758
644.07	19.704
644.40	23.818
644.73	23.117
645.05	22.987
645.38	22.399
645.71	20.745
646.04	20.287
646.36	21.099
646.69	22.842
647.02	22.495
647.35	20.709
647.67	24.680
648.00	22.015
648.33	22.184
648.66	22.203
648.98	19.430
649.31	18.678
649.64	20.251
649.96	20.746
650.29	21.976
650.62	19.658
650.94	19.630
651.27	21.043
651.60	22.703
651.92	21.503
652.25	20.249
652.58	21.667
652.90	21.441
653.23	20.840
653.56	21.827
653.88	20.103
654.21	18.914
654.54	21.732
654.86	20.713
655.19	20.029
655.52	19.582
655.84	16.551
656.17	17.883
656.49	24.343
656.82	25.656
657.15	19.928
657.47	15.033
657.80	11.324
658.13	11.354
658.45	17.505
658.78	18.045
659.10	17.873
659.43	18.662
659.75	19.487
660.08	19.724
660.41	20.327
660.73	21.409
661.06	22.357
661.38	20.744
661.71	20.945
662.03	23.391
662.36	20.879
662.68	25.221
663.01	20.742
663.33	22.274
663.66	17.907
663.98	21.860
664.31	21.535
664.63	21.659
664.96	17.174
665.28	21.192
665.61	21.212
665.93	18.696
666.26	21.909
666.58	19.239
666.91	19.294
667.23	22.170
667.56	21.564
667.88	20.624
668.21	23.628
668.53	19.622
668.86	21.698
669.18	19.811
669.50	19.128
669.83	20.465
670.15	21.911
670.48	19.139
670.80	20.968
671.13	19.239
671.45	19.863
671.77	22.318
672.10	19.208
672.42	20.225
672.75	20.249
673.07	22.719
673.39	21.284
673.72	16.963
674.04	19.167
674.37	21.822
674.69	20.343
675.01	21.333
675.34	21.396
675.66	20.833
675.98	21.064
676.31	21.330
676.63	21.853
676.95	20.909
677.28	20.941
677.60	24.096
677.92	20.413
678.25	20.131
678.57	20.346
678.89	22.269
679.22	22.595
679.54	20.884
679.86	20.278
680.18	20.583
680.51	19.129
680.83	15.706
681.15	20.600
681.48	21.721
681.80	20.868
682.12	20.968
682.44	18.410
682.77	19.426
683.09	21.739
683.41	19.773
683.73	20.276
684.06	19.912
684.38	16.989
684.70	21.351
685.02	17.427
685.34	19.170
685.67	20.450
685.99	22.785
686.31	17.876
686.63	20.594
686.96	19.582
687.28	16.364
687.60	18.441
687.92	24.040
688.24	18.750
688.56	20.306
688.89	16.741
689.21	22.000
689.53	19.722
689.85	19.767
690.17	20.313
690.49	21.277
690.82	19.660
691.14	19.048
691.46	17.757
691.78	20.946
692.10	22.151
692.42	19.697
692.74	21.154
693.06	21.622
693.39	18.100
693.71	18.552
694.03	19.169
694.35	22.897
694.67	20.960
694.99	20.627
695.31	20.627
695.63	19.250
695.95	20.960
696.27	19.171
696.59	23.889
696.91	21.849
697.23	17.224
697.56	18.812
697.88	21.075
698.20	19.590
698.52	21.647
698.84	16.268
699.16	21.500
699.48	21.303
699.80	21.092
700.12	21.024
700.44	19.608
700.76	21.221
701.08	21.818
701.40	21.687
701.72	23.765
702.04	18.152
702.36	24.415
702.68	20.721
703.00	19.091
703.32	20.821
703.64	15.537
703.96	18.841
704.28	22.086
704.60	18.095
704.91	20.820
705.23	23.588
705.55	23.675
705.87	17.690
706.19	25.185
706.51	20.275
706.83	21.222
707.15	19.315
707.47	18.487
707.79	19.531
708.11	21.250
708.43	20.000
708.74	21.447
709.06	22.817
709.38	20.183
709.70	19.527
710.02	19.427
710.34	21.362
710.66	19.551
710.98	14.901
711.29	20.328
711.61	22.034
711.93	22.150
712.25	21.993
712.57	21.978
712.89	17.164
713.20	24.221
713.52	21.254
713.84	19.113
714.16	20.275
714.48	15.806
714.80	20.513
715.11	19.757
715.43	17.241
715.75	15.000
716.07	15.615
716.39	21.477
716.70	14.760
717.02	17.557
717.34	24.696
717.66	20.354
717.97	19.130
718.29	19.665
718.61	21.654
718.93	18.217
719.24	20.152
719.56	22.490
719.88	23.024
720.20	14.773
720.51	14.559
720.83	21.622
721.15	21.008
721.46	18.952
721.78	16.996
722.10	14.126
722.42	16.598
722.73	20.000
723.05	26.531
723.37	24.576
723.68	23.423
724.00	21.368
724.32	19.556
724.63	18.636
724.95	20.087
725.27	17.512
725.58	22.034
725.90	21.032
726.22	23.166
726.53	23.051
726.85	19.101
727.16	24.528
727.48	15.385
727.80	17.409
728.11	19.068
728.43	20.784
728.74	16.935
729.06	24.000
729.38	26.692
729.69	12.351
730.01	16.538
730.32	21.269
730.64	20.848
730.96	24.528
731.27	19.000
731.59	19.661
731.90	18.153
732.22	20.505
732.53	19.601
732.85	18.440
733.16	23.906
733.48	15.468
733.80	12.319
734.11	18.644
734.43	18.213
734.74	18.182
735.06	17.264
735.37	23.565
735.69	21.886
736.00	22.997
736.32	14.765
736.63	20.775
736.95	19.454
737.26	17.082
737.58	16.779
737.89	19.414
738.21	20.301
738.52	21.399
738.83	17.031
739.15	21.834
739.46	20.079
739.78	12.454
740.09	15.686
740.41	19.565
740.72	16.929
741.04	21.862
741.35	16.170
741.66	20.853
741.98	15.816
742.29	18.317
742.61	21.990
742.92	9.479
743.23	14.815
743.55	23.529
743.86	16.268
744.18	15.311
744.49	15.957
744.80	15.217
745.12	25.668
745.43	17.073
745.74	25.000
746.06	19.024
746.37	14.660
746.68	19.431
747.00	16.489
747.31	21.891
747.62	18.447
747.94	17.703
748.25	17.327
748.56	20.765
748.88	20.942
749.19	22.872
749.50	22.167
749.82	10.377
750.13	11.468
750.44	19.173
750.75	21.642
751.07	25.547
751.38	21.456
751.69	15.686
752.01	19.767
752.32	19.522
752.63	16.206
752.94	15.948
753.26	26.778
753.57	16.290
753.88	18.142
754.19	19.583
754.51	16.116
754.82	14.170
755.13	25.000
755.44	18.548
755.75	21.875
756.07	18.677
756.38	18.113
756.69	14.559
757.00	16.333
757.31	21.242
757.63	15.549
757.94	15.556
758.25	15.616
758.56	17.021
758.87	15.014
759.18	17.757
759.50	17.455
759.81	20.401
760.12	19.032
760.43	19.091
760.74	16.358
761.05	20.923
761.36	18.750
761.67	19.394
761.99	16.667
762.30	13.091
762.61	17.787
762.92	19.910
763.23	14.865
763.54	17.757
763.85	22.458
764.16	18.672
764.47	15.726
764.78	18.315
765.10	18.182
765.41	17.035
765.72	20.000
766.03	11.278
766.34	18.248
766.65	26.693
766.96	22.222
767.27	20.213
767.58	14.368
767.89	4.965
768.20	23.864
768.51	17.582
768.82	22.660
769.13	13.825
769.44	16.738
769.75	15.068
770.06	18.534
770.37	23.077
770.68	18.782
770.99	13.575
771.30	17.157
771.61	16.290
771.92	20.690
772.23	23.153
772.54	20.430
772.85	17.284
773.16	15.730
773.47	23.529
773.78	17.647
774.09	21.557
774.39	15.333
774.70	19.108
775.01	20.000
775.32	20.000
775.63	14.050
775.94	19.084
776.25	24.409
776.56	18.333
776.87	29.808
777.18	15.385
777.48	17.241
777.79	13.913
778.10	3.810
778.41	14.414
778.72	16.667
779.03	12.030
779.34	24.823
779.65	23.288
779.95	20.548
780.26	15.862
780.57	12.195
780.88	22.047
781.19	22.414
781.50	12.403
781.80	15.385
782.11	22.642
782.42	22.308
782.73	15.108
783.04	14.074
783.34	13.194
783.65	11.966
783.96	17.213
784.27	24.138
784.57	19.512
784.88	26.563
785.19	29.000
785.50	20.000
785.81	25.862
786.11	16.379
786.42	12.621
786.73	22.727
787.04	15.306
787.34	8.929
787.65	15.238
787.96	16.814
788.26	20.000
788.57	23.077
788.88	24.219
789.19	11.111
789.49	12.174
789.80	16.327
790.11	15.152
790.41	16.364
790.72	29.348
791.03	6.818
791.33	25.000
791.64	0.000
791.95	26.744
792.25	19.149
792.56	20.225
792.87	10.959
793.17	23.188
793.48	24.000
793.79	16.250
794.09	18.750
794.40	1.887
794.70	15.534
795.01	15.447
795.32	10.256
795.62	14.286
795.93	18.627
796.23	16.981
796.54	21.875
796.85	26.471
797.15	32.394
797.46	29.167
797.76	30.303
798.07	15.116
798.37	10.526
798.68	0.000
798.99	17.284
799.29	27.143
799.60	14.493
799.90	26.667
800.21	34.426
800.51	10.769
800.82	16.949
801.12	15.942
801.43	26.230
801.73	12.698
802.04	0.000
802.34	1.493
802.65	15.385
802.95	5.357
803.26	17.308
803.56	15.686
803.87	2.174
804.17	28.000
804.48	15.873
804.78	7.407
805.09	28.261
805.39	4.444
805.70	12.963
806.00	3.509
806.30	12.676
806.61	20.000
806.91	8.333
807.22	30.263
807.52	34.667
807.83	9.091
808.13	18.056
808.43	17.647
808.74	14.925
809.04	0.000
809.35	17.308
809.65	35.938
809.95	-32.432
810.26	-4.545
810.56	20.548
810.86	42.857
811.17	16.000
811.47	32.653
811.77	-5.263
812.08	36.364
812.38	24.528
812.69	-10.000
812.99	3.030
813.29	15.789
813.59	-5.714
813.90	2.273
814.20	7.692
814.50	5.769
814.81	1.887
815.11	-8.511
815.41	22.034
815.72	19.048
816.02	49.020
816.32	35.417
816.62	9.756
816.93	-16.216
817.23	2.857
817.53	39.583
817.84	13.043
818.14	19.231
818.44	10.526
818.74	26.087
819.04	-2.500
819.35	24.324
819.65	-11.765
819.95	-5.556
820.25	28.571
820.56	12.500
820.86	-31.034
821.16	22.500
821.46	4.255
821.76	22.500
822.07	-9.302
822.37	-5.405
822.67	0.000
822.97	35.714
823.27	-7.143
823.57	4.000
823.88	-29.630
824.18	60.714
824.48	32.353
824.78	-3.226
825.08	-21.739
825.38	33.333
825.69	-20.833
825.99	31.579
826.29	36.111
826.59	20.000
826.89	4.762
827.19	28.261
827.49	27.500
827.79	25.714
828.09	21.429
828.39	18.182
828.70	35.135
829.00	17.857
829.30	0.000
829.60	-3.333
829.90	-3.125
830.20	5.263
830.50	3.704
830.80	43.478
831.10	-59.091
831.40	54.545
831.70	38.710
832.00	23.810
832.30	4.762
832.60	-16.667
832.90	17.241
833.20	-25.000
833.50	57.576
833.80	0.000
834.10	26.923
834.40	34.375
834.70	-100.000
835.00	-15.789
835.30	88.462
835.60	60.000
835.90	6.452
836.20	40.909
836.50	28.571
836.80	-34.615
837.10	7.143
837.40	-66.667
837.70	13.636
838.00	0.000
838.30	39.130
838.60	-46.154
838.90	45.455
839.19	60.714
839.49	36.667
839.79	53.846
840.09	-25.000
840.39	60.714
840.69	-17.857
840.99	11.538
841.29	42.105
841.59	-120.000
841.88	45.455
842.18	-70.000
842.48	18.750
842.78	-13.333
843.08	11.111
843.38	-10.000
843.68	21.739
843.97	-66.667
844.27	-60.000
844.57	10.000
844.87	-27.778
845.17	-19.048
845.47	-46.667
845.76	4.762
846.06	52.941
846.36	-80.000
846.66	28.571
846.96	26.667
847.25	12.500
847.55	57.143
847.85	12.500
848.15	-4.545
848.44	-433.333
848.74	50.000
849.04	55.556
849.34	-27.273
849.63	-50.000
849.93	-20.000
850.23	22.222
850.53	70.000
850.82	-7.692
851.12	33.333
851.42	0.000
851.71	3.846
852.01	14.286
852.31	-25.000
852.61	-72.727
852.90	30.000
853.20	-5.263
853.50	33.333
853.79	43.478
854.09	62.500
854.39	-36.842
854.68	-4.167
854.98	16.129
855.28	46.154
855.57	10.000
855.87	38.889
856.17	18.519
856.46	14.286
856.76	26.667
857.05	-22.222
857.35	56.000
857.65	38.889
857.94	-15.385
858.24	13.793
858.53	16.667
858.83	33.333
859.13	18.182
859.42	30.435
859.72	-150.000
860.01	-366.667
860.31	24.000
860.60	23.810
860.90	-300.000
861.20	-33.333
861.49	-450.000
861.79	-13.333
862.08	0.000
862.38	20.000
862.67	-160.000
862.97	100.000
863.26	58.333
863.56	61.111
863.85	-233.333
864.15	50.000
864.44	-20.000
864.74	57.143
865.03	150.000
865.33	-160.000
865.62	66.667
865.92	0.000
866.21	-116.667
866.51	68.750
866.80	-45.455
867.10	-150.000
867.39	133.333
867.69	0.000
867.98	7.692
868.27	-166.667
868.57	6.667
868.86	55.556
869.16	23.077
869.45	26.667
869.75	100.000
870.04	0.000
870.33	-114.286
870.63	33.333
870.92	233.333
871.22	-140.000
871.51	-400.000
871.80	55.556
872.10	433.333
>>>>>End Processed Spectral Data<<<<<
