SpectraSuite Data File
++++++++++++++++++++++++++++++++++++
Date: Fri May 15 17:28:22 PDT 2015
User: schluterlab
Dark Spectrum Present: Yes
Reference Spectrum Present: Yes
Number of Sampled Component Spectra: 1
Spectrometers: USB2E3373
Integration Time (usec): 3000 (USB2E3373)
Spectra Averaged: 3 (USB2E3373)
Boxcar Smoothing: 0 (USB2E3373)
Correct for Electrical Dark: No (USB2E3373)
Strobe/Lamp Enabled: No (USB2E3373)
Correct for Detector Non-linearity: No (USB2E3373)
Correct for Stray Light: No (USB2E3373)
Number of Pixels in Processed Spectrum: 2048
>>>>>Begin Processed Spectral Data<<<<<
178.53	0.000
178.91	0.000
179.29	187.500
179.67	-450.000
180.04	-28.571
180.42	25.000
180.80	-100.000
181.18	-166.667
181.56	-50.000
181.94	700.000
182.31	200.000
182.69	20.000
183.07	-200.000
183.45	-60.000
183.83	200.000
184.20	18.182
184.58	88.889
184.96	-50.000
185.34	-166.667
185.72	200.000
186.09	46.154
186.47	-1700.000
186.85	-16.667
187.23	177.778
187.61	-300.000
187.98	-366.667
188.36	22.222
188.74	-100.000
189.12	5.882
189.49	88.889
189.87	0.000
190.25	107.143
190.63	500.000
191.00	-100.000
191.38	21.053
191.76	550.000
192.14	-175.000
192.51	200.000
192.89	-22.222
193.27	-157.143
193.65	100.000
194.02	163.636
194.40	-20.000
194.78	-50.000
195.15	58.333
195.53	-112.500
195.91	250.000
196.29	175.000
196.66	53.846
197.04	-42.857
197.42	22.222
197.79	-366.667
198.17	-38.462
198.55	1200.000
198.92	-166.667
199.30	-700.000
199.68	-60.000
200.05	-400.000
200.43	0.000
200.81	133.333
201.18	-300.000
201.56	1400.000
201.94	-200.000
202.31	33.333
202.69	-180.000
203.07	150.000
203.44	300.000
203.82	0.000
204.19	14.286
204.57	0.000
204.95	50.000
205.32	-10.000
205.70	-28.571
206.08	-50.000
206.45	222.222
206.83	107.143
207.20	-100.000
207.58	-600.000
207.96	-200.000
208.33	-100.000
208.71	50.000
209.08	-200.000
209.46	-200.000
209.84	60.000
210.21	-1300.000
210.59	114.286
210.96	150.000
211.34	100.000
211.71	93.333
212.09	-200.000
212.46	-1600.000
212.84	0.000
213.22	140.000
213.59	300.000
213.97	53.846
214.34	0.000
214.72	-66.667
215.09	525.000
215.47	23.077
215.84	-18.182
216.22	-233.333
216.59	-87.500
216.97	-200.000
217.34	150.000
217.72	-140.000
218.09	62.500
218.47	75.000
218.84	-500.000
219.22	-77.778
219.59	-40.000
219.97	366.667
220.34	-25.000
220.72	185.714
221.09	-150.000
221.47	-150.000
221.84	-50.000
222.22	-600.000
222.59	72.727
222.97	41.667
223.34	-233.333
223.72	64.286
224.09	9.524
224.46	3.571
224.84	-0.000
225.21	-10.000
225.59	53.333
225.96	-200.000
226.34	250.000
226.71	-128.571
227.08	-50.000
227.46	125.000
227.83	-350.000
228.21	166.667
228.58	9.091
228.95	-75.000
229.33	80.000
229.70	56.250
230.08	12.500
230.45	-28.571
230.82	157.143
231.20	-6.667
231.57	21.429
231.95	42.857
232.32	0.000
232.69	71.429
233.07	66.667
233.44	0.000
233.81	-60.000
234.19	-33.333
234.56	52.941
234.93	100.000
235.31	425.000
235.68	-80.000
236.05	-15.385
236.43	30.000
236.80	76.471
237.17	50.000
237.55	75.000
237.92	0.000
238.29	19.444
238.67	53.333
239.04	8.824
239.41	0.000
239.79	33.333
240.16	58.537
240.53	42.105
240.91	30.435
241.28	46.032
241.65	50.000
242.02	53.425
242.40	41.667
242.77	33.898
243.14	43.939
243.51	46.250
243.89	49.425
244.26	43.678
244.63	40.476
245.00	40.206
245.38	45.361
245.75	32.584
246.12	38.793
246.49	42.149
246.87	56.731
247.24	43.697
247.61	28.947
247.98	43.089
248.36	35.625
248.73	44.737
249.10	39.610
249.47	36.076
249.84	41.830
250.22	42.941
250.59	52.941
250.96	43.662
251.33	39.535
251.70	49.412
252.08	38.579
252.45	35.644
252.82	44.724
253.19	42.857
253.56	41.589
253.94	37.838
254.31	46.957
254.68	42.105
255.05	42.520
255.42	41.048
255.79	39.382
256.16	40.078
256.54	44.403
256.91	43.726
257.28	41.264
257.65	41.948
258.02	42.199
258.39	42.088
258.76	38.462
259.14	41.528
259.51	39.806
259.88	43.299
260.25	38.562
260.62	44.444
260.99	37.288
261.36	39.041
261.73	40.190
262.10	44.985
262.47	39.264
262.85	41.066
263.22	40.615
263.59	42.679
263.96	41.304
264.33	43.636
264.70	40.476
265.07	41.964
265.44	42.776
265.81	42.090
266.18	37.432
266.55	39.332
266.92	38.860
267.29	41.253
267.66	41.176
268.03	39.267
268.40	39.948
268.77	43.316
269.14	41.966
269.51	40.617
269.88	36.908
270.25	38.776
270.62	38.780
270.99	39.386
271.36	35.452
271.73	37.324
272.10	38.443
272.47	40.426
272.84	37.129
273.21	40.139
273.58	39.518
273.95	37.757
274.32	41.339
274.69	39.140
275.06	37.723
275.43	39.229
275.80	38.190
276.17	35.632
276.54	38.972
276.91	38.596
277.28	38.646
277.65	37.190
278.02	35.957
278.39	39.168
278.76	36.897
279.13	36.722
279.50	37.815
279.87	38.013
280.23	38.280
280.60	36.062
280.97	37.576
281.34	37.500
281.71	39.220
282.08	33.947
282.45	33.659
282.82	36.873
283.19	35.397
283.56	37.187
283.92	34.156
284.29	35.385
284.66	33.527
285.03	35.756
285.40	34.405
285.77	31.986
286.14	33.213
286.51	33.026
286.87	34.735
287.24	35.727
287.61	30.688
287.98	34.386
288.35	31.716
288.72	34.151
289.08	33.681
289.45	35.501
289.82	31.469
290.19	31.741
290.56	32.933
290.93	32.323
291.29	28.505
291.66	32.913
292.03	30.144
292.40	32.581
292.77	31.579
293.13	28.247
293.50	28.680
293.87	27.939
294.24	28.439
294.60	28.912
294.97	28.423
295.34	28.834
295.71	29.359
296.08	29.297
296.44	26.031
296.81	25.694
297.18	27.536
297.55	28.320
297.91	25.753
298.28	28.100
298.65	25.237
299.02	25.741
299.38	22.435
299.75	25.241
300.12	25.262
300.48	24.111
300.85	25.222
301.22	24.675
301.59	24.868
301.95	25.696
302.32	25.292
302.69	23.507
303.05	24.134
303.42	24.533
303.79	24.533
304.15	24.492
304.52	23.781
304.89	22.924
305.25	23.123
305.62	21.704
305.99	23.041
306.35	23.121
306.72	22.272
307.09	24.059
307.45	22.962
307.82	22.222
308.19	24.623
308.55	22.465
308.92	22.658
309.29	22.346
309.65	23.466
310.02	22.992
310.38	22.832
310.75	22.295
311.12	22.282
311.48	21.527
311.85	22.932
312.22	22.363
312.58	23.992
312.95	21.238
313.31	22.050
313.68	22.513
314.05	22.245
314.41	23.196
314.78	21.959
315.14	24.152
315.51	22.878
315.87	22.951
316.24	24.065
316.61	23.130
316.97	22.917
317.34	22.852
317.70	22.945
318.07	22.788
318.43	23.922
318.80	22.159
319.16	24.902
319.53	23.267
319.89	23.720
320.26	24.899
320.62	24.072
320.99	24.739
321.35	24.460
321.72	25.337
322.08	24.471
322.45	24.569
322.81	25.049
323.18	23.454
323.54	24.903
323.91	25.511
324.27	26.074
324.64	26.311
325.00	27.099
325.37	28.007
325.73	27.380
326.10	27.248
326.46	27.713
326.83	28.434
327.19	27.899
327.56	27.368
327.92	28.169
328.29	27.500
328.65	28.962
329.01	29.136
329.38	29.032
329.74	27.290
330.11	29.379
330.47	28.015
330.84	29.808
331.20	32.795
331.56	30.278
331.93	30.868
332.29	31.622
332.66	29.864
333.02	29.833
333.38	30.156
333.75	31.410
334.11	30.170
334.48	31.550
334.84	31.502
335.20	32.022
335.57	30.644
335.93	31.617
336.29	31.400
336.66	30.972
337.02	31.320
337.38	31.481
337.75	32.273
338.11	32.552
338.47	32.299
338.84	31.885
339.20	30.804
339.56	31.009
339.93	32.140
340.29	30.734
340.65	32.437
341.02	30.762
341.38	31.770
341.74	32.420
342.11	30.416
342.47	32.295
342.83	33.131
343.20	31.359
343.56	31.304
343.92	31.798
344.28	31.939
344.65	32.038
345.01	31.720
345.37	31.623
345.73	32.552
346.10	31.493
346.46	30.278
346.82	30.933
347.19	29.593
347.55	31.662
347.91	30.744
348.27	31.528
348.63	31.005
349.00	31.091
349.36	31.837
349.72	31.841
350.08	30.902
350.45	31.285
350.81	30.399
351.17	30.212
351.53	32.163
351.89	31.379
352.26	31.520
352.62	30.484
352.98	29.719
353.34	31.965
353.70	31.958
354.07	30.887
354.43	30.584
354.79	30.388
355.15	31.667
355.51	31.883
355.87	31.068
356.24	30.669
356.60	30.396
356.96	31.190
357.32	30.351
357.68	30.023
358.04	30.937
358.40	29.662
358.77	32.217
359.13	30.504
359.49	29.045
359.85	30.811
360.21	30.941
360.57	30.222
360.93	31.089
361.29	29.909
361.66	31.583
362.02	31.288
362.38	31.607
362.74	30.583
363.10	31.678
363.46	30.986
363.82	31.255
364.18	31.218
364.54	30.588
364.90	30.466
365.26	31.004
365.62	31.971
365.98	31.891
366.35	32.484
366.71	32.077
367.07	31.277
367.43	30.769
367.79	30.954
368.15	31.228
368.51	30.954
368.87	30.725
369.23	30.758
369.59	31.633
369.95	30.499
370.31	31.720
370.67	31.343
371.03	31.292
371.39	30.562
371.75	31.648
372.11	31.384
372.47	31.805
372.83	31.157
373.19	31.669
373.55	31.408
373.91	32.325
374.27	31.184
374.63	32.376
374.99	31.986
375.35	30.780
375.71	32.727
376.07	32.093
376.42	31.701
376.78	32.282
377.14	31.347
377.50	32.736
377.86	32.262
378.22	31.653
378.58	32.051
378.94	31.947
379.30	32.813
379.66	32.915
380.02	32.250
380.38	32.562
380.74	31.897
381.09	32.883
381.45	32.049
381.81	32.572
382.17	32.551
382.53	33.604
382.89	33.584
383.25	32.856
383.61	33.049
383.97	32.762
384.32	32.708
384.68	33.746
385.04	32.169
385.40	31.861
385.76	34.025
386.12	33.829
386.48	34.355
386.83	34.179
387.19	32.723
387.55	34.316
387.91	33.802
388.27	32.357
388.62	33.606
388.98	33.272
389.34	32.917
389.70	34.307
390.06	32.851
390.42	32.642
390.77	33.159
391.13	33.985
391.49	33.312
391.85	33.138
392.20	32.831
392.56	32.041
392.92	33.823
393.28	33.373
393.64	32.132
393.99	34.107
394.35	33.270
394.71	33.078
395.07	32.621
395.42	32.362
395.78	33.029
396.14	31.967
396.50	33.481
396.85	33.162
397.21	33.145
397.57	33.417
397.92	33.313
398.28	33.103
398.64	32.651
399.00	33.070
399.35	32.393
399.71	32.453
400.07	34.583
400.42	32.681
400.78	32.578
401.14	32.789
401.49	33.413
401.85	32.907
402.21	34.036
402.57	32.500
402.92	33.187
403.28	33.333
403.63	33.228
403.99	32.270
404.35	32.667
404.70	32.202
405.06	32.080
405.42	32.256
405.77	32.074
406.13	32.538
406.49	31.912
406.84	33.802
407.20	32.992
407.55	32.131
407.91	32.152
408.27	31.294
408.62	32.308
408.98	32.039
409.34	32.776
409.69	32.752
410.05	30.603
410.40	32.531
410.76	32.087
411.11	32.062
411.47	32.018
411.83	31.638
412.18	32.239
412.54	31.648
412.89	31.096
413.25	32.010
413.60	32.484
413.96	31.595
414.31	32.622
414.67	30.789
415.03	31.425
415.38	31.527
415.74	32.313
416.09	31.679
416.45	32.343
416.80	31.659
417.16	32.390
417.51	32.778
417.87	30.965
418.22	32.383
418.58	31.973
418.93	32.226
419.29	32.138
419.64	31.627
420.00	32.494
420.35	30.985
420.71	31.956
421.06	31.492
421.42	32.151
421.77	32.948
422.12	32.463
422.48	32.431
422.83	32.425
423.19	32.562
423.54	30.982
423.90	32.097
424.25	31.975
424.61	32.925
424.96	32.114
425.31	33.160
425.67	32.218
426.02	32.332
426.38	33.375
426.73	33.717
427.09	33.165
427.44	33.647
427.79	34.060
428.15	32.039
428.50	33.010
428.85	32.924
429.21	33.390
429.56	34.016
429.92	32.922
430.27	34.135
430.62	33.560
430.98	33.227
431.33	33.754
431.68	32.705
432.04	32.979
432.39	31.489
432.74	32.471
433.10	33.678
433.45	33.572
433.80	32.850
434.16	33.518
434.51	34.247
434.86	33.101
435.22	33.034
435.57	33.936
435.92	32.275
436.28	32.618
436.63	33.371
436.98	33.314
437.34	32.789
437.69	33.572
438.04	32.764
438.39	33.537
438.75	33.880
439.10	33.729
439.45	33.719
439.81	33.578
440.16	34.382
440.51	34.328
440.86	34.260
441.22	33.597
441.57	34.106
441.92	34.470
442.27	34.590
442.63	34.582
442.98	33.199
443.33	33.500
443.68	34.377
444.03	34.675
444.39	33.743
444.74	34.058
445.09	34.911
445.44	34.188
445.79	35.224
446.15	33.700
446.50	33.167
446.85	34.378
447.20	33.994
447.55	34.096
447.91	34.292
448.26	35.231
448.61	34.370
448.96	34.022
449.31	33.988
449.66	34.146
450.02	34.227
450.37	34.143
450.72	33.047
451.07	34.873
451.42	33.895
451.77	34.659
452.12	33.313
452.47	33.419
452.83	33.687
453.18	34.345
453.53	34.387
453.88	34.183
454.23	34.112
454.58	34.824
454.93	34.278
455.28	34.286
455.63	35.090
455.98	33.734
456.34	33.972
456.69	34.498
457.04	34.405
457.39	34.022
457.74	33.011
458.09	33.608
458.44	34.406
458.79	33.782
459.14	34.554
459.49	34.746
459.84	34.518
460.19	33.374
460.54	35.024
460.89	34.545
461.24	34.534
461.59	35.511
461.94	33.082
462.29	34.801
462.64	33.821
462.99	33.582
463.34	33.866
463.69	34.234
464.04	35.048
464.39	35.537
464.74	34.785
465.09	35.309
465.44	35.372
465.79	34.070
466.14	36.032
466.49	34.273
466.84	33.908
467.19	36.233
467.54	34.100
467.89	33.165
468.24	35.036
468.59	35.048
468.94	33.905
469.29	35.082
469.64	33.424
469.99	34.828
470.34	31.945
470.68	33.259
471.03	33.121
471.38	33.096
471.73	34.104
472.08	34.328
472.43	33.758
472.78	33.722
473.13	33.946
473.48	34.332
473.83	33.499
474.17	34.974
474.52	32.738
474.87	34.667
475.22	34.045
475.57	34.444
475.92	34.120
476.27	35.215
476.61	35.069
476.96	32.962
477.31	33.910
477.66	34.101
478.01	34.643
478.36	34.641
478.70	34.965
479.05	35.385
479.40	33.704
479.75	34.984
480.10	34.921
480.45	34.950
480.79	35.549
481.14	35.246
481.49	34.483
481.84	35.087
482.19	34.238
482.53	34.484
482.88	34.272
483.23	35.173
483.58	34.104
483.92	34.366
484.27	33.911
484.62	34.962
484.97	34.370
485.31	35.621
485.66	37.399
486.01	39.423
486.36	38.842
486.70	38.108
487.05	37.346
487.40	36.531
487.75	35.268
488.09	33.560
488.44	33.116
488.79	32.723
489.13	34.295
489.48	33.348
489.83	33.498
490.17	32.989
490.52	34.088
490.87	33.873
491.22	33.381
491.56	33.918
491.91	33.078
492.26	33.836
492.60	33.397
492.95	34.284
493.30	33.708
493.64	34.430
493.99	33.961
494.34	33.107
494.68	34.000
495.03	34.355
495.37	33.121
495.72	33.821
496.07	33.561
496.41	34.245
496.76	34.546
497.11	33.256
497.45	33.747
497.80	33.905
498.14	32.141
498.49	33.672
498.84	33.134
499.18	34.086
499.53	34.425
499.87	33.268
500.22	33.234
500.56	33.888
500.91	34.337
501.26	33.613
501.60	34.137
501.95	34.692
502.29	34.625
502.64	34.170
502.98	34.731
503.33	32.949
503.67	33.590
504.02	33.969
504.36	33.548
504.71	32.424
505.06	33.065
505.40	34.264
505.75	33.144
506.09	33.097
506.44	34.548
506.78	34.235
507.13	33.195
507.47	32.585
507.82	33.013
508.16	32.699
508.51	33.631
508.85	33.019
509.19	31.985
509.54	33.137
509.88	31.661
510.23	32.975
510.57	33.725
510.92	31.450
511.26	31.697
511.61	33.058
511.95	32.329
512.30	31.984
512.64	32.165
512.98	31.499
513.33	32.680
513.67	30.586
514.02	33.524
514.36	33.314
514.70	32.401
515.05	32.667
515.39	31.818
515.74	32.455
516.08	31.680
516.42	33.157
516.77	32.592
517.11	31.691
517.46	32.196
517.80	32.598
518.14	31.904
518.49	30.469
518.83	32.139
519.17	31.292
519.52	30.432
519.86	31.753
520.20	31.531
520.55	31.207
520.89	30.991
521.23	30.906
521.58	31.735
521.92	30.769
522.26	30.319
522.61	30.714
522.95	32.185
523.29	31.321
523.64	31.512
523.98	31.367
524.32	30.799
524.66	30.794
525.01	31.234
525.35	30.136
525.69	30.976
526.04	30.026
526.38	32.555
526.72	30.804
527.06	30.026
527.41	31.794
527.75	30.630
528.09	30.565
528.43	32.411
528.78	30.759
529.12	31.161
529.46	31.644
529.80	31.729
530.15	31.683
530.49	31.044
530.83	31.464
531.17	29.953
531.51	31.669
531.86	30.523
532.20	30.132
532.54	30.837
532.88	31.280
533.22	31.855
533.57	32.634
533.91	31.005
534.25	33.659
534.59	31.559
534.93	31.466
535.27	30.711
535.62	32.016
535.96	32.420
536.30	31.926
536.64	32.460
536.98	31.359
537.32	32.148
537.66	31.557
538.01	31.958
538.35	30.999
538.69	31.691
539.03	31.100
539.37	32.032
539.71	32.515
540.05	31.908
540.39	31.371
540.73	31.172
541.07	31.906
541.42	31.653
541.76	32.003
542.10	31.934
542.44	31.897
542.78	30.833
543.12	31.319
543.46	31.919
543.80	32.824
544.14	31.308
544.48	32.512
544.82	31.647
545.16	33.333
545.50	32.243
545.84	32.932
546.18	32.128
546.52	32.156
546.86	32.135
547.20	31.330
547.54	31.095
547.88	33.152
548.22	32.544
548.56	32.256
548.90	32.749
549.24	31.267
549.58	31.664
549.92	29.664
550.26	30.916
550.60	30.706
550.94	31.964
551.28	30.603
551.62	31.154
551.96	31.955
552.30	32.529
552.64	31.805
552.98	31.646
553.32	31.883
553.66	32.293
554.00	32.190
554.34	32.422
554.68	30.015
555.02	31.622
555.36	31.414
555.69	30.769
556.03	31.478
556.37	31.459
556.71	31.625
557.05	32.364
557.39	30.632
557.73	30.810
558.07	31.976
558.41	30.781
558.75	29.774
559.08	30.969
559.42	30.317
559.76	31.465
560.10	31.422
560.44	32.316
560.78	31.748
561.12	32.581
561.45	33.099
561.79	32.213
562.13	31.796
562.47	31.583
562.81	31.268
563.15	31.664
563.48	31.471
563.82	32.876
564.16	33.217
564.50	32.838
564.84	32.262
565.17	32.126
565.51	34.904
565.85	34.088
566.19	32.891
566.52	33.512
566.86	34.062
567.20	33.624
567.54	33.881
567.88	35.677
568.21	34.898
568.55	34.565
568.89	37.064
569.23	37.025
569.56	37.347
569.90	38.977
570.24	38.370
570.57	38.509
570.91	38.376
571.25	38.178
571.59	38.493
571.92	37.867
572.26	37.832
572.60	37.426
572.93	36.398
573.27	36.897
573.61	37.619
573.95	37.985
574.28	38.189
574.62	38.241
574.96	38.020
575.29	37.860
575.63	36.927
575.97	37.625
576.30	37.757
576.64	37.510
576.98	38.198
577.31	38.363
577.65	39.725
577.98	40.046
578.32	39.562
578.66	38.448
578.99	37.693
579.33	37.247
579.67	37.144
580.00	37.848
580.34	37.338
580.67	37.364
581.01	37.944
581.35	38.867
581.68	39.697
582.02	40.191
582.35	39.666
582.69	39.346
583.02	38.667
583.36	38.396
583.70	37.487
584.03	37.726
584.37	37.013
584.70	37.445
585.04	37.332
585.37	38.329
585.71	38.484
586.04	38.452
586.38	38.063
586.72	37.303
587.05	38.330
587.39	38.748
587.72	38.819
588.06	37.725
588.39	37.824
588.73	37.302
589.06	37.280
589.40	36.675
589.73	36.473
590.07	36.480
590.40	37.190
590.73	37.232
591.07	35.157
591.40	35.619
591.74	36.606
592.07	36.735
592.41	37.279
592.74	37.356
593.08	38.037
593.41	38.748
593.75	38.077
594.08	37.315
594.41	36.681
594.75	37.405
595.08	36.966
595.42	37.247
595.75	37.664
596.09	37.334
596.42	36.751
596.75	36.279
597.09	35.216
597.42	35.998
597.75	36.693
598.09	35.672
598.42	35.379
598.76	37.066
599.09	37.700
599.42	37.022
599.76	37.472
600.09	36.689
600.42	37.339
600.76	36.404
601.09	36.565
601.42	36.389
601.76	35.768
602.09	36.056
602.42	36.352
602.76	36.290
603.09	36.462
603.42	38.211
603.76	36.774
604.09	35.966
604.42	36.337
604.76	36.716
605.09	36.060
605.42	35.982
605.75	36.559
606.09	36.773
606.42	36.405
606.75	36.147
607.09	35.824
607.42	35.401
607.75	35.924
608.08	35.804
608.42	36.455
608.75	35.759
609.08	35.426
609.41	35.584
609.75	36.038
610.08	36.345
610.41	34.686
610.74	35.592
611.07	34.677
611.41	35.911
611.74	35.874
612.07	34.154
612.40	34.792
612.73	34.746
613.07	34.308
613.40	35.175
613.73	34.359
614.06	35.671
614.39	34.349
614.72	35.126
615.06	34.078
615.39	34.716
615.72	34.553
616.05	34.860
616.38	33.504
616.71	33.823
617.05	34.589
617.38	33.564
617.71	32.704
618.04	33.651
618.37	34.048
618.70	33.597
619.03	33.889
619.36	32.272
619.69	33.359
620.03	34.259
620.36	32.976
620.69	33.119
621.02	32.492
621.35	32.614
621.68	31.973
622.01	33.667
622.34	32.003
622.67	31.782
623.00	32.695
623.33	33.079
623.66	33.433
623.99	32.451
624.32	33.308
624.65	32.180
624.99	33.484
625.32	31.842
625.65	32.286
625.98	33.280
626.31	32.170
626.64	32.322
626.97	30.628
627.30	30.911
627.63	30.589
627.96	31.896
628.29	30.342
628.62	30.973
628.95	30.160
629.28	30.645
629.61	30.907
629.94	32.160
630.26	29.545
630.59	32.466
630.92	30.359
631.25	29.949
631.58	30.176
631.91	29.605
632.24	29.587
632.57	30.568
632.90	27.165
633.23	28.706
633.56	28.338
633.89	28.607
634.22	30.247
634.55	29.479
634.88	27.842
635.20	28.590
635.53	27.200
635.86	26.918
636.19	30.013
636.52	28.954
636.85	27.419
637.18	27.799
637.51	27.044
637.83	27.464
638.16	28.922
638.49	25.886
638.82	29.211
639.15	27.544
639.48	29.849
639.81	27.197
640.13	25.830
640.46	28.280
640.79	27.099
641.12	27.031
641.45	26.577
641.77	26.370
642.10	28.594
642.43	27.653
642.76	27.393
643.09	26.010
643.41	26.052
643.74	25.865
644.07	25.287
644.40	27.703
644.73	26.095
645.05	28.020
645.38	26.102
645.71	24.645
646.04	26.930
646.36	25.000
646.69	25.180
647.02	26.087
647.35	26.119
647.67	26.508
648.00	25.933
648.33	27.645
648.66	27.288
648.98	27.471
649.31	27.603
649.64	25.903
649.96	27.553
650.29	26.405
650.62	27.350
650.94	27.037
651.27	24.209
651.60	27.748
651.92	29.196
652.25	26.643
652.58	26.500
652.90	26.244
653.23	25.882
653.56	26.058
653.88	28.522
654.21	25.569
654.54	28.862
654.86	26.316
655.19	29.825
655.52	37.229
655.84	45.081
656.17	51.648
656.49	68.128
656.82	66.704
657.15	47.329
657.47	34.052
657.80	24.514
658.13	22.296
658.45	32.226
658.78	30.562
659.10	28.563
659.43	27.776
659.75	27.430
660.08	26.138
660.41	25.741
660.73	25.138
661.06	24.090
661.38	20.352
661.71	22.587
662.03	23.605
662.36	23.736
662.68	22.124
663.01	27.511
663.33	24.594
663.66	23.256
663.98	23.953
664.31	25.160
664.63	24.885
664.96	24.130
665.28	21.192
665.61	25.325
665.93	26.739
666.26	25.813
666.58	22.595
666.91	24.941
667.23	24.057
667.56	26.777
667.88	25.180
668.21	23.150
668.53	26.241
668.86	25.236
669.18	23.585
669.50	23.729
669.83	24.419
670.15	27.273
670.48	22.727
670.80	23.733
671.13	20.582
671.45	21.918
671.77	30.258
672.10	30.099
672.42	26.966
672.75	27.709
673.07	29.338
673.39	27.706
673.72	25.838
674.04	25.000
674.37	26.695
674.69	22.484
675.01	28.000
675.34	25.225
675.66	25.926
675.98	26.829
676.31	23.853
676.63	25.178
676.95	24.091
677.28	24.000
677.60	24.337
677.92	24.312
678.25	28.884
678.57	25.325
678.89	25.210
679.22	28.412
679.54	28.112
679.86	26.044
680.18	27.767
680.51	28.030
680.83	24.652
681.15	27.800
681.48	24.180
681.80	27.686
682.12	27.621
682.44	26.778
682.77	25.828
683.09	26.087
683.41	25.682
683.73	27.419
684.06	24.336
684.38	25.376
684.70	26.797
685.02	31.120
685.34	27.470
685.67	25.891
685.99	29.476
686.31	27.788
686.63	29.685
686.96	25.475
687.28	27.071
687.60	28.517
687.92	29.495
688.24	28.427
688.56	26.638
688.89	27.902
689.21	28.667
689.53	22.274
689.85	26.047
690.17	28.348
690.49	25.532
690.82	25.971
691.14	22.857
691.46	28.505
691.78	28.829
692.10	31.613
692.42	24.892
692.74	27.564
693.06	28.153
693.39	25.339
693.71	25.113
694.03	24.480
694.35	24.065
694.67	23.990
694.99	24.021
695.31	26.371
695.63	24.500
695.95	25.758
696.27	24.352
696.59	24.722
696.91	24.370
697.23	24.422
697.56	27.228
697.88	29.462
698.20	29.157
698.52	28.471
698.84	24.641
699.16	25.750
699.48	26.316
699.80	25.310
700.12	25.606
700.44	24.370
700.76	24.419
701.08	21.515
701.40	23.795
701.72	26.235
702.04	24.422
702.36	23.746
702.68	28.228
703.00	25.455
703.32	27.566
703.64	24.859
703.96	23.188
704.28	26.687
704.60	24.444
704.91	25.552
705.23	23.920
705.55	28.975
705.87	26.715
706.19	19.630
706.51	22.680
706.83	26.367
707.15	25.234
707.47	28.011
707.79	26.823
708.11	27.500
708.43	29.750
708.74	27.390
709.06	28.169
709.38	31.193
709.70	26.036
710.02	27.707
710.34	25.077
710.66	22.756
710.98	21.854
711.29	25.574
711.61	27.119
711.93	27.687
712.25	27.148
712.57	21.978
712.89	23.507
713.20	26.298
713.52	21.254
713.84	26.621
714.16	27.148
714.48	24.516
714.80	31.410
715.11	31.307
715.43	27.900
715.75	29.000
716.07	26.246
716.39	26.510
716.70	19.557
717.02	25.191
717.34	23.482
717.66	19.027
717.97	20.435
718.29	24.686
718.61	24.016
718.93	27.132
719.24	25.856
719.56	27.309
719.88	29.210
720.20	24.242
720.51	27.203
720.83	23.552
721.15	28.992
721.46	25.806
721.78	21.344
722.10	25.279
722.42	21.992
722.73	24.490
723.05	31.429
723.37	24.153
723.68	30.180
724.00	22.650
724.32	22.222
724.63	21.818
724.95	27.948
725.27	30.415
725.58	29.237
725.90	26.190
726.22	30.888
726.53	29.153
726.85	26.217
727.16	28.679
727.48	21.053
727.80	25.506
728.11	26.695
728.43	28.627
728.74	23.790
729.06	31.200
729.38	36.466
729.69	28.287
730.01	21.923
730.32	33.209
730.64	32.509
730.96	31.321
731.27	31.667
731.59	28.136
731.90	27.707
732.22	33.438
732.53	30.897
732.85	30.496
733.16	30.976
733.48	26.259
733.80	31.159
734.11	24.746
734.43	31.271
734.74	29.394
735.06	30.293
735.37	28.701
735.69	32.323
736.00	29.617
736.32	25.168
736.63	28.169
736.95	27.986
737.26	30.961
737.58	30.201
737.89	29.670
738.21	29.323
738.52	34.568
738.83	26.201
739.15	26.201
739.46	29.134
739.78	29.304
740.09	30.719
740.41	33.333
740.72	31.496
741.04	27.530
741.35	25.957
741.66	24.645
741.98	19.898
742.29	28.713
742.61	26.178
742.92	19.431
743.23	22.222
743.55	28.959
743.86	20.574
744.18	24.880
744.49	19.681
744.80	23.913
745.12	33.690
745.43	21.463
745.74	24.479
746.06	29.268
746.37	21.990
746.68	27.488
747.00	28.191
747.31	29.353
747.62	25.728
747.94	32.057
748.25	22.277
748.56	21.858
748.88	24.084
749.19	31.915
749.50	29.064
749.82	24.528
750.13	25.688
750.44	33.083
750.75	33.209
751.07	35.766
751.38	28.352
751.69	27.843
752.01	32.946
752.32	31.076
752.63	24.506
752.94	26.293
753.26	30.544
753.57	27.602
753.88	25.221
754.19	31.250
754.51	29.339
754.82	28.745
755.13	30.833
755.44	29.435
755.75	32.031
756.07	30.739
756.38	26.038
756.69	29.502
757.00	29.667
757.31	29.739
757.63	30.793
757.94	31.111
758.25	31.507
758.56	30.053
758.87	29.178
759.18	26.480
759.50	28.364
759.81	34.448
760.12	31.290
760.43	31.515
760.74	31.790
761.05	35.077
761.36	30.682
761.67	33.939
761.99	33.333
762.30	28.364
762.61	25.296
762.92	28.054
763.23	27.477
763.54	23.364
763.85	30.085
764.16	27.386
764.47	27.016
764.78	32.234
765.10	32.323
765.41	32.808
765.72	30.476
766.03	30.827
766.34	27.372
766.65	30.279
766.96	30.808
767.27	31.383
767.58	22.414
767.89	19.149
768.20	25.000
768.51	24.176
768.82	27.586
769.13	29.032
769.44	31.760
769.75	27.397
770.06	22.845
770.37	30.769
770.68	28.934
770.99	29.412
771.30	33.824
771.61	35.294
771.92	32.328
772.23	31.527
772.54	28.495
772.85	25.926
773.16	26.966
773.47	34.641
773.78	38.562
774.09	23.952
774.39	28.000
774.70	28.662
775.01	30.345
775.32	22.143
775.63	23.967
775.94	27.481
776.25	25.984
776.56	29.167
776.87	26.923
777.18	22.222
777.48	22.414
777.79	9.565
778.10	28.571
778.41	25.225
778.72	26.984
779.03	32.331
779.34	29.078
779.65	35.616
779.95	23.973
780.26	22.069
780.57	15.447
780.88	29.134
781.19	27.586
781.50	37.209
781.80	31.953
782.11	16.352
782.42	23.846
782.73	25.899
783.04	26.667
783.34	27.083
783.65	20.513
783.96	22.131
784.27	35.172
784.57	21.138
784.88	22.656
785.19	24.000
785.50	32.000
785.81	21.552
786.11	27.586
786.42	25.243
786.73	38.182
787.04	22.449
787.34	28.571
787.65	27.619
787.96	30.088
788.26	30.909
788.57	33.333
788.88	26.563
789.19	26.984
789.49	26.087
789.80	27.551
790.11	21.212
790.41	30.909
790.72	22.826
791.03	17.045
791.33	27.500
791.64	35.000
791.95	30.233
792.25	28.723
792.56	31.461
792.87	16.438
793.17	11.594
793.48	0.000
793.79	28.750
794.09	36.250
794.40	21.698
794.70	35.922
795.01	31.707
795.32	20.513
795.62	32.381
795.93	25.490
796.23	25.472
796.54	29.167
796.85	35.294
797.15	12.676
797.46	19.444
797.76	30.303
798.07	23.256
798.37	17.105
798.68	18.182
798.99	32.099
799.29	8.571
799.60	28.986
799.90	37.333
800.21	19.672
800.51	16.923
800.82	27.119
801.12	18.841
801.43	14.754
801.73	25.397
802.04	4.000
802.34	13.433
802.65	11.538
802.95	26.786
803.26	11.538
803.56	17.647
803.87	23.913
804.17	26.667
804.48	30.159
804.78	9.259
805.09	15.217
805.39	15.556
805.70	46.296
806.00	17.544
806.30	16.901
806.61	18.571
806.91	12.500
807.22	40.789
807.52	46.667
807.83	21.818
808.13	44.444
808.43	27.941
808.74	13.433
809.04	13.559
809.35	23.077
809.65	39.063
809.95	10.811
810.26	31.818
810.56	19.178
810.86	9.524
811.17	28.000
811.47	32.653
811.77	34.211
812.08	20.455
812.38	28.302
812.69	2.500
812.99	-3.030
813.29	15.789
813.59	-11.429
813.90	11.364
814.20	15.385
814.50	38.462
814.81	18.868
815.11	-8.511
815.41	27.119
815.72	16.667
816.02	7.843
816.32	31.250
816.62	14.634
816.93	8.108
817.23	11.429
817.53	45.833
817.84	26.087
818.14	26.923
818.44	-15.789
818.74	28.261
819.04	-12.500
819.35	37.838
819.65	29.412
819.95	30.556
820.25	2.381
820.56	37.500
820.86	-6.897
821.16	45.000
821.46	27.660
821.76	35.000
822.07	16.279
822.37	5.405
822.67	6.250
822.97	40.476
823.27	21.429
823.57	4.000
823.88	-7.407
824.18	-14.286
824.48	-2.941
824.78	-3.226
825.08	21.739
825.38	9.091
825.69	8.333
825.99	2.632
826.29	11.111
826.59	-20.000
826.89	-9.524
827.19	26.087
827.49	7.500
827.79	51.429
828.09	0.000
828.39	51.515
828.70	67.568
829.00	-28.571
829.30	14.286
829.60	80.000
829.90	40.625
830.20	2.632
830.50	-22.222
830.80	4.348
831.10	40.909
831.40	48.485
831.70	22.581
832.00	33.333
832.30	-9.524
832.60	-33.333
832.90	0.000
833.20	-15.000
833.50	27.273
833.80	-3.704
834.10	38.462
834.40	28.125
834.70	-22.222
835.00	5.263
835.30	57.692
835.60	53.333
835.90	51.613
836.20	-9.091
836.50	28.571
836.80	-11.538
837.10	-3.571
837.40	166.667
837.70	-18.182
838.00	-18.182
838.30	-13.043
838.60	0.000
838.90	13.636
839.19	10.714
839.49	23.333
839.79	-23.077
840.09	-100.000
840.39	53.571
840.69	-10.714
840.99	19.231
841.29	26.316
841.59	-60.000
841.88	-27.273
842.18	-10.000
842.48	12.500
842.78	-53.333
843.08	40.741
843.38	-70.000
843.68	13.043
843.97	73.333
844.27	-26.667
844.57	10.000
844.87	33.333
845.17	-28.571
845.47	40.000
845.76	-47.619
846.06	-23.529
846.36	60.000
846.66	42.857
846.96	-46.667
847.25	-100.000
847.55	14.286
847.85	50.000
848.15	13.636
848.44	-533.333
848.74	10.000
849.04	7.407
849.34	-45.455
849.63	-33.333
849.93	-120.000
850.23	-11.111
850.53	30.000
850.82	38.462
851.12	-44.444
851.42	60.000
851.71	3.846
852.01	-14.286
852.31	-125.000
852.61	-63.636
852.90	-15.000
853.20	42.105
853.50	8.333
853.79	30.435
854.09	12.500
854.39	10.526
854.68	-4.167
854.98	29.032
855.28	11.538
855.57	0.000
855.87	55.556
856.17	40.741
856.46	92.857
856.76	0.000
857.05	88.889
857.35	16.000
857.65	72.222
857.94	30.769
858.24	10.345
858.53	22.222
858.83	51.852
859.13	22.727
859.42	-4.348
859.72	-125.000
860.01	-233.333
860.31	24.000
860.60	14.286
860.90	100.000
861.20	-26.667
861.49	-250.000
861.79	6.667
862.08	35.000
862.38	73.333
862.67	-20.000
862.97	-100.000
863.26	-8.333
863.56	-5.556
863.85	-400.000
864.15	66.667
864.44	40.000
864.74	71.429
865.03	150.000
865.33	-220.000
865.62	100.000
865.92	-16.667
866.21	-166.667
866.51	-12.500
866.80	-90.909
867.10	-150.000
867.39	50.000
867.69	0.000
867.98	61.538
868.27	-66.667
868.57	66.667
868.86	72.222
869.16	-23.077
869.45	60.000
869.75	-400.000
870.04	0.000
870.33	-28.571
870.63	38.095
870.92	133.333
871.22	40.000
871.51	-700.000
871.80	100.000
872.10	233.333
>>>>>End Processed Spectral Data<<<<<
