SpectraSuite Data File
++++++++++++++++++++++++++++++++++++
Date: Fri May 15 20:08:56 PDT 2015
User: schluterlab
Dark Spectrum Present: Yes
Reference Spectrum Present: Yes
Number of Sampled Component Spectra: 1
Spectrometers: USB2E3373
Integration Time (usec): 3000 (USB2E3373)
Spectra Averaged: 3 (USB2E3373)
Boxcar Smoothing: 0 (USB2E3373)
Correct for Electrical Dark: No (USB2E3373)
Strobe/Lamp Enabled: No (USB2E3373)
Correct for Detector Non-linearity: No (USB2E3373)
Correct for Stray Light: No (USB2E3373)
Number of Pixels in Processed Spectrum: 2048
>>>>>Begin Processed Spectral Data<<<<<
178.53	0.000
178.91	0.000
179.29	87.500
179.67	-150.000
180.04	42.857
180.42	25.000
180.80	-700.000
181.18	-33.333
181.56	550.000
181.94	-600.000
182.31	200.000
182.69	20.000
183.07	-100.000
183.45	220.000
183.83	200.000
184.20	-18.182
184.58	55.556
184.96	-75.000
185.34	33.333
185.72	-400.000
186.09	107.692
186.47	-700.000
186.85	133.333
187.23	100.000
187.61	-0.000
187.98	33.333
188.36	0.000
188.74	33.333
189.12	58.824
189.49	38.889
189.87	0.000
190.25	114.286
190.63	500.000
191.00	-500.000
191.38	-21.053
191.76	350.000
192.14	175.000
192.51	300.000
192.89	11.111
193.27	14.286
193.65	33.333
194.02	36.364
194.40	-10.000
194.78	-50.000
195.15	0.000
195.53	0.000
195.91	175.000
196.29	-75.000
196.66	38.462
197.04	57.143
197.42	44.444
197.79	-400.000
198.17	-69.231
198.55	200.000
198.92	-400.000
199.30	-200.000
199.68	-40.000
200.05	-166.667
200.43	0.000
200.81	166.667
201.18	-33.333
201.56	800.000
201.94	300.000
202.31	-0.000
202.69	-260.000
203.07	50.000
203.44	800.000
203.82	0.000
204.19	92.857
204.57	-300.000
204.95	37.500
205.32	20.000
205.70	57.143
206.08	125.000
206.45	166.667
206.83	57.143
207.20	-14.286
207.58	-200.000
207.96	-66.667
208.33	-100.000
208.71	0.000
209.08	-250.000
209.46	-700.000
209.84	20.000
210.21	100.000
210.59	-71.429
210.96	50.000
211.34	-50.000
211.71	40.000
212.09	-57.143
212.46	-1100.000
212.84	0.000
213.22	80.000
213.59	500.000
213.97	115.385
214.34	36.364
214.72	-16.667
215.09	200.000
215.47	92.308
215.84	-36.364
216.22	-233.333
216.59	-137.500
216.97	150.000
217.34	0.000
217.72	20.000
218.09	112.500
218.47	137.500
218.84	-300.000
219.22	-11.111
219.59	-120.000
219.97	233.333
220.34	75.000
220.72	-14.286
221.09	-50.000
221.47	-350.000
221.84	150.000
222.22	-300.000
222.59	-9.091
222.97	83.333
223.34	-100.000
223.72	-14.286
224.09	61.905
224.46	39.286
224.84	166.667
225.21	40.000
225.59	20.000
225.96	200.000
226.34	-0.000
226.71	-100.000
227.08	33.333
227.46	12.500
227.83	-700.000
228.21	44.444
228.58	27.273
228.95	37.500
229.33	80.000
229.70	75.000
230.08	62.500
230.45	-171.429
230.82	85.714
231.20	13.333
231.57	128.571
231.95	0.000
232.32	-50.000
232.69	57.143
233.07	166.667
233.44	-100.000
233.81	-10.000
234.19	77.778
234.56	-11.765
234.93	150.000
235.31	-75.000
235.68	-160.000
236.05	0.000
236.43	-15.000
236.80	-17.647
237.17	28.125
237.55	-10.000
237.92	11.111
238.29	11.111
238.67	16.667
239.04	0.000
239.41	-12.195
239.79	-6.667
240.16	4.878
240.53	10.526
240.91	-23.913
241.28	12.698
241.65	10.714
242.02	10.959
242.40	-16.667
242.77	13.559
243.14	-7.576
243.51	6.250
243.89	25.287
244.26	3.448
244.63	5.952
245.00	10.309
245.38	6.186
245.75	-14.607
246.12	1.724
246.49	10.744
246.87	12.500
247.24	1.681
247.61	-4.386
247.98	-5.691
248.36	-1.250
248.73	1.974
249.10	-0.649
249.47	-0.633
249.84	-0.654
250.22	1.765
250.59	6.536
250.96	7.981
251.33	-1.744
251.70	-1.765
252.08	-0.508
252.45	0.000
252.82	0.503
253.19	2.304
253.56	-0.467
253.94	2.703
254.31	4.783
254.68	4.825
255.05	0.000
255.42	0.873
255.79	3.089
256.16	4.280
256.54	3.731
256.91	1.901
257.28	2.602
257.65	-0.375
258.02	1.064
258.39	1.347
258.76	1.465
259.14	6.312
259.51	3.560
259.88	3.436
260.25	2.288
260.62	1.389
260.99	-2.034
261.36	-4.452
261.73	-1.899
262.10	0.304
262.47	-0.307
262.85	3.135
263.22	0.000
263.59	4.050
263.96	3.727
264.33	3.939
264.70	2.083
265.07	-1.488
265.44	1.133
265.81	3.107
266.18	3.279
266.55	4.884
266.92	3.627
267.29	2.611
267.66	2.813
268.03	0.785
268.40	1.044
268.77	1.872
269.14	-0.240
269.51	1.285
269.88	0.499
270.25	-0.255
270.62	2.927
270.99	-2.558
271.36	0.000
271.73	4.460
272.10	3.163
272.47	3.783
272.84	1.238
273.21	3.248
273.58	2.410
273.95	4.119
274.32	1.848
274.69	-0.905
275.06	3.795
275.43	0.227
275.80	2.428
276.17	1.149
276.54	1.285
276.91	1.535
277.28	0.873
277.65	3.306
278.02	2.766
278.39	1.532
278.76	1.887
279.13	0.830
279.50	1.471
279.87	1.728
280.23	0.430
280.60	4.483
280.97	3.232
281.34	-0.577
281.71	1.027
282.08	1.022
282.45	2.153
282.82	1.158
283.19	1.161
283.56	2.505
283.92	0.190
284.29	-0.769
284.66	1.357
285.03	2.358
285.40	1.701
285.77	0.527
286.14	1.083
286.51	2.399
286.87	1.280
287.24	1.105
287.61	1.764
287.98	2.982
288.35	0.520
288.72	1.226
289.08	0.694
289.45	2.460
289.82	2.448
290.19	0.171
290.56	0.858
290.93	2.189
291.29	2.465
291.66	2.047
292.03	1.595
292.40	1.452
292.77	1.116
293.13	1.136
293.50	0.152
293.87	1.832
294.24	0.927
294.60	0.298
294.97	2.976
295.34	1.687
295.71	0.000
296.08	1.495
296.44	0.996
296.81	-0.417
297.18	1.884
297.55	3.388
297.91	1.644
298.28	3.034
298.65	1.493
299.02	-1.213
299.38	-1.231
299.75	2.621
300.12	0.916
300.48	0.000
300.85	1.394
301.22	1.169
301.59	0.395
301.95	2.278
302.32	3.243
302.69	0.871
303.05	1.609
303.42	0.249
303.79	1.636
304.15	1.673
304.52	-0.357
304.89	1.170
305.25	0.484
305.62	0.467
305.99	0.819
306.35	-0.116
306.72	1.912
307.09	1.938
307.45	3.215
307.82	0.694
308.19	1.858
308.55	0.872
308.92	3.377
309.29	0.559
309.65	0.538
310.02	0.990
310.38	2.305
310.75	2.404
311.12	1.722
311.48	1.697
311.85	1.990
312.22	1.688
312.58	2.335
312.95	0.854
313.31	1.760
313.68	0.838
314.05	1.939
314.41	2.371
314.78	1.856
315.14	3.289
315.51	2.381
315.87	2.357
316.24	3.539
316.61	3.445
316.97	3.968
317.34	3.418
317.70	3.346
318.07	2.981
318.43	3.627
318.80	3.693
319.16	4.102
319.53	5.223
319.89	3.839
320.26	5.364
320.62	4.814
320.99	3.445
321.35	5.242
321.72	6.542
322.08	5.035
322.45	5.888
322.81	6.090
323.18	6.084
323.54	6.950
323.91	7.790
324.27	7.422
324.64	9.082
325.00	9.763
325.37	10.101
325.73	10.245
326.10	10.445
326.46	12.466
326.83	13.123
327.19	12.816
327.56	13.553
327.92	15.053
328.29	14.464
328.65	14.434
329.01	15.809
329.38	16.313
329.74	14.920
330.11	18.814
330.47	16.976
330.84	17.404
331.20	19.962
331.56	18.981
331.93	20.457
332.29	19.982
332.66	20.090
333.02	20.353
333.38	20.440
333.75	22.253
334.11	20.412
334.48	22.212
334.84	22.344
335.20	23.605
335.57	23.119
335.93	23.577
336.29	24.033
336.66	23.070
337.02	24.071
337.38	24.630
337.75	24.273
338.11	23.986
338.47	25.182
338.84	24.677
339.20	24.497
339.56	25.413
339.93	25.425
340.29	27.248
340.65	25.627
341.02	25.532
341.38	24.956
341.74	25.795
342.11	24.783
342.47	26.423
342.83	26.038
343.20	24.652
343.56	26.957
343.92	26.395
344.28	26.558
344.65	26.770
345.01	26.016
345.37	25.315
345.73	26.611
346.10	27.092
346.46	25.988
346.82	26.023
347.19	24.771
347.55	26.232
347.91	25.243
348.27	25.627
348.63	26.150
349.00	25.021
349.36	24.771
349.72	26.451
350.08	26.148
350.45	25.539
350.81	25.000
351.17	26.547
351.53	26.449
351.89	26.177
352.26	27.840
352.62	26.694
352.98	26.667
353.34	26.892
353.70	28.236
354.07	26.935
354.43	26.261
354.79	28.076
355.15	28.413
355.51	26.978
355.87	27.104
356.24	25.938
356.60	26.677
356.96	27.540
357.32	26.997
357.68	27.052
358.04	26.414
358.40	28.135
358.77	26.954
359.13	26.261
359.49	27.350
359.85	27.847
360.21	27.512
360.57	27.161
360.93	27.685
361.29	26.737
361.66	27.743
362.02	28.485
362.38	27.951
362.74	28.539
363.10	28.141
363.46	28.762
363.82	27.799
364.18	27.159
364.54	27.794
364.90	27.814
365.26	27.729
365.62	29.781
365.98	29.106
366.35	30.371
366.71	28.234
367.07	28.810
367.43	27.678
367.79	27.915
368.15	27.566
368.51	28.332
368.87	27.566
369.23	28.231
369.59	28.644
369.95	29.032
370.31	28.685
370.67	29.403
371.03	29.126
371.39	29.395
371.75	28.791
372.11	29.601
372.47	29.068
372.83	30.021
373.19	29.886
373.55	28.087
373.91	29.518
374.27	28.632
374.63	28.500
374.99	29.858
375.35	30.153
375.71	30.210
376.07	30.969
376.42	30.272
376.78	29.799
377.14	30.535
377.50	31.142
377.86	30.120
378.22	30.951
378.58	30.705
378.94	29.553
379.30	30.193
379.66	31.787
380.02	31.208
380.38	30.128
380.74	30.162
381.09	32.086
381.45	30.214
381.81	31.154
382.17	30.964
382.53	31.168
382.89	31.513
383.25	31.301
383.61	32.500
383.97	31.683
384.32	30.269
384.68	31.950
385.04	31.250
385.40	30.554
385.76	31.698
386.12	31.695
386.48	32.631
386.83	31.642
387.19	31.624
387.55	32.246
387.91	31.968
388.27	31.136
388.62	31.970
388.98	31.799
389.34	32.167
389.70	33.002
390.06	30.837
390.42	32.383
390.77	32.112
391.13	32.156
391.49	32.794
391.85	32.814
392.20	31.827
392.56	32.168
392.92	31.239
393.28	32.429
393.64	31.892
393.99	33.041
394.35	31.942
394.71	32.439
395.07	32.118
395.42	31.512
395.78	33.160
396.14	32.661
396.50	32.086
396.85	31.487
397.21	32.206
397.57	32.602
397.92	31.756
398.28	31.264
398.64	30.783
399.00	32.280
399.35	30.643
399.71	31.361
400.07	31.439
400.42	32.252
400.78	31.966
401.14	31.881
401.49	31.983
401.85	32.846
402.21	32.229
402.57	32.938
402.92	31.556
403.28	32.707
403.63	32.472
403.99	32.143
404.35	32.355
404.70	31.071
405.06	31.257
405.42	31.697
405.77	31.087
406.13	31.898
406.49	30.847
406.84	31.724
407.20	31.306
407.55	30.844
407.91	31.283
408.27	31.549
408.62	30.892
408.98	30.746
409.34	31.475
409.69	31.072
410.05	31.034
410.40	30.679
410.76	31.062
411.11	31.687
411.47	31.755
411.83	30.760
412.18	30.566
412.54	30.961
412.89	30.172
413.25	31.769
413.60	31.615
413.96	31.166
414.31	31.341
414.67	31.238
415.03	31.558
415.38	30.875
415.74	31.205
416.09	32.071
416.45	32.073
416.80	31.593
417.16	32.735
417.51	31.379
417.87	32.138
418.22	32.448
418.58	32.910
418.93	32.727
419.29	31.178
419.64	32.988
420.00	33.312
420.35	32.000
420.71	33.232
421.06	32.658
421.42	33.474
421.77	31.214
422.12	32.633
422.48	33.568
422.83	32.715
423.19	33.239
423.54	32.216
423.90	33.039
424.25	33.639
424.61	34.088
424.96	32.811
425.31	34.951
425.67	33.979
426.02	33.863
426.38	34.064
426.73	34.867
427.09	35.127
427.44	34.059
427.79	34.590
428.15	35.012
428.50	35.130
428.85	34.029
429.21	35.427
429.56	34.987
429.92	34.258
430.27	34.286
430.62	34.710
430.98	34.926
431.33	34.753
431.68	34.642
432.04	34.712
432.39	34.626
432.74	33.975
433.10	35.460
433.45	34.349
433.80	35.461
434.16	34.626
434.51	36.129
434.86	35.598
435.22	34.773
435.57	35.371
435.92	36.347
436.28	34.287
436.63	35.653
436.98	35.226
437.34	35.148
437.69	36.911
438.04	34.986
438.39	36.103
438.75	36.551
439.10	36.220
439.45	36.823
439.81	35.902
440.16	36.936
440.51	36.716
440.86	37.583
441.22	36.821
441.57	36.921
441.92	38.195
442.27	37.583
442.63	37.152
442.98	38.713
443.33	37.006
443.68	36.658
444.03	37.407
444.39	37.531
444.74	38.239
445.09	38.140
445.44	38.291
445.79	38.938
446.15	37.225
446.50	37.382
446.85	37.885
447.20	37.852
447.55	37.946
447.91	38.240
448.26	39.328
448.61	38.054
448.96	38.382
449.31	38.439
449.66	37.456
450.02	39.076
450.37	38.767
450.72	38.316
451.07	39.747
451.42	38.327
451.77	39.120
452.12	37.799
452.47	37.927
452.83	38.634
453.18	38.899
453.53	38.559
453.88	39.101
454.23	38.783
454.58	39.987
454.93	38.918
455.28	38.286
455.63	39.058
455.98	38.845
456.34	39.080
456.69	38.755
457.04	39.635
457.39	39.186
457.74	37.908
458.09	38.140
458.44	39.321
458.79	38.936
459.14	38.272
459.49	38.746
459.84	39.763
460.19	38.592
460.54	39.670
460.89	38.920
461.24	39.752
461.59	39.608
461.94	38.176
462.29	39.747
462.64	40.864
462.99	38.592
463.34	39.777
463.69	38.932
464.04	38.499
464.39	39.478
464.74	38.834
465.09	39.863
465.44	39.700
465.79	38.719
466.14	39.225
466.49	39.390
466.84	39.679
467.19	40.175
467.54	39.527
467.89	40.430
468.24	40.876
468.59	39.873
468.94	39.556
469.29	40.918
469.64	39.918
469.99	41.976
470.34	39.044
470.68	40.716
471.03	40.198
471.38	38.873
471.73	40.336
472.08	40.299
472.43	40.604
472.78	39.068
473.13	41.020
473.48	40.521
473.83	40.286
474.17	41.580
474.52	40.842
474.87	40.303
475.22	41.611
475.57	40.486
475.92	41.196
476.27	41.036
476.61	41.262
476.96	40.379
477.31	41.157
477.66	40.393
478.01	41.662
478.36	41.176
478.70	41.871
479.05	41.703
479.40	41.335
479.75	40.928
480.10	40.707
480.45	41.950
480.79	40.836
481.14	40.727
481.49	40.443
481.84	41.844
482.19	40.645
482.53	40.815
482.88	41.527
483.23	40.211
483.58	41.274
483.92	40.900
484.27	40.018
484.62	41.282
484.97	40.174
485.31	40.462
485.66	40.005
486.01	40.640
486.36	40.611
486.70	40.793
487.05	41.144
487.40	39.995
487.75	40.394
488.09	39.988
488.44	40.303
488.79	40.082
489.13	40.745
489.48	41.086
489.83	40.493
490.17	40.854
490.52	41.478
490.87	41.323
491.22	42.025
491.56	41.082
491.91	39.962
492.26	41.808
492.60	40.739
492.95	42.941
493.30	41.426
493.64	41.012
493.99	42.126
494.34	40.777
494.68	41.619
495.03	40.925
495.37	41.119
495.72	42.453
496.07	42.634
496.41	41.792
496.76	41.962
497.11	41.872
497.45	41.575
497.80	41.826
498.14	41.182
498.49	42.001
498.84	41.816
499.18	42.169
499.53	42.956
499.87	41.780
500.22	42.384
500.56	42.511
500.91	41.817
501.26	41.869
501.60	41.810
501.95	42.310
502.29	42.857
502.64	42.471
502.98	43.167
503.33	42.027
503.67	43.036
504.02	43.060
504.36	41.860
504.71	43.232
505.06	41.872
505.40	41.878
505.75	43.196
506.09	42.119
506.44	43.480
506.78	43.061
507.13	44.209
507.47	43.655
507.82	43.002
508.16	44.374
508.51	43.914
508.85	43.642
509.19	44.385
509.54	44.075
509.88	43.312
510.23	44.540
510.57	43.613
510.92	43.603
511.26	43.863
511.61	44.939
511.95	44.877
512.30	45.233
512.64	43.517
512.98	43.964
513.33	44.992
513.67	44.741
514.02	45.881
514.36	46.057
514.70	46.037
515.05	47.239
515.39	45.809
515.74	46.826
516.08	46.742
516.42	46.820
516.77	45.758
517.11	46.409
517.46	46.978
517.80	46.365
518.14	45.744
518.49	46.274
518.83	46.476
519.17	46.028
519.52	46.300
519.86	46.759
520.20	47.205
520.55	46.529
520.89	46.110
521.23	47.435
521.58	48.265
521.92	47.244
522.26	47.300
522.61	46.429
522.95	49.272
523.29	47.903
523.64	47.903
523.98	48.412
524.32	47.165
524.66	48.335
525.01	49.156
525.35	49.579
525.69	49.495
526.04	48.280
526.38	49.222
526.72	48.005
527.06	48.184
527.41	49.142
527.75	48.324
528.09	48.638
528.43	49.696
528.78	48.581
529.12	48.000
529.46	48.603
529.80	49.335
530.15	51.155
530.49	50.572
530.83	49.726
531.17	49.832
531.51	50.342
531.86	48.946
532.20	49.269
532.54	49.762
532.88	50.719
533.22	49.731
533.57	48.820
533.91	49.869
534.25	52.279
534.59	50.289
534.93	48.836
535.27	48.921
535.62	49.644
535.96	49.902
536.30	50.462
536.64	50.448
536.98	50.941
537.32	52.063
537.66	51.122
538.01	50.420
538.35	50.902
538.69	50.333
539.03	50.308
539.37	50.740
539.71	50.102
540.05	49.559
540.39	51.662
540.73	51.813
541.07	51.588
541.42	51.344
541.76	53.407
542.10	50.723
542.44	51.911
542.78	51.067
543.12	51.099
543.46	51.252
543.80	51.770
544.14	50.868
544.48	50.899
544.82	50.991
545.16	52.254
545.50	51.936
545.84	51.346
546.18	50.780
546.52	52.271
546.86	51.402
547.20	52.718
547.54	50.954
547.88	52.106
548.22	51.742
548.56	51.451
548.90	52.089
549.24	51.240
549.58	52.327
549.92	50.536
550.26	52.161
550.60	53.457
550.94	52.203
551.28	51.546
551.62	52.538
551.96	53.008
552.30	53.070
552.64	52.327
552.98	53.305
553.32	50.927
553.66	52.540
554.00	52.993
554.34	52.954
554.68	51.991
555.02	51.860
555.36	52.132
555.69	53.260
556.03	52.034
556.37	52.527
556.71	52.491
557.05	53.169
557.39	52.045
557.73	53.448
558.07	52.489
558.41	53.063
558.75	53.624
559.08	52.876
559.42	52.857
559.76	54.043
560.10	52.523
560.44	52.718
560.78	52.168
561.12	52.680
561.45	52.916
561.79	52.591
562.13	53.513
562.47	52.590
562.81	53.458
563.15	53.315
563.48	51.627
563.82	52.848
564.16	54.039
564.50	53.378
564.84	54.016
565.17	52.582
565.51	54.918
565.85	54.801
566.19	52.851
566.52	54.223
566.86	54.499
567.20	52.740
567.54	53.406
567.88	54.599
568.21	54.242
568.55	52.609
568.89	53.080
569.23	53.202
569.56	52.846
569.90	53.471
570.24	52.252
570.57	52.327
570.91	52.527
571.25	51.628
571.59	51.168
571.92	50.993
572.26	51.087
572.60	51.101
572.93	51.585
573.27	51.505
573.61	51.879
573.95	51.447
574.28	51.457
574.62	51.004
574.96	50.561
575.29	51.060
575.63	49.780
575.97	51.017
576.30	51.110
576.64	51.046
576.98	52.432
577.31	51.831
577.65	51.950
577.98	51.881
578.32	51.137
578.66	50.613
578.99	50.608
579.33	50.512
579.67	50.492
580.00	50.709
580.34	51.269
580.67	51.657
581.01	51.441
581.35	51.378
581.68	50.974
582.02	51.055
582.35	51.161
582.69	51.500
583.02	51.848
583.36	51.952
583.70	52.362
584.03	52.071
584.37	52.174
584.70	51.923
585.04	51.451
585.37	50.934
585.71	51.839
586.04	51.715
586.38	51.347
586.72	52.712
587.05	53.004
587.39	53.453
587.72	53.390
588.06	51.951
588.39	52.578
588.73	52.442
589.06	52.740
589.40	52.679
589.73	53.122
590.07	53.625
590.40	52.748
590.73	54.901
591.07	52.969
591.40	52.760
591.74	53.348
592.07	53.618
592.41	53.666
592.74	53.883
593.08	52.462
593.41	53.773
593.75	53.451
594.08	52.695
594.41	53.239
594.75	53.244
595.08	52.667
595.42	53.773
595.75	54.225
596.09	54.496
596.42	52.749
596.75	54.529
597.09	53.394
597.42	53.071
597.75	54.650
598.09	52.331
598.42	53.249
598.76	53.153
599.09	52.644
599.42	52.065
599.76	52.596
600.09	53.281
600.42	52.843
600.76	52.972
601.09	52.137
601.42	52.879
601.76	52.799
602.09	53.094
602.42	54.044
602.76	53.565
603.09	53.488
603.42	55.268
603.76	52.823
604.09	53.179
604.42	53.384
604.76	54.161
605.09	54.799
605.42	53.725
605.75	53.459
606.09	53.843
606.42	52.711
606.75	54.026
607.09	52.791
607.42	52.946
607.75	53.419
608.08	53.369
608.42	52.855
608.75	54.988
609.08	54.659
609.41	53.756
609.75	53.327
610.08	53.919
610.41	52.754
610.74	54.071
611.07	55.401
611.41	55.163
611.74	55.704
612.07	54.497
612.40	54.759
612.73	55.819
613.07	54.218
613.40	54.322
613.73	54.561
614.06	55.259
614.39	54.146
614.72	54.286
615.06	54.804
615.39	52.948
615.72	54.844
616.05	54.916
616.38	53.219
616.71	55.657
617.05	55.590
617.38	55.625
617.71	56.101
618.04	56.508
618.37	57.566
618.70	56.700
619.03	57.083
619.36	56.151
619.69	56.937
620.03	57.633
620.36	55.722
620.69	55.889
621.02	55.734
621.35	57.261
621.68	57.568
622.01	57.917
622.34	55.467
622.67	56.861
623.00	56.126
623.33	55.335
623.66	56.171
623.99	56.127
624.32	56.654
624.65	56.090
624.99	56.509
625.32	56.785
625.65	57.266
625.98	56.003
626.31	55.943
626.64	57.279
626.97	56.283
627.30	56.567
627.63	57.019
627.96	59.119
628.29	56.892
628.62	57.227
628.95	57.114
629.28	58.165
629.61	59.322
629.94	56.403
630.26	57.510
630.59	59.521
630.92	57.333
631.25	55.077
631.58	59.361
631.91	58.114
632.24	58.830
632.57	57.159
632.90	60.142
633.23	59.176
633.56	61.209
633.89	59.063
634.22	60.000
634.55	60.102
634.88	60.281
635.20	59.231
635.53	59.333
635.86	58.648
636.19	59.508
636.52	58.036
636.85	57.320
637.18	58.742
637.51	58.994
637.83	55.059
638.16	60.164
638.49	58.038
638.82	59.474
639.15	60.244
639.48	60.798
639.81	59.135
640.13	60.750
640.46	60.058
640.79	60.677
641.12	60.561
641.45	59.459
641.77	59.556
642.10	63.349
642.43	61.736
642.76	61.056
643.09	58.805
643.41	59.061
643.74	60.461
644.07	58.292
644.40	59.459
644.73	61.646
645.05	59.060
645.38	60.317
645.71	60.816
646.04	62.118
646.36	60.461
646.69	62.410
647.02	60.870
647.35	60.261
647.67	60.512
648.00	62.313
648.33	60.922
648.66	62.542
648.98	59.296
649.31	59.835
649.64	57.614
649.96	56.078
650.29	61.158
650.62	60.171
650.94	61.852
651.27	62.011
651.60	58.018
651.92	61.538
652.25	58.615
652.58	60.333
652.90	62.093
653.23	59.664
653.56	57.699
653.88	60.309
654.21	58.319
654.54	56.876
654.86	60.272
655.19	58.333
655.52	57.895
655.84	53.980
656.17	59.891
656.49	80.559
656.82	83.118
657.15	63.355
657.47	47.364
657.80	35.140
658.13	34.706
658.45	53.412
658.78	52.880
659.10	53.199
659.43	52.803
659.75	53.774
660.08	54.621
660.41	56.691
660.73	57.597
661.06	59.619
661.38	57.534
661.71	57.290
662.03	64.378
662.36	59.780
662.68	59.292
663.01	64.410
663.33	62.645
663.66	61.860
663.98	61.860
664.31	60.768
664.63	63.594
664.96	56.304
665.28	58.720
665.61	60.173
665.93	59.130
666.26	59.436
666.58	58.389
666.91	59.059
667.23	60.613
667.56	61.848
667.88	58.753
668.21	61.814
668.53	61.939
668.86	61.557
669.18	57.311
669.50	62.228
669.83	61.628
670.15	61.305
670.48	59.330
670.80	58.756
671.13	59.732
671.45	59.589
671.77	59.871
672.10	58.020
672.42	57.303
672.75	58.437
673.07	59.034
673.39	59.266
673.72	57.988
674.04	61.250
674.37	59.110
674.69	60.171
675.01	60.222
675.34	63.288
675.66	63.194
675.98	62.749
676.31	59.404
676.63	61.283
676.95	59.091
677.28	60.706
677.60	60.723
677.92	61.009
678.25	62.144
678.57	59.307
678.89	57.563
679.22	59.508
679.54	58.434
679.86	56.262
680.18	58.252
680.51	58.712
680.83	57.853
681.15	58.400
681.48	59.836
681.80	59.917
682.12	57.863
682.44	57.531
682.77	60.265
683.09	57.895
683.41	59.545
683.73	59.908
684.06	56.416
684.38	55.699
684.70	59.259
685.02	56.639
685.34	55.336
685.67	57.598
685.99	59.855
686.31	57.699
686.63	56.957
686.96	58.365
687.28	54.747
687.60	55.323
687.92	60.202
688.24	58.871
688.56	57.642
688.89	59.598
689.21	56.000
689.53	61.021
689.85	57.674
690.17	56.473
690.49	58.865
690.82	56.068
691.14	59.286
691.46	57.477
691.78	56.757
692.10	59.355
692.42	54.113
692.74	54.915
693.06	55.180
693.39	58.371
693.71	59.729
694.03	54.734
694.35	59.112
694.67	57.828
694.99	59.008
695.31	58.486
695.63	57.750
695.95	56.818
696.27	56.218
696.59	63.889
696.91	57.983
697.23	57.069
697.56	56.683
697.88	60.430
698.20	58.314
698.52	58.353
698.84	54.067
699.16	55.500
699.48	54.637
699.80	55.583
700.12	56.873
700.44	55.742
700.76	57.267
701.08	56.970
701.40	56.325
701.72	60.494
702.04	62.046
702.36	63.545
702.68	57.958
703.00	58.182
703.32	56.891
703.64	55.650
703.96	60.000
704.28	58.896
704.60	54.921
704.91	56.782
705.23	60.465
705.55	64.311
705.87	61.011
706.19	63.333
706.51	58.419
706.83	61.736
707.15	53.583
707.47	59.104
707.79	54.688
708.11	57.250
708.43	55.000
708.74	55.814
709.06	60.845
709.38	56.881
709.70	56.509
710.02	57.643
710.34	56.966
710.66	54.167
710.98	56.954
711.29	57.705
711.61	58.983
711.93	57.655
712.25	65.979
712.57	59.707
712.89	59.328
713.20	59.862
713.52	57.143
713.84	57.338
714.16	56.014
714.48	57.419
714.80	60.256
715.11	57.143
715.43	54.859
715.75	57.000
716.07	57.475
716.39	55.369
716.70	56.458
717.02	54.580
717.34	59.109
717.66	62.389
717.97	62.174
718.29	58.996
718.61	58.661
718.93	56.589
719.24	59.696
719.56	55.823
719.88	56.357
720.20	56.818
720.51	59.770
720.83	54.826
721.15	61.345
721.46	54.435
721.78	56.126
722.10	51.673
722.42	55.602
722.73	53.878
723.05	58.776
723.37	62.712
723.68	57.658
724.00	58.120
724.32	60.889
724.63	59.091
724.95	55.895
725.27	57.604
725.58	55.085
725.90	53.175
726.22	55.985
726.53	51.525
726.85	57.678
727.16	63.774
727.48	57.490
727.80	55.466
728.11	56.356
728.43	50.196
728.74	53.629
729.06	53.600
729.38	59.774
729.69	55.378
730.01	48.846
730.32	56.343
730.64	52.297
730.96	60.755
731.27	54.333
731.59	54.915
731.90	56.688
732.22	55.205
732.53	60.133
732.85	54.610
733.16	54.882
733.48	52.518
733.80	54.348
734.11	56.610
734.43	56.014
734.74	55.152
735.06	53.746
735.37	55.287
735.69	55.219
736.00	51.568
736.32	53.356
736.63	55.282
736.95	53.584
737.26	51.246
737.58	53.691
737.89	50.183
738.21	56.391
738.52	59.671
738.83	58.515
739.15	56.332
739.46	59.843
739.78	53.846
740.09	52.614
740.41	51.812
740.72	51.181
741.04	57.085
741.35	57.021
741.66	58.294
741.98	47.959
742.29	57.426
742.61	63.351
742.92	49.763
743.23	53.704
743.55	52.941
743.86	52.632
744.18	54.067
744.49	54.787
744.80	54.891
745.12	62.567
745.43	50.244
745.74	60.417
746.06	55.122
746.37	52.880
746.68	57.346
747.00	52.128
747.31	58.209
747.62	51.942
747.94	61.244
748.25	55.446
748.56	57.923
748.88	54.450
749.19	56.915
749.50	56.158
749.82	49.528
750.13	53.670
750.44	54.511
750.75	56.343
751.07	58.394
751.38	55.556
751.69	52.941
752.01	53.876
752.32	52.988
752.63	55.731
752.94	50.431
753.26	56.067
753.57	52.941
753.88	56.195
754.19	47.083
754.51	52.066
754.82	51.822
755.13	55.000
755.44	60.484
755.75	50.391
756.07	49.027
756.38	52.075
756.69	53.257
757.00	51.333
757.31	50.000
757.63	50.305
757.94	48.611
758.25	50.411
758.56	46.011
758.87	48.159
759.18	49.533
759.50	48.727
759.81	53.512
760.12	53.548
760.43	51.818
760.74	53.704
761.05	52.615
761.36	48.011
761.67	53.030
761.99	55.782
762.30	49.818
762.61	45.850
762.92	49.774
763.23	47.748
763.54	48.131
763.85	55.932
764.16	49.378
764.47	48.387
764.78	49.817
765.10	52.189
765.41	54.890
765.72	50.794
766.03	48.120
766.34	51.460
766.65	54.183
766.96	55.051
767.27	52.128
767.58	48.276
767.89	48.936
768.20	45.455
768.51	51.099
768.82	52.709
769.13	51.613
769.44	48.927
769.75	49.315
770.06	45.259
770.37	49.519
770.68	56.345
770.99	47.964
771.30	52.451
771.61	49.321
771.92	58.621
772.23	55.665
772.54	48.925
772.85	51.235
773.16	44.944
773.47	59.477
773.78	49.020
774.09	42.515
774.39	48.667
774.70	49.045
775.01	48.966
775.32	49.286
775.63	50.413
775.94	41.221
776.25	53.543
776.56	55.000
776.87	50.962
777.18	53.846
777.48	56.897
777.79	50.435
778.10	40.000
778.41	60.360
778.72	57.937
779.03	53.383
779.34	47.518
779.65	50.685
779.95	45.205
780.26	53.103
780.57	43.902
780.88	50.394
781.19	50.862
781.50	55.814
781.80	42.604
782.11	47.170
782.42	50.000
782.73	51.079
783.04	51.111
783.34	47.917
783.65	44.444
783.96	48.361
784.27	55.172
784.57	44.715
784.88	49.219
785.19	51.000
785.50	69.000
785.81	45.690
786.11	47.414
786.42	58.252
786.73	53.636
787.04	48.980
787.34	48.214
787.65	46.667
787.96	45.133
788.26	52.727
788.57	48.718
788.88	58.594
789.19	46.032
789.49	43.478
789.80	39.796
790.11	46.465
790.41	48.182
790.72	40.217
791.03	45.455
791.33	53.750
791.64	55.000
791.95	41.860
792.25	50.000
792.56	58.427
792.87	42.466
793.17	53.623
793.48	44.000
793.79	42.500
794.09	46.250
794.40	36.792
794.70	45.631
795.01	41.463
795.32	40.171
795.62	50.476
795.93	56.863
796.23	48.113
796.54	45.833
796.85	63.235
797.15	35.211
797.46	41.667
797.76	69.697
798.07	44.186
798.37	46.053
798.68	46.970
798.99	48.148
799.29	52.857
799.60	36.232
799.90	56.000
800.21	50.820
800.51	53.846
800.82	35.593
801.12	57.971
801.43	59.016
801.73	47.619
802.04	42.000
802.34	35.821
802.65	48.077
802.95	48.214
803.26	9.615
803.56	60.784
803.87	36.957
804.17	33.333
804.48	52.381
804.78	42.593
805.09	73.913
805.39	53.333
805.70	42.593
806.00	14.035
806.30	32.394
806.61	40.000
806.91	30.556
807.22	50.000
807.52	50.667
807.83	63.636
808.13	45.833
808.43	57.353
808.74	28.358
809.04	25.424
809.35	32.692
809.65	45.313
809.95	8.108
810.26	47.727
810.56	38.356
810.86	42.857
811.17	40.000
811.47	59.184
811.77	42.105
812.08	40.909
812.38	56.604
812.69	47.500
812.99	48.485
813.29	28.947
813.59	31.429
813.90	38.636
814.20	43.590
814.50	51.923
814.81	54.717
815.11	27.660
815.41	45.763
815.72	26.190
816.02	31.373
816.32	25.000
816.62	46.341
816.93	29.730
817.23	48.571
817.53	58.333
817.84	23.913
818.14	59.615
818.44	21.053
818.74	54.348
819.04	17.500
819.35	21.622
819.65	35.294
819.95	13.889
820.25	50.000
820.56	45.000
820.86	10.345
821.16	60.000
821.46	46.809
821.76	60.000
822.07	46.512
822.37	-5.405
822.67	0.000
822.97	57.143
823.27	7.143
823.57	20.000
823.88	37.037
824.18	25.000
824.48	20.588
824.78	41.935
825.08	26.087
825.38	51.515
825.69	0.000
825.99	52.632
826.29	30.556
826.59	53.333
826.89	47.619
827.19	50.000
827.49	32.500
827.79	34.286
828.09	46.429
828.39	30.303
828.70	67.568
829.00	28.571
829.30	28.571
829.60	53.333
829.90	56.250
830.20	5.263
830.50	29.630
830.80	47.826
831.10	90.909
831.40	81.818
831.70	67.742
832.00	57.143
832.30	9.524
832.60	83.333
832.90	41.379
833.20	15.000
833.50	27.273
833.80	25.926
834.10	7.692
834.40	53.125
834.70	-88.889
835.00	42.105
835.30	84.615
835.60	73.333
835.90	67.742
836.20	63.636
836.50	64.286
836.80	23.077
837.10	39.286
837.40	66.667
837.70	45.455
838.00	-18.182
838.30	17.391
838.60	38.462
838.90	59.091
839.19	42.857
839.49	43.333
839.79	92.308
840.09	58.333
840.39	67.857
840.69	0.000
840.99	-11.538
841.29	-52.632
841.59	10.000
841.88	36.364
842.18	40.000
842.48	12.500
842.78	33.333
843.08	44.444
843.38	0.000
843.68	-13.043
843.97	73.333
844.27	13.333
844.57	40.000
844.87	77.778
845.17	28.571
845.47	33.333
845.76	47.619
846.06	35.294
846.36	-40.000
846.66	64.286
846.96	73.333
847.25	-125.000
847.55	21.429
847.85	25.000
848.15	-45.455
848.44	-33.333
848.74	-10.000
849.04	37.037
849.34	72.727
849.63	33.333
849.93	40.000
850.23	27.778
850.53	60.000
850.82	-23.077
851.12	-88.889
851.42	40.000
851.71	-3.846
852.01	35.714
852.31	50.000
852.61	0.000
852.90	-15.000
853.20	21.053
853.50	8.333
853.79	8.696
854.09	75.000
854.39	78.947
854.68	37.500
854.98	29.032
855.28	76.923
855.57	20.000
855.87	16.667
856.17	18.519
856.46	14.286
856.76	66.667
857.05	77.778
857.35	32.000
857.65	83.333
857.94	-61.538
858.24	48.276
858.53	72.222
858.83	18.519
859.13	18.182
859.42	69.565
859.72	50.000
860.01	-166.667
860.31	44.000
860.60	76.190
860.90	-133.333
861.20	40.000
861.49	250.000
861.79	6.667
862.08	-5.000
862.38	126.667
862.67	-120.000
862.97	-83.333
863.26	50.000
863.56	33.333
863.85	-466.667
864.15	33.333
864.44	40.000
864.74	7.143
865.03	200.000
865.33	-80.000
865.62	33.333
865.92	75.000
866.21	-116.667
866.51	-6.250
866.80	-9.091
867.10	-50.000
867.39	133.333
867.69	0.000
867.98	46.154
868.27	-233.333
868.57	40.000
868.86	55.556
869.16	7.692
869.45	53.333
869.75	-1200.000
870.04	0.000
870.33	-128.571
870.63	52.381
870.92	233.333
871.22	-80.000
871.51	500.000
871.80	122.222
872.10	100.000
>>>>>End Processed Spectral Data<<<<<
